2.003999999999999915e+01,1.052145989340970422e-02
2.007999999999999829e+01,6.374797937380621339e-05
2.012000000000000099e+01,7.320113906348482864e-03
2.016000000000000014e+01,2.258119864954075129e-02
2.019999999999999929e+01,7.676622831980895768e-03
2.023999999999999844e+01,9.819068133231214496e-03
2.028000000000000114e+01,1.047922390894407384e-02
2.032000000000000028e+01,4.172413842853391064e-03
2.035999999999999943e+01,6.821131617880850243e-04
2.039999999999999858e+01,1.327530739609883957e-02
2.044000000000000128e+01,4.078086130817524212e-03
2.048000000000000043e+01,8.889076008435303766e-03
2.051999999999999957e+01,8.215442258098644771e-03
2.055999999999999872e+01,5.170108461594947677e-03
2.060000000000000142e+01,3.533053365215702273e-03
2.064000000000000057e+01,5.750145386244255238e-03
2.067999999999999972e+01,1.360019777745960674e-02
2.071999999999999886e+01,7.516258527507669110e-03
2.076000000000000156e+01,3.137064862754082757e-03
2.080000000000000071e+01,7.133167909008370465e-03
2.083999999999999986e+01,1.864663907928413135e-03
2.087999999999999901e+01,6.305565908400707908e-03
2.092000000000000171e+01,1.608295620166581841e-02
2.096000000000000085e+01,1.170400001687023871e-02
2.100000000000000000e+01,7.843910453873413624e-03
2.103999999999999915e+01,1.391557653700209105e-02
2.107999999999999829e+01,6.868535951380485075e-03
2.112000000000000099e+01,1.108736030242862651e-02
2.116000000000000014e+01,8.265090667300347901e-03
2.119999999999999929e+01,4.553457488302023286e-03
2.123999999999999844e+01,3.954791233226536210e-03
2.128000000000000114e+01,8.989077559857590674e-03
2.132000000000000028e+01,9.131667797897605188e-03
2.135999999999999943e+01,9.348416541645494099e-03
2.139999999999999858e+01,1.282636461338908414e-02
2.144000000000000128e+01,6.965580608817816335e-03
2.148000000000000043e+01,1.400123615883829518e-02
2.151999999999999957e+01,8.511117252560077354e-03
2.155999999999999872e+01,8.802181774365210043e-03
2.160000000000000142e+01,1.242856026850642018e-02
2.164000000000000057e+01,1.768555568424113808e-02
2.167999999999999972e+01,1.938496066730490200e-02
2.171999999999999886e+01,1.700795401496253689e-02
2.176000000000000156e+01,1.715096961252314534e-02
2.180000000000000071e+01,1.306933805521258950e-02
2.183999999999999986e+01,1.084067254483679979e-02
2.187999999999999901e+01,8.982627752154534809e-03
2.192000000000000171e+01,1.809396854949983993e-02
2.196000000000000085e+01,3.561943103924883596e-03
2.200000000000000000e+01,8.671019348467545046e-03
2.203999999999999915e+01,1.081543841125486016e-02
2.207999999999999829e+01,1.066225493755895357e-02
2.212000000000000099e+01,1.265850283817552581e-02
2.216000000000000014e+01,1.146774027783933891e-02
2.219999999999999929e+01,7.312318458819693986e-03
2.223999999999999844e+01,1.316275394946548986e-02
2.228000000000000114e+01,1.167561195343658903e-02
2.232000000000000028e+01,1.485788491257579620e-02
2.235999999999999943e+01,2.130134473814235610e-02
2.239999999999999858e+01,1.907311519032982988e-02
2.244000000000000128e+01,1.795667149596717402e-02
2.248000000000000043e+01,1.543202695880669176e-02
2.251999999999999957e+01,8.163905237095597442e-03
2.255999999999999872e+01,1.297691940520669454e-02
2.260000000000000142e+01,5.708848540757387527e-03
2.264000000000000057e+01,7.112519464645036295e-03
2.267999999999999972e+01,1.400089031611776239e-02
2.271999999999999886e+01,1.458931933637000466e-02
2.276000000000000156e+01,9.841330132675832690e-03
2.280000000000000071e+01,1.065215653937117389e-02
2.283999999999999986e+01,7.979494696167592493e-03
2.287999999999999901e+01,1.360798532340653025e-02
2.292000000000000171e+01,1.390005564977097284e-02
2.296000000000000085e+01,8.633353434527500647e-03
2.300000000000000000e+01,8.184291828508794345e-03
2.303999999999999915e+01,7.957601401454218737e-03
2.307999999999999829e+01,5.210943735614618696e-03
2.312000000000000099e+01,9.134856133815249038e-03
2.316000000000000014e+01,1.617171053280202359e-02
2.319999999999999929e+01,8.162782490729682955e-03
2.323999999999999844e+01,1.386556080254537290e-02
2.328000000000000114e+01,1.082252107737717052e-02
2.332000000000000028e+01,9.113607504055975042e-03
2.335999999999999943e+01,7.627060955842652167e-03
2.339999999999999858e+01,9.179336052522885092e-03
2.344000000000000128e+01,1.102809437634755425e-02
2.348000000000000043e+01,2.199328702763957491e-02
2.351999999999999957e+01,2.443501024805699515e-02
2.355999999999999872e+01,2.205912554339081733e-02
2.360000000000000142e+01,1.990560474844060498e-02
2.364000000000000057e+01,1.612151633146262017e-02
2.367999999999999972e+01,1.604330108925824602e-02
2.371999999999999886e+01,1.981919298359636344e-02
2.376000000000000156e+01,9.735171015634496230e-03
2.380000000000000071e+01,1.899575841034755949e-02
2.383999999999999986e+01,1.476701710679901962e-02
2.387999999999999901e+01,9.055939546831511325e-03
2.392000000000000171e+01,1.120129751427139525e-02
2.396000000000000085e+01,1.245725611083208471e-02
2.400000000000000000e+01,7.635607982249211639e-03
2.403999999999999915e+01,1.452449032940164933e-02
2.407999999999999829e+01,1.237107529292801565e-02
2.412000000000000099e+01,1.533175528918453642e-02
2.416000000000000014e+01,2.177595050792903789e-02
2.419999999999999929e+01,1.673197784883613537e-02
2.423999999999999844e+01,1.472681593076442808e-02
2.428000000000000114e+01,4.568760918912086882e-03
2.432000000000000028e+01,1.286590163371302900e-02
2.435999999999999943e+01,2.368303084833583982e-02
2.439999999999999858e+01,5.372086349851214714e-03
2.444000000000000128e+01,1.077866009585661325e-02
2.448000000000000043e+01,1.284995878445133882e-02
2.451999999999999957e+01,1.292009222541169906e-02
2.455999999999999872e+01,1.061847369700339577e-02
2.460000000000000142e+01,5.796868198993429533e-03
2.464000000000000057e+01,9.202275084716849199e-03
2.467999999999999972e+01,1.001357672187412617e-02
2.471999999999999886e+01,1.764366213479197712e-02
2.476000000000000156e+01,1.578673789413664874e-02
2.480000000000000071e+01,1.118747236621822280e-02
2.483999999999999986e+01,5.847030525317186041e-03
2.487999999999999901e+01,1.540414959779898459e-02
2.492000000000000171e+01,1.288015352226343918e-02
2.496000000000000085e+01,6.502055475029738275e-03
2.500000000000000000e+01,1.124153751795933798e-02
2.503999999999999915e+01,1.094104070271936270e-02
2.507999999999999829e+01,2.183224017967911809e-02
2.512000000000000099e+01,1.701057712793868290e-02
2.516000000000000014e+01,1.530183011538358354e-02
2.519999999999999929e+01,1.611306069877799230e-02
2.523999999999999844e+01,1.284783395434881820e-02
2.528000000000000114e+01,1.617903199493052682e-02
2.532000000000000028e+01,1.691611647923394260e-02
2.535999999999999943e+01,8.610886964486679646e-03
2.539999999999999858e+01,1.512909437260562956e-02
2.544000000000000128e+01,7.490897148677993361e-03
2.548000000000000043e+01,1.052557034112669605e-02
2.551999999999999957e+01,2.475193411422285314e-02
2.555999999999999872e+01,1.696546420452746048e-02
2.560000000000000142e+01,1.392248391347527744e-02
2.564000000000000057e+01,1.125007553230706302e-02
2.567999999999999972e+01,1.532232122483058803e-02
2.571999999999999886e+01,1.672633092825508497e-02
2.576000000000000156e+01,6.938621465795390825e-03
2.580000000000000071e+01,1.190022649338127320e-02
2.583999999999999986e+01,1.500888361967713316e-02
2.587999999999999901e+01,1.085403376891730734e-02
2.592000000000000171e+01,6.995634952916832822e-03
2.596000000000000085e+01,1.210540379099781655e-02
2.600000000000000000e+01,1.224929854984133613e-02
2.603999999999999915e+01,1.409787035525701150e-02
2.607999999999999829e+01,1.705818076400908087e-02
2.612000000000000099e+01,1.475614657382575377e-02
2.616000000000000014e+01,1.393643615101716922e-02
2.619999999999999929e+01,1.741550411536877882e-02
2.623999999999999844e+01,1.051813632855711986e-02
2.628000000000000114e+01,1.370069064947766931e-02
2.632000000000000028e+01,1.236207018030745057e-02
2.635999999999999943e+01,1.354341224935828869e-02
2.639999999999999858e+01,1.227886122386720978e-02
2.644000000000000128e+01,1.234839585012576825e-02
2.648000000000000043e+01,1.819905003892970108e-02
2.651999999999999957e+01,1.641560274046336212e-02
2.655999999999999872e+01,1.574388781454917965e-02
2.660000000000000142e+01,1.529449785594964861e-02
2.664000000000000057e+01,1.899564609195729045e-02
2.667999999999999972e+01,1.521092524476745818e-02
2.671999999999999886e+01,2.209905871776138633e-02
2.676000000000000156e+01,2.076014966408924051e-02
2.680000000000000071e+01,2.816704563912473397e-02
2.683999999999999986e+01,5.039735984467388907e-02
2.687999999999999901e+01,7.381351950941955620e-02
2.692000000000000171e+01,6.965803479995044678e-02
2.696000000000000085e+01,6.364958765069492208e-02
2.700000000000000000e+01,4.570823283435806322e-02
2.703999999999999915e+01,3.465974891882525610e-02
2.707999999999999829e+01,2.301829409431783297e-02
2.712000000000000099e+01,1.056151612010237072e-02
2.716000000000000014e+01,1.381755910854992261e-02
2.719999999999999929e+01,1.018066418778749635e-02
2.723999999999999844e+01,1.054606519215104538e-02
2.728000000000000114e+01,1.483964436190805987e-02
2.732000000000000028e+01,1.468615300127435255e-02
2.735999999999999943e+01,1.675614223605941325e-02
2.739999999999999858e+01,1.838139088901467183e-02
2.744000000000000128e+01,1.133488474535675368e-02
2.748000000000000043e+01,8.735374854435434475e-03
2.751999999999999957e+01,1.458519168404376169e-02
2.755999999999999872e+01,1.509852798186362040e-02
2.760000000000000142e+01,1.146125907667047521e-02
2.764000000000000057e+01,2.079446700483907756e-02
2.767999999999999972e+01,1.678653086947327552e-02
2.771999999999999886e+01,2.145027057997837133e-02
2.776000000000000156e+01,1.803518926401782851e-02
2.780000000000000071e+01,1.840004488243367556e-02
2.783999999999999986e+01,1.824603696696702401e-02
2.787999999999999901e+01,2.202019942841360739e-02
2.792000000000000171e+01,2.327433182400121675e-02
2.796000000000000085e+01,2.734487495053106870e-02
2.800000000000000000e+01,3.015538006124576786e-02
2.803999999999999915e+01,2.547999843487442836e-02
2.807999999999999829e+01,2.688218456376968366e-02
2.812000000000000099e+01,2.657962767615094576e-02
2.816000000000000014e+01,2.976053408781855966e-02
2.819999999999999929e+01,3.227433781151461262e-02
2.823999999999999844e+01,2.782107288546779508e-02
2.828000000000000114e+01,3.241006273854595693e-02
2.832000000000000028e+01,3.255196908043295201e-02
2.835999999999999943e+01,3.447263959393558758e-02
2.839999999999999858e+01,3.609679102580885812e-02
2.844000000000000128e+01,3.720207113531940474e-02
2.848000000000000043e+01,4.253198279526481523e-02
2.851999999999999957e+01,3.051840850077854397e-02
2.855999999999999872e+01,3.458822319833704251e-02
2.860000000000000142e+01,3.487800591458442567e-02
2.864000000000000057e+01,3.657596296532098640e-02
2.867999999999999972e+01,3.278919046477174470e-02
2.871999999999999886e+01,4.212111525932072525e-02
2.876000000000000156e+01,3.574013027505611173e-02
2.880000000000000071e+01,3.091555202935356711e-02
2.883999999999999986e+01,3.328029028101615189e-02
2.887999999999999901e+01,3.386615841025602397e-02
2.892000000000000171e+01,2.807788698681243714e-02
2.896000000000000085e+01,2.480954435150887344e-02
2.900000000000000000e+01,2.843404717464058026e-02
2.903999999999999915e+01,2.864909850741127056e-02
2.907999999999999829e+01,3.182878051362872385e-02
2.912000000000000099e+01,3.263665135802758938e-02
2.916000000000000014e+01,2.581038644584307887e-02
2.919999999999999929e+01,2.654401956043788910e-02
2.923999999999999844e+01,2.231173653800194376e-02
2.928000000000000114e+01,2.519464706087852848e-02
2.932000000000000028e+01,2.229635076275521266e-02
2.935999999999999943e+01,2.199209530095218995e-02
2.939999999999999858e+01,1.968661124520881822e-02
2.944000000000000128e+01,2.360691177184435705e-02
2.948000000000000043e+01,2.107894823604778908e-02
2.951999999999999957e+01,1.506740973860555208e-02
2.955999999999999872e+01,1.631929563285265672e-02
2.960000000000000142e+01,9.862922818463725275e-03
2.964000000000000057e+01,1.578406295183200012e-02
2.967999999999999972e+01,1.814750880612609960e-02
2.971999999999999886e+01,1.332151507759135774e-02
2.976000000000000156e+01,1.331307420807063824e-02
2.980000000000000071e+01,2.071628909584806791e-02
2.983999999999999986e+01,2.159711800760475559e-02
2.987999999999999901e+01,1.714143627211609996e-02
2.992000000000000171e+01,1.439038121769396078e-02
2.996000000000000085e+01,1.638275918562531394e-02
3.000000000000000000e+01,1.615154904963467253e-02
3.003999999999999915e+01,1.895907436602282947e-02
3.007999999999999829e+01,2.436063117255497096e-02
3.012000000000000099e+01,1.464219847038868670e-02
3.016000000000000014e+01,1.033425135891992419e-02
3.019999999999999929e+01,1.188149276191949669e-02
3.023999999999999844e+01,2.402742555218490700e-02
3.028000000000000114e+01,2.075689779482193381e-02
3.032000000000000028e+01,1.785688119719702066e-02
3.035999999999999943e+01,2.577790615064332047e-02
3.039999999999999858e+01,2.673183441581786224e-02
3.044000000000000128e+01,2.716686539702886649e-02
3.048000000000000043e+01,1.930068832249580077e-02
3.051999999999999957e+01,1.966144730458964721e-02
3.055999999999999872e+01,1.349981096448652808e-02
3.060000000000000142e+01,1.704745445255553132e-02
3.064000000000000057e+01,1.214565332695147389e-02
3.067999999999999972e+01,1.762018615555973125e-02
3.071999999999999886e+01,1.160646647151189828e-02
3.076000000000000156e+01,1.137381079218368306e-02
3.080000000000000071e+01,7.361094573783441217e-03
3.083999999999999986e+01,7.498862030628608392e-03
3.087999999999999901e+01,1.645649879501626806e-02
3.092000000000000171e+01,1.852114936161645617e-02
3.096000000000000085e+01,5.836385718148157618e-03
3.100000000000000000e+01,1.227378625409055943e-02
3.103999999999999915e+01,1.070644042704249274e-02
3.107999999999999829e+01,1.180723034983848820e-02
3.112000000000000099e+01,1.016559694671280087e-02
3.116000000000000014e+01,1.222973962197359231e-02
3.119999999999999929e+01,1.192204413535101308e-02
3.123999999999999844e+01,7.315461714600951862e-03
3.128000000000000114e+01,1.204756409257651088e-02
3.132000000000000028e+01,9.664323358943001027e-03
3.135999999999999943e+01,1.209861471504286926e-02
3.139999999999999858e+01,3.859934377047490647e-03
3.144000000000000128e+01,5.404640203852360825e-03
3.148000000000000043e+01,5.244559398653897420e-03
3.151999999999999957e+01,1.749112151209872464e-03
3.155999999999999872e+01,8.037049510870076380e-03
3.160000000000000142e+01,1.336137108583550399e-02
3.164000000000000057e+01,6.382138560303412048e-03
3.167999999999999972e+01,5.702778780657782702e-03
3.171999999999999886e+01,1.836284443607457285e-03
3.176000000000000156e+01,5.010834218984176747e-03
3.180000000000000071e+01,8.111172499511574291e-03
3.183999999999999986e+01,3.651457475410943565e-03
3.187999999999999901e+01,1.164334356257505643e-02
3.192000000000000171e+01,1.207517530664711965e-02
3.196000000000000085e+01,1.117280039043393181e-02
3.200000000000000000e+01,8.343280370699798776e-03
3.203999999999999915e+01,7.440711234236676956e-03
3.207999999999999829e+01,4.092175272285344424e-03
3.211999999999999744e+01,1.149054077469604564e-02
3.215999999999999659e+01,5.077317055550945816e-04
3.220000000000000284e+01,1.035176777037498386e-02
3.224000000000000199e+01,8.707531591722206948e-03
3.228000000000000114e+01,1.121376039596223839e-02
3.232000000000000028e+01,5.937577943288660162e-03
3.235999999999999943e+01,7.554197333560977792e-03
3.239999999999999858e+01,1.784243181955824306e-02
3.243999999999999773e+01,5.302453669352053325e-03
3.247999999999999687e+01,1.210697220847332944e-02
3.252000000000000313e+01,1.038790448951629891e-02
3.256000000000000227e+01,4.740518904277605042e-03
3.260000000000000142e+01,1.184119404612919528e-02
3.264000000000000057e+01,1.034416413170598931e-02
3.267999999999999972e+01,1.121878023584431741e-02
3.271999999999999886e+01,8.758014320776618539e-03
3.275999999999999801e+01,1.170770024632542157e-02
3.279999999999999716e+01,1.184082379770735362e-02
3.284000000000000341e+01,1.530911541722880520e-02
3.288000000000000256e+01,1.729495395312769662e-02
3.292000000000000171e+01,2.439477329071316342e-02
3.296000000000000085e+01,3.468152465774117232e-02
3.300000000000000000e+01,4.867402821848291344e-02
3.303999999999999915e+01,5.866409044165835085e-02
3.307999999999999829e+01,6.650464182054695306e-02
3.311999999999999744e+01,7.397449560792786205e-02
3.315999999999999659e+01,6.632432042497705960e-02
3.320000000000000284e+01,6.452929481409333534e-02
3.324000000000000199e+01,4.376014268838985394e-02
3.328000000000000114e+01,3.470140109582590948e-02
3.332000000000000028e+01,2.623548344210020755e-02
3.335999999999999943e+01,1.450829270195662553e-02
3.339999999999999858e+01,1.782678675977736674e-02
3.343999999999999773e+01,2.092281355323516792e-02
3.347999999999999687e+01,1.497642094354303954e-02
3.352000000000000313e+01,1.080872552453642117e-02
3.356000000000000227e+01,9.753837105991636919e-03
3.360000000000000142e+01,1.233057585217990290e-02
3.364000000000000057e+01,1.498131369984698549e-02
3.367999999999999972e+01,6.810815776192987933e-03
3.371999999999999886e+01,5.903688244098629148e-03
3.375999999999999801e+01,1.211169610333095656e-02
3.379999999999999716e+01,1.565136308859696110e-02
3.384000000000000341e+01,3.478054352583284138e-03
3.388000000000000256e+01,1.383626547429639767e-02
3.392000000000000171e+01,9.889727405774595415e-03
3.396000000000000085e+01,7.870115297387033845e-03
3.400000000000000000e+01,8.073897591903579987e-03
3.403999999999999915e+01,1.168694961809960478e-02
3.407999999999999829e+01,1.018578819918993308e-02
3.411999999999999744e+01,1.305741960000173126e-02
3.415999999999999659e+01,7.924264137725756454e-03
3.420000000000000284e+01,3.680390153185514150e-03
3.424000000000000199e+01,1.034454056475474768e-04
3.428000000000000114e+01,6.606318919438554718e-03
3.432000000000000028e+01,4.066762126207272739e-03
3.435999999999999943e+01,6.641167442309981080e-03
3.439999999999999858e+01,8.029568905975354581e-03
3.443999999999999773e+01,5.119041896951986165e-03
3.447999999999999687e+01,7.915413363570237767e-03
3.452000000000000313e+01,5.078744990027386080e-03
3.456000000000000227e+01,3.946643066637172022e-03
3.460000000000000142e+01,6.742624289181417541e-03
3.464000000000000057e+01,3.683212392367163444e-03
3.467999999999999972e+01,4.107179160020555699e-03
3.471999999999999886e+01,6.235710300898538068e-03
3.475999999999999801e+01,5.770005346742258096e-03
3.479999999999999716e+01,5.304167195835873816e-03
3.484000000000000341e+01,5.505250493451557120e-03
3.488000000000000256e+01,6.662272018216819011e-04
3.492000000000000171e+01,1.311744952779854466e-03
3.496000000000000085e+01,3.735941202070968900e-03
3.500000000000000000e+01,1.194146544920959797e-03
3.503999999999999915e+01,2.728663803154156992e-03
3.507999999999999829e+01,3.077168382005755504e-03
3.511999999999999744e+01,3.870239053253896663e-03
3.515999999999999659e+01,3.625530487657324316e-03
3.520000000000000284e+01,6.493607634009927222e-03
3.524000000000000199e+01,7.360380378547743199e-03
3.528000000000000114e+01,0.000000000000000000e+00
3.532000000000000028e+01,9.982913951794077090e-03
3.535999999999999943e+01,3.585777286987712302e-03
3.539999999999999858e+01,6.453154699508770360e-03
3.543999999999999773e+01,5.021590658540663228e-03
3.547999999999999687e+01,7.221629378400827408e-03
3.552000000000000313e+01,9.940346238837839341e-03
3.556000000000000227e+01,1.236245107511460897e-02
3.560000000000000142e+01,5.445640026942720480e-03
3.564000000000000057e+01,4.161595156183512008e-03
3.567999999999999972e+01,8.955019386607761256e-03
3.571999999999999886e+01,1.026478817442382473e-02
3.575999999999999801e+01,7.868549278898259378e-03
3.579999999999999716e+01,1.696033648339385219e-02
3.584000000000000341e+01,8.930894435500174103e-03
3.588000000000000256e+01,7.423622335632603687e-03
3.592000000000000171e+01,6.286788703020790639e-03
3.596000000000000085e+01,4.705103372927662252e-03
3.600000000000000000e+01,8.089124382654924728e-03
3.603999999999999915e+01,5.840085821404428050e-03
3.607999999999999829e+01,7.741462916005206751e-03
3.611999999999999744e+01,4.528600084667462958e-03
3.615999999999999659e+01,3.316751896203558574e-03
3.620000000000000284e+01,9.220007425913332930e-03
3.624000000000000199e+01,7.414918054472365364e-03
3.628000000000000114e+01,7.092021084705957094e-03
3.632000000000000028e+01,1.551480556642736292e-02
3.635999999999999943e+01,6.371650602740490735e-03
3.639999999999999858e+01,9.309451874598216603e-03
3.643999999999999773e+01,1.150592625618855613e-02
3.647999999999999687e+01,4.141121608724504174e-03
3.652000000000000313e+01,1.137725781612467998e-02
3.656000000000000227e+01,7.421534664996254707e-03
3.660000000000000142e+01,7.986806622205189221e-03
3.664000000000000057e+01,9.293093902995925096e-03
3.667999999999999972e+01,9.339230494623929069e-03
3.671999999999999886e+01,1.101578825737520653e-02
3.675999999999999801e+01,5.428697811962313914e-03
3.679999999999999716e+01,6.379992969989865359e-05
3.684000000000000341e+01,5.890445685424340778e-03
3.688000000000000256e+01,1.067928987732733731e-02
3.692000000000000171e+01,9.093890670143647478e-03
3.696000000000000085e+01,3.357764759655109277e-03
3.700000000000000000e+01,4.736732182699951096e-03
3.703999999999999915e+01,9.895516597525320923e-03
3.707999999999999829e+01,1.045886930834703452e-02
3.711999999999999744e+01,9.317362175451066042e-03
3.715999999999999659e+01,7.508636046611888784e-03
3.720000000000000284e+01,1.274088341464553117e-02
3.724000000000000199e+01,1.100594530573264541e-02
3.728000000000000114e+01,1.090142109869480548e-02
3.732000000000000028e+01,1.605905505882265771e-02
3.735999999999999943e+01,9.728350313779759312e-03
3.739999999999999858e+01,1.155037507695649661e-02
3.743999999999999773e+01,1.033342551355113936e-02
3.747999999999999687e+01,1.185864586336769257e-02
3.752000000000000313e+01,1.301311150615471791e-02
3.756000000000000227e+01,1.305564951767559760e-02
3.760000000000000142e+01,1.754505241623295977e-02
3.764000000000000057e+01,1.677196117703427108e-02
3.767999999999999972e+01,1.799986484989276117e-02
3.771999999999999886e+01,1.989465258656813659e-02
3.775999999999999801e+01,1.904693080480710649e-02
3.779999999999999716e+01,2.368371268092895471e-02
3.784000000000000341e+01,2.580033572165175287e-02
3.788000000000000256e+01,3.080735796427720372e-02
3.792000000000000171e+01,4.648708914212185822e-02
3.796000000000000085e+01,5.171611519332195567e-02
3.800000000000000000e+01,5.338733896518847027e-02
3.803999999999999915e+01,6.632420803858178615e-02
3.807999999999999829e+01,6.873625318713406929e-02
3.811999999999999744e+01,8.863979080078795980e-02
3.815999999999999659e+01,1.361888823088747702e-01
3.820000000000000284e+01,2.291716649122733374e-01
3.824000000000000199e+01,3.192636972854504540e-01
3.828000000000000114e+01,4.729481436380886250e-01
3.832000000000000028e+01,7.891715195190726062e-01
3.835999999999999943e+01,1.000000000000000000e+00
3.839999999999999858e+01,9.394109658406033514e-01
3.843999999999999773e+01,8.433937102751222215e-01
3.847999999999999687e+01,7.139493982778369885e-01
3.852000000000000313e+01,5.295840295843817769e-01
3.856000000000000227e+01,3.693065820490172291e-01
3.860000000000000142e+01,2.774391649717874442e-01
3.864000000000000057e+01,1.921679992560751948e-01
3.867999999999999972e+01,1.328376841532689923e-01
3.871999999999999886e+01,9.922586742263544979e-02
3.875999999999999801e+01,6.998678328080946975e-02
3.879999999999999716e+01,6.016623103015285301e-02
3.884000000000000341e+01,5.056784486181385707e-02
3.888000000000000256e+01,4.741747245859932042e-02
3.892000000000000171e+01,4.397044441573514512e-02
3.896000000000000085e+01,4.378438775801150179e-02
3.900000000000000000e+01,4.315343994117329385e-02
3.903999999999999915e+01,3.666704188945474341e-02
3.907999999999999829e+01,3.203338609567189799e-02
3.911999999999999744e+01,3.281009958461491433e-02
3.915999999999999659e+01,2.869488540748757130e-02
3.920000000000000284e+01,2.354183955108184526e-02
3.924000000000000199e+01,2.468856830571150920e-02
3.928000000000000114e+01,1.857161614055995169e-02
3.932000000000000028e+01,2.349794094000929451e-02
3.935999999999999943e+01,3.590991464080536821e-02
3.939999999999999858e+01,4.439348168664498939e-02
3.943999999999999773e+01,4.346396576126189404e-02
3.947999999999999687e+01,4.127426280047493540e-02
3.952000000000000313e+01,3.938083433556181095e-02
3.956000000000000227e+01,2.681432825322210486e-02
3.960000000000000142e+01,2.366051620984903001e-02
3.964000000000000057e+01,2.058062538315233794e-02
3.967999999999999972e+01,1.208997945686580630e-02
3.971999999999999886e+01,2.123903970740117012e-02
3.975999999999999801e+01,1.734326804833507749e-02
3.979999999999999716e+01,1.411435345302099707e-02
3.984000000000000341e+01,1.266405400973386053e-02
3.988000000000000256e+01,1.803234155327305618e-02
3.992000000000000171e+01,1.309813300879982337e-02
3.996000000000000085e+01,1.246252423567320057e-02
4.000000000000000000e+01,1.190083200613481842e-02
4.003999999999999915e+01,9.486007547940648876e-03
4.007999999999999829e+01,1.507564332842013105e-02
4.011999999999999744e+01,1.266041488024143187e-02
4.015999999999999659e+01,1.298732155673953427e-02
4.020000000000000284e+01,1.123874220615240886e-02
4.024000000000000199e+01,8.674669397755858935e-03
4.028000000000000114e+01,1.203977149785996105e-02
4.032000000000000028e+01,1.651642735470263204e-02
4.035999999999999943e+01,1.936229855053477056e-02
4.039999999999999858e+01,1.739034322460449727e-02
4.043999999999999773e+01,2.194049865425047249e-02
4.047999999999999687e+01,2.196929548567184629e-02
4.052000000000000313e+01,2.607433309769020477e-02
4.056000000000000227e+01,1.743099737746861902e-02
4.060000000000000142e+01,1.353095656388414968e-02
4.064000000000000057e+01,1.911771352973436200e-02
4.067999999999999972e+01,1.380902661816012927e-02
4.071999999999999886e+01,1.050129515700984686e-02
4.075999999999999801e+01,1.045451171555937010e-02
4.079999999999999716e+01,8.332234458543408967e-03
4.084000000000000341e+01,4.505049069232253296e-03
4.088000000000000256e+01,8.756430774454886448e-03
4.092000000000000171e+01,1.174760675192107820e-02
4.096000000000000085e+01,1.347857648239877797e-02
4.100000000000000000e+01,1.254111187714722180e-02
4.103999999999999915e+01,9.157564138435773243e-03
4.107999999999999829e+01,8.590256822565199221e-03
4.111999999999999744e+01,9.505079081295216697e-03
4.115999999999999659e+01,9.159692496876668810e-03
4.120000000000000284e+01,9.703496524590944292e-03
4.124000000000000199e+01,1.306353889821806023e-02
4.128000000000000114e+01,1.946217082002738713e-02
4.132000000000000028e+01,1.904179878422543326e-02
4.135999999999999943e+01,1.506358085360049934e-02
4.139999999999999858e+01,1.167808197694648019e-02
4.143999999999999773e+01,1.607467396357619219e-02
4.147999999999999687e+01,1.216991510565727623e-02
4.152000000000000313e+01,1.471313574354976388e-02
4.156000000000000227e+01,1.288321824495410918e-02
4.160000000000000142e+01,1.246130684967435356e-02
4.164000000000000057e+01,1.203917346896971052e-02
4.167999999999999972e+01,9.541534849595209242e-03
4.171999999999999886e+01,4.004866345812841191e-03
4.175999999999999801e+01,1.129025690548950481e-02
4.179999999999999716e+01,7.309602846742930225e-03
4.184000000000000341e+01,1.303808271197193572e-02
4.188000000000000256e+01,8.834627249322031181e-03
4.192000000000000171e+01,9.003863356150370451e-03
4.196000000000000085e+01,8.135231956691210339e-03
4.200000000000000000e+01,1.149105660724536286e-02
4.203999999999999915e+01,9.065509321018410879e-03
4.207999999999999829e+01,8.418548109825471290e-03
4.211999999999999744e+01,9.253703492432699060e-03
4.215999999999999659e+01,1.060745082310205097e-02
4.220000000000000284e+01,9.366865481582100847e-03
4.224000000000000199e+01,7.681346923154251313e-03
4.228000000000000114e+01,1.022028078011558323e-02
4.232000000000000028e+01,6.607252863169359863e-03
4.235999999999999943e+01,9.368076297661740229e-03
4.239999999999999858e+01,9.831033425806561324e-03
4.243999999999999773e+01,8.366709930874146814e-03
4.247999999999999687e+01,9.570374204661140013e-03
4.252000000000000313e+01,9.513811981411010241e-03
4.256000000000000227e+01,8.641726184894534327e-03
4.260000000000000142e+01,4.952950802367246663e-03
4.264000000000000057e+01,6.155678326645121039e-03
4.267999999999999972e+01,1.247225995999757565e-02
4.271999999999999886e+01,6.929847108586726680e-03
4.275999999999999801e+01,6.723639049287829031e-03
4.279999999999999716e+01,1.074187665536191320e-02
4.284000000000000341e+01,8.311676775510375148e-03
4.288000000000000256e+01,9.735335320065492681e-03
4.292000000000000171e+01,9.454058732260562509e-03
4.296000000000000085e+01,1.154429472038898986e-02
4.300000000000000000e+01,1.104018765168776617e-02
4.303999999999999915e+01,7.793502525924021242e-03
4.307999999999999829e+01,1.507122487344837551e-02
4.311999999999999744e+01,1.041583030338885663e-02
4.315999999999999659e+01,1.472838011764372908e-02
4.320000000000000284e+01,9.627798152866370515e-03
4.324000000000000199e+01,9.048125103911647260e-03
4.328000000000000114e+01,8.097622578517076758e-03
4.332000000000000028e+01,5.368062487941823065e-03
4.335999999999999943e+01,4.787658059478380745e-03
4.339999999999999858e+01,1.576929831745341529e-02
4.343999999999999773e+01,1.059313479546205965e-02
4.347999999999999687e+01,1.327315289642206145e-02
4.352000000000000313e+01,1.083883501352051609e-02
4.356000000000000227e+01,1.055367019657068965e-02
4.360000000000000142e+01,8.415326939315627766e-03
4.364000000000000057e+01,1.205788049407087101e-02
4.367999999999999972e+01,1.177197183604391205e-02
4.371999999999999886e+01,1.178228315452904684e-02
4.375999999999999801e+01,1.401586218330629768e-02
4.379999999999999716e+01,1.491508085912144829e-02
4.384000000000000341e+01,1.855638689026790217e-02
4.388000000000000256e+01,8.115166163908732119e-03
4.392000000000000171e+01,1.057009370298017496e-02
4.396000000000000085e+01,1.087536916665636164e-02
4.400000000000000000e+01,1.029098512421313186e-02
4.403999999999999915e+01,1.178163067643697888e-02
4.407999999999999829e+01,1.260496740557874758e-02
4.411999999999999744e+01,1.602215337442681325e-02
4.415999999999999659e+01,1.558498814020892707e-02
4.420000000000000284e+01,1.625932629722402073e-02
4.424000000000000199e+01,2.256631899676827049e-02
4.428000000000000114e+01,1.360490389847934974e-02
4.432000000000000028e+01,1.279612848127129228e-02
4.435999999999999943e+01,1.176474404935983452e-02
4.439999999999999858e+01,1.258603281752590335e-02
4.443999999999999773e+01,1.540822874753841089e-02
4.447999999999999687e+01,1.467253828263067467e-02
4.452000000000000313e+01,1.482599533359842993e-02
4.456000000000000227e+01,1.008745462217359480e-02
4.460000000000000142e+01,1.283449479270130922e-02
4.464000000000000057e+01,1.506245335189968990e-02
4.467999999999999972e+01,6.839619553474771130e-03
4.471999999999999886e+01,1.099410295233687294e-02
4.475999999999999801e+01,5.216613638614864268e-03
4.479999999999999716e+01,7.147054332186739828e-03
4.484000000000000341e+01,1.270897628629505914e-02
4.488000000000000256e+01,9.598917058631081106e-03
4.492000000000000171e+01,8.045055319026597415e-03
4.496000000000000085e+01,6.046225054737067867e-03
4.500000000000000000e+01,1.405295665709566794e-02
4.503999999999999915e+01,9.014787811226622136e-03
4.507999999999999829e+01,9.238676401512133790e-03
4.511999999999999744e+01,9.462297833187286247e-03
4.515999999999999659e+01,8.203306777010902287e-03
4.520000000000000284e+01,7.611102688264302120e-03
4.524000000000000199e+01,7.389216085713642447e-03
4.528000000000000114e+01,9.612929184139851896e-03
4.532000000000000028e+01,7.537572578768868096e-03
4.535999999999999943e+01,7.314876711907032127e-03
4.539999999999999858e+01,1.242835136784401634e-02
4.543999999999999773e+01,6.349851395744769526e-03
4.547999999999999687e+01,1.479805873003765121e-02
4.552000000000000313e+01,1.205429039783027616e-02
4.556000000000000227e+01,1.227493881547886759e-02
4.560000000000000142e+01,6.862403565697845764e-03
4.564000000000000057e+01,1.152953911535312299e-02
4.567999999999999972e+01,1.048937271861427947e-02
4.571999999999999886e+01,1.078304170379318534e-02
4.575999999999999801e+01,1.107643522264952808e-02
4.579999999999999716e+01,9.516621743439713718e-03
4.584000000000000341e+01,8.401235202446045991e-03
4.588000000000000256e+01,8.174978523439324282e-03
4.592000000000000171e+01,1.069078219969902925e-02
4.596000000000000085e+01,9.722797509954372169e-03
4.600000000000000000e+01,7.049837706984400480e-03
4.603999999999999915e+01,9.713040119101012948e-03
4.607999999999999829e+01,1.037479741752643861e-02
4.611999999999999744e+01,1.125862629804251849e-02
4.615999999999999659e+01,5.693974596375645132e-03
4.620000000000000284e+01,1.006075194389595244e-02
4.624000000000000199e+01,8.942571797275276901e-03
4.628000000000000114e+01,7.527640472313955680e-03
4.632000000000000028e+01,1.433944010733314775e-02
4.635999999999999943e+01,1.514746000701205388e-02
4.639999999999999858e+01,1.758577542366631177e-02
4.643999999999999773e+01,1.691088244603427410e-02
4.647999999999999687e+01,1.215925642837795487e-02
4.652000000000000313e+01,1.622729669854575812e-02
4.656000000000000227e+01,1.392096843471088939e-02
4.660000000000000142e+01,1.583903650920745129e-02
4.664000000000000057e+01,1.975798318778955801e-02
4.667999999999999972e+01,1.559786324316232015e-02
4.671999999999999886e+01,9.213938155630247914e-03
4.675999999999999801e+01,1.164967624053018548e-02
4.679999999999999716e+01,1.742040118159591394e-02
4.684000000000000341e+01,1.125796091650021861e-02
4.688000000000000256e+01,8.949327152609525687e-03
4.692000000000000171e+01,1.205096142120151009e-02
4.696000000000000085e+01,5.294711659948949344e-03
4.700000000000000000e+01,1.158280466426264872e-02
4.703999999999999915e+01,8.235364321769175766e-03
4.707999999999999829e+01,9.482900289325213797e-03
4.711999999999999744e+01,1.110072933917244722e-02
4.715999999999999659e+01,5.232423459029834911e-03
4.720000000000000284e+01,1.174140258378924065e-02
4.724000000000000199e+01,9.578369892087398516e-03
4.728000000000000114e+01,9.786793699261128396e-03
4.732000000000000028e+01,1.473842518209323230e-02
4.735999999999999943e+01,1.101804329076802071e-02
4.739999999999999858e+01,1.752554383367133789e-02
4.743999999999999773e+01,2.492215398851294755e-02
4.747999999999999687e+01,2.216440440149194252e-02
4.752000000000000313e+01,1.933223926143918386e-02
4.756000000000000227e+01,1.516566496061478100e-02
4.760000000000000142e+01,1.551994297932324240e-02
4.764000000000000057e+01,1.009277636876832612e-02
4.767999999999999972e+01,9.482930001284058455e-03
4.771999999999999886e+01,1.413510680064123531e-02
4.775999999999999801e+01,1.293172017253849636e-02
4.779999999999999716e+01,1.306214192628867010e-02
4.784000000000000341e+01,8.300523340620922716e-03
4.788000000000000256e+01,1.235855338888869337e-02
4.792000000000000171e+01,1.382217651478885416e-02
4.796000000000000085e+01,1.039375774357501579e-02
4.800000000000000000e+01,1.363558607408728134e-02
4.803999999999999915e+01,1.050302665901230517e-02
4.807999999999999829e+01,9.000740953167945743e-03
4.811999999999999744e+01,1.431693527235457057e-02
4.815999999999999659e+01,1.192462995924956602e-02
4.820000000000000284e+01,1.153318300018146142e-02
4.824000000000000199e+01,7.361449116882201778e-03
4.828000000000000114e+01,1.082348282719092399e-02
4.832000000000000028e+01,7.318187233284575120e-03
4.835999999999999943e+01,2.997292777469507969e-03
4.839999999999999858e+01,7.940743648576539804e-03
4.843999999999999773e+01,1.369917391032098204e-02
4.847999999999999687e+01,1.182321762641814003e-02
4.852000000000000313e+01,8.242253517672961521e-03
4.856000000000000227e+01,1.103506027940379976e-02
4.860000000000000142e+01,6.119361697290814743e-03
4.864000000000000057e+01,1.024565360520648082e-02
4.867999999999999972e+01,8.886956345828157453e-03
4.871999999999999886e+01,4.933841779441876067e-03
4.875999999999999801e+01,4.612157588854436108e-03
4.879999999999999716e+01,2.511344698300067065e-03
4.884000000000000341e+01,7.080768005599466508e-03
4.888000000000000256e+01,7.054606435450332634e-03
4.892000000000000171e+01,8.214004227656748064e-03
4.896000000000000085e+01,9.224850533978338693e-03
4.900000000000000000e+01,1.290359997420066802e-02
4.903999999999999915e+01,1.435851415606120840e-02
4.907999999999999829e+01,1.181077878831685371e-02
4.911999999999999744e+01,9.336841579261009189e-03
4.915999999999999659e+01,1.153197092069030948e-02
4.920000000000000284e+01,1.128091120532836306e-02
4.924000000000000199e+01,4.433096445917298831e-03
4.928000000000000114e+01,8.183725919332281509e-03
4.932000000000000028e+01,8.450523411253520537e-03
4.935999999999999943e+01,1.464637794600768747e-02
4.939999999999999858e+01,1.469017880278740591e-02
4.943999999999999773e+01,1.132426336087779921e-02
4.947999999999999687e+01,1.114506550558795085e-02
4.952000000000000313e+01,1.333729507218078120e-02
4.956000000000000227e+01,1.152686885838452233e-02
4.960000000000000142e+01,9.938469053493489275e-03
4.964000000000000057e+01,1.257442612530064799e-02
4.967999999999999972e+01,1.550652580804946432e-02
4.971999999999999886e+01,1.102657457045985723e-02
4.975999999999999801e+01,1.151215105687700309e-02
4.979999999999999716e+01,1.244210307754069732e-02
4.984000000000000341e+01,1.381643011321891101e-02
4.988000000000000256e+01,1.422690407517084900e-02
4.992000000000000171e+01,1.574880717817743470e-02
4.996000000000000085e+01,1.386098723247847740e-02
5.000000000000000000e+01,1.493752640188166815e-02
5.003999999999999915e+01,1.282669320561666965e-02
5.007999999999999829e+01,1.316139740248657708e-02
5.011999999999999744e+01,1.208754196723533375e-02
5.015999999999999659e+01,1.294040220315174385e-02
5.020000000000000284e+01,1.408939829999357810e-02
5.024000000000000199e+01,1.457100561202287307e-02
5.028000000000000114e+01,1.164288572149044937e-02
5.032000000000000028e+01,1.390263800721794687e-02
5.035999999999999943e+01,1.134443448241093805e-02
5.039999999999999858e+01,1.026824007037669718e-02
5.043999999999999773e+01,1.052581977088228211e-02
5.047999999999999687e+01,1.196893858369474720e-02
5.052000000000000313e+01,1.593170631859040093e-02
5.056000000000000227e+01,1.107418465976651480e-02
5.060000000000000142e+01,1.444333840309736973e-02
5.064000000000000057e+01,1.425452578977745750e-02
5.067999999999999972e+01,1.035951181957385503e-02
5.071999999999999886e+01,1.150413035230906690e-02
5.075999999999999801e+01,9.609601654200713300e-03
5.079999999999999716e+01,1.423704923057637038e-02
5.084000000000000341e+01,9.451265854604682520e-03
5.088000000000000256e+01,7.926299132632650887e-03
5.092000000000000171e+01,1.307154160844951896e-02
5.096000000000000085e+01,1.021177914373179625e-02
5.100000000000000000e+01,1.090930073731950431e-02
5.103999999999999915e+01,1.249588521196401403e-02
5.107999999999999829e+01,9.412739010898675887e-03
5.111999999999999744e+01,1.381508905696722002e-02
5.115999999999999659e+01,1.050890052834294042e-02
5.120000000000000284e+01,1.061175898086309105e-02
5.124000000000000199e+01,1.390131217379428352e-02
5.128000000000000114e+01,1.140937348734861849e-02
5.132000000000000028e+01,1.158530781934671676e-02
5.135999999999999943e+01,1.072325262553348348e-02
5.139999999999999858e+01,1.356671077870645614e-02
5.143999999999999773e+01,1.285219219058834905e-02
5.147999999999999687e+01,6.874999810436527477e-03
5.152000000000000313e+01,1.305268463662753557e-02
5.156000000000000227e+01,9.743011923794444792e-03
5.160000000000000142e+01,1.154707753129629103e-02
5.164000000000000057e+01,1.134962585185664806e-02
5.167999999999999972e+01,1.293063563176710326e-02
5.171999999999999886e+01,1.621598911129517456e-02
5.175999999999999801e+01,1.038456865814136286e-02
5.179999999999999716e+01,9.370414967160543146e-03
5.184000000000000341e+01,1.346999648112255643e-02
5.188000000000000256e+01,9.416326631212623005e-03
5.192000000000000171e+01,1.329284608679905631e-02
5.196000000000000085e+01,1.383373377257956192e-02
5.200000000000000000e+01,1.326250638433601470e-02
5.203999999999999915e+01,9.059177225820667576e-03
5.207999999999999829e+01,1.211898013136943932e-02
5.211999999999999744e+01,1.265843883568933993e-02
5.215999999999999659e+01,9.788145933542760288e-03
5.220000000000000284e+01,8.251604297727296866e-03
5.224000000000000199e+01,1.101350302902940823e-02
5.228000000000000114e+01,1.244093133018195525e-02
5.232000000000000028e+01,1.579504726397323866e-02
5.235999999999999943e+01,1.040296767910471425e-02
5.239999999999999858e+01,1.286695392844790405e-02
5.243999999999999773e+01,1.103177805069494553e-02
5.247999999999999687e+01,1.038211532364805359e-02
5.252000000000000313e+01,9.435620418065983339e-03
5.256000000000000227e+01,1.501107894075921247e-02
5.260000000000000142e+01,1.554620085442362347e-02
5.264000000000000057e+01,1.504331662685220658e-02
5.267999999999999972e+01,1.409536366281658078e-02
5.271999999999999886e+01,9.144713899062564474e-03
5.275999999999999801e+01,1.405129078994457430e-02
5.279999999999999716e+01,9.618728526610916332e-03
5.284000000000000341e+01,1.571044704395339192e-02
5.288000000000000256e+01,8.164225419589329208e-03
5.292000000000000171e+01,1.114228353743740470e-02
5.296000000000000085e+01,1.093293138568005377e-02
5.300000000000000000e+01,9.166747736095468696e-03
5.303999999999999915e+01,8.289601005966875172e-03
5.307999999999999829e+01,1.326734578959321009e-02
5.311999999999999744e+01,1.038829207515696434e-02
5.315999999999999659e+01,1.366059779801349038e-02
5.320000000000000284e+01,1.285608324986694043e-02
5.324000000000000199e+01,1.397824439202278828e-02
5.328000000000000114e+01,1.102358422471156132e-02
5.332000000000000028e+01,1.177441248124977413e-02
5.335999999999999943e+01,1.044958388336933094e-02
5.339999999999999858e+01,1.008790477235720941e-02
5.343999999999999773e+01,1.128231255298507360e-02
5.347999999999999687e+01,8.770482630488084935e-03
5.352000000000000313e+01,1.315117987720032001e-02
5.356000000000000227e+01,1.464092802782876977e-02
5.360000000000000142e+01,1.272090587963816549e-02
5.364000000000000057e+01,1.020756805241404205e-02
5.367999999999999972e+01,1.147383121645169195e-02
5.371999999999999886e+01,1.244324662499365561e-02
5.375999999999999801e+01,1.192993791080052685e-02
5.379999999999999716e+01,1.008213903564119350e-02
5.384000000000000341e+01,1.164335287231325032e-02
5.388000000000000256e+01,1.505711685107494549e-02
5.392000000000000171e+01,1.454228569365822489e-02
5.396000000000000085e+01,1.172943817184125131e-02
5.400000000000000000e+01,1.314089093043266550e-02
5.403999999999999915e+01,1.203197456465839379e-02
5.407999999999999829e+01,1.047797128929936657e-02
5.411999999999999744e+01,1.255532881264899946e-02
5.415999999999999659e+01,8.999391552917491988e-03
5.420000000000000284e+01,1.196538643294860031e-02
5.424000000000000199e+01,9.668671693936869982e-03
5.428000000000000114e+01,1.152213636020893439e-02
5.432000000000000028e+01,1.263404203950229711e-02
5.435999999999999943e+01,1.374556061758958059e-02
5.439999999999999858e+01,1.782138119525722084e-02
5.443999999999999773e+01,1.522626198821312206e-02
5.447999999999999687e+01,1.203781619826317824e-02
5.452000000000000313e+01,1.003485707818650360e-02
5.456000000000000227e+01,1.462794266528474364e-02
5.460000000000000142e+01,1.410654844125290748e-02
5.464000000000000057e+01,1.462240484839733186e-02
5.467999999999999972e+01,1.765785617749524028e-02
5.471999999999999886e+01,1.594941234026932969e-02
5.475999999999999801e+01,1.653821066503148585e-02
5.479999999999999716e+01,1.445839551901870364e-02
5.484000000000000341e+01,1.615816630653920880e-02
5.488000000000000256e+01,1.452226742031661501e-02
5.492000000000000171e+01,1.614713274566001444e-02
5.496000000000000085e+01,2.036570659883324072e-02
5.500000000000000000e+01,2.176742990407054545e-02
5.503999999999999915e+01,2.198288143315009144e-02
5.507999999999999829e+01,2.923907436239115212e-02
5.511999999999999744e+01,3.338194622399837108e-02
5.515999999999999659e+01,3.804324128326241894e-02
5.520000000000000284e+01,4.559471071696603872e-02
5.524000000000000199e+01,6.945157453646089163e-02
5.528000000000000114e+01,8.589631526236704562e-02
5.532000000000000028e+01,1.021924219444977633e-01
5.535999999999999943e+01,1.021082183940198451e-01
5.539999999999999858e+01,9.668717292627013182e-02
5.543999999999999773e+01,8.770809879402771680e-02
5.547999999999999687e+01,7.843215406008084700e-02
5.552000000000000313e+01,6.522759342067493971e-02
5.556000000000000227e+01,5.128145769809783205e-02
5.560000000000000142e+01,4.230077389165306373e-02
5.564000000000000057e+01,3.754436907710401866e-02
5.567999999999999972e+01,2.945228420417155685e-02
5.571999999999999886e+01,2.728917381618138974e-02
5.575999999999999801e+01,2.208685129334560238e-02
5.579999999999999716e+01,1.873705398946268197e-02
5.584000000000000341e+01,1.590567105629231079e-02
5.588000000000000256e+01,1.559386746811491226e-02
5.592000000000000171e+01,1.743105650319618297e-02
5.596000000000000085e+01,1.385727911125696904e-02
5.600000000000000000e+01,1.272896226611422779e-02
5.603999999999999915e+01,1.352728476503271132e-02
5.607999999999999829e+01,1.588165988627813011e-02
5.611999999999999744e+01,1.401094235158234849e-02
5.615999999999999659e+01,1.162099366673651803e-02
5.620000000000000284e+01,1.056474432502016968e-02
5.624000000000000199e+01,1.210218689570910847e-02
5.628000000000000114e+01,1.297216227755099149e-02
5.632000000000000028e+01,1.354525615381612681e-02
5.635999999999999943e+01,1.293206111926698335e-02
5.639999999999999858e+01,1.417138351519041384e-02
5.643999999999999773e+01,1.274207115182628830e-02
5.647999999999999687e+01,1.190528209196289183e-02
5.652000000000000313e+01,1.314336062637743927e-02
5.656000000000000227e+01,1.208338904631066531e-02
5.660000000000000142e+01,9.837125440037498142e-03
5.664000000000000057e+01,1.233394852836285603e-02
5.667999999999999972e+01,1.609034748853302790e-02
5.671999999999999886e+01,1.517694256127901688e-02
5.675999999999999801e+01,1.174313320188222903e-02
5.679999999999999716e+01,1.016183608063788574e-02
5.684000000000000341e+01,1.147069204532045333e-02
5.688000000000000256e+01,1.500264541219375157e-02
5.692000000000000171e+01,1.675536467500081741e-02
5.696000000000000085e+01,1.131829075797588166e-02
5.700000000000000000e+01,1.433016088748446763e-02
5.703999999999999915e+01,1.185693333020765121e-02
5.707999999999999829e+01,9.902104047450845450e-03
5.711999999999999744e+01,1.172683110200239617e-02
5.715999999999999659e+01,1.088291405109008403e-02
5.720000000000000284e+01,8.852697185491080478e-03
5.724000000000000199e+01,8.007931681988201406e-03
5.728000000000000114e+01,1.264741697037624797e-02
5.732000000000000028e+01,1.009710440584413865e-02
5.735999999999999943e+01,1.414280020224583344e-02
5.739999999999999858e+01,1.018340746175828114e-02
5.743999999999999773e+01,1.081885655022802109e-02
5.747999999999999687e+01,1.301034008790407683e-02
5.752000000000000313e+01,8.086140417000394626e-03
5.756000000000000227e+01,9.239125827367191193e-03
5.760000000000000142e+01,1.194814412924426715e-02
5.764000000000000057e+01,9.987346601360792137e-03
5.767999999999999972e+01,1.106492573653281020e-02
5.771999999999999886e+01,1.199383967400842292e-02
5.775999999999999801e+01,1.017998447703944397e-02
5.779999999999999716e+01,1.103391818292761249e-02
5.784000000000000341e+01,1.359211614593486273e-02
5.788000000000000256e+01,1.170284688529085564e-02
5.792000000000000171e+01,1.010961327379315301e-02
5.796000000000000085e+01,1.051711132372033092e-02
5.800000000000000000e+01,1.196181638933440337e-02
5.803999999999999915e+01,1.133080385038392861e-02
5.807999999999999829e+01,1.136641108615400568e-02
5.811999999999999744e+01,1.066041000790381513e-02
5.815999999999999659e+01,1.032455870390827993e-02
5.820000000000000284e+01,1.206355318644601951e-02
5.824000000000000199e+01,1.187506194926005350e-02
5.828000000000000114e+01,9.166146549114654804e-03
5.832000000000000028e+01,1.149676499782500104e-02
5.835999999999999943e+01,7.971682422591060135e-03
5.839999999999999858e+01,1.274729123976915332e-02
5.843999999999999773e+01,9.740149741526942309e-03
5.847999999999999687e+01,6.436098699179107312e-03
5.852000000000000313e+01,1.165508921304861042e-02
5.856000000000000227e+01,9.313679575303152394e-03
5.860000000000000142e+01,9.862400177275911298e-03
5.864000000000000057e+01,9.298919512709858184e-03
5.867999999999999972e+01,8.216174986376705708e-03
5.871999999999999886e+01,8.689448813057389434e-03
5.875999999999999801e+01,8.495223258506000991e-03
5.879999999999999716e+01,6.818208157985458130e-03
5.884000000000000341e+01,6.993678814784534681e-03
5.888000000000000256e+01,1.072633124118186655e-02
5.892000000000000171e+01,6.676227121374672321e-03
5.896000000000000085e+01,6.924476137706322629e-03
5.900000000000000000e+01,8.209919188924453756e-03
5.903999999999999915e+01,7.419631654777605716e-03
5.907999999999999829e+01,6.628895750046734890e-03
5.911999999999999744e+01,1.035886262602804010e-02
5.915999999999999659e+01,8.826056017428442896e-03
5.920000000000000284e+01,9.738668417064014204e-03
5.924000000000000199e+01,1.013200968568426369e-02
5.928000000000000114e+01,5.929631076531750866e-03
5.932000000000000028e+01,5.877366449428970789e-03
5.935999999999999943e+01,8.641104956135610068e-03
5.939999999999999858e+01,6.883239267873912486e-03
5.943999999999999773e+01,1.053547909247376339e-02
5.947999999999999687e+01,1.048140332914631462e-02
5.952000000000000313e+01,5.757487332153545488e-03
5.956000000000000227e+01,8.741309745840608950e-03
5.960000000000000142e+01,7.129408127898776044e-03
5.964000000000000057e+01,9.889968059651961171e-03
5.967999999999999972e+01,8.944209807317748950e-03
5.971999999999999886e+01,6.886236269180309559e-03
5.975999999999999801e+01,6.606619305525661401e-03
5.979999999999999716e+01,9.884172169132876204e-03
5.984000000000000341e+01,9.084818569222316564e-03
5.988000000000000256e+01,6.654426923077250665e-03
5.992000000000000171e+01,9.041196635005846124e-03
5.996000000000000085e+01,4.460485946202598188e-03
