2.003999999999999915e+01,9.241339194214898828e-03
2.007999999999999829e+01,1.710596180692834645e-02
2.012000000000000099e+01,7.173224070617125608e-03
2.016000000000000014e+01,1.194267557897644647e-02
2.019999999999999929e+01,1.071519784779242056e-02
2.023999999999999844e+01,1.767710200515273250e-02
2.028000000000000114e+01,1.406376658785815810e-02
2.032000000000000028e+01,9.354226639526881312e-03
2.035999999999999943e+01,6.514710566360292811e-03
2.039999999999999858e+01,6.190050349341894714e-03
2.044000000000000128e+01,1.063715882030088870e-02
2.048000000000000043e+01,1.353667868456725175e-02
2.051999999999999957e+01,1.359894490210968379e-02
2.055999999999999872e+01,1.346776970896029074e-02
2.060000000000000142e+01,1.243383717139225769e-02
2.064000000000000057e+01,7.530918164494622077e-03
2.067999999999999972e+01,1.036599445500187289e-02
2.071999999999999886e+01,4.237908068797462818e-03
2.076000000000000156e+01,2.383863855672672602e-02
2.080000000000000071e+01,1.371260429034175735e-02
2.083999999999999986e+01,8.938684224690912269e-03
2.087999999999999901e+01,1.396622114875354162e-02
2.092000000000000171e+01,2.486173742711135157e-02
2.096000000000000085e+01,1.757298640579128129e-02
2.100000000000000000e+01,2.002120806208651516e-02
2.103999999999999915e+01,1.718180850676013713e-02
2.107999999999999829e+01,3.315779551446581142e-03
2.112000000000000099e+01,1.588787981044575970e-02
2.116000000000000014e+01,1.910991403562773555e-02
2.119999999999999929e+01,1.562569446302474949e-02
2.123999999999999844e+01,3.565206946300935199e-03
2.128000000000000114e+01,1.026934235644508253e-02
2.132000000000000028e+01,2.039109063405107614e-02
2.135999999999999943e+01,6.460593721352967528e-03
2.139999999999999858e+01,3.325688717074626061e-04
2.144000000000000128e+01,9.358104405616419694e-03
2.148000000000000043e+01,1.386981358340713504e-02
2.151999999999999957e+01,1.606012600287503797e-02
2.155999999999999872e+01,6.450005901692374387e-03
2.160000000000000142e+01,5.932020747465092080e-03
2.164000000000000057e+01,1.489306958504138176e-02
2.167999999999999972e+01,1.540681299366190339e-02
2.171999999999999886e+01,1.037499614549427900e-02
2.176000000000000156e+01,7.406640297175482064e-03
2.180000000000000071e+01,7.662443301959683505e-03
2.183999999999999986e+01,4.694081397109243180e-03
2.187999999999999901e+01,9.915086647257098651e-03
2.192000000000000171e+01,1.171847656695921593e-02
2.196000000000000085e+01,7.782854371642971246e-03
2.200000000000000000e+01,1.184314855115918032e-02
2.203999999999999915e+01,9.906496960812166686e-03
2.207999999999999829e+01,1.635266043079102241e-02
2.212000000000000099e+01,5.388344988209342254e-03
2.216000000000000014e+01,1.118966431164174387e-02
2.219999999999999929e+01,1.428268136351707254e-02
2.223999999999999844e+01,1.137875084875534376e-02
2.228000000000000114e+01,6.540316152132860140e-03
2.232000000000000028e+01,8.279163806760423197e-03
2.235999999999999943e+01,1.188801736881361752e-02
2.239999999999999858e+01,1.672204413859948099e-02
2.244000000000000128e+01,1.929914911893635884e-02
2.248000000000000043e+01,1.207479356851152985e-02
2.251999999999999957e+01,1.529671261459252321e-02
2.255999999999999872e+01,8.265787772965448726e-03
2.260000000000000142e+01,7.425243362901907951e-03
2.264000000000000057e+01,9.679883791423383663e-03
2.267999999999999972e+01,1.367556078446458163e-02
2.271999999999999886e+01,1.128738649440834754e-02
2.276000000000000156e+01,1.134956362453450746e-02
2.280000000000000071e+01,1.270139360287925873e-02
2.283999999999999986e+01,1.560080900622320618e-02
2.287999999999999901e+01,1.314810343359187027e-02
2.292000000000000171e+01,1.063090171640440444e-02
2.296000000000000085e+01,1.398166102641832526e-02
2.300000000000000000e+01,2.326486423831270606e-02
2.303999999999999915e+01,1.520206350652044021e-02
2.307999999999999829e+01,9.718577788139943011e-03
2.312000000000000099e+01,4.493010298598533458e-03
2.316000000000000014e+01,1.016509429412337101e-02
2.319999999999999929e+01,1.054953767286845312e-02
2.323999999999999844e+01,7.322904160358609943e-03
2.328000000000000114e+01,1.086699407668548049e-02
2.332000000000000028e+01,1.337933574440107985e-02
2.335999999999999943e+01,1.124886769825608410e-02
2.339999999999999858e+01,1.124632915244786792e-02
2.344000000000000128e+01,2.394697012916956191e-02
2.348000000000000043e+01,1.865677086896371656e-02
2.351999999999999957e+01,2.516698513610464774e-02
2.355999999999999872e+01,2.097296389343118392e-02
2.360000000000000142e+01,1.497339307825697706e-02
2.364000000000000057e+01,1.419694484091466036e-02
2.367999999999999972e+01,1.522600741825643270e-02
2.371999999999999886e+01,9.097410920225309366e-03
2.376000000000000156e+01,2.586034204723086649e-02
2.380000000000000071e+01,8.060238915776568244e-03
2.383999999999999986e+01,1.224889741417584110e-02
2.387999999999999901e+01,1.018266067625672212e-02
2.392000000000000171e+01,1.217884578807703136e-02
2.396000000000000085e+01,1.707675417767311188e-02
2.400000000000000000e+01,1.984669323105152719e-02
2.403999999999999915e+01,9.204096632937353722e-03
2.407999999999999829e+01,1.713264810475511463e-02
2.412000000000000099e+01,1.654938899294173399e-02
2.416000000000000014e+01,1.667542140498005573e-02
2.419999999999999929e+01,1.693039587521079359e-02
2.423999999999999844e+01,1.518636532116284660e-02
2.428000000000000114e+01,1.189471202171819494e-02
2.432000000000000028e+01,1.969414948815262356e-02
2.435999999999999943e+01,1.427449813035772466e-02
2.439999999999999858e+01,1.665729188400703192e-02
2.444000000000000128e+01,1.768591115694201701e-02
2.448000000000000043e+01,1.278204597340604556e-02
2.451999999999999957e+01,1.806650448250161217e-02
2.455999999999999872e+01,7.810475945376162653e-03
2.460000000000000142e+01,1.328832850908197652e-02
2.464000000000000057e+01,1.586440717848769735e-02
2.467999999999999972e+01,2.269635057199352254e-02
2.471999999999999886e+01,1.192434199277665058e-02
2.476000000000000156e+01,1.024443997148758931e-02
2.480000000000000071e+01,9.467273426475164219e-03
2.483999999999999986e+01,1.900739416732374204e-02
2.487999999999999901e+01,1.307150822114686028e-02
2.492000000000000171e+01,1.055320280050161402e-02
2.496000000000000085e+01,1.641768656663819201e-02
2.500000000000000000e+01,2.047660818285669884e-02
2.503999999999999915e+01,1.628164388641950219e-02
2.507999999999999829e+01,1.008766701925319954e-02
2.512000000000000099e+01,7.375752114878548690e-03
2.516000000000000014e+01,1.291765813244409936e-02
2.519999999999999929e+01,7.690830672615450378e-03
2.523999999999999844e+01,7.171245544156843420e-03
2.528000000000000114e+01,9.617855068800109514e-03
2.532000000000000028e+01,1.296719539810793978e-02
2.535999999999999943e+01,2.044342787441698339e-02
2.539999999999999858e+01,2.031060354421558578e-02
2.544000000000000128e+01,1.624426638807724074e-02
2.548000000000000043e+01,1.456377298196239248e-02
2.551999999999999957e+01,2.145951343376387502e-02
2.555999999999999872e+01,1.042887819622312535e-02
2.560000000000000142e+01,1.919455881977543202e-02
2.564000000000000057e+01,2.505845656515810760e-02
2.567999999999999972e+01,1.119044699018704320e-02
2.571999999999999886e+01,1.885979951715805597e-02
2.576000000000000156e+01,2.246666987528618195e-02
2.580000000000000071e+01,2.085035949260773125e-02
2.583999999999999986e+01,1.394638477573411327e-02
2.587999999999999901e+01,1.091136459811429052e-02
2.592000000000000171e+01,1.613015851469384865e-02
2.596000000000000085e+01,1.393334029589756232e-02
2.600000000000000000e+01,1.973240251645576662e-02
2.603999999999999915e+01,1.798688541486088283e-02
2.607999999999999829e+01,2.520449654441839216e-02
2.612000000000000099e+01,3.003618635581957116e-02
2.616000000000000014e+01,5.227830733809520763e-02
2.619999999999999929e+01,4.144048688340225967e-02
2.623999999999999844e+01,3.634163152075114284e-02
2.628000000000000114e+01,3.349964625296030646e-02
2.632000000000000028e+01,2.027581685004440845e-02
2.635999999999999943e+01,1.962617426869190176e-02
2.639999999999999858e+01,2.013718572556021796e-02
2.644000000000000128e+01,1.297464779865995996e-02
2.648000000000000043e+01,1.232487161607881757e-02
2.651999999999999957e+01,1.186849988314670618e-02
2.655999999999999872e+01,1.457176100606501559e-02
2.660000000000000142e+01,1.546944560487412829e-02
2.664000000000000057e+01,2.100987672360213679e-02
2.667999999999999972e+01,2.783992583313520813e-02
2.671999999999999886e+01,3.911927104177607972e-02
2.676000000000000156e+01,9.024920747474232674e-02
2.680000000000000071e+01,1.453125734158362548e-01
2.683999999999999986e+01,1.581393729374813983e-01
2.687999999999999901e+01,1.096425684063095651e-01
2.692000000000000171e+01,6.565954141150551204e-02
2.696000000000000085e+01,3.921590486854798635e-02
2.700000000000000000e+01,1.425533314365877435e-02
2.703999999999999915e+01,1.644215302294701683e-02
2.707999999999999829e+01,1.624304295956425018e-02
2.712000000000000099e+01,7.918994765144880127e-03
2.716000000000000014e+01,1.216912620519330912e-02
2.719999999999999929e+01,9.712949944239790759e-03
2.723999999999999844e+01,1.312469625952623030e-02
2.728000000000000114e+01,1.228049704838672998e-02
2.732000000000000028e+01,2.046389816243529558e-02
2.735999999999999943e+01,1.259092120315756513e-02
2.739999999999999858e+01,9.618616872193256825e-03
2.744000000000000128e+01,1.045076983161250667e-02
2.748000000000000043e+01,1.328184916911332586e-02
2.751999999999999957e+01,9.793517334976950539e-03
2.755999999999999872e+01,9.916192011058323416e-03
2.760000000000000142e+01,4.686703307300371310e-03
2.764000000000000057e+01,1.093517494717774485e-02
2.767999999999999972e+01,1.447529508389324045e-02
2.771999999999999886e+01,1.272773399673894808e-02
2.776000000000000156e+01,9.110102730152976405e-03
2.780000000000000071e+01,1.316591956178730927e-02
2.783999999999999986e+01,5.679180390206077338e-03
2.787999999999999901e+01,1.663458868178497793e-02
2.792000000000000171e+01,1.527364144303284751e-02
2.796000000000000085e+01,1.049502461126324698e-02
2.800000000000000000e+01,1.416365288934598107e-02
2.803999999999999915e+01,1.596220847251360320e-02
2.807999999999999829e+01,6.669588534573806828e-03
2.812000000000000099e+01,1.343323424441380566e-02
2.816000000000000014e+01,2.109958524472903621e-02
2.819999999999999929e+01,1.580474585889141137e-02
2.823999999999999844e+01,2.617927163856632530e-02
2.828000000000000114e+01,2.062637754782268087e-02
2.832000000000000028e+01,2.081242986267234710e-02
2.835999999999999943e+01,2.802709290443708076e-02
2.839999999999999858e+01,1.073806487121965747e-02
2.844000000000000128e+01,2.111228173703307703e-02
2.848000000000000043e+01,1.272181463816556002e-02
2.851999999999999957e+01,1.929139461495502084e-02
2.855999999999999872e+01,1.625290914115773422e-02
2.860000000000000142e+01,1.108641300534311293e-02
2.864000000000000057e+01,1.417370652760286016e-02
2.867999999999999972e+01,1.797025096662418706e-02
2.871999999999999886e+01,2.041258247396978559e-02
2.876000000000000156e+01,2.053345217977747134e-02
2.880000000000000071e+01,1.175556985324184393e-02
2.883999999999999986e+01,7.942830452281392575e-03
2.887999999999999901e+01,1.044938153225175199e-02
2.892000000000000171e+01,1.353621490478741293e-02
2.896000000000000085e+01,6.176697190748713789e-03
2.900000000000000000e+01,1.332583960187282666e-02
2.903999999999999915e+01,9.964146973679269270e-03
2.907999999999999829e+01,5.054788477515450955e-03
2.912000000000000099e+01,1.575030400702516140e-02
2.916000000000000014e+01,1.103425763258183111e-02
2.919999999999999929e+01,1.431406294911062235e-02
2.923999999999999844e+01,9.662360790901020069e-03
2.928000000000000114e+01,4.236789776353232055e-03
2.932000000000000028e+01,1.441609099070507993e-02
2.935999999999999943e+01,4.412069185826593930e-03
2.939999999999999858e+01,1.452674527350628769e-02
2.944000000000000128e+01,1.058400485645984157e-02
2.948000000000000043e+01,1.334744893422552467e-02
2.951999999999999957e+01,8.437315957904608851e-03
2.955999999999999872e+01,5.203674503047582035e-03
2.960000000000000142e+01,8.676216464938336578e-03
2.964000000000000057e+01,1.034315459175658494e-02
2.967999999999999972e+01,4.787896865305971660e-03
2.971999999999999886e+01,6.390204115775605272e-03
2.976000000000000156e+01,9.346584920766025720e-03
2.980000000000000071e+01,4.371453220051139607e-03
2.983999999999999986e+01,7.005268056428937302e-03
2.987999999999999901e+01,1.221833681590596583e-02
2.992000000000000171e+01,9.628858459681000417e-03
2.996000000000000085e+01,1.135968062675910342e-02
3.000000000000000000e+01,1.289697657541744383e-02
3.003999999999999915e+01,6.438274628207904873e-03
3.007999999999999829e+01,3.332623615729685823e-03
3.012000000000000099e+01,1.035076275218004688e-02
3.016000000000000014e+01,1.478949457353983914e-02
3.019999999999999929e+01,7.685649189752103913e-03
3.023999999999999844e+01,1.392975457852003475e-02
3.028000000000000114e+01,8.244382639227849224e-03
3.032000000000000028e+01,9.007254712162094182e-03
3.035999999999999943e+01,8.609348821976120156e-03
3.039999999999999858e+01,7.373080779484352670e-03
3.044000000000000128e+01,1.045710894803826910e-02
3.048000000000000043e+01,7.286182586735147869e-03
3.051999999999999957e+01,6.952437334990116055e-03
3.055999999999999872e+01,1.151933632253093580e-02
3.060000000000000142e+01,4.866070681545528465e-03
3.064000000000000057e+01,3.564831199373168658e-03
3.067999999999999972e+01,6.003536665813431587e-03
3.071999999999999886e+01,1.091070467692846230e-03
3.076000000000000156e+01,1.113863122136159525e-02
3.080000000000000071e+01,9.321193209391891166e-03
3.083999999999999986e+01,1.304922926156287973e-02
3.087999999999999901e+01,6.911246084434585421e-03
3.092000000000000171e+01,1.031669676283482329e-02
3.096000000000000085e+01,3.082328684820279108e-03
3.100000000000000000e+01,6.423125488165947784e-03
3.103999999999999915e+01,6.023808858007010346e-03
3.107999999999999829e+01,2.658177243394631122e-03
3.112000000000000099e+01,3.096969858526085057e-03
3.116000000000000014e+01,5.599139025133189305e-03
3.119999999999999929e+01,1.717380725429577858e-03
3.123999999999999844e+01,6.540771363976446116e-03
3.128000000000000114e+01,9.107160795668124698e-03
3.132000000000000028e+01,5.096171980883231444e-03
3.135999999999999943e+01,6.243753154423887196e-03
3.139999999999999858e+01,4.167083532537561169e-03
3.144000000000000128e+01,1.311695747734567541e-02
3.148000000000000043e+01,6.784215143691176703e-03
3.151999999999999957e+01,0.000000000000000000e+00
3.155999999999999872e+01,6.047857897886164957e-03
3.160000000000000142e+01,3.906254182966585088e-03
3.164000000000000057e+01,7.439083813159750452e-03
3.167999999999999972e+01,1.374460089758855301e-02
3.171999999999999886e+01,1.736787547836097069e-03
3.176000000000000156e+01,8.429019739965529223e-03
3.180000000000000071e+01,6.931788522515327372e-03
3.183999999999999986e+01,4.531698981953383859e-03
3.187999999999999901e+01,7.483624460206382903e-03
3.192000000000000171e+01,5.921629790743645344e-03
3.196000000000000085e+01,6.036105081458004347e-03
3.200000000000000000e+01,6.666351760385774358e-03
3.203999999999999915e+01,1.557495766890699268e-03
3.207999999999999829e+01,6.121029675703226931e-03
3.211999999999999744e+01,1.442449559635626717e-02
3.215999999999999659e+01,1.208813197995112221e-02
3.220000000000000284e+01,1.271790084827099584e-02
3.224000000000000199e+01,5.609584992345448794e-03
3.228000000000000114e+01,8.625039880190395539e-03
3.232000000000000028e+01,1.486455911083130188e-02
3.235999999999999943e+01,1.878258419800411111e-02
3.239999999999999858e+01,1.941186627184660410e-02
3.243999999999999773e+01,1.494687442005678858e-02
3.247999999999999687e+01,1.260973049506871127e-02
3.252000000000000313e+01,2.671571209303772940e-02
3.256000000000000227e+01,3.114910907090821107e-02
3.260000000000000142e+01,2.345955817603984778e-02
3.264000000000000057e+01,3.898387129961630726e-02
3.267999999999999972e+01,4.032177234266185600e-02
3.271999999999999886e+01,5.623278332490951742e-02
3.275999999999999801e+01,7.762476788823460816e-02
3.279999999999999716e+01,1.024342621841998202e-01
3.284000000000000341e+01,1.256315735988116633e-01
3.288000000000000256e+01,1.759762241518032511e-01
3.292000000000000171e+01,2.007209280441474009e-01
3.296000000000000085e+01,2.314624695930657672e-01
3.300000000000000000e+01,2.524024561009153844e-01
3.303999999999999915e+01,2.558673823583157980e-01
3.307999999999999829e+01,2.245112580508121791e-01
3.311999999999999744e+01,1.959922914948059591e-01
3.315999999999999659e+01,1.629593936510858321e-01
3.320000000000000284e+01,1.285077593939208396e-01
3.324000000000000199e+01,1.002464099799480618e-01
3.328000000000000114e+01,8.649368224017663087e-02
3.332000000000000028e+01,5.442760969203278704e-02
3.335999999999999943e+01,7.194903741378380624e-02
3.339999999999999858e+01,8.908345866985734052e-02
3.343999999999999773e+01,8.551865438024242039e-02
3.347999999999999687e+01,6.099669124944891163e-02
3.352000000000000313e+01,5.401405963631807083e-02
3.356000000000000227e+01,2.194734148513406008e-02
3.360000000000000142e+01,2.051005064177045811e-02
3.364000000000000057e+01,1.855678470853304451e-02
3.367999999999999972e+01,3.311111711099790078e-02
3.371999999999999886e+01,4.469911081159386179e-02
3.375999999999999801e+01,6.460533140688624887e-02
3.379999999999999716e+01,6.374783998826333287e-02
3.384000000000000341e+01,5.644191415188036520e-02
3.388000000000000256e+01,5.481040153674251320e-02
3.392000000000000171e+01,3.867004953090644875e-02
3.396000000000000085e+01,3.026757351668843757e-02
3.400000000000000000e+01,1.831840717881359076e-02
3.403999999999999915e+01,1.417159934788109373e-02
3.407999999999999829e+01,7.767765155258777449e-03
3.411999999999999744e+01,1.329321572903431094e-02
3.415999999999999659e+01,4.374307990016774311e-03
3.420000000000000284e+01,9.835047191973039435e-03
3.424000000000000199e+01,1.432842327549696190e-02
3.428000000000000114e+01,7.214702265651956950e-03
3.432000000000000028e+01,1.144991511912642548e-02
3.435999999999999943e+01,1.020393739373620483e-02
3.439999999999999858e+01,1.166613945242278051e-02
3.443999999999999773e+01,5.390237022351050677e-03
3.447999999999999687e+01,9.753951443807574312e-03
3.452000000000000313e+01,8.443024146878780334e-03
3.456000000000000227e+01,4.875066176002838120e-03
3.460000000000000142e+01,9.044978447068469443e-03
3.464000000000000057e+01,6.766449113278498462e-03
3.467999999999999972e+01,1.042025874977335273e-02
3.471999999999999886e+01,6.980793722364739967e-03
3.475999999999999801e+01,2.702927372979316636e-03
3.479999999999999716e+01,4.808781554051168479e-03
3.484000000000000341e+01,9.300395396128110712e-03
3.488000000000000256e+01,3.732504371326338371e-03
3.492000000000000171e+01,9.642508287590010121e-03
3.496000000000000085e+01,4.912657511960938882e-03
3.500000000000000000e+01,8.372056022962469715e-03
3.503999999999999915e+01,4.609210527154639254e-03
3.507999999999999829e+01,8.068365088760406229e-03
3.511999999999999744e+01,5.272523435354725674e-03
3.515999999999999659e+01,6.990385291232227571e-03
3.520000000000000284e+01,7.096043063824413431e-03
3.524000000000000199e+01,7.652959882859016773e-03
3.528000000000000114e+01,3.953859304511725403e-03
3.532000000000000028e+01,9.475736882498066171e-03
3.535999999999999943e+01,3.841890302773247161e-03
3.539999999999999858e+01,1.045973316026243931e-02
3.543999999999999773e+01,2.449302254307372806e-02
3.547999999999999687e+01,2.169606209513253933e-02
3.552000000000000313e+01,2.766869536851426781e-02
3.556000000000000227e+01,2.635459672944068243e-02
3.560000000000000142e+01,2.439553892404141763e-02
3.564000000000000057e+01,2.424188448624717968e-02
3.567999999999999972e+01,1.938082641928643921e-02
3.571999999999999886e+01,1.922691653274348836e-02
3.575999999999999801e+01,1.668699872354236988e-02
3.579999999999999716e+01,1.330867024914013895e-02
3.584000000000000341e+01,1.296092479221182432e-02
3.588000000000000256e+01,8.808539185816723766e-03
3.592000000000000171e+01,5.365339452968097278e-03
3.596000000000000085e+01,1.069172948853983236e-02
3.600000000000000000e+01,1.240692799868194432e-02
3.603999999999999915e+01,8.060571730754122893e-03
3.607999999999999829e+01,9.775508323761488566e-03
3.611999999999999744e+01,1.026513197252657515e-02
3.615999999999999659e+01,1.172187227484477318e-02
3.620000000000000284e+01,8.406721042350533482e-03
3.624000000000000199e+01,1.289390855228573010e-02
3.628000000000000114e+01,1.022332414944723822e-02
3.632000000000000028e+01,7.423639984167667606e-03
3.635999999999999943e+01,1.519907254670786398e-02
3.639999999999999858e+01,1.717088003312045030e-02
3.643999999999999773e+01,1.772392199835100615e-02
3.647999999999999687e+01,8.991243530917616619e-03
3.652000000000000313e+01,1.005988154547893948e-02
3.656000000000000227e+01,1.918878836376677888e-02
3.660000000000000142e+01,2.257855154318695254e-02
3.664000000000000057e+01,1.661810961849021981e-02
3.667999999999999972e+01,1.349479346271551493e-02
3.671999999999999886e+01,1.411136799298168265e-02
3.675999999999999801e+01,3.110654672056444026e-02
3.679999999999999716e+01,2.746695295069108075e-02
3.684000000000000341e+01,4.452633933969132873e-02
3.688000000000000256e+01,6.848529344497093774e-02
3.692000000000000171e+01,7.812883091004535485e-02
3.696000000000000085e+01,8.570876584198731940e-02
3.700000000000000000e+01,7.349220852213902977e-02
3.703999999999999915e+01,5.366648982353947744e-02
3.707999999999999829e+01,5.795736053147773625e-02
3.711999999999999744e+01,4.348346965410272019e-02
3.715999999999999659e+01,3.706984219013254034e-02
3.720000000000000284e+01,3.710439692936668560e-02
3.724000000000000199e+01,4.126573708723255129e-02
3.728000000000000114e+01,4.323450536906005975e-02
3.732000000000000028e+01,6.848157885885697294e-02
3.735999999999999943e+01,8.160566171269631464e-02
3.739999999999999858e+01,7.357910080648720486e-02
3.743999999999999773e+01,6.194133543807640169e-02
3.747999999999999687e+01,6.049177733134857016e-02
3.752000000000000313e+01,6.310451889373513978e-02
3.756000000000000227e+01,5.752774529945382798e-02
3.760000000000000142e+01,6.929681686654616535e-02
3.764000000000000057e+01,9.434928949152616984e-02
3.767999999999999972e+01,1.381017544738806779e-01
3.771999999999999886e+01,1.815316574142753492e-01
3.775999999999999801e+01,1.671844364292135454e-01
3.779999999999999716e+01,1.587050431507299186e-01
3.784000000000000341e+01,1.459051262421247330e-01
3.788000000000000256e+01,1.051838216876616466e-01
3.792000000000000171e+01,9.393120741809388163e-02
3.796000000000000085e+01,1.101483028190179125e-01
3.800000000000000000e+01,1.423570918730574508e-01
3.803999999999999915e+01,2.621984472324417892e-01
3.807999999999999829e+01,6.002509174563204208e-01
3.811999999999999744e+01,9.123164948992272816e-01
3.815999999999999659e+01,8.449625734623901208e-01
3.820000000000000284e+01,7.717405275444263468e-01
3.824000000000000199e+01,6.987117807851612739e-01
3.828000000000000114e+01,5.314728781997141160e-01
3.832000000000000028e+01,4.469013303835235873e-01
3.835999999999999943e+01,5.991120663180864447e-01
3.839999999999999858e+01,8.895747040403572115e-01
3.843999999999999773e+01,1.000000000000000000e+00
3.847999999999999687e+01,8.917624966513967300e-01
3.852000000000000313e+01,7.103363696155110540e-01
3.856000000000000227e+01,4.982805529953154289e-01
3.860000000000000142e+01,3.030547066803532807e-01
3.864000000000000057e+01,1.859823858774414251e-01
3.867999999999999972e+01,1.357145410372712080e-01
3.871999999999999886e+01,1.257485626125839917e-01
3.875999999999999801e+01,1.252614643758546698e-01
3.879999999999999716e+01,1.419912340517879845e-01
3.884000000000000341e+01,2.058580918727258291e-01
3.888000000000000256e+01,3.132509763734190877e-01
3.892000000000000171e+01,3.636405253357732348e-01
3.896000000000000085e+01,3.331679418079167565e-01
3.900000000000000000e+01,2.764505246571480890e-01
3.903999999999999915e+01,2.252140246687565350e-01
3.907999999999999829e+01,1.563734436992763044e-01
3.911999999999999744e+01,9.385206121590336514e-02
3.915999999999999659e+01,7.737154902412166080e-02
3.920000000000000284e+01,6.288985791947111770e-02
3.924000000000000199e+01,5.040698754259692604e-02
3.928000000000000114e+01,5.314200051107929174e-02
3.932000000000000028e+01,3.949811178898716274e-02
3.935999999999999943e+01,4.590834824607920722e-02
3.939999999999999858e+01,4.986806084519429527e-02
3.943999999999999773e+01,3.848060242021179161e-02
3.947999999999999687e+01,3.250957397066992632e-02
3.952000000000000313e+01,3.949951351917191378e-02
3.956000000000000227e+01,3.159366360374879501e-02
3.960000000000000142e+01,3.503670011681424279e-02
3.964000000000000057e+01,3.422368006282684033e-02
3.967999999999999972e+01,3.624775882615299122e-02
3.971999999999999886e+01,3.008230302765316222e-02
3.975999999999999801e+01,3.229950345466663791e-02
3.979999999999999716e+01,3.387170698310253830e-02
3.984000000000000341e+01,3.518581265780911654e-02
3.988000000000000256e+01,3.649975305556686644e-02
3.992000000000000171e+01,3.323521820061916404e-02
3.996000000000000085e+01,3.635435751936217513e-02
4.000000000000000000e+01,3.373432265408123770e-02
4.003999999999999915e+01,4.742837928499113453e-02
4.007999999999999829e+01,3.674760637739087760e-02
4.011999999999999744e+01,3.154774092958863296e-02
4.015999999999999659e+01,3.872848862384931784e-02
4.020000000000000284e+01,5.758053352644603579e-02
4.024000000000000199e+01,8.197796804481020938e-02
4.028000000000000114e+01,1.471931208360916510e-01
4.032000000000000028e+01,1.498593673847073704e-01
4.035999999999999943e+01,1.211865926036759938e-01
4.039999999999999858e+01,9.470607783123381751e-02
4.043999999999999773e+01,9.047210849254702647e-02
4.047999999999999687e+01,5.560843232052083140e-02
4.052000000000000313e+01,3.976713916184897168e-02
4.056000000000000227e+01,3.076089742478293337e-02
4.060000000000000142e+01,2.794487440962964420e-02
4.064000000000000057e+01,2.996492184232391748e-02
4.067999999999999972e+01,2.689062132230126551e-02
4.071999999999999886e+01,2.987757197805938902e-02
4.075999999999999801e+01,2.802810689852636150e-02
4.079999999999999716e+01,2.276085687309161928e-02
4.084000000000000341e+01,2.297450783906884036e-02
4.088000000000000256e+01,1.364446590722106188e-02
4.092000000000000171e+01,1.830711114054110050e-02
4.096000000000000085e+01,2.245371552206264568e-02
4.100000000000000000e+01,1.596041094911974587e-02
4.103999999999999915e+01,1.772078463426954992e-02
4.107999999999999829e+01,2.580033919714242244e-02
4.111999999999999744e+01,1.833925794091546824e-02
4.115999999999999659e+01,1.997013590715667614e-02
4.120000000000000284e+01,1.882805767428668078e-02
4.124000000000000199e+01,1.581578815942433561e-02
4.128000000000000114e+01,1.641440189609029779e-02
4.132000000000000028e+01,1.501385716398670640e-02
4.135999999999999943e+01,1.754661113487100341e-02
4.139999999999999858e+01,1.672605800356575384e-02
4.143999999999999773e+01,2.106398430318163692e-02
4.147999999999999687e+01,2.308033452643965325e-02
4.152000000000000313e+01,2.400028976062780137e-02
4.156000000000000227e+01,3.394771738970246699e-02
4.160000000000000142e+01,3.718870795005457114e-02
4.164000000000000057e+01,3.836605393276502907e-02
4.167999999999999972e+01,4.618499157304598729e-02
4.171999999999999886e+01,3.930157004634522722e-02
4.175999999999999801e+01,3.216003341688569717e-02
4.179999999999999716e+01,2.721074421859812076e-02
4.184000000000000341e+01,1.652226430596673984e-02
4.188000000000000256e+01,1.744058327473678796e-02
4.192000000000000171e+01,1.758491983105834114e-02
4.196000000000000085e+01,1.953460297692974010e-02
4.200000000000000000e+01,1.258541550338060540e-02
4.203999999999999915e+01,1.163298411287064758e-02
4.207999999999999829e+01,8.939320361985631305e-03
4.211999999999999744e+01,8.179968231299000053e-03
4.215999999999999659e+01,1.154735731860618946e-02
4.220000000000000284e+01,1.794527228597732338e-02
4.224000000000000199e+01,1.086600486139734610e-02
4.228000000000000114e+01,1.223385425701340769e-02
4.232000000000000028e+01,9.861488881077008078e-03
4.235999999999999943e+01,1.445312522384899385e-02
4.239999999999999858e+01,1.246728377887050022e-02
4.243999999999999773e+01,1.202885167504917814e-02
4.247999999999999687e+01,1.584612438245111207e-02
4.252000000000000313e+01,8.314158905534843602e-03
4.256000000000000227e+01,1.039000594594006316e-02
4.260000000000000142e+01,1.175634769889933283e-02
4.264000000000000057e+01,1.331594908153149390e-02
4.267999999999999972e+01,1.306982947943304343e-02
4.271999999999999886e+01,1.192075380972283313e-02
4.275999999999999801e+01,6.322143841185461251e-03
4.279999999999999716e+01,6.268900489709664306e-03
4.284000000000000341e+01,1.272827190644811556e-02
4.288000000000000256e+01,1.202981211687426111e-02
4.292000000000000171e+01,1.068632739905002980e-02
4.296000000000000085e+01,8.375401223451525712e-03
4.300000000000000000e+01,7.547396124009469846e-03
4.303999999999999915e+01,7.879895571199939386e-03
4.307999999999999829e+01,1.111394652458154095e-02
4.311999999999999744e+01,1.157502402982253306e-02
4.315999999999999659e+01,8.553812153195998469e-03
4.320000000000000284e+01,1.333487649126728625e-02
4.324000000000000199e+01,1.011982434639344293e-02
4.328000000000000114e+01,1.141840276178258083e-02
4.332000000000000028e+01,6.332944826362750870e-03
4.335999999999999943e+01,9.630110774526081177e-03
4.339999999999999858e+01,1.666710739648209413e-02
4.343999999999999773e+01,1.383797195173806088e-02
4.347999999999999687e+01,9.654490973404606866e-03
4.352000000000000313e+01,1.114533661181437915e-02
4.356000000000000227e+01,3.737297615967190983e-03
4.360000000000000142e+01,1.077330434675442990e-02
4.364000000000000057e+01,1.116733891575914968e-02
4.367999999999999972e+01,1.317325491995673115e-02
4.371999999999999886e+01,1.356689029830092548e-02
4.375999999999999801e+01,1.157444588303102422e-02
4.379999999999999716e+01,1.409562735641193242e-02
4.384000000000000341e+01,1.158691572208218022e-02
4.388000000000000256e+01,1.275354721525390547e-02
4.392000000000000171e+01,1.017994956268201100e-02
4.396000000000000085e+01,8.573398489481191126e-03
4.400000000000000000e+01,1.102908886992052216e-02
4.403999999999999915e+01,1.045386460092398613e-02
4.407999999999999829e+01,1.542399544963608989e-02
4.411999999999999744e+01,1.433249893061280290e-02
4.415999999999999659e+01,8.211106429040618271e-03
4.420000000000000284e+01,5.829537414165496256e-03
4.424000000000000199e+01,7.316757994700349987e-03
4.428000000000000114e+01,9.706539045734222104e-03
4.432000000000000028e+01,9.194369399916463639e-03
4.435999999999999943e+01,1.487238469666217304e-02
4.439999999999999858e+01,6.363882621926543644e-03
4.443999999999999773e+01,1.242838519544262228e-02
4.447999999999999687e+01,4.822235551038451216e-03
4.452000000000000313e+01,9.467693410958591058e-03
4.456000000000000227e+01,1.146913135403368304e-02
4.460000000000000142e+01,8.956535233927944567e-03
4.464000000000000057e+01,7.346496350128239872e-03
4.467999999999999972e+01,6.252114939076781203e-03
4.471999999999999886e+01,6.769605619993927445e-03
4.475999999999999801e+01,6.642054842340848649e-03
4.479999999999999716e+01,6.901193991304052644e-03
4.484000000000000341e+01,8.449787984002348623e-03
4.488000000000000256e+01,3.227432206852318391e-03
4.492000000000000171e+01,9.353915064005192612e-03
4.496000000000000085e+01,6.839433645619128269e-03
4.500000000000000000e+01,1.616445123451630637e-03
4.503999999999999915e+01,7.935743859624188115e-03
4.507999999999999829e+01,4.388895795550717613e-03
4.511999999999999744e+01,1.057880371816052358e-02
4.515999999999999659e+01,8.901544376863435373e-03
4.520000000000000284e+01,4.902675539214005479e-03
4.524000000000000199e+01,8.512614887067134969e-03
4.528000000000000114e+01,5.738500275727117898e-03
4.532000000000000028e+01,7.284548195454817326e-03
4.535999999999999943e+01,6.573468415444893610e-03
4.539999999999999858e+01,8.634952830981212218e-03
4.543999999999999773e+01,6.053429168818661235e-03
4.547999999999999687e+01,2.955824047767508390e-03
4.552000000000000313e+01,9.466004851784191876e-03
4.556000000000000227e+01,4.497953692451747698e-03
4.560000000000000142e+01,5.075243995346339319e-03
4.564000000000000057e+01,9.005445443962950547e-03
4.567999999999999972e+01,5.003991723026738475e-03
4.571999999999999886e+01,1.061032213038442737e-02
4.575999999999999801e+01,1.208950745747564351e-02
4.579999999999999716e+01,7.636016791998367741e-03
4.584000000000000341e+01,9.630630709093066649e-03
4.588000000000000256e+01,1.233434102039411388e-02
4.592000000000000171e+01,6.074662261472379976e-03
4.596000000000000085e+01,5.876187602855269775e-03
4.600000000000000000e+01,7.611989707022962307e-03
4.603999999999999915e+01,7.477557406624717531e-03
4.607999999999999829e+01,9.922233490640017251e-03
4.611999999999999744e+01,1.688051462072891890e-02
4.615999999999999659e+01,1.384367277992510151e-02
4.620000000000000284e+01,1.325697177740277864e-02
4.624000000000000199e+01,1.847353942356632847e-02
4.628000000000000114e+01,4.122932395321786403e-02
4.632000000000000028e+01,7.152942373175909252e-02
4.635999999999999943e+01,7.094183091567302091e-02
4.639999999999999858e+01,5.113801050572799878e-02
4.643999999999999773e+01,4.842202290361501821e-02
4.647999999999999687e+01,4.144991728478187448e-02
4.652000000000000313e+01,3.389723762980205446e-02
4.656000000000000227e+01,2.344258715410290142e-02
4.660000000000000142e+01,2.833472072990333643e-02
4.664000000000000057e+01,2.239344498011387394e-02
4.667999999999999972e+01,1.851540635214560943e-02
4.671999999999999886e+01,1.508852363579805435e-02
4.675999999999999801e+01,8.372768897754278086e-03
4.679999999999999716e+01,1.564964849972576288e-02
4.684000000000000341e+01,1.086793553269073745e-02
4.688000000000000256e+01,9.890505209616368490e-03
4.692000000000000171e+01,9.622161937524128378e-03
4.696000000000000085e+01,9.933938888991538166e-03
4.700000000000000000e+01,8.697888981547467410e-03
4.703999999999999915e+01,7.461609472649045893e-03
4.707999999999999829e+01,1.157720842774929634e-02
4.711999999999999744e+01,1.079185127611461716e-02
4.715999999999999659e+01,1.200524370000993768e-02
4.720000000000000284e+01,9.026994872832901431e-03
4.724000000000000199e+01,1.094924043399860339e-02
4.728000000000000114e+01,1.499920096069765410e-02
4.732000000000000028e+01,1.015024307379044748e-02
4.735999999999999943e+01,1.129799347573674957e-02
4.739999999999999858e+01,1.502484040338886682e-02
4.743999999999999773e+01,2.455494519908346662e-02
4.747999999999999687e+01,2.086575346348610444e-02
4.752000000000000313e+01,2.343120151545849059e-02
4.756000000000000227e+01,1.980602482711677978e-02
4.760000000000000142e+01,2.056547342065417200e-02
4.764000000000000057e+01,1.358669893835602778e-02
4.767999999999999972e+01,1.337842867847909879e-02
4.771999999999999886e+01,1.039714364466191344e-02
4.775999999999999801e+01,1.244531479564299492e-02
4.779999999999999716e+01,1.371945070902297510e-02
4.784000000000000341e+01,1.370368515317641096e-02
4.788000000000000256e+01,1.368768244942511654e-02
4.792000000000000171e+01,8.835199685877134779e-03
4.796000000000000085e+01,8.625271906150559428e-03
4.800000000000000000e+01,8.092689730285767755e-03
4.803999999999999915e+01,6.915036628758842140e-03
4.807999999999999829e+01,2.512982880861811420e-03
4.811999999999999744e+01,2.237616807096456505e-03
4.815999999999999659e+01,1.092518060064515996e-02
4.820000000000000284e+01,1.135865041512077768e-02
4.824000000000000199e+01,7.278053465130594236e-03
4.828000000000000114e+01,6.485860709413180519e-03
4.832000000000000028e+01,8.982071788613743210e-03
4.835999999999999943e+01,9.801477322772667380e-03
4.839999999999999858e+01,8.879593718501334679e-03
4.843999999999999773e+01,6.345387084512633946e-03
4.847999999999999687e+01,8.260281060631716188e-03
4.852000000000000313e+01,6.434904565207512708e-03
4.856000000000000227e+01,1.041277587589194663e-02
4.860000000000000142e+01,1.019899335808671821e-02
4.864000000000000057e+01,5.277690780166418259e-03
4.867999999999999972e+01,1.202760922736887707e-02
4.871999999999999886e+01,7.234784088160816501e-03
4.875999999999999801e+01,1.372627985116299347e-02
4.879999999999999716e+01,9.964695989721654434e-03
4.884000000000000341e+01,1.110359214243189334e-02
4.888000000000000256e+01,9.276013397811772726e-03
4.892000000000000171e+01,1.118821573602475465e-02
4.896000000000000085e+01,6.845297522472518562e-03
4.900000000000000000e+01,1.101391899154717351e-02
4.903999999999999915e+01,7.895687445605805918e-03
4.907999999999999829e+01,5.293073843386938114e-03
4.911999999999999744e+01,8.300253314208328251e-03
4.915999999999999659e+01,9.243720648689494890e-03
4.920000000000000284e+01,9.993489274456722471e-03
4.924000000000000199e+01,1.454751934225264470e-02
4.928000000000000114e+01,1.420057389815552497e-02
4.932000000000000028e+01,1.527200951812585084e-02
4.935999999999999943e+01,1.066867009908764943e-02
4.939999999999999858e+01,1.083683919516643945e-02
4.943999999999999773e+01,1.113372359657176409e-02
4.947999999999999687e+01,1.123690677377967191e-02
4.952000000000000313e+01,1.153328777163839872e-02
4.956000000000000227e+01,9.572503337507611704e-03
4.960000000000000142e+01,4.451787835558952341e-03
4.964000000000000057e+01,7.584673330425392018e-03
4.967999999999999972e+01,1.155558754886180407e-02
4.971999999999999886e+01,7.981709707115616087e-03
4.975999999999999801e+01,1.279039825218785363e-02
4.979999999999999716e+01,9.860844316266423326e-03
4.984000000000000341e+01,1.208969434676241198e-02
4.988000000000000256e+01,1.380242338934405295e-02
4.992000000000000171e+01,5.326545979582192510e-03
4.996000000000000085e+01,1.264880507375521976e-02
5.000000000000000000e+01,1.145902108175474512e-02
5.003999999999999915e+01,7.754134409372104991e-03
5.007999999999999829e+01,8.369367504838406274e-03
5.011999999999999744e+01,1.343368647686654649e-02
5.015999999999999659e+01,1.630531786061732366e-02
5.020000000000000284e+01,8.150058234101364985e-03
5.024000000000000199e+01,3.476634895575472003e-03
5.028000000000000114e+01,6.863357102086700690e-03
5.032000000000000028e+01,8.250839985002955332e-03
5.035999999999999943e+01,8.219432291273899571e-03
5.039999999999999858e+01,6.253267789274124210e-03
5.043999999999999773e+01,7.446521608321347505e-03
5.047999999999999687e+01,9.542280197876793282e-03
5.052000000000000313e+01,9.251898262860370342e-03
5.056000000000000227e+01,7.736073656526233112e-03
5.060000000000000142e+01,1.234589469937612607e-02
5.064000000000000057e+01,6.509169885361171942e-03
5.067999999999999972e+01,6.088774427448560844e-03
5.071999999999999886e+01,9.408143881403973133e-03
5.075999999999999801e+01,6.149960442459953547e-03
5.079999999999999716e+01,4.181178303388867652e-03
5.084000000000000341e+01,1.362566484814712979e-02
5.088000000000000256e+01,1.075358959293081992e-02
5.092000000000000171e+01,1.265300919734989663e-02
5.096000000000000085e+01,1.339146577093729314e-02
5.100000000000000000e+01,1.142136133752631039e-02
5.103999999999999915e+01,9.902374005419824557e-03
5.107999999999999829e+01,1.005968486190581684e-02
5.111999999999999744e+01,1.060362886695289004e-02
5.115999999999999659e+01,9.148326001954617051e-03
5.120000000000000284e+01,1.136830050253316224e-02
5.124000000000000199e+01,1.803735081773970295e-02
5.128000000000000114e+01,1.464674893060791822e-02
5.132000000000000028e+01,8.998965799876326027e-03
5.135999999999999943e+01,1.199166761790728883e-02
5.139999999999999858e+01,7.890944921091713748e-03
5.143999999999999773e+01,8.239296242130229181e-03
5.147999999999999687e+01,9.554626583841305254e-03
5.152000000000000313e+01,1.506109728856160242e-02
5.156000000000000227e+01,1.837486782758724138e-02
5.160000000000000142e+01,1.594935996970287678e-02
5.164000000000000057e+01,1.842430697113550328e-02
5.167999999999999972e+01,1.535342455905004157e-02
5.171999999999999886e+01,1.034777347998613352e-02
5.175999999999999801e+01,1.262845584142657275e-02
5.179999999999999716e+01,1.303885205121283440e-02
5.184000000000000341e+01,1.228827732436227685e-02
5.188000000000000256e+01,1.005431513135094691e-02
5.192000000000000171e+01,1.175355677166572271e-02
5.196000000000000085e+01,1.371045754602357759e-02
5.200000000000000000e+01,1.147567394673551164e-02
5.203999999999999915e+01,1.169097871993114365e-02
5.207999999999999829e+01,1.087427686842893683e-02
5.211999999999999744e+01,1.160489739422725271e-02
5.215999999999999659e+01,1.104557764048285165e-02
5.220000000000000284e+01,1.254944541760003897e-02
5.224000000000000199e+01,1.527821832378430111e-02
5.228000000000000114e+01,7.947330043760724924e-03
5.232000000000000028e+01,1.215866361950729627e-02
5.235999999999999943e+01,1.495108865086957999e-02
5.239999999999999858e+01,1.567977243815452809e-02
5.243999999999999773e+01,1.350643257956755071e-02
5.247999999999999687e+01,1.281592863005425777e-02
5.252000000000000313e+01,1.347929376219222930e-02
5.256000000000000227e+01,1.227236591493520435e-02
5.260000000000000142e+01,1.319310523902582355e-02
5.264000000000000057e+01,1.385563171585764072e-02
5.267999999999999972e+01,1.567857613482009568e-02
5.271999999999999886e+01,1.137533269073571184e-02
5.275999999999999801e+01,1.422944723521852618e-02
5.279999999999999716e+01,1.244048758072305479e-02
5.284000000000000341e+01,9.555031239755056374e-03
5.288000000000000256e+01,1.189243478827505494e-02
5.292000000000000171e+01,1.397162297405278586e-02
5.296000000000000085e+01,1.179463492763604959e-02
5.300000000000000000e+01,9.359430799767471179e-03
5.303999999999999915e+01,1.111535337942651767e-02
5.307999999999999829e+01,1.106546154211225479e-02
5.311999999999999744e+01,1.217598369402606885e-02
5.315999999999999659e+01,1.347967096530573380e-02
5.320000000000000284e+01,1.168787806087118707e-02
5.324000000000000199e+01,1.131443100373568864e-02
5.328000000000000114e+01,1.152104739210468506e-02
5.332000000000000028e+01,1.443567358973975485e-02
5.335999999999999943e+01,1.186893851498981196e-02
5.339999999999999858e+01,1.226814546693169410e-02
5.343999999999999773e+01,1.518191144797382229e-02
5.347999999999999687e+01,1.616089295042720531e-02
5.352000000000000313e+01,1.178747821114412009e-02
5.356000000000000227e+01,1.405554840106201797e-02
5.360000000000000142e+01,1.548504801290191690e-02
5.364000000000000057e+01,1.981600426127114178e-02
5.367999999999999972e+01,1.789179755401116428e-02
5.371999999999999886e+01,2.325390667887133889e-02
5.375999999999999801e+01,2.577846353318571926e-02
5.379999999999999716e+01,3.307448937359133700e-02
5.384000000000000341e+01,2.695771184319360053e-02
5.388000000000000256e+01,3.109347747305302515e-02
5.392000000000000171e+01,3.406825347982710139e-02
5.396000000000000085e+01,2.795060171800002949e-02
5.400000000000000000e+01,2.273542310346056070e-02
5.403999999999999915e+01,2.545138978654128484e-02
5.407999999999999829e+01,1.901044438892271135e-02
5.411999999999999744e+01,1.837269684709843046e-02
5.415999999999999659e+01,1.534877607941733009e-02
5.420000000000000284e+01,1.277594402401313785e-02
5.424000000000000199e+01,1.665114108667719445e-02
5.428000000000000114e+01,1.169184044203717444e-02
5.432000000000000028e+01,1.292263526062051478e-02
5.435999999999999943e+01,1.073552331203190234e-02
5.439999999999999858e+01,1.518988874619388828e-02
5.443999999999999773e+01,1.287321852471521449e-02
5.447999999999999687e+01,1.584387705256717904e-02
5.452000000000000313e+01,2.023286992836526368e-02
5.456000000000000227e+01,1.662564462381559485e-02
5.460000000000000142e+01,1.708056554388947060e-02
5.464000000000000057e+01,1.631000713845811786e-02
5.467999999999999972e+01,2.005297687717754601e-02
5.471999999999999886e+01,1.579972699813013068e-02
5.475999999999999801e+01,2.399144233068492907e-02
5.479999999999999716e+01,2.547660200743987607e-02
5.484000000000000341e+01,2.335040090266402024e-02
5.488000000000000256e+01,2.412564529441934419e-02
5.492000000000000171e+01,2.851165039772313170e-02
5.496000000000000085e+01,3.141424036454814467e-02
5.500000000000000000e+01,4.327969874901992087e-02
5.503999999999999915e+01,4.766480051315725303e-02
5.507999999999999829e+01,6.455934784809239102e-02
5.511999999999999744e+01,8.577396967217422452e-02
5.515999999999999659e+01,1.139524782214350052e-01
5.520000000000000284e+01,1.621849696453872836e-01
5.524000000000000199e+01,2.123516548211702437e-01
5.528000000000000114e+01,1.913930292291006752e-01
5.532000000000000028e+01,1.610840307142321903e-01
5.535999999999999943e+01,1.557297394232070309e-01
5.539999999999999858e+01,1.438623367881618764e-01
5.543999999999999773e+01,1.176793511316485547e-01
5.547999999999999687e+01,7.963114498759782389e-02
5.552000000000000313e+01,6.563487935349773816e-02
5.556000000000000227e+01,5.634558365984478068e-02
5.560000000000000142e+01,4.067214129346554546e-02
5.564000000000000057e+01,3.944263648793207289e-02
5.567999999999999972e+01,3.582694480106019680e-02
5.571999999999999886e+01,2.298984306590919069e-02
5.575999999999999801e+01,2.414529517530282152e-02
5.579999999999999716e+01,2.717045277152639604e-02
5.584000000000000341e+01,1.813693694391807498e-02
5.588000000000000256e+01,2.122596009580898085e-02
5.592000000000000171e+01,1.709255165769560034e-02
5.596000000000000085e+01,1.399056522655328823e-02
5.600000000000000000e+01,1.720762563380124482e-02
5.603999999999999915e+01,1.655538154273967361e-02
5.607999999999999829e+01,1.500006135956997652e-02
5.611999999999999744e+01,1.686204140520388903e-02
5.615999999999999659e+01,1.588644761900520966e-02
5.620000000000000284e+01,1.071913172690877603e-02
5.624000000000000199e+01,9.420497623788421857e-03
5.628000000000000114e+01,7.928101206158130396e-03
5.632000000000000028e+01,1.256129904997838921e-02
5.635999999999999943e+01,9.198262542485844892e-03
5.639999999999999858e+01,1.189633634370044699e-02
5.643999999999999773e+01,1.543237813752727609e-02
5.647999999999999687e+01,1.032735216163867265e-02
5.652000000000000313e+01,1.115446894832521074e-02
5.656000000000000227e+01,9.079525075597548803e-03
5.660000000000000142e+01,1.306568971480315776e-02
5.664000000000000057e+01,1.144149714646416557e-02
5.667999999999999972e+01,7.560075180984927867e-03
5.671999999999999886e+01,1.315737205316754900e-02
5.675999999999999801e+01,1.153222978889551290e-02
5.679999999999999716e+01,1.480749602717392442e-02
5.684000000000000341e+01,1.279481943130297492e-02
5.688000000000000256e+01,1.510220151296846371e-02
5.692000000000000171e+01,1.205715680774120321e-02
5.696000000000000085e+01,1.262285448696867998e-02
5.700000000000000000e+01,1.447789776607828760e-02
5.703999999999999915e+01,1.607468866890330098e-02
5.707999999999999829e+01,1.464044777263432372e-02
5.711999999999999744e+01,1.372175258977715966e-02
5.715999999999999659e+01,1.480171714375513869e-02
5.720000000000000284e+01,1.394686379914984557e-02
5.724000000000000199e+01,1.089925926047121373e-02
5.728000000000000114e+01,1.294550861418716087e-02
5.732000000000000028e+01,1.073554256603767403e-02
5.735999999999999943e+01,1.200734884072745916e-02
5.739999999999999858e+01,1.147330188812777790e-02
5.743999999999999773e+01,1.267997922074442022e-02
5.747999999999999687e+01,1.046872175651629953e-02
5.752000000000000313e+01,1.412511483696002150e-02
5.756000000000000227e+01,7.979732232500319142e-03
5.760000000000000142e+01,8.153382092239711346e-03
5.764000000000000057e+01,8.391190355541998380e-03
5.767999999999999972e+01,7.725908152544942904e-03
5.771999999999999886e+01,7.963065676840987844e-03
5.775999999999999801e+01,1.393890512161254612e-02
5.779999999999999716e+01,8.113986470303305096e-03
5.784000000000000341e+01,9.510863403538089705e-03
5.788000000000000256e+01,1.103637981824089065e-02
5.792000000000000171e+01,1.107845450421123673e-02
5.796000000000000085e+01,1.053985237856793454e-02
5.800000000000000000e+01,1.277370125171531021e-02
5.803999999999999915e+01,1.120271089284803623e-02
5.807999999999999829e+01,1.272658698423103502e-02
5.811999999999999744e+01,1.637808065600211693e-02
5.815999999999999659e+01,1.461265316684844280e-02
5.820000000000000284e+01,1.046101615700524741e-02
5.824000000000000199e+01,1.301530526588762747e-02
5.828000000000000114e+01,1.415063264587835407e-02
5.832000000000000028e+01,1.638184406494198539e-02
5.835999999999999943e+01,1.487269661118652969e-02
5.839999999999999858e+01,2.000499060470373180e-02
5.843999999999999773e+01,1.456170219910640599e-02
5.847999999999999687e+01,1.498605571366623361e-02
5.852000000000000313e+01,1.482972738564547650e-02
5.856000000000000227e+01,1.757481149351617505e-02
5.860000000000000142e+01,1.651505133840530659e-02
5.864000000000000057e+01,1.442322562441271383e-02
5.867999999999999972e+01,1.690937535312678555e-02
5.871999999999999886e+01,1.933070731475704240e-02
5.875999999999999801e+01,1.601269655497171429e-02
5.879999999999999716e+01,1.379056552200192722e-02
5.884000000000000341e+01,1.143913240985015498e-02
5.888000000000000256e+01,1.076392741210884137e-02
5.892000000000000171e+01,7.895956127393416110e-03
5.896000000000000085e+01,8.638709259393771711e-03
5.900000000000000000e+01,1.125113912984172619e-02
5.903999999999999915e+01,1.553979567728099032e-02
5.907999999999999829e+01,1.125184433097796595e-02
5.911999999999999744e+01,1.076806566607309973e-02
5.915999999999999659e+01,6.157021537050568448e-03
5.920000000000000284e+01,7.607062561900635768e-03
5.924000000000000199e+01,8.411932041750291161e-03
5.928000000000000114e+01,8.249213447075595326e-03
5.932000000000000028e+01,8.473054333232175189e-03
5.935999999999999943e+01,8.761038170696124408e-03
5.939999999999999858e+01,5.437620260184406785e-03
5.943999999999999773e+01,3.919391901183860542e-03
5.947999999999999687e+01,6.656715627625224910e-03
5.952000000000000313e+01,9.522664101988684987e-03
5.956000000000000227e+01,5.037181816995248314e-03
5.960000000000000142e+01,7.580029602834040779e-03
5.964000000000000057e+01,6.575956718602316529e-03
5.967999999999999972e+01,8.086386804125208355e-03
5.971999999999999886e+01,5.598512862631212054e-03
5.975999999999999801e+01,8.655853171772259422e-03
5.979999999999999716e+01,8.166271373423673180e-03
5.984000000000000341e+01,1.115843961791802320e-02
5.988000000000000256e+01,6.412274824014270805e-03
5.992000000000000171e+01,8.436504289969200612e-03
5.996000000000000085e+01,6.011044934541752253e-03
