2.003999999999999915e+01,1.254476343322792793e-02
2.007999999999999829e+01,2.825420674820825970e-02
2.012000000000000099e+01,1.631395069936871292e-02
2.016000000000000014e+01,1.282583490405223882e-02
2.019999999999999929e+01,1.597872954658964562e-02
2.023999999999999844e+01,7.600971823497643109e-03
2.028000000000000114e+01,2.403588523385955661e-02
2.032000000000000028e+01,2.260119297768949098e-02
2.035999999999999943e+01,2.291745974364892136e-02
2.039999999999999858e+01,1.870610390389767716e-02
2.044000000000000128e+01,1.334789910015327097e-02
2.048000000000000043e+01,1.318179652543528292e-02
2.051999999999999957e+01,1.760408577276875719e-02
2.055999999999999872e+01,2.317362082474600654e-02
2.060000000000000142e+01,1.884251338918274676e-02
2.064000000000000057e+01,1.553790841213851734e-02
2.067999999999999972e+01,1.356166004315926578e-02
2.071999999999999886e+01,1.134412234831420375e-02
2.076000000000000156e+01,2.180468229800919949e-02
2.080000000000000071e+01,1.155819253920761618e-02
2.083999999999999986e+01,1.223904087708336391e-02
2.087999999999999901e+01,1.448972619162476431e-02
2.092000000000000171e+01,1.094498938716633417e-02
2.096000000000000085e+01,2.696063734366945658e-02
2.100000000000000000e+01,1.949216743853986883e-02
2.103999999999999915e+01,1.558577372391147658e-02
2.107999999999999829e+01,1.451700385193983346e-02
2.112000000000000099e+01,1.924403467129931836e-02
2.116000000000000014e+01,2.397125231762767608e-02
2.119999999999999929e+01,1.541704259265526920e-02
2.123999999999999844e+01,1.277937339200046520e-02
2.128000000000000114e+01,1.183227608260407383e-02
2.132000000000000028e+01,1.692245983313945754e-02
2.135999999999999943e+01,1.446645559316330973e-02
2.139999999999999858e+01,1.364065016612786216e-02
2.144000000000000128e+01,2.156881736070428643e-02
2.148000000000000043e+01,1.543072964993472476e-02
2.151999999999999957e+01,9.715419235528164124e-03
2.155999999999999872e+01,1.112406313311256265e-02
2.160000000000000142e+01,1.476661203484671073e-02
2.164000000000000057e+01,1.702080701201870785e-02
2.167999999999999972e+01,1.758479250982728989e-02
2.171999999999999886e+01,1.344001930390798134e-02
2.176000000000000156e+01,2.594244667286756557e-03
2.180000000000000071e+01,1.631963058252917931e-02
2.183999999999999986e+01,2.171399746007660406e-02
2.187999999999999901e+01,1.702658645469392468e-02
2.192000000000000171e+01,1.584086521156905306e-02
2.196000000000000085e+01,1.519865547677232490e-02
2.200000000000000000e+01,7.976182036377199927e-03
2.203999999999999915e+01,1.940850982947560019e-02
2.207999999999999829e+01,1.647271732563937788e-02
2.212000000000000099e+01,8.828159091798589916e-03
2.216000000000000014e+01,1.307685129487788124e-02
2.219999999999999929e+01,1.165084083574149595e-02
2.223999999999999844e+01,1.988435350218465542e-02
2.228000000000000114e+01,7.893758226385523893e-03
2.232000000000000028e+01,1.274683015264408900e-02
2.235999999999999943e+01,1.868674529486673633e-02
2.239999999999999858e+01,1.466561536086916431e-02
2.244000000000000128e+01,1.022205297671189422e-02
2.248000000000000043e+01,1.761136443801863960e-02
2.251999999999999957e+01,1.419443512913589125e-02
2.255999999999999872e+01,1.361510366568615890e-02
2.260000000000000142e+01,1.889191786677865692e-02
2.264000000000000057e+01,1.571695703675324643e-02
2.267999999999999972e+01,1.598330164862532196e-02
2.271999999999999886e+01,1.226532163629459084e-02
2.276000000000000156e+01,1.041900042930285833e-02
2.280000000000000071e+01,1.605883757545283064e-02
2.283999999999999986e+01,9.564266980827716008e-03
2.287999999999999901e+01,1.689480522973627746e-02
2.292000000000000171e+01,1.879211205087007175e-02
2.296000000000000085e+01,8.675750964215290378e-03
2.300000000000000000e+01,1.365228699234056174e-02
2.303999999999999915e+01,1.639525091784913360e-02
2.307999999999999829e+01,1.424831933898490326e-02
2.312000000000000099e+01,1.451637897572325905e-02
2.316000000000000014e+01,1.291309022457027937e-02
2.319999999999999929e+01,1.360404934289506131e-02
2.323999999999999844e+01,1.459701360372373836e-02
2.328000000000000114e+01,1.583161133399375170e-02
2.332000000000000028e+01,1.501374495455761425e-02
2.335999999999999943e+01,8.943752329746612953e-03
2.339999999999999858e+01,1.694034329604849134e-02
2.344000000000000128e+01,1.962443564128546480e-02
2.348000000000000043e+01,1.790159321935087464e-02
2.351999999999999957e+01,1.629963811022222542e-02
2.355999999999999872e+01,2.429681196952538855e-02
2.360000000000000142e+01,2.299700034856041672e-02
2.364000000000000057e+01,1.795433182469525005e-02
2.367999999999999972e+01,1.689628991094848862e-02
2.371999999999999886e+01,1.927953517077984902e-02
2.376000000000000156e+01,8.441679061574457882e-03
2.380000000000000071e+01,1.788860947198318146e-02
2.383999999999999986e+01,2.075524385592082688e-02
2.387999999999999901e+01,8.468903709027270771e-03
2.392000000000000171e+01,1.942552552516679104e-02
2.396000000000000085e+01,1.571213916869768079e-02
2.400000000000000000e+01,1.362890595437091755e-02
2.403999999999999915e+01,2.048071260216185324e-02
2.407999999999999829e+01,4.270944079032868400e-03
2.412000000000000099e+01,2.023903763013953569e-02
2.416000000000000014e+01,9.342183467682577125e-03
2.419999999999999929e+01,1.239115690291574777e-02
2.423999999999999844e+01,1.018798863496536873e-02
2.428000000000000114e+01,1.625577533858462570e-02
2.432000000000000028e+01,1.827883834245968078e-02
2.435999999999999943e+01,1.897387061352605320e-02
2.439999999999999858e+01,2.341203296567388389e-02
2.444000000000000128e+01,2.241693719019560022e-02
2.448000000000000043e+01,1.701488908185408780e-02
2.451999999999999957e+01,7.085145997152220328e-03
2.455999999999999872e+01,1.448199853083666222e-02
2.460000000000000142e+01,1.294407384116967076e-02
2.464000000000000057e+01,8.991436032475047177e-03
2.467999999999999972e+01,1.403419781429021858e-02
2.471999999999999886e+01,1.316072878660775290e-02
2.476000000000000156e+01,1.723780292505243047e-02
2.480000000000000071e+01,1.268195117918105401e-02
2.483999999999999986e+01,7.281028032446814485e-03
2.487999999999999901e+01,1.178106551960506239e-02
2.492000000000000171e+01,1.386638496934204309e-02
2.496000000000000085e+01,1.311438888598690303e-02
2.500000000000000000e+01,1.272473799995299006e-02
2.503999999999999915e+01,1.281817354948206790e-02
2.507999999999999829e+01,8.082049433689817569e-03
2.512000000000000099e+01,1.638617219863027288e-02
2.516000000000000014e+01,1.569513693299724039e-02
2.519999999999999929e+01,1.325345938633135448e-02
2.523999999999999844e+01,2.457647825773201858e-02
2.528000000000000114e+01,2.291985294198360668e-02
2.532000000000000028e+01,2.319521243383826370e-02
2.535999999999999943e+01,1.894286219415155029e-02
2.539999999999999858e+01,1.789028573594193122e-02
2.544000000000000128e+01,1.810561130267024019e-02
2.548000000000000043e+01,2.133959633431614308e-02
2.551999999999999957e+01,1.636323962739114415e-02
2.555999999999999872e+01,7.704363261872736700e-03
2.560000000000000142e+01,1.039533817338247380e-02
2.564000000000000057e+01,1.610496973929907011e-02
2.567999999999999972e+01,1.463056325352463972e-02
2.571999999999999886e+01,2.009892509515963377e-02
2.576000000000000156e+01,1.053502132333253294e-02
2.580000000000000071e+01,6.525352153660585013e-03
2.583999999999999986e+01,1.652185274437916254e-02
2.587999999999999901e+01,9.735327471145307013e-03
2.592000000000000171e+01,9.951937982617307943e-03
2.596000000000000085e+01,1.354942535008331686e-02
2.600000000000000000e+01,9.117675458750570949e-03
2.603999999999999915e+01,6.980123550331288756e-03
2.607999999999999829e+01,2.072023727001330584e-02
2.612000000000000099e+01,8.923530196940202691e-03
2.616000000000000014e+01,1.511747131192887374e-02
2.619999999999999929e+01,1.406699427063202654e-02
2.623999999999999844e+01,1.108474376867879876e-02
2.628000000000000114e+01,1.860713901299703571e-02
2.632000000000000028e+01,1.176133948184798252e-02
2.635999999999999943e+01,1.228089382910881912e-02
2.639999999999999858e+01,8.997171821725748198e-03
2.644000000000000128e+01,1.362214102140989723e-02
2.648000000000000043e+01,7.259686979461282483e-03
2.651999999999999957e+01,1.454116493062440445e-02
2.655999999999999872e+01,2.926621107949022027e-03
2.660000000000000142e+01,1.075162103486470254e-02
2.664000000000000057e+01,1.845596958788939257e-02
2.667999999999999972e+01,1.511252041570824121e-02
2.671999999999999886e+01,1.496882183829115372e-02
2.676000000000000156e+01,1.180666319823282795e-02
2.680000000000000071e+01,1.866617340680839718e-02
2.683999999999999986e+01,7.052253716194955419e-03
2.687999999999999901e+01,8.237066108957987950e-03
2.692000000000000171e+01,5.860076894656401567e-03
2.696000000000000085e+01,6.441350177614000097e-03
2.700000000000000000e+01,1.064496592998521313e-02
2.703999999999999915e+01,5.974132569152071012e-03
2.707999999999999829e+01,1.223052769508023441e-02
2.712000000000000099e+01,9.914327154722376093e-03
2.716000000000000014e+01,8.503772603704374405e-03
2.719999999999999929e+01,7.998863339398504246e-03
2.723999999999999844e+01,1.328964726439077308e-02
2.728000000000000114e+01,1.320749414562736104e-02
2.732000000000000028e+01,4.733854758743790900e-03
2.735999999999999943e+01,1.262082627935404849e-02
2.739999999999999858e+01,1.435003603267410999e-02
2.744000000000000128e+01,8.231096143903620169e-03
2.748000000000000043e+01,9.477490459968368822e-03
2.751999999999999957e+01,1.120692764868081240e-02
2.755999999999999872e+01,1.112531013089330598e-02
2.760000000000000142e+01,6.093346741371944222e-03
2.764000000000000057e+01,7.762634071393039077e-03
2.767999999999999972e+01,9.613106611377450136e-03
2.771999999999999886e+01,9.954376486524958365e-03
2.776000000000000156e+01,1.222758830898780166e-02
2.780000000000000071e+01,6.471531254406932138e-03
2.783999999999999986e+01,7.778947228838597842e-03
2.787999999999999901e+01,1.325202894878780950e-02
2.792000000000000171e+01,1.202400103337450052e-02
2.796000000000000085e+01,1.381458901996343580e-02
2.800000000000000000e+01,1.216409836941025752e-02
2.803999999999999915e+01,1.781856111647018431e-02
2.807999999999999829e+01,1.719450821070011778e-02
2.812000000000000099e+01,1.216343903294907561e-02
2.816000000000000014e+01,1.498065987884087714e-02
2.819999999999999929e+01,1.556421798314687986e-02
2.823999999999999844e+01,1.807970960323620688e-02
2.828000000000000114e+01,1.630892408170341382e-02
2.832000000000000028e+01,1.357226408983133910e-02
2.835999999999999943e+01,1.294864841716381922e-02
2.839999999999999858e+01,9.910253578467991334e-03
2.844000000000000128e+01,1.713498266241069573e-02
2.848000000000000043e+01,4.376978778561641491e-03
2.851999999999999957e+01,1.129996879991462637e-02
2.855999999999999872e+01,1.387630579081704750e-02
2.860000000000000142e+01,1.458119883646547855e-02
2.864000000000000057e+01,1.957248621857526558e-02
2.867999999999999972e+01,1.248963424670534658e-02
2.871999999999999886e+01,1.470396575212455127e-02
2.876000000000000156e+01,9.070124428740231406e-03
2.880000000000000071e+01,1.273346517738967003e-02
2.883999999999999986e+01,1.023901886415284727e-02
2.887999999999999901e+01,1.142725296726404202e-02
2.892000000000000171e+01,9.355505184100958507e-03
2.896000000000000085e+01,1.669306965081245563e-03
2.900000000000000000e+01,1.348298130842734421e-02
2.903999999999999915e+01,9.298396895886885949e-03
2.907999999999999829e+01,1.616174777959385189e-02
2.912000000000000099e+01,1.807472609171566907e-02
2.916000000000000014e+01,8.517266322673083465e-03
2.919999999999999929e+01,9.464401008082353253e-03
2.923999999999999844e+01,9.566387003585415799e-03
2.928000000000000114e+01,1.504143356133242834e-02
2.932000000000000028e+01,5.061555178711889605e-03
2.935999999999999943e+01,7.940736286987203421e-03
2.939999999999999858e+01,8.767346486150942933e-03
2.944000000000000128e+01,1.786482101791526944e-02
2.948000000000000043e+01,8.066222484021404182e-03
2.951999999999999957e+01,4.787728734865495488e-03
2.955999999999999872e+01,0.000000000000000000e+00
2.960000000000000142e+01,1.072764923939267638e-02
2.964000000000000057e+01,6.241851799135423283e-03
2.967999999999999972e+01,1.105322097310324457e-02
2.971999999999999886e+01,1.363090070563398142e-02
2.976000000000000156e+01,7.334083546279025409e-03
2.980000000000000071e+01,4.116220938488360237e-03
2.983999999999999986e+01,8.324022050935310155e-03
2.987999999999999901e+01,7.641808212306162168e-03
2.992000000000000171e+01,5.450353064318371604e-03
2.996000000000000085e+01,1.128826923303257249e-02
3.000000000000000000e+01,1.193431349061395245e-02
3.003999999999999915e+01,1.282187247356106514e-02
3.007999999999999829e+01,1.189833248446521205e-02
3.012000000000000099e+01,1.465745113025971637e-02
3.016000000000000014e+01,1.234543699528018942e-02
3.019999999999999929e+01,2.349617730036287350e-02
3.023999999999999844e+01,2.178792823333527279e-02
3.028000000000000114e+01,2.436604469503472412e-02
3.032000000000000028e+01,2.893642910631354787e-02
3.035999999999999943e+01,3.326535485845891899e-02
3.039999999999999858e+01,2.696901433406856743e-02
3.044000000000000128e+01,1.982750404094201988e-02
3.048000000000000043e+01,2.687319491470082158e-02
3.051999999999999957e+01,2.371621419708408104e-02
3.055999999999999872e+01,1.488438396806929243e-02
3.060000000000000142e+01,1.359894605023594279e-02
3.064000000000000057e+01,1.140796388009334382e-02
3.067999999999999972e+01,1.754819523152837887e-02
3.071999999999999886e+01,1.215759012888534274e-02
3.076000000000000156e+01,1.141556794604577270e-02
3.080000000000000071e+01,1.296766013342724039e-02
3.083999999999999986e+01,1.500273687536006831e-02
3.087999999999999901e+01,1.371742633182822073e-02
3.092000000000000171e+01,1.943516374454383813e-02
3.096000000000000085e+01,2.430772225436357570e-02
3.100000000000000000e+01,1.819277812562422256e-02
3.103999999999999915e+01,2.783467055828601350e-02
3.107999999999999829e+01,2.654942991756810769e-02
3.112000000000000099e+01,3.323316924691502999e-02
3.116000000000000014e+01,3.013682253588696042e-02
3.119999999999999929e+01,3.808837388183994310e-02
3.123999999999999844e+01,4.471177364302551110e-02
3.128000000000000114e+01,7.536282869940508222e-02
3.132000000000000028e+01,1.169410377640132670e-01
3.135999999999999943e+01,1.152936396542643821e-01
3.139999999999999858e+01,8.943748935447261295e-02
3.144000000000000128e+01,6.641878091677180795e-02
3.148000000000000043e+01,3.446517440376092173e-02
3.151999999999999957e+01,2.237362201018125094e-02
3.155999999999999872e+01,1.354210616385274207e-02
3.160000000000000142e+01,1.980333636735595246e-02
3.164000000000000057e+01,1.556002045373526717e-02
3.167999999999999972e+01,1.916493273252267357e-02
3.171999999999999886e+01,2.355466896022645473e-02
3.176000000000000156e+01,1.544761493857699924e-02
3.180000000000000071e+01,1.132504489362957077e-02
3.183999999999999986e+01,1.275660335405960633e-02
3.187999999999999901e+01,1.919895088332684505e-02
3.192000000000000171e+01,1.851752172142169181e-02
3.196000000000000085e+01,1.342900883527962594e-02
3.200000000000000000e+01,1.866392830834849581e-02
3.203999999999999915e+01,1.061722999801891984e-02
3.207999999999999829e+01,1.144505935121127756e-02
3.211999999999999744e+01,1.631773803051907515e-02
3.215999999999999659e+01,1.793037791071156600e-02
3.220000000000000284e+01,1.628297828916111523e-02
3.224000000000000199e+01,1.970673238323359180e-02
3.228000000000000114e+01,1.479928405378995622e-02
3.232000000000000028e+01,1.309148795123710879e-02
3.235999999999999943e+01,3.227203771032496199e-02
3.239999999999999858e+01,2.428564016237613407e-02
3.243999999999999773e+01,2.952047382560123168e-02
3.247999999999999687e+01,2.962376298521291959e-02
3.252000000000000313e+01,2.719145866727713107e-02
3.256000000000000227e+01,2.391394734133882663e-02
3.260000000000000142e+01,2.075716383172608245e-02
3.264000000000000057e+01,2.098113983928700729e-02
3.267999999999999972e+01,3.539227836921162579e-02
3.271999999999999886e+01,3.815180337280535405e-02
3.275999999999999801e+01,4.562024713525390102e-02
3.279999999999999716e+01,4.825899562524135766e-02
3.284000000000000341e+01,5.989300036969457536e-02
3.288000000000000256e+01,7.665851855816276095e-02
3.292000000000000171e+01,9.227696856280577509e-02
3.296000000000000085e+01,8.845594563927093590e-02
3.300000000000000000e+01,9.882207961707846489e-02
3.303999999999999915e+01,9.989106229448847796e-02
3.307999999999999829e+01,8.508245719148704866e-02
3.311999999999999744e+01,7.099828047499892603e-02
3.315999999999999659e+01,5.631037009283221956e-02
3.320000000000000284e+01,4.862546761713596594e-02
3.324000000000000199e+01,4.136313656789630810e-02
3.328000000000000114e+01,3.591190856248448887e-02
3.332000000000000028e+01,3.033991184436130029e-02
3.335999999999999943e+01,2.784680714394011103e-02
3.339999999999999858e+01,2.028251274990387418e-02
3.343999999999999773e+01,1.857417360831210493e-02
3.347999999999999687e+01,1.879767593827934638e-02
3.352000000000000313e+01,1.521777684587798107e-02
3.356000000000000227e+01,2.008978262673176765e-02
3.360000000000000142e+01,1.457794980257541041e-02
3.364000000000000057e+01,2.095916576119877250e-02
3.367999999999999972e+01,1.846581597042509792e-02
3.371999999999999886e+01,2.496770697630850896e-02
3.375999999999999801e+01,3.364291841709616399e-02
3.379999999999999716e+01,3.827323963538262208e-02
3.384000000000000341e+01,3.644383111115081370e-02
3.388000000000000256e+01,3.781404741133075759e-02
3.392000000000000171e+01,4.322908141938109489e-02
3.396000000000000085e+01,6.150309411614562211e-02
3.400000000000000000e+01,7.035919670857915253e-02
3.403999999999999915e+01,1.268479555548792936e-01
3.407999999999999829e+01,1.719869318376815170e-01
3.411999999999999744e+01,1.444995898631013798e-01
3.415999999999999659e+01,1.161670127754120818e-01
3.420000000000000284e+01,7.714873169112396178e-02
3.424000000000000199e+01,4.501269830411750578e-02
3.428000000000000114e+01,2.845233165436699546e-02
3.432000000000000028e+01,1.901569517838172865e-02
3.435999999999999943e+01,9.639384632669979747e-03
3.439999999999999858e+01,1.040535137720494281e-02
3.443999999999999773e+01,6.764190834587629694e-03
3.447999999999999687e+01,3.545579936969238399e-03
3.452000000000000313e+01,1.421224438866817118e-02
3.456000000000000227e+01,6.526085274907873421e-03
3.460000000000000142e+01,8.438861204343334546e-03
3.464000000000000057e+01,5.340796629140840204e-03
3.467999999999999972e+01,1.276745865799999323e-03
3.471999999999999886e+01,1.417688643080968099e-02
3.475999999999999801e+01,4.136006164181872322e-03
3.479999999999999716e+01,7.678541476304039277e-03
3.484000000000000341e+01,9.530636144560390016e-03
3.488000000000000256e+01,6.130402210673836089e-03
3.492000000000000171e+01,4.903468335489193954e-03
3.496000000000000085e+01,4.159446644206202942e-03
3.500000000000000000e+01,1.283324005853809895e-02
3.503999999999999915e+01,1.396060518369646002e-02
3.507999999999999829e+01,1.526902553269979083e-02
3.511999999999999744e+01,1.869037145683199660e-02
3.515999999999999659e+01,1.474639989521185808e-02
3.520000000000000284e+01,1.327757832607365414e-02
3.524000000000000199e+01,1.120498655461819523e-02
3.528000000000000114e+01,1.070197881386828614e-02
3.532000000000000028e+01,1.545118359771517971e-02
3.535999999999999943e+01,5.650921900937834474e-03
3.539999999999999858e+01,7.381452248714464107e-03
3.543999999999999773e+01,7.059305590601842699e-03
3.547999999999999687e+01,1.066120729701115245e-02
3.552000000000000313e+01,1.058041439053800971e-02
3.556000000000000227e+01,9.050652074639991412e-03
3.560000000000000142e+01,1.476533938929134628e-02
3.564000000000000057e+01,8.224652181444762691e-03
3.567999999999999972e+01,1.520699412410477999e-02
3.571999999999999886e+01,1.252991186770516761e-02
3.575999999999999801e+01,7.256808250482341474e-03
3.579999999999999716e+01,8.081102312410604060e-03
3.584000000000000341e+01,9.388293100431835403e-03
3.588000000000000256e+01,7.073153922356367057e-03
3.592000000000000171e+01,1.188171681293948186e-02
3.596000000000000085e+01,6.910109347827500526e-03
3.600000000000000000e+01,8.156637989597745331e-03
3.603999999999999915e+01,3.365995037371151410e-03
3.607999999999999829e+01,1.240022906154817153e-02
3.611999999999999744e+01,8.454628486478411864e-03
3.615999999999999659e+01,1.428904846342963185e-02
3.620000000000000284e+01,1.728595546891436782e-02
3.624000000000000199e+01,1.744534880030492938e-02
3.628000000000000114e+01,2.152877644366409798e-02
3.632000000000000028e+01,2.192949542158747697e-02
3.635999999999999943e+01,3.639657033925974144e-02
3.639999999999999858e+01,2.913001502625485808e-02
3.643999999999999773e+01,2.717602353470683837e-02
3.647999999999999687e+01,2.190154638982077379e-02
3.652000000000000313e+01,2.127555098635413103e-02
3.656000000000000227e+01,1.636313299733833937e-02
3.660000000000000142e+01,1.199396935492461069e-02
3.664000000000000057e+01,1.251476922778622589e-02
3.667999999999999972e+01,1.249214457416931816e-02
3.671999999999999886e+01,1.470315933144406700e-02
3.675999999999999801e+01,1.051476402481558124e-02
3.679999999999999716e+01,1.067299068903917320e-02
3.684000000000000341e+01,1.022741904583883248e-02
3.688000000000000256e+01,1.352475826388788334e-02
3.692000000000000171e+01,1.289789439534718384e-02
3.696000000000000085e+01,1.885137559323311549e-02
3.700000000000000000e+01,1.327391002449727908e-02
3.703999999999999915e+01,2.043462710127579018e-02
3.707999999999999829e+01,2.095444461139079131e-02
3.711999999999999744e+01,1.857636201916823548e-02
3.715999999999999659e+01,1.619818520284777366e-02
3.720000000000000284e+01,1.750254265632060491e-02
3.724000000000000199e+01,1.820309477609285270e-02
3.728000000000000114e+01,1.648871174649475455e-02
3.732000000000000028e+01,1.948316737619748898e-02
3.735999999999999943e+01,2.779017066692073684e-02
3.739999999999999858e+01,3.078443011952330596e-02
3.743999999999999773e+01,2.593036427311865705e-02
3.747999999999999687e+01,3.315039266854192396e-02
3.752000000000000313e+01,4.332849806752035043e-02
3.756000000000000227e+01,4.819385681786744063e-02
3.760000000000000142e+01,5.619840407781854369e-02
3.764000000000000057e+01,6.873067146474494404e-02
3.767999999999999972e+01,8.748104544819151895e-02
3.771999999999999886e+01,1.042994443168413360e-01
3.775999999999999801e+01,1.278792871106686491e-01
3.779999999999999716e+01,1.707173640070361320e-01
3.784000000000000341e+01,2.047411730511639050e-01
3.788000000000000256e+01,2.374367138743315730e-01
3.792000000000000171e+01,3.075017778225770937e-01
3.796000000000000085e+01,5.079076586627659928e-01
3.800000000000000000e+01,8.414917913027031293e-01
3.803999999999999915e+01,1.000000000000000000e+00
3.807999999999999829e+01,8.239925511338914710e-01
3.811999999999999744e+01,6.989380902275380558e-01
3.815999999999999659e+01,5.144181116531802989e-01
3.820000000000000284e+01,3.164956651498939677e-01
3.824000000000000199e+01,2.298971749332156256e-01
3.828000000000000114e+01,2.024017508744709593e-01
3.832000000000000028e+01,2.172866334606105565e-01
3.835999999999999943e+01,2.507052886672861969e-01
3.839999999999999858e+01,3.493848469083555286e-01
3.843999999999999773e+01,4.991381294290282433e-01
3.847999999999999687e+01,5.251308051476815120e-01
3.852000000000000313e+01,4.539261003529717620e-01
3.856000000000000227e+01,3.771067764917652165e-01
3.860000000000000142e+01,3.043925591014268739e-01
3.864000000000000057e+01,1.961197199037074956e-01
3.867999999999999972e+01,1.386187459176516923e-01
3.871999999999999886e+01,1.061112320649995749e-01
3.875999999999999801e+01,8.706632229008900992e-02
3.879999999999999716e+01,6.343309573030625481e-02
3.884000000000000341e+01,5.766955268474538432e-02
3.888000000000000256e+01,5.371701431513899866e-02
3.892000000000000171e+01,5.507699620407411484e-02
3.896000000000000085e+01,5.661796516197051266e-02
3.900000000000000000e+01,5.701175913663636408e-02
3.903999999999999915e+01,7.485263631934262196e-02
3.907999999999999829e+01,1.039827570231185577e-01
3.911999999999999744e+01,1.468169593627259295e-01
3.915999999999999659e+01,1.823461449242490262e-01
3.920000000000000284e+01,2.038087643163697671e-01
3.924000000000000199e+01,2.109633329547215552e-01
3.928000000000000114e+01,2.452847068253401763e-01
3.932000000000000028e+01,3.021846914725580535e-01
3.935999999999999943e+01,3.767732375885340379e-01
3.939999999999999858e+01,3.890588086446152838e-01
3.943999999999999773e+01,4.238022464285434165e-01
3.947999999999999687e+01,5.485586661541600462e-01
3.952000000000000313e+01,5.711068972546388123e-01
3.956000000000000227e+01,4.578806794656387069e-01
3.960000000000000142e+01,3.481558408774677593e-01
3.964000000000000057e+01,2.713934143596492543e-01
3.967999999999999972e+01,1.558123153626547741e-01
3.971999999999999886e+01,8.780340187596352708e-02
3.975999999999999801e+01,5.994104383347531595e-02
3.979999999999999716e+01,4.499793286649662188e-02
3.984000000000000341e+01,3.415990658892840981e-02
3.988000000000000256e+01,2.899660952944609071e-02
3.992000000000000171e+01,2.667060537498945616e-02
3.996000000000000085e+01,2.989858709249390914e-02
4.000000000000000000e+01,2.304447263673525120e-02
4.003999999999999915e+01,2.717772998680857699e-02
4.007999999999999829e+01,2.195334140358028152e-02
4.011999999999999744e+01,2.318850043832346511e-02
4.015999999999999659e+01,2.013717365102748319e-02
4.020000000000000284e+01,1.817237670775617014e-02
4.024000000000000199e+01,1.421518941371030346e-02
4.028000000000000114e+01,2.378095046798934728e-02
4.032000000000000028e+01,1.571823842364196075e-02
4.035999999999999943e+01,1.254542455019692568e-02
4.039999999999999858e+01,1.866958898676226650e-02
4.043999999999999773e+01,1.042531062029390665e-02
4.047999999999999687e+01,1.938660628553099882e-02
4.052000000000000313e+01,1.917136119986632969e-02
4.056000000000000227e+01,1.183218765545324819e-02
4.060000000000000142e+01,1.487666637573746738e-02
4.064000000000000057e+01,1.417798957636315534e-02
4.067999999999999972e+01,1.595436650948042767e-02
4.071999999999999886e+01,1.121052187768598052e-02
4.075999999999999801e+01,6.587261726173060557e-03
4.079999999999999716e+01,1.621139243404222385e-02
4.084000000000000341e+01,1.261412175086099909e-02
4.088000000000000256e+01,1.390674010442242980e-02
4.092000000000000171e+01,1.036952055210643361e-02
4.096000000000000085e+01,1.588778559127453430e-02
4.100000000000000000e+01,1.337654988626884971e-02
4.103999999999999915e+01,8.933280748370036120e-03
4.107999999999999829e+01,1.058731654277029859e-02
4.111999999999999744e+01,8.317075474675804034e-03
4.115999999999999659e+01,1.661158974579547004e-02
4.120000000000000284e+01,1.874809984307984623e-02
4.124000000000000199e+01,1.255325012825076088e-02
4.128000000000000114e+01,1.263681474388660131e-02
4.132000000000000028e+01,1.869693813518602532e-02
4.135999999999999943e+01,1.364863496649115597e-02
4.139999999999999858e+01,1.216205035081509636e-02
4.143999999999999773e+01,1.731610307770171248e-02
4.147999999999999687e+01,1.866661455931405145e-02
4.152000000000000313e+01,1.494579371389501664e-02
4.156000000000000227e+01,1.611484996054830116e-02
4.160000000000000142e+01,1.686113719838951835e-02
4.164000000000000057e+01,1.144941253349109241e-02
4.167999999999999972e+01,1.515353078321352541e-02
4.171999999999999886e+01,1.366557125189673226e-02
4.175999999999999801e+01,1.302263028038666906e-02
4.179999999999999716e+01,1.781290091909556311e-02
4.184000000000000341e+01,9.623236482801342598e-03
4.188000000000000256e+01,1.181720182711906535e-02
4.192000000000000171e+01,1.346765060073393250e-02
4.196000000000000085e+01,1.819684032710239957e-02
4.200000000000000000e+01,2.008841520099268266e-02
4.203999999999999915e+01,1.708976152499610754e-02
4.207999999999999829e+01,2.006765327473743893e-02
4.211999999999999744e+01,2.014755709368287739e-02
4.215999999999999659e+01,1.696724645659632158e-02
4.220000000000000284e+01,1.759012420171418914e-02
4.224000000000000199e+01,1.706577005076048009e-02
4.228000000000000114e+01,1.835236085240960976e-02
4.232000000000000028e+01,1.903505708664442533e-02
4.235999999999999943e+01,2.533206800561508751e-02
4.239999999999999858e+01,3.362113468060977384e-02
4.243999999999999773e+01,3.599365928205041504e-02
4.247999999999999687e+01,3.860748009165240746e-02
4.252000000000000313e+01,3.995332214591969244e-02
4.256000000000000227e+01,3.960858794918145631e-02
4.260000000000000142e+01,3.896180911880892800e-02
4.264000000000000057e+01,4.803456604434061528e-02
4.267999999999999972e+01,6.072939000924051922e-02
4.271999999999999886e+01,9.769315219956060947e-02
4.275999999999999801e+01,1.318796571579116117e-01
4.279999999999999716e+01,1.163202891834413527e-01
4.284000000000000341e+01,9.967404974391927408e-02
4.288000000000000256e+01,8.978916429323334503e-02
4.292000000000000171e+01,6.306058268877422213e-02
4.296000000000000085e+01,3.832404700355175609e-02
4.300000000000000000e+01,2.240147619406347365e-02
4.303999999999999915e+01,2.640112811767305820e-02
4.307999999999999829e+01,2.484645254829435587e-02
4.311999999999999744e+01,2.214452962503542580e-02
4.315999999999999659e+01,1.358642295135918665e-02
4.320000000000000284e+01,1.384227764027876929e-02
4.324000000000000199e+01,1.627128624134556098e-02
4.328000000000000114e+01,1.592302847628358428e-02
4.332000000000000028e+01,1.980053621289453586e-02
4.335999999999999943e+01,2.524748604942234423e-02
4.339999999999999858e+01,4.294953905018758511e-02
4.343999999999999773e+01,4.918090313171141759e-02
4.347999999999999687e+01,4.623567446788617169e-02
4.352000000000000313e+01,4.081503007433980035e-02
4.356000000000000227e+01,3.889569532148352826e-02
4.360000000000000142e+01,2.864495930148142772e-02
4.364000000000000057e+01,2.014477337430674656e-02
4.367999999999999972e+01,1.550812080254756337e-02
4.371999999999999886e+01,1.177682333227414620e-02
4.375999999999999801e+01,1.257313848694298873e-02
4.379999999999999716e+01,1.342961375175595606e-02
4.384000000000000341e+01,1.066361922756650996e-02
4.388000000000000256e+01,7.716299526526932545e-03
4.392000000000000171e+01,1.128883166426521145e-02
4.396000000000000085e+01,1.015221443729283531e-02
4.400000000000000000e+01,6.540173049067370646e-03
4.403999999999999915e+01,6.127578017826286298e-03
4.407999999999999829e+01,1.132926745833137509e-02
4.411999999999999744e+01,1.417627257056982074e-02
4.415999999999999659e+01,1.623823788321711314e-02
4.420000000000000284e+01,9.727307507564652775e-03
4.424000000000000199e+01,1.559220748183809749e-02
4.428000000000000114e+01,1.288421036255645025e-02
4.432000000000000028e+01,1.458307409056025170e-02
4.435999999999999943e+01,1.078795881192516799e-02
4.439999999999999858e+01,1.049413841879916209e-02
4.443999999999999773e+01,9.656757189427258789e-03
4.447999999999999687e+01,1.183770167683119087e-02
4.452000000000000313e+01,1.269026130708235389e-02
4.456000000000000227e+01,1.330111284537829203e-02
4.460000000000000142e+01,9.021690865616710867e-03
4.464000000000000057e+01,1.337509204255074233e-02
4.467999999999999972e+01,1.247599247356348529e-02
4.471999999999999886e+01,1.272371432210926863e-02
4.475999999999999801e+01,1.224675680208364703e-02
4.479999999999999716e+01,1.985928089433031465e-02
4.484000000000000341e+01,1.171475257450103370e-02
4.488000000000000256e+01,1.353120454516553231e-02
4.492000000000000171e+01,1.371740978022690030e-02
4.496000000000000085e+01,1.396375474923007218e-02
4.500000000000000000e+01,2.163549714258513820e-02
4.503999999999999915e+01,2.254545820550154719e-02
4.507999999999999829e+01,1.633141141274317004e-02
4.511999999999999744e+01,2.068205039905996259e-02
4.515999999999999659e+01,1.984055117835819768e-02
4.520000000000000284e+01,1.591989701322596776e-02
4.524000000000000199e+01,1.381013580624922306e-02
4.528000000000000114e+01,1.163976677132345233e-02
4.532000000000000028e+01,6.450611654518967862e-03
4.535999999999999943e+01,9.833896076677346720e-03
4.539999999999999858e+01,1.098321562735324677e-02
4.543999999999999773e+01,1.140784386478736236e-02
4.547999999999999687e+01,9.538134855048910343e-03
4.552000000000000313e+01,9.056717092029124491e-03
4.556000000000000227e+01,1.165397704527291155e-02
4.560000000000000142e+01,1.443210743128530912e-02
4.564000000000000057e+01,1.328588155787660888e-02
4.567999999999999972e+01,1.292423441632853734e-02
4.571999999999999886e+01,1.213974589531869458e-02
4.575999999999999801e+01,1.232094761221835290e-02
4.579999999999999716e+01,8.577790259186248920e-03
4.584000000000000341e+01,4.170305537070434151e-03
4.588000000000000256e+01,5.316702698021048487e-03
4.592000000000000171e+01,8.032496990717865465e-03
4.596000000000000085e+01,1.068767151079530638e-02
4.600000000000000000e+01,1.122961256084475598e-02
4.603999999999999915e+01,9.899803319977426921e-03
4.607999999999999829e+01,1.430498536034240618e-02
4.611999999999999744e+01,1.478580270975427685e-02
4.615999999999999659e+01,1.369672251254007260e-02
4.620000000000000284e+01,9.528469805203733031e-03
4.624000000000000199e+01,9.706673248590105829e-03
4.628000000000000114e+01,1.193723526355154260e-02
4.632000000000000028e+01,9.156751606596316012e-03
4.635999999999999943e+01,4.685624949007201161e-03
4.639999999999999858e+01,1.246954875858049053e-02
4.643999999999999773e+01,9.869408419662644566e-03
4.647999999999999687e+01,1.566057503482878518e-02
4.652000000000000313e+01,9.075434071902144240e-03
4.656000000000000227e+01,9.251582456066304028e-03
4.660000000000000142e+01,1.667198724817148259e-02
4.664000000000000057e+01,1.425166311255977349e-02
4.667999999999999972e+01,2.040375532919795620e-02
4.671999999999999886e+01,2.003552058677438366e-02
4.675999999999999801e+01,1.670884543831081120e-02
4.679999999999999716e+01,2.304126200203936159e-02
4.684000000000000341e+01,2.726043034055886452e-02
4.688000000000000256e+01,2.568372055472281645e-02
4.692000000000000171e+01,1.716408350364351937e-02
4.696000000000000085e+01,2.005429349685300400e-02
4.700000000000000000e+01,1.793344587347548910e-02
4.703999999999999915e+01,1.653678212218319052e-02
4.707999999999999829e+01,1.332872078208953079e-02
4.711999999999999744e+01,1.452747110534464113e-02
4.715999999999999659e+01,1.137924167628415195e-02
4.720000000000000284e+01,1.016261271749293801e-02
4.724000000000000199e+01,1.123980934895174588e-02
4.728000000000000114e+01,1.110931458281821764e-02
4.732000000000000028e+01,6.390353372119495466e-03
4.735999999999999943e+01,7.104506106394044632e-03
4.739999999999999858e+01,8.663578329974278708e-03
4.743999999999999773e+01,1.269758554197040167e-02
4.747999999999999687e+01,8.219010420632827732e-03
4.752000000000000313e+01,7.060562468542119427e-03
4.756000000000000227e+01,9.282611953505333358e-03
4.760000000000000142e+01,1.343625488246113532e-02
4.764000000000000057e+01,1.106955469191886303e-02
4.767999999999999972e+01,1.208334983054750421e-02
4.771999999999999886e+01,5.188268124423821293e-03
4.775999999999999801e+01,1.000487426220927206e-02
4.779999999999999716e+01,1.144042493259221985e-02
4.784000000000000341e+01,1.172864533903025287e-02
4.788000000000000256e+01,7.730244316289418965e-03
4.792000000000000171e+01,8.923463519995594728e-03
4.796000000000000085e+01,9.995656849264338006e-03
4.800000000000000000e+01,9.558291281469070283e-03
4.803999999999999915e+01,1.117325336963154690e-02
4.807999999999999829e+01,1.097680030330099726e-02
4.811999999999999744e+01,7.218173237242416287e-03
4.815999999999999659e+01,8.228565388821674695e-03
4.820000000000000284e+01,9.540524243240677479e-03
4.824000000000000199e+01,1.254258141787065184e-02
4.828000000000000114e+01,8.420574526612529739e-03
4.832000000000000028e+01,7.980906574656341027e-03
4.835999999999999943e+01,9.955786480244950901e-03
4.839999999999999858e+01,1.150777793031814572e-02
4.843999999999999773e+01,9.256105877903021695e-03
4.847999999999999687e+01,1.340346362384227039e-02
4.852000000000000313e+01,9.823043383780072010e-03
4.856000000000000227e+01,1.378869997507688183e-02
4.860000000000000142e+01,7.973964180335878227e-03
4.864000000000000057e+01,7.894174698656495834e-03
4.867999999999999972e+01,7.512233783937472334e-03
4.871999999999999886e+01,1.141633448659108360e-02
4.875999999999999801e+01,1.006786277530139460e-02
4.879999999999999716e+01,1.246209254221636656e-02
4.884000000000000341e+01,1.159599051427898618e-02
4.888000000000000256e+01,1.066921742190258225e-02
4.892000000000000171e+01,5.335062691158519964e-03
4.896000000000000085e+01,1.092775210984200940e-02
4.900000000000000000e+01,9.577477726643602099e-03
4.903999999999999915e+01,7.321335882409201259e-03
4.907999999999999829e+01,6.513793721465840555e-03
4.911999999999999744e+01,7.637818304663744097e-03
4.915999999999999659e+01,1.033118310676681834e-02
4.920000000000000284e+01,1.507685518862528391e-02
4.924000000000000199e+01,9.136559085882237780e-03
4.928000000000000114e+01,1.484755315676224673e-02
4.932000000000000028e+01,1.500411012473793111e-02
4.935999999999999943e+01,1.654889088717626314e-02
4.939999999999999858e+01,1.102995888058654582e-02
4.943999999999999773e+01,1.498895930145872392e-02
4.947999999999999687e+01,1.321240689761171878e-02
4.952000000000000313e+01,1.046960763076198488e-02
4.956000000000000227e+01,1.116764164001756918e-02
4.960000000000000142e+01,1.452168560709924013e-02
4.964000000000000057e+01,1.316648043634157002e-02
4.967999999999999972e+01,1.857250980771667226e-02
4.971999999999999886e+01,8.825110750787814456e-03
4.975999999999999801e+01,1.598126786377201611e-02
4.979999999999999716e+01,1.661704391536412972e-02
4.984000000000000341e+01,2.087476123597209812e-02
4.988000000000000256e+01,2.386437051775465445e-02
4.992000000000000171e+01,2.963072607721145557e-02
4.996000000000000085e+01,3.744937556649796662e-02
5.000000000000000000e+01,2.896754327082685931e-02
5.003999999999999915e+01,3.237847168059207470e-02
5.007999999999999829e+01,3.240830457317780272e-02
5.011999999999999744e+01,2.833258960073953281e-02
5.015999999999999659e+01,2.413581010934218174e-02
5.020000000000000284e+01,1.897277181027175186e-02
5.024000000000000199e+01,1.465460311394268210e-02
5.028000000000000114e+01,1.951249723772081196e-02
5.032000000000000028e+01,1.320143644247253646e-02
5.035999999999999943e+01,1.268566271773093751e-02
5.039999999999999858e+01,1.416180422347998805e-02
5.043999999999999773e+01,1.153239224318371690e-02
5.047999999999999687e+01,1.421529746203324153e-02
5.052000000000000313e+01,1.321524458262525459e-02
5.056000000000000227e+01,1.366376538928462843e-02
5.060000000000000142e+01,1.737198829242578291e-02
5.064000000000000057e+01,1.323165402942965557e-02
5.067999999999999972e+01,1.223027851679049649e-02
5.071999999999999886e+01,1.147005447101332246e-02
5.075999999999999801e+01,1.113209410077467543e-02
5.079999999999999716e+01,9.163783708665860367e-03
5.084000000000000341e+01,1.480188106857380573e-02
5.088000000000000256e+01,1.228956219440478087e-02
5.092000000000000171e+01,1.219174620960990045e-02
5.096000000000000085e+01,1.221433553504152475e-02
5.100000000000000000e+01,1.211584558633305685e-02
5.103999999999999915e+01,1.340554992172521276e-02
5.107999999999999829e+01,1.040857661772517581e-02
5.111999999999999744e+01,7.773489695179915115e-03
5.115999999999999659e+01,9.484772500154347447e-03
5.120000000000000284e+01,1.318795648306608261e-02
5.124000000000000199e+01,1.236297613433601401e-02
5.128000000000000114e+01,1.443546011480897548e-02
5.132000000000000028e+01,1.348905261925317615e-02
5.135999999999999943e+01,1.447417252068930633e-02
5.139999999999999858e+01,1.135372207301608288e-02
5.143999999999999773e+01,1.100999120316575701e-02
5.147999999999999687e+01,9.639608071122294716e-03
5.152000000000000313e+01,1.611710462816418749e-02
5.156000000000000227e+01,1.371972136124195024e-02
5.160000000000000142e+01,9.390119167722555185e-03
5.164000000000000057e+01,8.803168565843467672e-03
5.167999999999999972e+01,1.389073990688857903e-02
5.171999999999999886e+01,1.112973511084942337e-02
5.175999999999999801e+01,1.319805726639280974e-02
5.179999999999999716e+01,1.466231833176489911e-02
5.184000000000000341e+01,1.069283996955913175e-02
5.188000000000000256e+01,1.052637995366240836e-02
5.192000000000000171e+01,1.386108272927340061e-02
5.196000000000000085e+01,9.649060004207784397e-03
5.200000000000000000e+01,1.382824727060815578e-02
5.203999999999999915e+01,1.450556265020387300e-02
5.207999999999999829e+01,1.391473134645252255e-02
5.211999999999999744e+01,1.139167198194432351e-02
5.215999999999999659e+01,9.954932375788401802e-03
5.220000000000000284e+01,1.364936684448437958e-02
5.224000000000000199e+01,1.076300642106588039e-02
5.228000000000000114e+01,1.131743149507134436e-02
5.232000000000000028e+01,1.712377047691517745e-02
5.235999999999999943e+01,1.121777997180897941e-02
5.239999999999999858e+01,1.038258905798162234e-02
5.243999999999999773e+01,1.335040665367598356e-02
5.247999999999999687e+01,1.124669940235823937e-02
5.252000000000000313e+01,1.137635402400376076e-02
5.256000000000000227e+01,1.597309572207007353e-02
5.260000000000000142e+01,1.247976194350451130e-02
5.264000000000000057e+01,1.363462674740862669e-02
5.267999999999999972e+01,1.702285061376534320e-02
5.271999999999999886e+01,1.262285174778083295e-02
5.275999999999999801e+01,1.576885593725032425e-02
5.279999999999999716e+01,1.275665219086115354e-02
5.284000000000000341e+01,1.077038528771917351e-02
5.288000000000000256e+01,1.258711916519457581e-02
5.292000000000000171e+01,1.446385295370608386e-02
5.296000000000000085e+01,2.159248940801329966e-02
5.300000000000000000e+01,2.286476926549717639e-02
5.303999999999999915e+01,2.407630498526468904e-02
5.307999999999999829e+01,3.011714446990175834e-02
5.311999999999999744e+01,2.166857647766527034e-02
5.315999999999999659e+01,2.034340772156296995e-02
5.320000000000000284e+01,2.046676627810202140e-02
5.324000000000000199e+01,2.010678039074322021e-02
5.328000000000000114e+01,1.739194927338208116e-02
5.332000000000000028e+01,1.473711104078038146e-02
5.335999999999999943e+01,1.836047494508823499e-02
5.339999999999999858e+01,1.196187826629930250e-02
5.343999999999999773e+01,1.341112755046773054e-02
5.347999999999999687e+01,1.220367323932180191e-02
5.352000000000000313e+01,1.449735361457691989e-02
5.356000000000000227e+01,1.147800629013398868e-02
5.360000000000000142e+01,1.521982465031247560e-02
5.364000000000000057e+01,2.300611432292162806e-02
5.367999999999999972e+01,1.557853503665306526e-02
5.371999999999999886e+01,1.871549046451129530e-02
5.375999999999999801e+01,1.593570497518578127e-02
5.379999999999999716e+01,2.257340435647174279e-02
5.384000000000000341e+01,1.580836108141138799e-02
5.388000000000000256e+01,1.767597865605560065e-02
5.392000000000000171e+01,2.558030464908309445e-02
5.396000000000000085e+01,2.738677330048430378e-02
5.400000000000000000e+01,2.532910981371677347e-02
5.403999999999999915e+01,2.496144276614854426e-02
5.407999999999999829e+01,2.072964217515625013e-02
5.411999999999999744e+01,2.289677231201732790e-02
5.415999999999999659e+01,1.763788024454957665e-02
5.420000000000000284e+01,1.974385302663561603e-02
5.424000000000000199e+01,1.858939915913430940e-02
5.428000000000000114e+01,1.031077583159485146e-02
5.432000000000000028e+01,1.326075735354927468e-02
5.435999999999999943e+01,1.524440699455329763e-02
5.439999999999999858e+01,9.862401185897234912e-03
5.443999999999999773e+01,8.947449430161643832e-03
5.447999999999999687e+01,1.666514798471562669e-02
5.452000000000000313e+01,1.599088248433604489e-02
5.456000000000000227e+01,1.495399129421506011e-02
5.460000000000000142e+01,2.055750628215437595e-02
5.464000000000000057e+01,1.885573257510234774e-02
5.467999999999999972e+01,2.439807334520264354e-02
5.471999999999999886e+01,3.507154392461184905e-02
5.475999999999999801e+01,4.495978850809816824e-02
5.479999999999999716e+01,3.655522496696056445e-02
5.484000000000000341e+01,3.291956330464045066e-02
5.488000000000000256e+01,3.598467387242170606e-02
5.492000000000000171e+01,3.826455563376940372e-02
5.496000000000000085e+01,3.227320755214867221e-02
5.500000000000000000e+01,3.425041997187574377e-02
5.503999999999999915e+01,3.435572400946102639e-02
5.507999999999999829e+01,2.969131238140954726e-02
5.511999999999999744e+01,4.120591112594695210e-02
5.515999999999999659e+01,4.070627634742395029e-02
5.520000000000000284e+01,4.087031113450740466e-02
5.524000000000000199e+01,4.308654710456856496e-02
5.528000000000000114e+01,4.675127385063240770e-02
5.532000000000000028e+01,4.540479683355452128e-02
5.535999999999999943e+01,4.647274471417976727e-02
5.539999999999999858e+01,4.277097130814690173e-02
5.543999999999999773e+01,4.009508907456290489e-02
5.547999999999999687e+01,3.427950035080333524e-02
5.552000000000000313e+01,3.498355970379823932e-02
5.556000000000000227e+01,3.091789495962438475e-02
5.560000000000000142e+01,2.256547317913197570e-02
5.564000000000000057e+01,2.417384268229098507e-02
5.567999999999999972e+01,3.091332513169490342e-02
5.571999999999999886e+01,2.497448354646899377e-02
5.575999999999999801e+01,2.748715687614310121e-02
5.579999999999999716e+01,2.215118240071091080e-02
5.584000000000000341e+01,2.731933442970444284e-02
5.588000000000000256e+01,2.765738577007312293e-02
5.592000000000000171e+01,2.382941639397139627e-02
5.596000000000000085e+01,2.917741006484819710e-02
5.600000000000000000e+01,2.408080068878671459e-02
5.603999999999999915e+01,3.075610468314205967e-02
5.607999999999999829e+01,2.535678802356596331e-02
5.611999999999999744e+01,3.112567362480398239e-02
5.615999999999999659e+01,3.810155066249706901e-02
5.620000000000000284e+01,5.763416087574789459e-02
5.624000000000000199e+01,6.394509918629659451e-02
5.628000000000000114e+01,5.661176809847236202e-02
5.632000000000000028e+01,4.064495745573058760e-02
5.635999999999999943e+01,4.665274856585467644e-02
5.639999999999999858e+01,4.179333280972066106e-02
5.643999999999999773e+01,3.397530661165126808e-02
5.647999999999999687e+01,2.464757255945252551e-02
5.652000000000000313e+01,1.447421062527880394e-02
5.656000000000000227e+01,1.480496254823280428e-02
5.660000000000000142e+01,1.362600450917443411e-02
5.664000000000000057e+01,1.431811014982121294e-02
5.667999999999999972e+01,1.392310121624343831e-02
5.671999999999999886e+01,1.286357379885658993e-02
5.675999999999999801e+01,1.035470457938143275e-02
5.679999999999999716e+01,1.345989639605438097e-02
5.684000000000000341e+01,1.125200289756059409e-02
5.688000000000000256e+01,9.466265572572317433e-03
5.692000000000000171e+01,1.432089367323964232e-02
5.696000000000000085e+01,1.174945038564149252e-02
5.700000000000000000e+01,8.453112725405869526e-03
5.703999999999999915e+01,1.058971897424814020e-02
5.707999999999999829e+01,8.862138982591328054e-03
5.711999999999999744e+01,1.172230790867078223e-02
5.715999999999999659e+01,9.329756868996934988e-03
5.720000000000000284e+01,9.955308110500868390e-03
5.724000000000000199e+01,1.347821898968546046e-02
5.728000000000000114e+01,7.462068894367498983e-03
5.732000000000000028e+01,9.414438547992665801e-03
5.735999999999999943e+01,8.770407421854540045e-03
5.739999999999999858e+01,9.574829832452759482e-03
5.743999999999999773e+01,1.285401157455015077e-02
5.747999999999999687e+01,1.160491937508970756e-02
5.752000000000000313e+01,9.087584934919505641e-03
5.756000000000000227e+01,9.467604511408616100e-03
5.760000000000000142e+01,1.165829993410415037e-02
5.764000000000000057e+01,1.046776704299118461e-02
5.767999999999999972e+01,8.974924627613536238e-03
5.771999999999999886e+01,9.654981773167715595e-03
5.775999999999999801e+01,9.911986048332420765e-03
5.779999999999999716e+01,8.176291519176875564e-03
5.784000000000000341e+01,9.519058999591187981e-03
5.788000000000000256e+01,8.386158506952011080e-03
5.792000000000000171e+01,9.728008914280021277e-03
5.796000000000000085e+01,1.251830302155703019e-02
5.800000000000000000e+01,7.037313886162904243e-03
5.803999999999999915e+01,7.955186621110799453e-03
5.807999999999999829e+01,1.128743647508047114e-02
5.811999999999999744e+01,8.642497855015973673e-03
5.815999999999999659e+01,6.963031658284247159e-03
5.820000000000000284e+01,1.089760190573232229e-02
5.824000000000000199e+01,9.458691275610562124e-03
5.828000000000000114e+01,9.105992901808062506e-03
5.832000000000000028e+01,1.116766743126135393e-02
5.835999999999999943e+01,1.340998825525750726e-02
5.839999999999999858e+01,1.112401897725949669e-02
5.843999999999999773e+01,1.433133998680578836e-02
5.847999999999999687e+01,1.693448256736040589e-02
5.852000000000000313e+01,1.851084922325251306e-02
5.856000000000000227e+01,1.791339081359447083e-02
5.860000000000000142e+01,1.719471963053965588e-02
5.864000000000000057e+01,2.933459361492854814e-02
5.867999999999999972e+01,2.607939790067716201e-02
5.871999999999999886e+01,2.463485835905753624e-02
5.875999999999999801e+01,2.222390964744412958e-02
5.879999999999999716e+01,1.860506718147036248e-02
5.884000000000000341e+01,2.035876603589474240e-02
5.888000000000000256e+01,1.577303724375088770e-02
5.892000000000000171e+01,1.704281613022773714e-02
5.896000000000000085e+01,1.088648849705575392e-02
5.900000000000000000e+01,1.390607051115962979e-02
5.903999999999999915e+01,1.475181902818135417e-02
5.907999999999999829e+01,1.463115275418797566e-02
5.911999999999999744e+01,1.004255470133717451e-02
5.915999999999999659e+01,1.130946011134106692e-02
5.920000000000000284e+01,1.160994862244685982e-02
5.924000000000000199e+01,8.589551685072202916e-03
5.928000000000000114e+01,1.414134977223235369e-02
5.932000000000000028e+01,1.051627687348734817e-02
5.935999999999999943e+01,1.105631675228612061e-02
5.939999999999999858e+01,1.388996862252418578e-02
5.943999999999999773e+01,1.624016714157603195e-02
5.947999999999999687e+01,1.840876645898768468e-02
5.952000000000000313e+01,3.144365346168811332e-02
5.956000000000000227e+01,2.998901986446062679e-02
5.960000000000000142e+01,2.467015576119106768e-02
5.964000000000000057e+01,2.037710905446533938e-02
5.967999999999999972e+01,2.586366975469249832e-02
5.971999999999999886e+01,2.199223953143359181e-02
5.975999999999999801e+01,2.168220535509444644e-02
5.979999999999999716e+01,1.799090492305277511e-02
5.984000000000000341e+01,1.061648268050720788e-02
5.988000000000000256e+01,8.433470578736267445e-03
5.992000000000000171e+01,7.638496777723905937e-03
5.996000000000000085e+01,9.076754160928787035e-03
