2.003999999999999915e+01,3.350001978405661718e-02
2.007999999999999829e+01,1.366524447549611991e-02
2.012000000000000099e+01,2.679325666958859778e-02
2.016000000000000014e+01,2.373902100722589600e-02
2.019999999999999929e+01,4.420812956680686412e-02
2.023999999999999844e+01,3.141409336474678543e-02
2.028000000000000114e+01,1.082842419856202415e-02
2.032000000000000028e+01,2.290587626669840157e-02
2.035999999999999943e+01,2.554353813848184163e-02
2.039999999999999858e+01,3.072800345059260516e-02
2.044000000000000128e+01,2.497435375813130895e-02
2.048000000000000043e+01,7.982923929016325082e-03
2.051999999999999957e+01,2.020846816169346444e-02
2.055999999999999872e+01,2.823835561802741714e-02
2.060000000000000142e+01,3.446990479810396052e-02
2.064000000000000057e+01,3.395864542555321330e-02
2.067999999999999972e+01,2.655474479230299917e-02
2.071999999999999886e+01,8.062894742029804926e-03
2.076000000000000156e+01,1.788902250511458999e-02
2.080000000000000071e+01,1.497904361894813498e-02
2.083999999999999986e+01,3.798972319386462182e-02
2.087999999999999901e+01,2.863624800618665145e-02
2.092000000000000171e+01,2.033124832592310763e-02
2.096000000000000085e+01,3.420109565432111198e-02
2.100000000000000000e+01,2.199974917632550528e-02
2.103999999999999915e+01,1.099670977756454955e-02
2.107999999999999829e+01,3.415511045601910683e-02
2.112000000000000099e+01,3.049315435584456016e-02
2.116000000000000014e+01,4.436123869972807832e-02
2.119999999999999929e+01,3.170863054487481347e-02
2.123999999999999844e+01,3.823421893005567174e-02
2.128000000000000114e+01,2.258425454464315849e-02
2.132000000000000028e+01,6.334606161912149924e-03
2.135999999999999943e+01,3.758148160478216177e-02
2.139999999999999858e+01,1.069302166263951318e-02
2.144000000000000128e+01,3.864287375442707062e-02
2.148000000000000043e+01,2.793560501428376738e-02
2.151999999999999957e+01,3.595703355370518522e-02
2.155999999999999872e+01,2.464972339026814604e-02
2.160000000000000142e+01,2.757613721799107367e-02
2.164000000000000057e+01,2.435906508754705907e-02
2.167999999999999972e+01,1.739582549902182404e-02
2.171999999999999886e+01,3.830105963431268412e-02
2.176000000000000156e+01,2.294648973337983650e-02
2.180000000000000071e+01,2.497212330748652120e-02
2.183999999999999986e+01,4.243013856044907522e-02
2.187999999999999901e+01,4.760153676648524318e-02
2.192000000000000171e+01,2.040877282428706432e-02
2.196000000000000085e+01,1.733867030129426778e-02
2.200000000000000000e+01,1.411837622393858835e-02
2.203999999999999915e+01,1.389437121235212458e-02
2.207999999999999829e+01,4.258766433607920343e-02
2.212000000000000099e+01,4.101444782738650208e-02
2.216000000000000014e+01,3.374723893973487210e-02
2.219999999999999929e+01,2.213452920514484210e-02
2.223999999999999844e+01,2.940034406099344827e-02
2.228000000000000114e+01,3.696546264606562215e-02
2.232000000000000028e+01,2.235502107490439441e-02
2.235999999999999943e+01,3.636221080259664090e-02
2.239999999999999858e+01,4.018043372667280677e-02
2.244000000000000128e+01,5.044108862810102456e-02
2.248000000000000043e+01,9.458691979240985148e-03
2.251999999999999957e+01,3.664968543143507645e-02
2.255999999999999872e+01,4.241427914306391406e-02
2.260000000000000142e+01,2.870029434218512518e-02
2.264000000000000057e+01,2.487488585055683266e-02
2.267999999999999972e+01,1.955078915940977255e-02
2.271999999999999886e+01,3.685102425017683370e-02
2.276000000000000156e+01,3.332418787610039179e-02
2.280000000000000071e+01,3.159497577852032196e-02
2.283999999999999986e+01,2.222394496078819795e-02
2.287999999999999901e+01,3.173143418848565350e-02
2.292000000000000171e+01,1.996235354305951615e-02
2.296000000000000085e+01,1.433603633414679869e-02
2.300000000000000000e+01,1.754946590985190236e-02
2.303999999999999915e+01,3.020197168214898073e-02
2.307999999999999829e+01,4.510159701452880893e-02
2.312000000000000099e+01,3.243168924507919965e-02
2.316000000000000014e+01,3.309649984427393693e-02
2.319999999999999929e+01,3.585859672735290660e-02
2.323999999999999844e+01,1.434747298461784212e-02
2.328000000000000114e+01,1.920648764714601858e-02
2.332000000000000028e+01,2.721161470943436397e-02
2.335999999999999943e+01,1.409000119791454370e-02
2.339999999999999858e+01,1.445293677466971509e-02
2.344000000000000128e+01,4.103617719642665279e-02
2.348000000000000043e+01,4.799100043227912810e-02
2.351999999999999957e+01,5.524511859139979303e-02
2.355999999999999872e+01,6.055104502958624096e-02
2.360000000000000142e+01,1.056843651546742098e-02
2.364000000000000057e+01,3.789898801320345373e-02
2.367999999999999972e+01,3.061787850379049311e-02
2.371999999999999886e+01,3.097785127378572395e-02
2.376000000000000156e+01,4.452270572746971911e-02
2.380000000000000071e+01,2.825053589011274069e-02
2.383999999999999986e+01,2.681140383242065078e-02
2.387999999999999901e+01,3.765815806217241712e-02
2.392000000000000171e+01,1.239492534030374460e-02
2.396000000000000085e+01,3.747501403611292609e-02
2.400000000000000000e+01,4.667249245342991459e-02
2.403999999999999915e+01,2.575328002730889118e-02
2.407999999999999829e+01,3.165369759721766568e-02
2.412000000000000099e+01,2.946279008492818166e-02
2.416000000000000014e+01,4.000726414366893163e-02
2.419999999999999929e+01,1.249392775022687731e-02
2.423999999999999844e+01,3.322625684989111844e-02
2.428000000000000114e+01,2.953552551409196342e-02
2.432000000000000028e+01,3.693201794896848467e-02
2.435999999999999943e+01,2.634824361265515266e-02
2.439999999999999858e+01,3.359415155930944863e-02
2.444000000000000128e+01,3.020158094310300412e-02
2.448000000000000043e+01,1.901734753614916368e-02
2.451999999999999957e+01,3.525207069656851461e-02
2.455999999999999872e+01,4.264630353004931346e-02
2.460000000000000142e+01,2.786496001570158698e-02
2.464000000000000057e+01,3.780558858437044895e-02
2.467999999999999972e+01,4.444952566225542079e-02
2.471999999999999886e+01,1.887911313150004641e-02
2.476000000000000156e+01,2.612162272807393854e-02
2.480000000000000071e+01,3.740922875812990878e-02
2.483999999999999986e+01,4.000617489681516231e-02
2.487999999999999901e+01,2.926765571577846781e-02
2.492000000000000171e+01,3.620898270088031973e-02
2.496000000000000085e+01,4.959272376736059001e-02
2.500000000000000000e+01,3.480758868500988951e-02
2.503999999999999915e+01,1.732508925134486344e-02
2.507999999999999829e+01,2.606288301609552618e-02
2.512000000000000099e+01,4.828521365440908292e-02
2.516000000000000014e+01,2.960291096684961390e-02
2.519999999999999929e+01,4.043721395372110866e-02
2.523999999999999844e+01,4.318018390462822348e-02
2.528000000000000114e+01,2.794288055089476364e-02
2.532000000000000028e+01,4.282151171544026219e-02
2.535999999999999943e+01,3.147908568670781948e-02
2.539999999999999858e+01,5.100175572817460673e-02
2.544000000000000128e+01,1.478638047840708306e-02
2.548000000000000043e+01,3.191096433210623140e-02
2.551999999999999957e+01,3.510074862503727994e-02
2.555999999999999872e+01,4.518244001042866220e-02
2.560000000000000142e+01,5.391525488370602776e-02
2.564000000000000057e+01,2.653807059065084462e-02
2.567999999999999972e+01,3.706810430779011040e-02
2.571999999999999886e+01,5.134356307694226684e-02
2.576000000000000156e+01,5.767751754131923009e-02
2.580000000000000071e+01,3.494359563154818271e-02
2.583999999999999986e+01,3.393498880271573342e-02
2.587999999999999901e+01,4.940756193043362859e-02
2.592000000000000171e+01,4.974667326467819423e-02
2.596000000000000085e+01,2.086807466451300400e-02
2.600000000000000000e+01,3.004652422604701251e-02
2.603999999999999915e+01,4.282056414307983810e-02
2.607999999999999829e+01,3.911264931430358249e-02
2.612000000000000099e+01,4.109797820903016846e-02
2.616000000000000014e+01,4.518057236697357176e-02
2.619999999999999929e+01,4.102199424742964534e-02
2.623999999999999844e+01,3.881084839896703498e-02
2.628000000000000114e+01,4.813640967411745436e-02
2.632000000000000028e+01,4.427632782728462696e-02
2.635999999999999943e+01,4.221384497533471614e-02
2.639999999999999858e+01,3.295901539364692878e-02
2.644000000000000128e+01,1.905899000631652157e-02
2.648000000000000043e+01,4.246684725188180215e-02
2.651999999999999957e+01,3.620749331412635025e-02
2.655999999999999872e+01,6.111289205675966840e-02
2.660000000000000142e+01,3.582403695867311666e-02
2.664000000000000057e+01,2.162238915560409092e-02
2.667999999999999972e+01,4.757543862129190448e-02
2.671999999999999886e+01,1.779043370572694696e-02
2.676000000000000156e+01,4.524102182785216114e-02
2.680000000000000071e+01,3.613210527378760140e-02
2.683999999999999986e+01,3.211709763405348056e-02
2.687999999999999901e+01,3.769097134486551481e-02
2.692000000000000171e+01,3.712132160118484375e-02
2.696000000000000085e+01,4.314390415973832354e-02
2.700000000000000000e+01,5.470989176839773094e-02
2.703999999999999915e+01,5.249090144590150275e-02
2.707999999999999829e+01,5.221933742916202992e-02
2.712000000000000099e+01,4.730257277770753832e-02
2.716000000000000014e+01,4.238541235176285921e-02
2.719999999999999929e+01,3.836685041132077700e-02
2.723999999999999844e+01,5.262744785739605774e-02
2.728000000000000114e+01,3.092786691456205980e-02
2.732000000000000028e+01,4.323984931109475793e-02
2.735999999999999943e+01,3.772137605571631441e-02
2.739999999999999858e+01,6.726329253964358212e-02
2.744000000000000128e+01,5.335340829794469469e-02
2.748000000000000043e+01,5.697351961833815870e-02
2.751999999999999957e+01,4.126484991047519452e-02
2.755999999999999872e+01,5.717042305345195613e-02
2.760000000000000142e+01,6.633313821682670919e-02
2.764000000000000057e+01,4.418047757901244488e-02
2.767999999999999972e+01,6.772630679672218823e-02
2.771999999999999886e+01,4.677150633229905374e-02
2.776000000000000156e+01,5.907910396250259238e-02
2.780000000000000071e+01,5.730205341633328592e-02
2.783999999999999986e+01,4.698415409807197435e-02
2.787999999999999901e+01,6.872999263017375016e-02
2.792000000000000171e+01,7.024805274933261512e-02
2.796000000000000085e+01,6.607207930038679067e-02
2.800000000000000000e+01,6.908766046407238681e-02
2.803999999999999915e+01,6.296306173931338901e-02
2.807999999999999829e+01,9.549482610101082958e-02
2.812000000000000099e+01,7.888115279565678650e-02
2.816000000000000014e+01,5.971992540607773403e-02
2.819999999999999929e+01,7.067461208223632663e-02
2.823999999999999844e+01,8.013057107410895274e-02
2.828000000000000114e+01,8.898679664168816783e-02
2.832000000000000028e+01,8.046205701187035542e-02
2.835999999999999943e+01,7.972819913415336857e-02
2.839999999999999858e+01,9.128019544475293734e-02
2.844000000000000128e+01,9.399167387429570308e-02
2.848000000000000043e+01,9.445526079512765738e-02
2.851999999999999957e+01,7.903620533834010420e-02
2.855999999999999872e+01,9.208490472662025916e-02
2.860000000000000142e+01,8.520548572090384798e-02
2.864000000000000057e+01,8.012364951847508743e-02
2.867999999999999972e+01,8.103470370753103336e-02
2.871999999999999886e+01,8.464233467580438430e-02
2.876000000000000156e+01,6.292787884949423149e-02
2.880000000000000071e+01,8.181760250862604722e-02
2.883999999999999986e+01,8.722200030178249575e-02
2.887999999999999901e+01,6.161067833581312936e-02
2.892000000000000171e+01,5.068252564948913519e-02
2.896000000000000085e+01,7.661274071212238745e-02
2.900000000000000000e+01,7.077807304339427119e-02
2.903999999999999915e+01,3.902198689560421041e-02
2.907999999999999829e+01,7.319175790238482970e-02
2.912000000000000099e+01,7.200066714939182266e-02
2.916000000000000014e+01,6.646402612248561437e-02
2.919999999999999929e+01,6.721993664226279253e-02
2.923999999999999844e+01,5.748716693561956720e-02
2.928000000000000114e+01,6.633320697629552232e-02
2.932000000000000028e+01,4.760966988536569078e-02
2.935999999999999943e+01,4.896326621372175392e-02
2.939999999999999858e+01,5.855723418056676260e-02
2.944000000000000128e+01,5.931067716477809310e-02
2.948000000000000043e+01,5.077409761026500240e-02
2.951999999999999957e+01,4.778090520988424739e-02
2.955999999999999872e+01,5.257858603971218153e-02
2.960000000000000142e+01,5.407954043899802082e-02
2.964000000000000057e+01,3.730052572274962508e-02
2.967999999999999972e+01,5.737987364232322723e-02
2.971999999999999886e+01,3.850237736495414759e-02
2.976000000000000156e+01,3.610603349001727247e-02
2.980000000000000071e+01,4.494670689312431355e-02
2.983999999999999986e+01,3.790472854453030838e-02
2.987999999999999901e+01,4.914189083429082450e-02
2.992000000000000171e+01,5.888031350911618333e-02
2.996000000000000085e+01,3.640434936303862251e-02
3.000000000000000000e+01,4.209646498773952222e-02
3.003999999999999915e+01,3.984704591291655246e-02
3.007999999999999829e+01,3.639855093492475047e-02
3.012000000000000099e+01,3.909276854615633540e-02
3.016000000000000014e+01,5.047684967070621698e-02
3.019999999999999929e+01,3.968531467859718470e-02
3.023999999999999844e+01,3.803313990370816439e-02
3.028000000000000114e+01,3.368356356524204731e-02
3.032000000000000028e+01,3.188072021946097151e-02
3.035999999999999943e+01,4.730818713521238450e-02
3.039999999999999858e+01,4.280752287412893653e-02
3.044000000000000128e+01,2.107571078431475647e-02
3.048000000000000043e+01,3.125778565675455672e-02
3.051999999999999957e+01,2.750502546054185357e-02
3.055999999999999872e+01,2.105486171231055886e-02
3.060000000000000142e+01,1.055880231191392085e-02
3.064000000000000057e+01,3.527294206572331725e-02
3.067999999999999972e+01,2.972051139761518190e-02
3.071999999999999886e+01,3.750274541023030511e-02
3.076000000000000156e+01,3.374746143396328835e-02
3.080000000000000071e+01,2.699510735328060351e-02
3.083999999999999986e+01,4.121887072560580234e-02
3.087999999999999901e+01,2.682421891980037512e-02
3.092000000000000171e+01,3.235685703081170317e-02
3.096000000000000085e+01,2.800013239672760265e-02
3.100000000000000000e+01,2.139549835795899468e-02
3.103999999999999915e+01,1.254295463044273300e-02
3.107999999999999829e+01,1.792406757113786803e-02
3.112000000000000099e+01,2.854889145542374024e-02
3.116000000000000014e+01,3.108234026241040934e-02
3.119999999999999929e+01,1.983078159568173182e-02
3.123999999999999844e+01,3.030449966137664999e-02
3.128000000000000114e+01,3.897980360597340377e-02
3.132000000000000028e+01,2.083467833585715343e-02
3.135999999999999943e+01,2.950913136229123962e-02
3.139999999999999858e+01,3.563600729539147249e-02
3.144000000000000128e+01,2.393239860214699602e-02
3.148000000000000043e+01,2.136814132016719853e-02
3.151999999999999957e+01,2.734390546935189584e-02
3.155999999999999872e+01,2.492862685258804070e-02
3.160000000000000142e+01,1.052632700958954989e-02
3.164000000000000057e+01,3.627868921152686832e-02
3.167999999999999972e+01,0.000000000000000000e+00
3.171999999999999886e+01,3.144513828299241170e-02
3.176000000000000156e+01,2.108660182564892419e-02
3.180000000000000071e+01,3.619914872407827694e-02
3.183999999999999986e+01,3.423037027557867401e-02
3.187999999999999901e+01,2.461970890867239831e-02
3.192000000000000171e+01,2.175107704418834803e-02
3.196000000000000085e+01,2.772212833419356731e-02
3.200000000000000000e+01,4.193353279858776789e-02
3.203999999999999915e+01,2.677735172697568930e-02
3.207999999999999829e+01,1.401805872526409869e-02
3.211999999999999744e+01,3.302280861521111194e-02
3.215999999999999659e+01,4.228801966217981406e-02
3.220000000000000284e+01,2.053748737278772440e-02
3.224000000000000199e+01,2.006272744221458681e-02
3.228000000000000114e+01,2.932664293768190433e-02
3.232000000000000028e+01,1.311861393294298968e-02
3.235999999999999943e+01,3.616624731594873798e-02
3.239999999999999858e+01,1.995735262176734012e-02
3.243999999999999773e+01,1.738277524161568194e-02
3.247999999999999687e+01,1.285994279446426268e-02
3.252000000000000313e+01,3.141086980580178739e-02
3.256000000000000227e+01,2.179286698038736605e-02
3.260000000000000142e+01,3.959376334160523425e-02
3.264000000000000057e+01,3.701701534642823366e-02
3.267999999999999972e+01,9.118152718486594033e-03
3.271999999999999886e+01,1.747830144153620160e-02
3.275999999999999801e+01,3.977243005412950394e-02
3.279999999999999716e+01,2.535717895706280159e-02
3.284000000000000341e+01,2.637423142150661926e-02
3.288000000000000256e+01,2.394470173822702344e-02
3.292000000000000171e+01,2.061574083131898286e-02
3.296000000000000085e+01,2.028299144096093465e-02
3.300000000000000000e+01,3.283539326770312100e-02
3.303999999999999915e+01,2.605897486548473460e-02
3.307999999999999829e+01,3.141854499219393776e-02
3.311999999999999744e+01,2.524058037029957777e-02
3.315999999999999659e+01,3.539391158146681926e-02
3.320000000000000284e+01,1.797763810691018274e-02
3.324000000000000199e+01,4.606401128527115585e-03
3.328000000000000114e+01,2.689484182821500272e-02
3.332000000000000028e+01,2.865580091842649321e-02
3.335999999999999943e+01,2.846849869225063362e-02
3.339999999999999858e+01,2.168812972133640424e-02
3.343999999999999773e+01,3.483503277126519942e-02
3.347999999999999687e+01,2.236015065914938316e-02
3.352000000000000313e+01,1.917443789509081994e-02
3.356000000000000227e+01,2.333007268290561778e-02
3.360000000000000142e+01,1.130336416907192117e-02
3.364000000000000057e+01,2.879320139236064488e-02
3.367999999999999972e+01,2.156024657734512476e-02
3.371999999999999886e+01,2.040590632733451249e-03
3.375999999999999801e+01,5.894350188674000492e-03
3.379999999999999716e+01,2.233359043243470995e-02
3.384000000000000341e+01,3.292892292680961452e-02
3.388000000000000256e+01,3.603219072363347819e-02
3.392000000000000171e+01,2.085545901017409401e-02
3.396000000000000085e+01,2.171035260049633195e-02
3.400000000000000000e+01,3.386251568353512535e-03
3.403999999999999915e+01,7.986066776293508640e-03
3.407999999999999829e+01,1.123694525074799347e-02
3.411999999999999744e+01,2.362715638830434686e-02
3.415999999999999659e+01,8.447756022622994465e-03
3.420000000000000284e+01,1.724109772883725480e-02
3.424000000000000199e+01,2.423600429328584549e-02
3.428000000000000114e+01,1.774554635918091511e-02
3.432000000000000028e+01,1.230346877136071458e-02
3.435999999999999943e+01,3.682742907955550288e-02
3.439999999999999858e+01,2.464199831556733097e-02
3.443999999999999773e+01,2.294438975826007532e-02
3.447999999999999687e+01,3.428175433172855890e-02
3.452000000000000313e+01,1.819933726940100444e-02
3.456000000000000227e+01,2.833714608254071093e-02
3.460000000000000142e+01,2.139360994839932875e-02
3.464000000000000057e+01,1.489912219200097317e-02
3.467999999999999972e+01,2.009111432997937041e-02
3.471999999999999886e+01,1.494421974890554686e-02
3.475999999999999801e+01,1.564033995772001057e-02
3.479999999999999716e+01,2.083098285627603061e-02
3.484000000000000341e+01,3.261380209664065111e-02
3.488000000000000256e+01,2.866376621736620861e-02
3.492000000000000171e+01,2.291529036725391960e-02
3.496000000000000085e+01,3.349809756736493033e-02
3.500000000000000000e+01,2.235475183527606616e-02
3.503999999999999915e+01,2.784235343330288340e-02
3.507999999999999829e+01,2.344056302773782699e-02
3.511999999999999744e+01,1.753999607903799010e-02
3.515999999999999659e+01,1.148914411922403664e-02
3.520000000000000284e+01,1.712476836096692157e-02
3.524000000000000199e+01,1.766563703116280637e-02
3.528000000000000114e+01,1.520940378187882885e-02
3.532000000000000028e+01,2.668713224210183393e-02
3.535999999999999943e+01,1.269289461332496691e-02
3.539999999999999858e+01,8.287477829659502249e-03
3.543999999999999773e+01,2.830429158396220377e-02
3.547999999999999687e+01,2.389796536514090727e-02
3.552000000000000313e+01,2.158883793877714244e-02
3.556000000000000227e+01,3.441232990961626270e-02
3.560000000000000142e+01,1.996586499896564268e-02
3.564000000000000057e+01,1.705604074116870428e-02
3.567999999999999972e+01,2.643201897220887747e-02
3.571999999999999886e+01,2.142362793436912785e-02
3.575999999999999801e+01,1.746360701654348091e-02
3.579999999999999716e+01,1.754860441485465994e-02
3.584000000000000341e+01,4.310465647856830118e-02
3.588000000000000256e+01,1.112460002247373306e-02
3.592000000000000171e+01,2.289515339278913250e-02
3.596000000000000085e+01,3.796156182294255221e-02
3.600000000000000000e+01,1.347175176221359662e-02
3.603999999999999915e+01,1.909780009085972063e-02
3.607999999999999829e+01,1.813076264254151818e-02
3.611999999999999744e+01,1.012114186116794441e-02
3.615999999999999659e+01,4.136715648154708908e-02
3.620000000000000284e+01,1.597605485366920819e-02
3.624000000000000199e+01,2.609477745918559535e-02
3.628000000000000114e+01,3.381572073968241304e-02
3.632000000000000028e+01,3.104793351459478670e-02
3.635999999999999943e+01,1.884024246792468868e-02
3.639999999999999858e+01,1.742002455686345389e-02
3.643999999999999773e+01,2.468962556121791219e-02
3.647999999999999687e+01,3.016077551627458983e-02
3.652000000000000313e+01,3.128632292981245455e-02
3.656000000000000227e+01,3.765554265436306391e-02
3.660000000000000142e+01,2.694340322847891059e-02
3.664000000000000057e+01,1.997661130538842117e-02
3.667999999999999972e+01,3.173840900195776943e-02
3.671999999999999886e+01,3.151314911221901605e-02
3.675999999999999801e+01,2.933960376073169174e-02
3.679999999999999716e+01,2.731542659956272961e-02
3.684000000000000341e+01,1.749949887215666161e-02
3.688000000000000256e+01,2.880947812824368251e-02
3.692000000000000171e+01,2.978055504180949012e-02
3.696000000000000085e+01,2.595652901713474403e-02
3.700000000000000000e+01,2.243170218647238742e-02
3.703999999999999915e+01,2.190305789792649019e-02
3.707999999999999829e+01,2.676791465158267352e-02
3.711999999999999744e+01,1.320291674590053262e-02
3.715999999999999659e+01,1.896583474715846443e-02
3.720000000000000284e+01,2.697577203423418002e-02
3.724000000000000199e+01,3.258792317877650530e-02
3.728000000000000114e+01,3.954809849695465479e-02
3.732000000000000028e+01,4.036467650424100523e-02
3.735999999999999943e+01,2.140290633172695425e-02
3.739999999999999858e+01,4.469341123519618431e-02
3.743999999999999773e+01,3.157416832570739823e-02
3.747999999999999687e+01,2.624574240193873129e-02
3.752000000000000313e+01,3.634958680430083744e-02
3.756000000000000227e+01,2.113128191820334845e-02
3.760000000000000142e+01,4.801541826376447969e-02
3.764000000000000057e+01,4.223561597628459896e-02
3.767999999999999972e+01,5.009009379057175609e-02
3.771999999999999886e+01,7.397617020671153065e-02
3.775999999999999801e+01,5.096422685673834135e-02
3.779999999999999716e+01,7.380053391834066889e-02
3.784000000000000341e+01,8.494944028788746493e-02
3.788000000000000256e+01,1.058369823146443484e-01
3.792000000000000171e+01,1.376618191066225905e-01
3.796000000000000085e+01,1.592975785944489020e-01
3.800000000000000000e+01,2.290290734336748180e-01
3.803999999999999915e+01,3.497031193964137974e-01
3.807999999999999829e+01,5.292608346710950817e-01
3.811999999999999744e+01,8.095054652722480926e-01
3.815999999999999659e+01,1.000000000000000000e+00
3.820000000000000284e+01,9.539086630411817147e-01
3.824000000000000199e+01,8.450370659625088265e-01
3.828000000000000114e+01,6.882186184568377385e-01
3.832000000000000028e+01,4.522881760461730516e-01
3.835999999999999943e+01,3.183931390736853273e-01
3.839999999999999858e+01,2.120667925226934203e-01
3.843999999999999773e+01,1.758615445277730560e-01
3.847999999999999687e+01,1.329133612880946114e-01
3.852000000000000313e+01,9.610783098439412697e-02
3.856000000000000227e+01,8.896864390206721263e-02
3.860000000000000142e+01,6.474808346615185117e-02
3.864000000000000057e+01,5.566012055458268576e-02
3.867999999999999972e+01,4.732084217840461932e-02
3.871999999999999886e+01,4.497438289387976212e-02
3.875999999999999801e+01,4.247761303256411547e-02
3.879999999999999716e+01,4.237768351855260990e-02
3.884000000000000341e+01,3.493548650717814147e-02
3.888000000000000256e+01,3.633292350738114712e-02
3.892000000000000171e+01,4.716932393113570932e-02
3.896000000000000085e+01,2.968691664403730335e-02
3.900000000000000000e+01,4.022269278951651206e-02
3.903999999999999915e+01,3.772256790496431728e-02
3.907999999999999829e+01,3.701995168323751750e-02
3.911999999999999744e+01,4.245998413654250569e-02
3.915999999999999659e+01,4.130690894002644886e-02
3.920000000000000284e+01,3.251189884156119314e-02
3.924000000000000199e+01,2.386623960556683369e-02
3.928000000000000114e+01,4.983138847011739370e-02
3.932000000000000028e+01,3.234465224230883423e-02
3.935999999999999943e+01,1.545676329680981814e-02
3.939999999999999858e+01,2.808537918335060959e-02
3.943999999999999773e+01,3.067473967941507229e-02
3.947999999999999687e+01,2.142685541282868603e-02
3.952000000000000313e+01,2.251692485290353318e-02
3.956000000000000227e+01,3.379511529156722233e-02
3.960000000000000142e+01,2.364678497879613497e-02
3.964000000000000057e+01,2.398623994450634067e-02
3.967999999999999972e+01,4.380342534519229836e-02
3.971999999999999886e+01,2.930850067745516957e-02
3.975999999999999801e+01,2.050672286771277469e-02
3.979999999999999716e+01,2.459004798434807557e-02
3.984000000000000341e+01,3.586484363094483152e-02
3.988000000000000256e+01,2.781077047379541811e-02
3.992000000000000171e+01,2.754749697451852955e-02
3.996000000000000085e+01,2.968105558471660632e-02
4.000000000000000000e+01,3.376194874829867298e-02
4.003999999999999915e+01,2.585576074833756399e-02
4.007999999999999829e+01,3.098450611032187163e-02
4.011999999999999744e+01,2.981980185298992170e-02
4.015999999999999659e+01,3.374891191698481396e-02
4.020000000000000284e+01,3.557987966579748140e-02
4.024000000000000199e+01,2.302644604660288377e-02
4.028000000000000114e+01,1.931263649677818911e-02
4.032000000000000028e+01,2.863375860452055041e-02
4.035999999999999943e+01,2.986344030045665413e-02
4.039999999999999858e+01,2.719698917278365671e-02
4.043999999999999773e+01,2.438021553767074842e-02
4.047999999999999687e+01,2.995356727958453646e-02
4.052000000000000313e+01,2.548765596131902580e-02
4.056000000000000227e+01,3.495566914029778899e-02
4.060000000000000142e+01,1.985067356206986211e-02
4.064000000000000057e+01,2.527222856936892081e-02
4.067999999999999972e+01,3.893407510936994914e-02
4.071999999999999886e+01,3.191855506421666100e-02
4.075999999999999801e+01,3.374265567967634633e-02
4.079999999999999716e+01,3.137095578287760894e-02
4.084000000000000341e+01,3.259474113824054747e-02
4.088000000000000256e+01,2.767490390109809961e-02
4.092000000000000171e+01,1.676127621139650997e-02
4.096000000000000085e+01,2.547520229066156314e-02
4.100000000000000000e+01,3.134181825343645977e-02
4.103999999999999915e+01,3.106481048745366250e-02
4.107999999999999829e+01,3.168630263708685502e-02
4.111999999999999744e+01,3.200763502619862616e-02
4.115999999999999659e+01,3.607428281897674671e-02
4.120000000000000284e+01,3.609495968287499551e-02
4.124000000000000199e+01,2.532720625341214338e-02
4.128000000000000114e+01,3.433683674442067346e-02
4.132000000000000028e+01,2.896205819771896159e-02
4.135999999999999943e+01,2.688309636234036126e-02
4.139999999999999858e+01,2.150732429781298388e-02
4.143999999999999773e+01,2.242401685666842517e-02
4.147999999999999687e+01,3.877295161941038404e-02
4.152000000000000313e+01,2.140909322692812616e-02
4.156000000000000227e+01,2.292362222241995165e-02
4.160000000000000142e+01,3.252860379315376110e-02
4.164000000000000057e+01,3.269364404597941559e-02
4.167999999999999972e+01,3.495583934554925137e-02
4.171999999999999886e+01,2.687909821502904723e-02
4.175999999999999801e+01,4.487269940461348361e-02
4.179999999999999716e+01,2.960300272256011223e-02
4.184000000000000341e+01,2.377224872745390891e-02
4.188000000000000256e+01,2.033831320679515067e-02
4.192000000000000171e+01,2.963963313316185164e-02
4.196000000000000085e+01,2.890167977307852784e-02
4.200000000000000000e+01,2.861272252313266234e-02
4.203999999999999915e+01,2.997142049133547093e-02
4.207999999999999829e+01,2.114101189688979976e-02
4.211999999999999744e+01,2.669401399325643104e-02
4.215999999999999659e+01,3.044852470336879141e-02
4.220000000000000284e+01,2.326476587859701434e-02
4.224000000000000199e+01,3.016475204442973720e-02
4.228000000000000114e+01,3.211976506762385941e-02
4.232000000000000028e+01,2.148835103964237200e-02
4.235999999999999943e+01,3.258213477455006862e-02
4.239999999999999858e+01,4.307608481089940378e-02
4.243999999999999773e+01,3.229332635134497809e-02
4.247999999999999687e+01,2.960101421764494561e-02
4.252000000000000313e+01,3.514898054974553709e-02
4.256000000000000227e+01,3.260549084657086982e-02
4.260000000000000142e+01,3.455646844083841429e-02
4.264000000000000057e+01,1.897654671911909799e-02
4.267999999999999972e+01,2.062684776750561486e-02
4.271999999999999886e+01,3.126658798142385037e-02
4.275999999999999801e+01,3.651185437191869360e-02
4.279999999999999716e+01,2.947035515049968232e-02
4.284000000000000341e+01,3.276678605850674719e-02
4.288000000000000256e+01,2.752226138670606573e-02
4.292000000000000171e+01,3.381432566827972941e-02
4.296000000000000085e+01,3.216476349795664713e-02
4.300000000000000000e+01,1.987659095950655014e-02
4.303999999999999915e+01,2.616713045067821722e-02
4.307999999999999829e+01,3.110866929417279575e-02
4.311999999999999744e+01,3.589986659800154661e-02
4.315999999999999659e+01,3.724440874989694977e-02
4.320000000000000284e+01,2.255637184901545730e-02
4.324000000000000199e+01,3.303967221384925684e-02
4.328000000000000114e+01,2.404424720556621806e-02
4.332000000000000028e+01,2.628574346200814732e-02
4.335999999999999943e+01,2.538024799422000655e-02
4.339999999999999858e+01,3.421334898293778431e-02
4.343999999999999773e+01,3.825130101519706033e-02
4.347999999999999687e+01,3.884259562301843605e-02
4.352000000000000313e+01,4.377851857082197540e-02
4.356000000000000227e+01,4.766510231021010846e-02
4.360000000000000142e+01,2.982547204383755729e-02
4.364000000000000057e+01,3.820600317061455947e-02
4.367999999999999972e+01,3.355060031604356618e-02
4.371999999999999886e+01,4.552608314990131549e-02
4.375999999999999801e+01,3.487635629769028633e-02
4.379999999999999716e+01,3.621270942149383554e-02
4.384000000000000341e+01,4.249301830881208747e-02
4.388000000000000256e+01,4.532666693106170153e-02
4.392000000000000171e+01,5.190561135662561526e-02
4.396000000000000085e+01,5.593688949305044428e-02
4.400000000000000000e+01,6.191547377655193252e-02
4.403999999999999915e+01,7.838181209159658658e-02
4.407999999999999829e+01,1.054857365781306233e-01
4.411999999999999744e+01,1.054694761017494903e-01
4.415999999999999659e+01,1.247810818212704981e-01
4.420000000000000284e+01,1.569777592202311056e-01
4.424000000000000199e+01,1.863271034935925496e-01
4.428000000000000114e+01,2.433949288551872647e-01
4.432000000000000028e+01,3.000127393072053450e-01
4.435999999999999943e+01,3.546822103254908543e-01
4.439999999999999858e+01,3.227480220607307770e-01
4.443999999999999773e+01,3.066955522512176957e-01
4.447999999999999687e+01,2.515363010014783907e-01
4.452000000000000313e+01,2.199002212633337505e-01
4.456000000000000227e+01,1.779251849266208219e-01
4.460000000000000142e+01,1.513823686368746535e-01
4.464000000000000057e+01,1.113541142762388830e-01
4.467999999999999972e+01,8.675807939444375727e-02
4.471999999999999886e+01,8.283839854775136569e-02
4.475999999999999801e+01,6.438445180991513028e-02
4.479999999999999716e+01,6.765568550712054707e-02
4.484000000000000341e+01,6.837924666579926758e-02
4.488000000000000256e+01,6.011234076948873684e-02
4.492000000000000171e+01,4.375396207818157274e-02
4.496000000000000085e+01,6.605182659871372541e-02
4.500000000000000000e+01,3.485899328130771802e-02
4.503999999999999915e+01,3.617927322323394312e-02
4.507999999999999829e+01,3.764886255442231877e-02
4.511999999999999744e+01,4.196474462297696689e-02
4.515999999999999659e+01,3.684066037607295480e-02
4.520000000000000284e+01,3.306454405831619342e-02
4.524000000000000199e+01,2.599159024135558327e-02
4.528000000000000114e+01,2.640973316979697977e-02
4.532000000000000028e+01,4.211025860806055787e-02
4.535999999999999943e+01,3.458623330169526694e-02
4.539999999999999858e+01,2.811050965614325312e-02
4.543999999999999773e+01,4.231113493255864166e-02
4.547999999999999687e+01,3.268787891611880242e-02
4.552000000000000313e+01,3.520052308499059535e-02
4.556000000000000227e+01,3.097018172994020491e-02
4.560000000000000142e+01,3.767708060000105053e-02
4.564000000000000057e+01,3.164769641764184765e-02
4.567999999999999972e+01,3.221041159599824510e-02
4.571999999999999886e+01,2.632980496219877731e-02
4.575999999999999801e+01,2.629213500094224054e-02
4.579999999999999716e+01,2.790209355590544255e-02
4.584000000000000341e+01,4.059912305561065582e-02
4.588000000000000256e+01,2.347897146145820624e-02
4.592000000000000171e+01,2.598633841245127224e-02
4.596000000000000085e+01,4.182826181613647637e-02
4.600000000000000000e+01,3.099948417796996245e-02
4.603999999999999915e+01,3.934872696073180715e-02
4.607999999999999829e+01,3.855766174260288198e-02
4.611999999999999744e+01,4.076271458427271205e-02
4.615999999999999659e+01,3.802276672918575989e-02
4.620000000000000284e+01,2.149770487673075339e-02
4.624000000000000199e+01,2.819613747313964164e-02
4.628000000000000114e+01,2.620375792037028459e-02
4.632000000000000028e+01,3.080347318330730472e-02
4.635999999999999943e+01,2.686220815294913800e-02
4.639999999999999858e+01,3.340868039441283882e-02
4.643999999999999773e+01,3.755730115883617465e-02
4.647999999999999687e+01,1.982985504094820356e-02
4.652000000000000313e+01,2.322824744735258601e-02
4.656000000000000227e+01,2.467828479655522628e-02
4.660000000000000142e+01,3.601672830122720076e-02
4.664000000000000057e+01,3.177206559572578332e-02
4.667999999999999972e+01,3.441915999738168891e-02
4.671999999999999886e+01,2.882493639719334658e-02
4.675999999999999801e+01,3.761409053650074941e-02
4.679999999999999716e+01,2.377801340094580149e-02
4.684000000000000341e+01,2.971928070109493628e-02
4.688000000000000256e+01,1.887878069461794081e-02
4.692000000000000171e+01,2.826512182774676765e-02
4.696000000000000085e+01,2.701282447050424446e-02
4.700000000000000000e+01,2.575999044348704914e-02
4.703999999999999915e+01,2.840226248687365007e-02
4.707999999999999829e+01,2.325271124387623053e-02
4.711999999999999744e+01,2.679290307145381494e-02
4.715999999999999659e+01,2.628708164475351133e-02
4.720000000000000284e+01,3.027569484824192345e-02
4.724000000000000199e+01,2.452466211697322540e-02
4.728000000000000114e+01,3.525465736851039061e-02
4.732000000000000028e+01,2.605640128453246343e-02
4.735999999999999943e+01,2.150241111850022951e-02
4.739999999999999858e+01,3.957257746746562638e-02
4.743999999999999773e+01,2.437940589189971363e-02
4.747999999999999687e+01,2.446860148674997668e-02
4.752000000000000313e+01,2.560608368707063126e-02
4.756000000000000227e+01,2.524470100064064512e-02
4.760000000000000142e+01,2.698043131961994079e-02
4.764000000000000057e+01,1.897651286321140954e-02
4.767999999999999972e+01,3.194859226925673978e-02
4.771999999999999886e+01,3.068604961150932231e-02
4.775999999999999801e+01,3.421760245508615600e-02
4.779999999999999716e+01,1.542358177024235298e-02
4.784000000000000341e+01,2.824365991625984659e-02
4.788000000000000256e+01,3.132408758251105374e-02
4.792000000000000171e+01,2.376586994087716634e-02
4.796000000000000085e+01,1.725593578001984041e-02
4.800000000000000000e+01,3.366981872123259861e-02
4.803999999999999915e+01,2.386248340540473439e-02
4.807999999999999829e+01,2.753952191093535229e-02
4.811999999999999744e+01,2.462338913651644992e-02
4.815999999999999659e+01,3.923710506358078776e-02
4.820000000000000284e+01,2.867842856541721885e-02
4.824000000000000199e+01,2.965630324023913952e-02
4.828000000000000114e+01,2.868581064314718390e-02
4.832000000000000028e+01,2.606661533809693718e-02
4.835999999999999943e+01,2.389637097715531858e-02
4.839999999999999858e+01,2.127608273220354257e-02
4.843999999999999773e+01,1.730675577512279240e-02
4.847999999999999687e+01,3.071744282301143783e-02
4.852000000000000313e+01,3.094232909391094952e-02
4.856000000000000227e+01,3.551180791284531263e-02
4.860000000000000142e+01,4.277772233164930937e-02
4.864000000000000057e+01,3.086453816090321128e-02
4.867999999999999972e+01,2.689192386222577155e-02
4.871999999999999886e+01,3.670334368791632051e-02
4.875999999999999801e+01,2.568750740776539268e-02
4.879999999999999716e+01,2.470989408362396153e-02
4.884000000000000341e+01,2.987486040718739799e-02
4.888000000000000256e+01,2.754765550954708583e-02
4.892000000000000171e+01,2.147408970687223265e-02
4.896000000000000085e+01,3.263070207640063336e-02
4.900000000000000000e+01,3.554598025248958959e-02
4.903999999999999915e+01,2.272830275061146418e-02
4.907999999999999829e+01,3.328393195312830816e-02
4.911999999999999744e+01,2.765710763752403725e-02
4.915999999999999659e+01,2.517621221693420661e-02
4.920000000000000284e+01,3.573018539190899595e-02
4.924000000000000199e+01,3.699399570100087714e-02
4.928000000000000114e+01,3.361244800443479591e-02
4.932000000000000028e+01,2.828252565031499563e-02
4.935999999999999943e+01,3.299082227532162265e-02
4.939999999999999858e+01,3.035677641031386473e-02
4.943999999999999773e+01,3.326597623602768616e-02
4.947999999999999687e+01,3.078065451572174066e-02
4.952000000000000313e+01,3.488740488607628559e-02
4.956000000000000227e+01,2.520901739776459233e-02
4.960000000000000142e+01,2.167320415995932850e-02
4.964000000000000057e+01,2.383046761656963317e-02
4.967999999999999972e+01,2.598717537117925525e-02
4.971999999999999886e+01,2.544634350755793292e-02
4.975999999999999801e+01,2.070964750154963979e-02
4.979999999999999716e+01,2.870815098214126934e-02
4.984000000000000341e+01,2.801581703194106973e-02
4.988000000000000256e+01,3.106873655965711536e-02
4.992000000000000171e+01,3.412109868099411081e-02
4.996000000000000085e+01,3.552474644778672724e-02
5.000000000000000000e+01,2.584023686338653147e-02
5.003999999999999915e+01,2.454578476493834288e-02
5.007999999999999829e+01,2.220194715579374908e-02
5.011999999999999744e+01,2.809833404046575486e-02
5.015999999999999659e+01,2.530388122184130256e-02
5.020000000000000284e+01,3.659311686526965646e-02
5.024000000000000199e+01,2.585642650044850388e-02
5.028000000000000114e+01,3.160074281370264110e-02
5.032000000000000028e+01,3.764416372796555027e-02
5.035999999999999943e+01,2.960277625428217943e-02
5.039999999999999858e+01,3.354742188620612325e-02
5.043999999999999773e+01,3.659251187487530532e-02
5.047999999999999687e+01,2.660161959147397046e-02
5.052000000000000313e+01,3.833586712209476749e-02
5.056000000000000227e+01,2.474787304375698424e-02
5.060000000000000142e+01,3.902814759569612352e-02
5.064000000000000057e+01,2.873534209059703734e-02
5.067999999999999972e+01,3.237638921478454973e-02
5.071999999999999886e+01,2.882491689888552408e-02
5.075999999999999801e+01,2.122740576303199303e-02
5.079999999999999716e+01,3.041056246045242134e-02
5.084000000000000341e+01,2.206276160895592753e-02
5.088000000000000256e+01,2.719931469440285687e-02
5.092000000000000171e+01,3.353396266396817954e-02
5.096000000000000085e+01,3.147743009699417033e-02
5.100000000000000000e+01,2.567452185370576803e-02
5.103999999999999915e+01,3.185764217101557522e-02
5.107999999999999829e+01,2.755192716346674051e-02
5.111999999999999744e+01,2.009916532345145876e-02
5.115999999999999659e+01,2.178561513566865462e-02
5.120000000000000284e+01,3.321060601209229607e-02
5.124000000000000199e+01,3.055078225118203206e-02
5.128000000000000114e+01,3.433318565814772599e-02
5.132000000000000028e+01,2.253244961956039905e-02
5.135999999999999943e+01,3.410500409377285880e-02
5.139999999999999858e+01,3.024425097831542550e-02
5.143999999999999773e+01,3.072806995835157887e-02
5.147999999999999687e+01,2.821467197336295987e-02
5.152000000000000313e+01,3.484048308403907279e-02
5.156000000000000227e+01,2.363566668464438594e-02
5.160000000000000142e+01,2.321821547689052745e-02
5.164000000000000057e+01,3.238946978464002369e-02
5.167999999999999972e+01,3.496752753082639498e-02
5.171999999999999886e+01,3.155171812742370990e-02
5.175999999999999801e+01,4.027176459549315635e-02
5.179999999999999716e+01,2.711570640086246459e-02
5.184000000000000341e+01,2.504667654151278289e-02
5.188000000000000256e+01,2.867070746904640602e-02
5.192000000000000171e+01,3.349282617912159588e-02
5.196000000000000085e+01,2.587828180282976398e-02
5.200000000000000000e+01,3.099892128966880850e-02
5.203999999999999915e+01,3.447083165068362542e-02
5.207999999999999829e+01,2.235959716894703880e-02
5.211999999999999744e+01,2.897684265852378330e-02
5.215999999999999659e+01,3.274669877801279078e-02
5.220000000000000284e+01,2.932402494708145207e-02
5.224000000000000199e+01,3.474089025066103703e-02
5.228000000000000114e+01,3.880868957205651365e-02
5.232000000000000028e+01,3.298697445867523198e-02
5.235999999999999943e+01,2.192054977074213776e-02
5.239999999999999858e+01,3.677455941812689255e-02
5.243999999999999773e+01,3.110095167388591056e-02
5.247999999999999687e+01,2.872308167143354171e-02
5.252000000000000313e+01,2.889178700666030289e-02
5.256000000000000227e+01,3.235622951554947835e-02
5.260000000000000142e+01,2.428299893711819563e-02
5.264000000000000057e+01,2.325131556445552555e-02
5.267999999999999972e+01,2.731335760137756224e-02
5.271999999999999886e+01,2.643035235519874612e-02
5.275999999999999801e+01,1.865447802973517477e-02
5.279999999999999716e+01,2.825858703042910189e-02
5.284000000000000341e+01,2.842267517555413167e-02
5.288000000000000256e+01,4.027311396635734758e-02
5.292000000000000171e+01,3.474241286097316805e-02
5.296000000000000085e+01,3.670275396088084480e-02
5.300000000000000000e+01,3.866251578155275453e-02
5.303999999999999915e+01,4.167052500699090778e-02
5.307999999999999829e+01,3.658700348856535473e-02
5.311999999999999744e+01,2.865608578253827157e-02
5.315999999999999659e+01,3.525833278992445557e-02
5.320000000000000284e+01,3.047273487305331846e-02
5.324000000000000199e+01,3.722365262128341651e-02
5.328000000000000114e+01,2.959007639694427594e-02
5.332000000000000028e+01,4.967491706258373579e-02
5.335999999999999943e+01,2.406028656958576067e-02
5.339999999999999858e+01,2.781222906254246854e-02
5.343999999999999773e+01,3.590872944783910642e-02
5.347999999999999687e+01,3.081939383232538271e-02
5.352000000000000313e+01,2.168399979650504489e-02
5.356000000000000227e+01,2.947908641761590176e-02
5.360000000000000142e+01,2.723481708992231756e-02
5.364000000000000057e+01,2.813644484217894468e-02
5.367999999999999972e+01,2.798866151806245900e-02
5.371999999999999886e+01,3.173593682581654640e-02
5.375999999999999801e+01,3.158698443289483654e-02
5.379999999999999716e+01,2.214783679089978724e-02
5.384000000000000341e+01,2.574352479315284228e-02
5.388000000000000256e+01,3.023762181083823261e-02
5.392000000000000171e+01,3.023616029555839871e-02
5.396000000000000085e+01,2.528964269122243799e-02
5.400000000000000000e+01,2.468767900234328933e-02
5.403999999999999915e+01,1.809183168821678483e-02
5.407999999999999829e+01,2.992478557829444594e-02
5.411999999999999744e+01,2.707357468245968901e-02
5.415999999999999659e+01,3.156356504601528362e-02
5.420000000000000284e+01,2.856134640797832608e-02
5.424000000000000199e+01,2.301138847659240858e-02
5.428000000000000114e+01,2.285480944028681419e-02
5.432000000000000028e+01,2.809160901499851634e-02
5.435999999999999943e+01,3.033117117214415362e-02
5.439999999999999858e+01,2.957349562766057108e-02
5.443999999999999773e+01,3.840450571426523574e-02
5.447999999999999687e+01,3.060352694626903430e-02
5.452000000000000313e+01,3.134240627316993433e-02
5.456000000000000227e+01,3.762449493071891998e-02
5.460000000000000142e+01,3.326789084184951506e-02
5.464000000000000057e+01,3.550332248356716930e-02
5.467999999999999972e+01,3.054620656295391895e-02
5.471999999999999886e+01,2.573833157240205255e-02
5.475999999999999801e+01,3.426495054066616697e-02
5.479999999999999716e+01,2.271343262961103213e-02
5.484000000000000341e+01,3.303685627777536854e-02
5.488000000000000256e+01,3.362057973513555426e-02
5.492000000000000171e+01,2.311611090154476814e-02
5.496000000000000085e+01,2.864311823862185358e-02
5.500000000000000000e+01,3.312070512524442623e-02
5.503999999999999915e+01,2.680976371674548969e-02
5.507999999999999829e+01,3.293431945050215304e-02
5.511999999999999744e+01,3.156665964921555323e-02
5.515999999999999659e+01,2.810075129315714806e-02
5.520000000000000284e+01,3.077737741877488095e-02
5.524000000000000199e+01,3.405273805366184486e-02
5.528000000000000114e+01,2.219442839277940838e-02
5.532000000000000028e+01,3.191139203434091576e-02
5.535999999999999943e+01,3.473546813251788407e-02
5.539999999999999858e+01,2.647134853098707594e-02
5.543999999999999773e+01,3.004339381910708581e-02
5.547999999999999687e+01,2.657271828764399060e-02
5.552000000000000313e+01,3.134222890148254115e-02
5.556000000000000227e+01,3.536197993600220107e-02
5.560000000000000142e+01,2.349889628220132309e-02
5.564000000000000057e+01,2.826661366603320374e-02
5.567999999999999972e+01,3.228457061835695446e-02
5.571999999999999886e+01,2.476483232644041688e-02
5.575999999999999801e+01,3.462505634001388638e-02
5.579999999999999716e+01,2.305864455660766241e-02
5.584000000000000341e+01,3.156917814273259987e-02
5.588000000000000256e+01,2.269855081200256725e-02
5.592000000000000171e+01,3.450419797871466521e-02
5.596000000000000085e+01,3.612064001289171100e-02
5.600000000000000000e+01,2.200407694212681495e-02
5.603999999999999915e+01,3.470691690099574761e-02
5.607999999999999829e+01,2.598311907444355792e-02
5.611999999999999744e+01,2.310218434809819046e-02
5.615999999999999659e+01,2.891092849407315285e-02
5.620000000000000284e+01,2.602879004322759121e-02
5.624000000000000199e+01,3.018817323247393117e-02
5.628000000000000114e+01,2.266002477658772551e-02
5.632000000000000028e+01,2.756736465700181798e-02
5.635999999999999943e+01,3.921656047730014832e-02
5.639999999999999858e+01,3.333475926391425009e-02
5.643999999999999773e+01,3.824028887053723680e-02
5.647999999999999687e+01,2.666364784341499275e-02
5.652000000000000313e+01,2.947031524439845326e-02
5.656000000000000227e+01,2.688241082019809935e-02
5.660000000000000142e+01,2.504306367113184190e-02
5.664000000000000057e+01,2.185461957700644831e-02
5.667999999999999972e+01,3.289965035072522220e-02
5.671999999999999886e+01,2.446586030613441196e-02
5.675999999999999801e+01,2.622006911301080420e-02
5.679999999999999716e+01,3.037099043880804247e-02
5.684000000000000341e+01,3.571996460738877111e-02
5.688000000000000256e+01,3.267771619809526490e-02
5.692000000000000171e+01,2.723754188723608374e-02
5.696000000000000085e+01,2.254592229494327069e-02
5.700000000000000000e+01,3.043961863388785008e-02
5.703999999999999915e+01,2.364912945031561950e-02
5.707999999999999829e+01,3.543725259022625917e-02
5.711999999999999744e+01,3.014387085534526653e-02
5.715999999999999659e+01,3.983312269959808638e-02
5.720000000000000284e+01,2.974388546876581205e-02
5.724000000000000199e+01,3.164063276875531822e-02
5.728000000000000114e+01,3.113945161061151129e-02
5.732000000000000028e+01,2.674201747017836139e-02
5.735999999999999943e+01,2.653928095989455116e-02
5.739999999999999858e+01,3.008174452366921270e-02
5.743999999999999773e+01,2.628180850075160363e-02
5.747999999999999687e+01,3.356886076022152360e-02
5.752000000000000313e+01,2.781988075252001674e-02
5.756000000000000227e+01,2.941207785884759202e-02
5.760000000000000142e+01,2.351204181822135614e-02
5.764000000000000057e+01,2.495318232349806598e-02
5.767999999999999972e+01,2.849136425028949912e-02
5.771999999999999886e+01,2.918211732222588187e-02
5.775999999999999801e+01,3.706421366386672411e-02
5.779999999999999716e+01,3.595575119814548720e-02
5.784000000000000341e+01,2.630622691302688526e-02
5.788000000000000256e+01,3.523530927012970271e-02
5.792000000000000171e+01,2.168891380684496301e-02
5.796000000000000085e+01,2.776995138572045663e-02
5.800000000000000000e+01,3.429987144950387423e-02
5.803999999999999915e+01,4.142850613814139799e-02
5.807999999999999829e+01,2.668099156617622855e-02
5.811999999999999744e+01,2.781509829988673341e-02
5.815999999999999659e+01,2.625160547805771918e-02
5.820000000000000284e+01,1.479855646418011192e-02
5.824000000000000199e+01,2.611941940821640301e-02
5.828000000000000114e+01,2.440424468788279094e-02
5.832000000000000028e+01,3.047973895640780986e-02
5.835999999999999943e+01,3.086098376889205921e-02
5.839999999999999858e+01,2.434931944919817293e-02
5.843999999999999773e+01,2.682698265824800046e-02
5.847999999999999687e+01,2.660704403925371817e-02
5.852000000000000313e+01,3.148078935663536221e-02
5.856000000000000227e+01,3.620408348600472059e-02
5.860000000000000142e+01,2.189804071812799860e-02
5.864000000000000057e+01,3.231372857965517792e-02
5.867999999999999972e+01,3.298968926438616139e-02
5.871999999999999886e+01,3.786033792112200591e-02
5.875999999999999801e+01,3.404008580100053444e-02
5.879999999999999716e+01,2.797172685235823839e-02
5.884000000000000341e+01,3.403917349602400555e-02
5.888000000000000256e+01,3.291404275073621377e-02
5.892000000000000171e+01,3.133879341284982051e-02
5.896000000000000085e+01,2.481845247802303561e-02
5.900000000000000000e+01,3.088341327127997957e-02
5.903999999999999915e+01,3.245277917149821251e-02
5.907999999999999829e+01,2.428241505428952937e-02
5.911999999999999744e+01,2.974617878104037286e-02
5.915999999999999659e+01,2.352239041011729148e-02
5.920000000000000284e+01,2.688725386677668847e-02
5.924000000000000199e+01,2.290970495390554432e-02
5.928000000000000114e+01,2.237767791610972487e-02
5.932000000000000028e+01,3.622893942200448858e-02
5.935999999999999943e+01,2.670571833718526564e-02
5.939999999999999858e+01,2.422399645147520902e-02
5.943999999999999773e+01,2.713561681670897258e-02
5.947999999999999687e+01,2.585130401222885885e-02
5.952000000000000313e+01,3.295698137075230710e-02
5.956000000000000227e+01,3.242057923922200130e-02
5.960000000000000142e+01,3.083472398998373526e-02
5.964000000000000057e+01,2.070779413850983020e-02
5.967999999999999972e+01,2.181766936996369990e-02
5.971999999999999886e+01,2.847071728792919740e-02
5.975999999999999801e+01,2.912984095962782224e-02
5.979999999999999716e+01,2.873951009330308684e-02
5.984000000000000341e+01,2.175592471654811191e-02
5.988000000000000256e+01,2.406132149028485101e-02
5.992000000000000171e+01,3.176005710620849465e-02
5.996000000000000085e+01,2.492441888702024919e-02
