2.003999999999999915e+01,0.000000000000000000e+00
2.007999999999999829e+01,4.538034449656119448e-03
2.012000000000000099e+01,1.859195032246848322e-03
2.016000000000000014e+01,6.491915855912679285e-03
2.019999999999999929e+01,7.660141758257032335e-03
2.023999999999999844e+01,3.535792870266466804e-03
2.028000000000000114e+01,1.470883495043056807e-02
2.032000000000000028e+01,3.366857380009357324e-03
2.035999999999999943e+01,5.686621589833775782e-03
2.039999999999999858e+01,4.445681614750664375e-03
2.044000000000000128e+01,7.918510336337903840e-03
2.048000000000000043e+01,1.110193987825303097e-02
2.051999999999999957e+01,3.027485501899534852e-03
2.055999999999999872e+01,5.824549575381051877e-03
2.060000000000000142e+01,8.236002995798295465e-03
2.064000000000000057e+01,7.279188436927244189e-03
2.067999999999999972e+01,6.898913315806540214e-03
2.071999999999999886e+01,1.171348856618098684e-02
2.076000000000000156e+01,4.308038646695595657e-03
2.080000000000000071e+01,1.143027575429582735e-02
2.083999999999999986e+01,1.181673282359176069e-02
2.087999999999999901e+01,1.210623133844651936e-02
2.092000000000000171e+01,7.584247786820305648e-03
2.096000000000000085e+01,8.257121236106775702e-03
2.100000000000000000e+01,4.022300040617137612e-03
2.103999999999999915e+01,1.065901055379753389e-02
2.107999999999999829e+01,8.347007531771082067e-03
2.112000000000000099e+01,6.611556101427083949e-03
2.116000000000000014e+01,1.161040380612430624e-02
2.119999999999999929e+01,6.024889892608559401e-03
2.123999999999999844e+01,1.082983927177306842e-02
2.128000000000000114e+01,9.668739071372325564e-03
2.132000000000000028e+01,8.410692470462555193e-03
2.135999999999999943e+01,1.042321815747716297e-02
2.139999999999999858e+01,1.031828910367021609e-02
2.144000000000000128e+01,6.652684592431568067e-03
2.148000000000000043e+01,1.270404648658450368e-02
2.151999999999999957e+01,1.480987598070805829e-02
2.155999999999999872e+01,9.795086172376355968e-03
2.160000000000000142e+01,9.686526679101433931e-03
2.164000000000000057e+01,1.458041339388698072e-02
2.167999999999999972e+01,1.370069115433825667e-02
2.171999999999999886e+01,1.291646313951139852e-02
2.176000000000000156e+01,1.328609312341891106e-02
2.180000000000000071e+01,1.067234632262619581e-02
2.183999999999999986e+01,1.402319913541731633e-02
2.187999999999999901e+01,1.362095906850705439e-02
2.192000000000000171e+01,1.187099692932019716e-02
2.196000000000000085e+01,1.194840183008836175e-02
2.200000000000000000e+01,9.234865046872660355e-03
2.203999999999999915e+01,1.162000030884750325e-02
2.207999999999999829e+01,7.365604572609423840e-03
2.212000000000000099e+01,8.594742243771272966e-03
2.216000000000000014e+01,1.001560108168791582e-02
2.219999999999999929e+01,1.182061176746403326e-02
2.223999999999999844e+01,1.266276837259034359e-02
2.228000000000000114e+01,1.302314594247413679e-02
2.232000000000000028e+01,1.155473854860610862e-02
2.235999999999999943e+01,9.315909964998805512e-03
2.239999999999999858e+01,9.096890151480378425e-03
2.244000000000000128e+01,1.282197597497123677e-02
2.248000000000000043e+01,9.522682696874828004e-03
2.251999999999999957e+01,1.238043739191361896e-02
2.255999999999999872e+01,1.110025883819713323e-02
2.260000000000000142e+01,1.164746500288241574e-02
2.264000000000000057e+01,7.768095764315666348e-03
2.267999999999999972e+01,1.408680001873240627e-02
2.271999999999999886e+01,1.049468815795323064e-02
2.276000000000000156e+01,1.190505344251627240e-02
2.280000000000000071e+01,1.013963998875027500e-02
2.283999999999999986e+01,1.318427631393059851e-02
2.287999999999999901e+01,1.007047767946064876e-02
2.292000000000000171e+01,8.976502178817617750e-03
2.296000000000000085e+01,1.057585443361040885e-02
2.300000000000000000e+01,1.236695105811931421e-02
2.303999999999999915e+01,1.675516285976907244e-02
2.307999999999999829e+01,1.623573747159448924e-02
2.312000000000000099e+01,1.186703866760815441e-02
2.316000000000000014e+01,1.250082805799320428e-02
2.319999999999999929e+01,1.515444831652553413e-02
2.323999999999999844e+01,1.039885131422253230e-02
2.328000000000000114e+01,1.574512959034596662e-02
2.332000000000000028e+01,1.387462239164162676e-02
2.335999999999999943e+01,1.152236599007353327e-02
2.339999999999999858e+01,8.111072761939367923e-03
2.344000000000000128e+01,1.412815571513722189e-02
2.348000000000000043e+01,1.235116888451376523e-02
2.351999999999999957e+01,9.322718965831233370e-03
2.355999999999999872e+01,1.023840562143967133e-02
2.360000000000000142e+01,1.163449758461063653e-02
2.364000000000000057e+01,1.543529172226445687e-02
2.367999999999999972e+01,1.384739130313334884e-02
2.371999999999999886e+01,1.283611429437439728e-02
2.376000000000000156e+01,9.033944217359897791e-03
2.380000000000000071e+01,1.196614619897919465e-02
2.383999999999999986e+01,1.566740448188116280e-02
2.387999999999999901e+01,8.784375175065625707e-03
2.392000000000000171e+01,1.065623179171099055e-02
2.396000000000000085e+01,1.281607408384339251e-02
2.400000000000000000e+01,1.170395599663340627e-02
2.403999999999999915e+01,1.097604058281713077e-02
2.407999999999999829e+01,5.629159966052108867e-03
2.412000000000000099e+01,9.903103890170425125e-03
2.416000000000000014e+01,8.018648211531875097e-03
2.419999999999999929e+01,8.538910176017010245e-03
2.423999999999999844e+01,6.845581059686928899e-03
2.428000000000000114e+01,1.496551048005355031e-02
2.432000000000000028e+01,1.365574192184531264e-02
2.435999999999999943e+01,1.138317784284192946e-02
2.439999999999999858e+01,1.103426299097246162e-02
2.444000000000000128e+01,1.010741398051717005e-02
2.448000000000000043e+01,1.331715653332169597e-02
2.451999999999999957e+01,8.251784089276464548e-03
2.455999999999999872e+01,1.011323427322219880e-02
2.460000000000000142e+01,1.399455399691731071e-02
2.464000000000000057e+01,7.868895852655710677e-03
2.467999999999999972e+01,5.591190431865884422e-03
2.471999999999999886e+01,5.525787441735956727e-03
2.476000000000000156e+01,9.404554172984570110e-03
2.480000000000000071e+01,1.049245656345353106e-02
2.483999999999999986e+01,1.004028796335710953e-02
2.487999999999999901e+01,9.202626934808692469e-03
2.492000000000000171e+01,8.171904158912973726e-03
2.496000000000000085e+01,1.070049747650685806e-02
2.500000000000000000e+01,6.685855241901661125e-03
2.503999999999999915e+01,9.501834106021601889e-03
2.507999999999999829e+01,7.987519754068351380e-03
2.512000000000000099e+01,7.242297060291088932e-03
2.516000000000000014e+01,8.901818527307587062e-03
2.519999999999999929e+01,9.694782464591034793e-03
2.523999999999999844e+01,9.428760400842676331e-03
2.528000000000000114e+01,9.354545686276718314e-03
2.532000000000000028e+01,1.216615349262055272e-02
2.535999999999999943e+01,1.064747581721161261e-02
2.539999999999999858e+01,1.028275668670259810e-02
2.544000000000000128e+01,9.628775384483312383e-03
2.548000000000000043e+01,7.338525982044452958e-03
2.551999999999999957e+01,9.184896870341295247e-03
2.555999999999999872e+01,1.237766029935149018e-02
2.560000000000000142e+01,9.027204749706337419e-03
2.564000000000000057e+01,1.048687632221176162e-02
2.567999999999999972e+01,1.021407053091134484e-02
2.571999999999999886e+01,1.186495042854114439e-02
2.576000000000000156e+01,9.762844622052607030e-03
2.580000000000000071e+01,7.179057011778308336e-03
2.583999999999999986e+01,3.728729550217703935e-03
2.587999999999999901e+01,1.201600058348800161e-02
2.592000000000000171e+01,1.096983262240101495e-02
2.596000000000000085e+01,9.153342912837340514e-03
2.600000000000000000e+01,9.260546626524297428e-03
2.603999999999999915e+01,1.042551177545698697e-02
2.607999999999999829e+01,8.222359211898183293e-03
2.612000000000000099e+01,8.712621691105745803e-03
2.616000000000000014e+01,1.199251510608348448e-02
2.619999999999999929e+01,9.210280056454038869e-03
2.623999999999999844e+01,1.114197391441807371e-02
2.628000000000000114e+01,9.320696432001698145e-03
2.632000000000000028e+01,7.787469814344466848e-03
2.635999999999999943e+01,1.116060499519122909e-02
2.639999999999999858e+01,8.086758083541879458e-03
2.644000000000000128e+01,6.263113232369168018e-03
2.648000000000000043e+01,1.059662573972056099e-02
2.651999999999999957e+01,7.424796800174986167e-03
2.655999999999999872e+01,8.582046455042732086e-03
2.660000000000000142e+01,8.776562463678725529e-03
2.664000000000000057e+01,1.099100436211294593e-02
2.667999999999999972e+01,7.913049359581951145e-03
2.671999999999999886e+01,8.490673854369839429e-03
2.676000000000000156e+01,1.012607967265599304e-02
2.680000000000000071e+01,6.950165845190051095e-03
2.683999999999999986e+01,6.275257372541262826e-03
2.687999999999999901e+01,1.751179344955010797e-03
2.692000000000000171e+01,8.195010234868507423e-03
2.696000000000000085e+01,6.171363950808448490e-03
2.700000000000000000e+01,5.013076043462421152e-03
2.703999999999999915e+01,5.682295498742002092e-03
2.707999999999999829e+01,6.735801600037070840e-03
2.712000000000000099e+01,9.809246849965355675e-03
2.716000000000000014e+01,8.071382398267854669e-03
2.719999999999999929e+01,8.930748033614623743e-03
2.723999999999999844e+01,1.065547867509290467e-02
2.728000000000000114e+01,8.531050810662878930e-03
2.732000000000000028e+01,8.715211983683263802e-03
2.735999999999999943e+01,7.840445715526460704e-03
2.739999999999999858e+01,4.463531289582303198e-03
2.744000000000000128e+01,4.357357096806047624e-03
2.748000000000000043e+01,4.539265810973588423e-03
2.751999999999999957e+01,7.414628239509634712e-03
2.755999999999999872e+01,6.633269472659526766e-03
2.760000000000000142e+01,4.408130741646228493e-03
2.764000000000000057e+01,7.474248318433765643e-03
2.767999999999999972e+01,3.997204371517711421e-03
2.771999999999999886e+01,5.907633730309216555e-03
2.776000000000000156e+01,3.487843901523020752e-03
2.780000000000000071e+01,1.059276547658770731e-02
2.783999999999999986e+01,9.807522914148287391e-03
2.787999999999999901e+01,7.963367274269585183e-03
2.792000000000000171e+01,6.888380635771157445e-03
2.796000000000000085e+01,4.946912705841031814e-03
2.800000000000000000e+01,9.355073696947597064e-03
2.803999999999999915e+01,7.316297896577697753e-03
2.807999999999999829e+01,4.026184967081397961e-03
2.812000000000000099e+01,9.010000035347997746e-03
2.816000000000000014e+01,8.605244295956489958e-03
2.819999999999999929e+01,8.969665292265640438e-03
2.823999999999999844e+01,8.948686671967902295e-03
2.828000000000000114e+01,8.542309539966192952e-03
2.832000000000000028e+01,6.018668815347738565e-03
2.835999999999999943e+01,5.515001491352957731e-03
2.839999999999999858e+01,6.357805156178668315e-03
2.844000000000000128e+01,7.103859093214695206e-03
2.848000000000000043e+01,7.464520043061333675e-03
2.851999999999999957e+01,6.188996865310176371e-03
2.855999999999999872e+01,7.029667400798172289e-03
2.860000000000000142e+01,9.216814449621224190e-03
2.864000000000000057e+01,6.304048313923817093e-03
2.867999999999999972e+01,5.892338358577788558e-03
2.871999999999999886e+01,6.153604714569504280e-03
2.876000000000000156e+01,6.606774546297483099e-03
2.880000000000000071e+01,3.884331375134129037e-03
2.883999999999999986e+01,7.607755116069613889e-03
2.887999999999999901e+01,4.980480056590775272e-03
2.892000000000000171e+01,7.452067085604409565e-03
2.896000000000000085e+01,7.325334259943605889e-03
2.900000000000000000e+01,7.679155903739194600e-03
2.903999999999999915e+01,5.146015538363567579e-03
2.907999999999999829e+01,4.825298038065903294e-03
2.912000000000000099e+01,8.833729845968283506e-03
2.916000000000000014e+01,6.876329740180277782e-03
2.919999999999999929e+01,6.169207933170252345e-03
2.923999999999999844e+01,5.269143708328032083e-03
2.928000000000000114e+01,6.773937449280093871e-03
2.932000000000000028e+01,5.872850855885729249e-03
2.935999999999999943e+01,3.720462490258336433e-03
2.939999999999999858e+01,7.532882564866239146e-03
2.944000000000000128e+01,5.379478460104180487e-03
2.948000000000000043e+01,2.455849838322222804e-03
2.951999999999999957e+01,6.170536488190414212e-03
2.955999999999999872e+01,6.613416340221857197e-03
2.960000000000000142e+01,5.805001049437760914e-03
2.964000000000000057e+01,8.748460701986419952e-03
2.967999999999999972e+01,4.860169711674775656e-03
2.971999999999999886e+01,7.995058669931377066e-03
2.976000000000000156e+01,1.007108648118588620e-02
2.980000000000000071e+01,9.452602852626352387e-03
2.983999999999999986e+01,7.005541982063553420e-03
2.987999999999999901e+01,4.557985948317017436e-03
2.992000000000000171e+01,4.322875982609667572e-03
2.996000000000000085e+01,8.032079375660181042e-03
3.000000000000000000e+01,7.603555031898155681e-03
3.003999999999999915e+01,5.057814606344853553e-03
3.007999999999999829e+01,4.628309880341567595e-03
3.012000000000000099e+01,1.054849263522959942e-02
3.016000000000000014e+01,9.733152794193221727e-03
3.019999999999999929e+01,4.587661164657166196e-03
3.023999999999999844e+01,1.012152579526043490e-02
3.028000000000000114e+01,8.342582416042843702e-03
3.032000000000000028e+01,6.370726451371802948e-03
3.035999999999999943e+01,7.284832225378217591e-03
3.039999999999999858e+01,1.021896775005710391e-02
3.044000000000000128e+01,9.785105996662541231e-03
3.048000000000000043e+01,1.002426917033409463e-02
3.051999999999999957e+01,9.012162613957215573e-03
3.055999999999999872e+01,9.923875439763639103e-03
3.060000000000000142e+01,5.831944009393455995e-03
3.064000000000000057e+01,5.203270780626337300e-03
3.067999999999999972e+01,6.690849824953022142e-03
3.071999999999999886e+01,8.466601273359833715e-03
3.076000000000000156e+01,6.970579071017405683e-03
3.080000000000000071e+01,5.377872330157455749e-03
3.083999999999999986e+01,6.286281434406447780e-03
3.087999999999999901e+01,8.541230031456846158e-03
3.092000000000000171e+01,4.926610118646116039e-03
3.096000000000000085e+01,6.507123432477519148e-03
3.100000000000000000e+01,7.028809851297277908e-03
3.103999999999999915e+01,8.512181030126591066e-03
3.107999999999999829e+01,7.397290914136137388e-03
3.112000000000000099e+01,7.917591284667197665e-03
3.116000000000000014e+01,9.592009306118334105e-03
3.119999999999999929e+01,7.994665830752339941e-03
3.123999999999999844e+01,4.857428149287806515e-03
3.128000000000000114e+01,9.801776176714960265e-03
3.132000000000000028e+01,7.240915345595318534e-03
3.135999999999999943e+01,1.218435370456791463e-02
3.139999999999999858e+01,9.622585414799596920e-03
3.144000000000000128e+01,7.445224205464780892e-03
3.148000000000000043e+01,5.844700757668165603e-03
3.151999999999999957e+01,8.573392912246692241e-03
3.155999999999999872e+01,8.030333514134310388e-03
3.160000000000000142e+01,1.114298841149681356e-02
3.164000000000000057e+01,9.925531296864660916e-03
3.167999999999999972e+01,5.051466791846896329e-03
3.171999999999999886e+01,3.640690320811003876e-03
3.176000000000000156e+01,7.617498750677353068e-03
3.180000000000000071e+01,6.879340435757246540e-03
3.183999999999999986e+01,6.525600250299821124e-03
3.187999999999999901e+01,1.059730039944468613e-02
3.192000000000000171e+01,8.607030085099623418e-03
3.196000000000000085e+01,6.904966426825122350e-03
3.200000000000000000e+01,7.511621079642469279e-03
3.203999999999999915e+01,5.712470531511784112e-03
3.207999999999999829e+01,7.857691901993611727e-03
3.211999999999999744e+01,1.019490956005682236e-02
3.215999999999999659e+01,7.720955629358947601e-03
3.220000000000000284e+01,4.476852315039569000e-03
3.224000000000000199e+01,6.043058431852207230e-03
3.228000000000000114e+01,4.048888519923871804e-03
3.232000000000000028e+01,8.404466858547357533e-03
3.235999999999999943e+01,7.467805192419990634e-03
3.239999999999999858e+01,7.204221488698795209e-03
3.243999999999999773e+01,1.001908655480851507e-02
3.247999999999999687e+01,9.177366328590952360e-03
3.252000000000000313e+01,7.854149922277854287e-03
3.256000000000000227e+01,1.076396305771487767e-02
3.260000000000000142e+01,5.398884386691516109e-03
3.264000000000000057e+01,5.421414924434589042e-03
3.267999999999999972e+01,4.770024125492040683e-03
3.271999999999999886e+01,3.540927882867680142e-03
3.275999999999999801e+01,6.544866706508003888e-03
3.279999999999999716e+01,9.548391024877591129e-03
3.284000000000000341e+01,1.014613224035752076e-02
3.288000000000000256e+01,8.626735822153312402e-03
3.292000000000000171e+01,7.010713425286240266e-03
3.296000000000000085e+01,1.155202738121592285e-02
3.300000000000000000e+01,8.395749308319641613e-03
3.303999999999999915e+01,8.029292214495399246e-03
3.307999999999999829e+01,8.624576230729553636e-03
3.311999999999999744e+01,6.717870090293611048e-03
3.315999999999999659e+01,6.446410786427982272e-03
3.320000000000000284e+01,8.291273364539998927e-03
3.324000000000000199e+01,6.287142067278445740e-03
3.328000000000000114e+01,8.323630623817789356e-03
3.332000000000000028e+01,8.339208488705986133e-03
3.335999999999999943e+01,8.450602105065138647e-03
3.339999999999999858e+01,9.908604823109519455e-03
3.343999999999999773e+01,1.059649240952285215e-02
3.347999999999999687e+01,8.782399783392345546e-03
3.352000000000000313e+01,4.851187202024404878e-03
3.356000000000000227e+01,4.287098692071686888e-03
3.360000000000000142e+01,9.110645908555413744e-03
3.364000000000000057e+01,9.604136358190410588e-03
3.367999999999999972e+01,9.423733093712733863e-03
3.371999999999999886e+01,1.020508861774012226e-02
3.375999999999999801e+01,8.580686451644978924e-03
3.379999999999999716e+01,8.783978376768598537e-03
3.384000000000000341e+01,9.467958464601675117e-03
3.388000000000000256e+01,8.034828541323604800e-03
3.392000000000000171e+01,9.006684752578274916e-03
3.396000000000000085e+01,4.782559943299692293e-03
3.400000000000000000e+01,9.121169916815533366e-03
3.403999999999999915e+01,4.222779979367317568e-03
3.407999999999999829e+01,1.317894038006737524e-02
3.411999999999999744e+01,5.008490455337624367e-03
3.415999999999999659e+01,6.747786766426206763e-03
3.420000000000000284e+01,8.005633303341797707e-03
3.424000000000000199e+01,6.376661468465492574e-03
3.428000000000000114e+01,5.709463890735116433e-03
3.432000000000000028e+01,8.698055741878008354e-03
3.435999999999999943e+01,1.110898745035871459e-02
3.439999999999999858e+01,8.227735504137391465e-03
3.443999999999999773e+01,7.847698844287619158e-03
3.447999999999999687e+01,7.852153237493145546e-03
3.452000000000000313e+01,5.162226569428925681e-03
3.456000000000000227e+01,7.667532569269469578e-03
3.460000000000000142e+01,6.612526624738265107e-03
3.464000000000000057e+01,8.636030219698465418e-03
3.467999999999999972e+01,6.233290987184892697e-03
3.471999999999999886e+01,7.678781808775524825e-03
3.475999999999999801e+01,9.508771417741859397e-03
3.479999999999999716e+01,8.067098971153671347e-03
3.484000000000000341e+01,9.319082436167970898e-03
3.488000000000000256e+01,6.818332114929201437e-03
3.492000000000000171e+01,4.605870212576944518e-03
3.496000000000000085e+01,8.839444272469965114e-03
3.500000000000000000e+01,1.114836883473524325e-02
3.503999999999999915e+01,6.914335175433849491e-03
3.507999999999999829e+01,9.992273885994320745e-03
3.511999999999999744e+01,7.296974889600908905e-03
3.515999999999999659e+01,9.604495558454280435e-03
3.520000000000000284e+01,9.121439161286663128e-03
3.524000000000000199e+01,9.407753962733250361e-03
3.528000000000000114e+01,1.027101149149522129e-02
3.532000000000000028e+01,1.123013891197112771e-02
3.535999999999999943e+01,1.064948593134907098e-02
3.539999999999999858e+01,7.182046621119737330e-03
3.543999999999999773e+01,1.102658962487854805e-02
3.547999999999999687e+01,9.771408382515837238e-03
3.552000000000000313e+01,1.159476098750871279e-02
3.556000000000000227e+01,1.130104998731297321e-02
3.560000000000000142e+01,8.697846910629788986e-03
3.564000000000000057e+01,1.013532887701965035e-02
3.567999999999999972e+01,6.280662545600844242e-03
3.571999999999999886e+01,7.717475712372290179e-03
3.575999999999999801e+01,8.095593467579306757e-03
3.579999999999999716e+01,1.049389013535272260e-02
3.584000000000000341e+01,1.029405699175358832e-02
3.588000000000000256e+01,8.073383870290029227e-03
3.592000000000000171e+01,1.114419577153132057e-02
3.596000000000000085e+01,9.211511473586973808e-03
3.600000000000000000e+01,1.160816652714458108e-02
3.603999999999999915e+01,1.275370432725641580e-02
3.607999999999999829e+01,9.761682335799246740e-03
3.611999999999999744e+01,1.148386216295626400e-02
3.615999999999999659e+01,1.310950550858674957e-02
3.620000000000000284e+01,9.827874072550004531e-03
3.624000000000000199e+01,9.143722431616992108e-03
3.628000000000000114e+01,5.861453133243500410e-03
3.632000000000000028e+01,9.410116516218012400e-03
3.635999999999999943e+01,9.109872206246521359e-03
3.639999999999999858e+01,8.616883256065147045e-03
3.643999999999999773e+01,1.168352750651083759e-02
3.647999999999999687e+01,1.167098568352628422e-02
3.652000000000000313e+01,1.262027999225106244e-02
3.656000000000000227e+01,1.058660522545230853e-02
3.660000000000000142e+01,1.105420540978268099e-02
3.664000000000000057e+01,1.267607461673289811e-02
3.667999999999999972e+01,1.160362242717094539e-02
3.671999999999999886e+01,1.332109286774949171e-02
3.675999999999999801e+01,1.205559975731911385e-02
3.679999999999999716e+01,8.673077293690545364e-03
3.684000000000000341e+01,9.716132172626078950e-03
3.688000000000000256e+01,1.326046973701117473e-02
3.692000000000000171e+01,1.112783410317454841e-02
3.696000000000000085e+01,1.303591997420728774e-02
3.700000000000000000e+01,1.080647146643812749e-02
3.703999999999999915e+01,1.117452485183105700e-02
3.707999999999999829e+01,1.288928898997765762e-02
3.711999999999999744e+01,7.676293209105795878e-03
3.715999999999999659e+01,1.275798568417461053e-02
3.720000000000000284e+01,7.833047230802877778e-03
3.724000000000000199e+01,1.050878517635321120e-02
3.728000000000000114e+01,8.758352113119441396e-03
3.732000000000000028e+01,1.114486528698215712e-02
3.735999999999999943e+01,9.971142754774470901e-03
3.739999999999999858e+01,7.931199688223727895e-03
3.743999999999999773e+01,1.118278363068869047e-02
3.747999999999999687e+01,1.058549081748938990e-02
3.752000000000000313e+01,1.018034345376538259e-02
3.756000000000000227e+01,9.005194763410856451e-03
3.760000000000000142e+01,7.925978944236597087e-03
3.764000000000000057e+01,9.059422439364719221e-03
3.767999999999999972e+01,7.594786948654496175e-03
3.771999999999999886e+01,8.631457346355111623e-03
3.775999999999999801e+01,8.320843213334563199e-03
3.779999999999999716e+01,9.934248449925443814e-03
3.784000000000000341e+01,8.757149544087919346e-03
3.788000000000000256e+01,7.675991243751072342e-03
3.792000000000000171e+01,9.096144356339649212e-03
3.796000000000000085e+01,9.361448038923402340e-03
3.800000000000000000e+01,7.894614667800017860e-03
3.803999999999999915e+01,7.966948143302080010e-03
3.807999999999999829e+01,9.867093934635117955e-03
3.811999999999999744e+01,9.169172894061921458e-03
3.815999999999999659e+01,6.546689643191508368e-03
3.820000000000000284e+01,7.964962149180895845e-03
3.824000000000000199e+01,1.101862181441120095e-02
3.828000000000000114e+01,7.529412755211156716e-03
3.832000000000000028e+01,8.754466284285774419e-03
3.835999999999999943e+01,8.824681432384755622e-03
3.839999999999999858e+01,7.162770575805778653e-03
3.843999999999999773e+01,8.290829860192758596e-03
3.847999999999999687e+01,8.745128018817221668e-03
3.852000000000000313e+01,7.852162639875967520e-03
3.856000000000000227e+01,7.536230590289359592e-03
3.860000000000000142e+01,6.931399882052474877e-03
3.864000000000000057e+01,5.364168103362102619e-03
3.867999999999999972e+01,6.683127883156098244e-03
3.871999999999999886e+01,8.963984564319901066e-03
3.875999999999999801e+01,8.839221668225882150e-03
3.879999999999999716e+01,7.944491697491829624e-03
3.884000000000000341e+01,7.530588002331975277e-03
3.888000000000000256e+01,4.614853256522182326e-03
3.892000000000000171e+01,6.413397672530827404e-03
3.896000000000000085e+01,7.634409009712848568e-03
3.900000000000000000e+01,8.662747525374636312e-03
3.903999999999999915e+01,6.419541105191162167e-03
3.907999999999999829e+01,8.120899961630841796e-03
3.911999999999999744e+01,8.090152701645064726e-03
3.915999999999999659e+01,9.213744073162950798e-03
3.920000000000000284e+01,1.024088293577606230e-02
3.924000000000000199e+01,6.457045777444570325e-03
3.928000000000000114e+01,8.445860394167371832e-03
3.932000000000000028e+01,7.163137809365365503e-03
3.935999999999999943e+01,4.340745313757167836e-03
3.939999999999999858e+01,8.830444517525987136e-03
3.943999999999999773e+01,8.316743648663032715e-03
3.947999999999999687e+01,6.744450124207012655e-03
3.952000000000000313e+01,5.749216446775665644e-03
3.956000000000000227e+01,9.179635245306835833e-03
3.960000000000000142e+01,8.665021059927514521e-03
3.964000000000000057e+01,7.765322155272888147e-03
3.967999999999999972e+01,8.597264974465093981e-03
3.971999999999999886e+01,7.793333038876492681e-03
3.975999999999999801e+01,6.796749274923114155e-03
3.979999999999999716e+01,5.703729575608726746e-03
3.984000000000000341e+01,7.015859536458938193e-03
3.988000000000000256e+01,7.365622678846142982e-03
3.992000000000000171e+01,8.388671505388073726e-03
3.996000000000000085e+01,6.717489537457118839e-03
4.000000000000000000e+01,7.932535589806803331e-03
4.003999999999999915e+01,8.570078395708625660e-03
4.007999999999999829e+01,6.994467662350674179e-03
4.011999999999999744e+01,7.535369959175136113e-03
4.015999999999999659e+01,9.230638510076209780e-03
4.020000000000000284e+01,9.674904717434987950e-03
4.024000000000000199e+01,9.926532355263983226e-03
4.028000000000000114e+01,9.023374647457392192e-03
4.032000000000000028e+01,6.195714394111156639e-03
4.035999999999999943e+01,1.039152799350934187e-02
4.039999999999999858e+01,9.680182826046669284e-03
4.043999999999999773e+01,6.467049699147855817e-03
4.047999999999999687e+01,9.219031070592634963e-03
4.052000000000000313e+01,1.091244851392019280e-02
4.056000000000000227e+01,6.447919364687225603e-03
4.060000000000000142e+01,7.467434088002225523e-03
4.064000000000000057e+01,9.929972688531456260e-03
4.067999999999999972e+01,9.121011654235084559e-03
4.071999999999999886e+01,7.445921792537845557e-03
4.075999999999999801e+01,1.317917598501769372e-02
4.079999999999999716e+01,1.544850428117895517e-02
4.084000000000000341e+01,8.865879652275664158e-03
4.088000000000000256e+01,8.440810146946881726e-03
4.092000000000000171e+01,9.073913100749259053e-03
4.096000000000000085e+01,8.167390339862180132e-03
4.100000000000000000e+01,9.377404917021700537e-03
4.103999999999999915e+01,8.470507260692337892e-03
4.107999999999999829e+01,1.112337097372852017e-02
4.111999999999999744e+01,7.810733139046763945e-03
4.115999999999999659e+01,7.288140578729379766e-03
4.120000000000000284e+01,8.401016940468838956e-03
4.124000000000000199e+01,1.114936332916804419e-02
4.128000000000000114e+01,1.101108580898890570e-02
4.132000000000000028e+01,1.058398476355790208e-02
4.135999999999999943e+01,8.424839476264853882e-03
4.139999999999999858e+01,1.059518270236766042e-02
4.143999999999999773e+01,9.494047286800312915e-03
4.147999999999999687e+01,1.156782513722418547e-02
4.152000000000000313e+01,1.008148219148109932e-02
4.156000000000000227e+01,8.787396290408016480e-03
4.160000000000000142e+01,1.105308612243841200e-02
4.164000000000000057e+01,1.043216198971671713e-02
4.167999999999999972e+01,1.279372707129907902e-02
4.171999999999999886e+01,9.767095907312506320e-03
4.175999999999999801e+01,1.251318502236113857e-02
4.179999999999999716e+01,1.025593925405016496e-02
4.184000000000000341e+01,1.329034203407585858e-02
4.188000000000000256e+01,1.228356002155652112e-02
4.192000000000000171e+01,1.474034779326310537e-02
4.196000000000000085e+01,1.604239662525665591e-02
4.200000000000000000e+01,1.436162664852351153e-02
4.203999999999999915e+01,1.354663049200149558e-02
4.207999999999999829e+01,1.321255010819004545e-02
4.211999999999999744e+01,1.557232672831211813e-02
4.215999999999999659e+01,1.148555658768776050e-02
4.220000000000000284e+01,1.490338506584640982e-02
4.224000000000000199e+01,1.620433445760373001e-02
4.228000000000000114e+01,1.904456781569579052e-02
4.232000000000000028e+01,1.514961446835045786e-02
4.235999999999999943e+01,1.712361276168498231e-02
4.239999999999999858e+01,1.948232087885252983e-02
4.243999999999999773e+01,1.856957797692285195e-02
4.247999999999999687e+01,1.852262104913640975e-02
4.252000000000000313e+01,2.213168005532140450e-02
4.256000000000000227e+01,2.458601669533711648e-02
4.260000000000000142e+01,2.540455813358215992e-02
4.264000000000000057e+01,2.747374911798555752e-02
4.267999999999999972e+01,3.050494638914764967e-02
4.271999999999999886e+01,2.805176024921287800e-02
4.275999999999999801e+01,3.348804734910546671e-02
4.279999999999999716e+01,3.286266451910178910e-02
4.284000000000000341e+01,4.022297192683216283e-02
4.288000000000000256e+01,4.565884750280962967e-02
4.292000000000000171e+01,5.321131345217377379e-02
4.296000000000000085e+01,6.307280045602924046e-02
4.300000000000000000e+01,7.966918987191907997e-02
4.303999999999999915e+01,9.722759551869387951e-02
4.307999999999999829e+01,1.277748670138656173e-01
4.311999999999999744e+01,1.724655829195476942e-01
4.315999999999999659e+01,2.432303780651511871e-01
4.320000000000000284e+01,3.555598344398196442e-01
4.324000000000000199e+01,5.489020162698134975e-01
4.328000000000000114e+01,8.196007627122027239e-01
4.332000000000000028e+01,9.982218330262533357e-01
4.335999999999999943e+01,1.000000000000000000e+00
4.339999999999999858e+01,8.942099121709734533e-01
4.343999999999999773e+01,7.540710243888406605e-01
4.347999999999999687e+01,5.835281440706404643e-01
4.352000000000000313e+01,4.073084728632002105e-01
4.356000000000000227e+01,2.679389482120080879e-01
4.360000000000000142e+01,1.868754689684619386e-01
4.364000000000000057e+01,1.368892512049176280e-01
4.367999999999999972e+01,1.009502785324236096e-01
4.371999999999999886e+01,7.963584078448805725e-02
4.375999999999999801e+01,6.505632644174230705e-02
4.379999999999999716e+01,5.971332109971202312e-02
4.384000000000000341e+01,4.676923794564736420e-02
4.388000000000000256e+01,4.671782794993713239e-02
4.392000000000000171e+01,4.387608175704200975e-02
4.396000000000000085e+01,3.689699343845269375e-02
4.400000000000000000e+01,3.367017672334366579e-02
4.403999999999999915e+01,2.640223488044714933e-02
4.407999999999999829e+01,2.663894358677077606e-02
4.411999999999999744e+01,2.379667725612150467e-02
4.415999999999999659e+01,2.595747919387550798e-02
4.420000000000000284e+01,2.022856889941881606e-02
4.424000000000000199e+01,2.267781709050003397e-02
4.428000000000000114e+01,1.973893974979906707e-02
4.432000000000000028e+01,2.103341679230609496e-02
4.435999999999999943e+01,1.770948881764373983e-02
4.439999999999999858e+01,1.775298434308734963e-02
4.443999999999999773e+01,1.923960871152240182e-02
4.447999999999999687e+01,1.379867646307589985e-02
4.452000000000000313e+01,1.566997734157988750e-02
4.456000000000000227e+01,1.484717448944654697e-02
4.460000000000000142e+01,1.373563871410060123e-02
4.464000000000000057e+01,1.368237815385718419e-02
4.467999999999999972e+01,1.314795730400528280e-02
4.471999999999999886e+01,1.530746527677656448e-02
4.475999999999999801e+01,1.304100885760940166e-02
4.479999999999999716e+01,1.029339546354248076e-02
4.484000000000000341e+01,1.216400996882496637e-02
4.488000000000000256e+01,1.028216691358387926e-02
4.492000000000000171e+01,1.022832511257272016e-02
4.496000000000000085e+01,1.036683427297958697e-02
4.500000000000000000e+01,1.146741380451437448e-02
4.503999999999999915e+01,9.200399347540738973e-03
4.507999999999999829e+01,9.434894081114832826e-03
4.511999999999999744e+01,1.120875122913082313e-02
4.515999999999999659e+01,7.979366305632311016e-03
4.520000000000000284e+01,8.021212192197252691e-03
4.524000000000000199e+01,8.159201986399784376e-03
4.528000000000000114e+01,1.147221001237071908e-02
4.532000000000000028e+01,9.781980386438824532e-03
4.535999999999999943e+01,1.165163035448467041e-02
4.539999999999999858e+01,1.130827373535883348e-02
4.543999999999999773e+01,8.367052481560709534e-03
4.547999999999999687e+01,8.408425407843866939e-03
4.552000000000000313e+01,1.143239361911120230e-02
4.556000000000000227e+01,8.394768138783592626e-03
4.560000000000000142e+01,8.820814093750387400e-03
4.564000000000000057e+01,9.150585429182175184e-03
4.567999999999999972e+01,7.267357911762690852e-03
4.571999999999999886e+01,9.425093872951586724e-03
4.575999999999999801e+01,7.541752217178460636e-03
4.579999999999999716e+01,7.582650911600350568e-03
4.584000000000000341e+01,5.506769960883507210e-03
4.588000000000000256e+01,7.183212544084089865e-03
4.592000000000000171e+01,5.492085446640451035e-03
4.596000000000000085e+01,7.072210152415684022e-03
4.600000000000000000e+01,6.920418785067371584e-03
4.603999999999999915e+01,8.885303973533310168e-03
4.607999999999999829e+01,7.963697841471053043e-03
4.611999999999999744e+01,1.002470356793674910e-02
4.615999999999999659e+01,5.927917388250408814e-03
4.620000000000000284e+01,7.219114979419666463e-03
4.624000000000000199e+01,8.895128465102061441e-03
4.628000000000000114e+01,8.069515307174351254e-03
4.632000000000000028e+01,7.917364617868230189e-03
4.635999999999999943e+01,8.534892290187489142e-03
4.639999999999999858e+01,9.152381124228080311e-03
4.643999999999999773e+01,7.845536462875449951e-03
4.647999999999999687e+01,7.212158689756097488e-03
4.652000000000000313e+01,9.465189036093004174e-03
4.656000000000000227e+01,8.254452592131469521e-03
4.660000000000000142e+01,8.486904655918956278e-03
4.664000000000000057e+01,8.623109722744380298e-03
4.667999999999999972e+01,9.047928049914192791e-03
4.671999999999999886e+01,8.414353708919058289e-03
4.675999999999999801e+01,6.722387804661914164e-03
4.679999999999999716e+01,8.782770847089307192e-03
4.684000000000000341e+01,6.705891316832593430e-03
4.688000000000000256e+01,5.591134088140945271e-03
4.692000000000000171e+01,6.881722087430363136e-03
4.696000000000000085e+01,5.670702226459275498e-03
4.700000000000000000e+01,6.191526286568984835e-03
4.703999999999999915e+01,4.884248212930117003e-03
4.707999999999999829e+01,5.693675422581377481e-03
4.711999999999999744e+01,7.465231563215203765e-03
4.715999999999999659e+01,6.831400156203988605e-03
4.720000000000000284e+01,5.331618916064592012e-03
4.724000000000000199e+01,7.969057928945316380e-03
4.728000000000000114e+01,8.008683132687991618e-03
4.732000000000000028e+01,6.027784360800786390e-03
4.735999999999999943e+01,7.221961275633718806e-03
4.739999999999999858e+01,8.993415703366163319e-03
4.743999999999999773e+01,8.648134682076607030e-03
4.747999999999999687e+01,6.570978469071438698e-03
4.752000000000000313e+01,4.590029143170167372e-03
4.756000000000000227e+01,6.553879333310617256e-03
4.760000000000000142e+01,8.806368196562538997e-03
4.764000000000000057e+01,7.402690525693090585e-03
4.767999999999999972e+01,5.517935432933968910e-03
4.771999999999999886e+01,5.653688513810784314e-03
4.775999999999999801e+01,8.194810025629930758e-03
4.779999999999999716e+01,7.560843363443762316e-03
4.784000000000000341e+01,7.504166368089173339e-03
4.788000000000000256e+01,5.042121713342059136e-03
4.792000000000000171e+01,6.813530883065549437e-03
4.796000000000000085e+01,1.002816612723722925e-02
4.800000000000000000e+01,8.528282112304210946e-03
4.803999999999999915e+01,6.932189772011269208e-03
4.807999999999999829e+01,5.817178939866563155e-03
4.811999999999999744e+01,7.011331694689593164e-03
4.815999999999999659e+01,7.435775922155348112e-03
4.820000000000000284e+01,9.880741582092055289e-03
4.824000000000000199e+01,7.226335459938073268e-03
4.828000000000000114e+01,6.784882556262608784e-03
4.832000000000000028e+01,7.786665671161627049e-03
4.835999999999999943e+01,6.094450021200500944e-03
4.839999999999999858e+01,7.962197937838887130e-03
4.843999999999999773e+01,8.482956332835193264e-03
4.847999999999999687e+01,9.099948132605407622e-03
4.852000000000000313e+01,7.022945587127186334e-03
4.856000000000000227e+01,8.217266663557511869e-03
4.860000000000000142e+01,1.008511318807574393e-02
4.864000000000000057e+01,7.719532072440311865e-03
4.867999999999999972e+01,8.817707469623927569e-03
4.871999999999999886e+01,7.991612350880668639e-03
4.875999999999999801e+01,6.010966125920414252e-03
4.879999999999999716e+01,8.456227609496680744e-03
4.884000000000000341e+01,9.265866256157434880e-03
4.888000000000000256e+01,7.670164865998605440e-03
4.892000000000000171e+01,6.844212551251910998e-03
4.896000000000000085e+01,1.092524630515779270e-02
4.900000000000000000e+01,8.752351812917931115e-03
4.903999999999999915e+01,9.273505472816403680e-03
4.907999999999999829e+01,1.075684220394042094e-02
4.911999999999999744e+01,8.872697646653644396e-03
4.915999999999999659e+01,8.431812310902616486e-03
4.920000000000000284e+01,1.116605348740594417e-02
4.924000000000000199e+01,1.245711245222469281e-02
4.928000000000000114e+01,1.028447976014342825e-02
4.932000000000000028e+01,1.119076210692442237e-02
4.935999999999999943e+01,1.103872470913306279e-02
4.939999999999999858e+01,1.127159049318535167e-02
4.943999999999999773e+01,1.217800492828683898e-02
4.947999999999999687e+01,1.241096208592821180e-02
4.952000000000000313e+01,1.177803349481066145e-02
4.956000000000000227e+01,1.306944911476239264e-02
4.960000000000000142e+01,1.387984034816451030e-02
4.964000000000000057e+01,1.526757096902955045e-02
4.967999999999999972e+01,1.675156814175603193e-02
4.971999999999999886e+01,1.659996678543120344e-02
4.975999999999999801e+01,1.673706376697541021e-02
4.979999999999999716e+01,2.081902213912473557e-02
4.984000000000000341e+01,2.220702262782188463e-02
4.988000000000000256e+01,2.484587265010556115e-02
4.992000000000000171e+01,2.459833742254115968e-02
4.996000000000000085e+01,3.118211164821973677e-02
5.000000000000000000e+01,3.468707325765430644e-02
5.003999999999999915e+01,3.742237827016876156e-02
5.007999999999999829e+01,4.487227071241571552e-02
5.011999999999999744e+01,5.347680452956585923e-02
5.015999999999999659e+01,6.381326955512729715e-02
5.020000000000000284e+01,7.799839223222215789e-02
5.024000000000000199e+01,9.266465608222285155e-02
5.028000000000000114e+01,1.234950726704744511e-01
5.032000000000000028e+01,1.539406995485298746e-01
5.035999999999999943e+01,2.128659742515537356e-01
5.039999999999999858e+01,2.586098946367712537e-01
5.043999999999999773e+01,3.078176201505361531e-01
5.047999999999999687e+01,3.203675852596875595e-01
5.052000000000000313e+01,3.079017804293339156e-01
5.056000000000000227e+01,2.926458228156797459e-01
5.060000000000000142e+01,2.438109813313487362e-01
5.064000000000000057e+01,2.064257779124522296e-01
5.067999999999999972e+01,1.619207595604246763e-01
5.071999999999999886e+01,1.189552583092475524e-01
5.075999999999999801e+01,9.321228572426597248e-02
5.079999999999999716e+01,7.247256482157204971e-02
5.084000000000000341e+01,5.789067416327920573e-02
5.088000000000000256e+01,4.898554091378595765e-02
5.092000000000000171e+01,4.373665562787691641e-02
5.096000000000000085e+01,3.742949479351224268e-02
5.100000000000000000e+01,3.160349612520880341e-02
5.103999999999999915e+01,2.558515721116341735e-02
5.107999999999999829e+01,2.457007771372613988e-02
5.111999999999999744e+01,2.461345242566407784e-02
5.115999999999999659e+01,2.071211347063479577e-02
5.120000000000000284e+01,1.777301614668570090e-02
5.124000000000000199e+01,1.425672494910576980e-02
5.128000000000000114e+01,1.497398038784153972e-02
5.132000000000000028e+01,1.424811106984443139e-02
5.135999999999999943e+01,1.284883640482436390e-02
5.139999999999999858e+01,1.241180889539907593e-02
5.143999999999999773e+01,1.149380782495839325e-02
5.147999999999999687e+01,1.096076739131313094e-02
5.152000000000000313e+01,1.052404433506352009e-02
5.156000000000000227e+01,6.912336965682847750e-03
5.160000000000000142e+01,7.437970283740356209e-03
5.164000000000000057e+01,1.008043484402062866e-02
5.167999999999999972e+01,1.108735501549253794e-02
5.171999999999999886e+01,9.400369233949438380e-03
5.175999999999999801e+01,7.713492671118630899e-03
5.179999999999999716e+01,7.566163041517037086e-03
5.184000000000000341e+01,7.515159628534486165e-03
5.188000000000000256e+01,7.079409596569492640e-03
5.192000000000000171e+01,7.990780236340712037e-03
5.196000000000000085e+01,7.459043797825750180e-03
5.200000000000000000e+01,8.563074605155474722e-03
5.203999999999999915e+01,8.127785755903955967e-03
5.207999999999999829e+01,6.249393143075011696e-03
5.211999999999999744e+01,7.065133759909104742e-03
5.215999999999999659e+01,6.052913670568095018e-03
5.220000000000000284e+01,6.195392411081972368e-03
5.224000000000000199e+01,6.819067569647565066e-03
5.228000000000000114e+01,6.961792370159040205e-03
5.232000000000000028e+01,5.853849612712329169e-03
5.235999999999999943e+01,8.209765019153120874e-03
5.239999999999999858e+01,7.198289739222400382e-03
5.243999999999999773e+01,6.764231189958810724e-03
5.247999999999999687e+01,6.041657383357459249e-03
5.252000000000000313e+01,6.377576457733479844e-03
5.256000000000000227e+01,8.060633882292366978e-03
5.260000000000000142e+01,4.548225171077735669e-03
5.264000000000000057e+01,5.365615450978907658e-03
5.267999999999999972e+01,3.585341083635922108e-03
5.271999999999999886e+01,6.423512281517176903e-03
5.275999999999999801e+01,6.664021041960135894e-03
5.279999999999999716e+01,6.038734655683454175e-03
5.284000000000000341e+01,4.643869015690871467e-03
5.288000000000000256e+01,6.424231539021098454e-03
5.292000000000000171e+01,7.627446594643053079e-03
5.296000000000000085e+01,7.387582194551747285e-03
5.300000000000000000e+01,4.838706350742290156e-03
5.303999999999999915e+01,4.599129996959469384e-03
5.307999999999999829e+01,5.321847204693977255e-03
5.311999999999999744e+01,3.831771071519935682e-03
5.315999999999999659e+01,4.169923802576943998e-03
5.320000000000000284e+01,6.624950867070492772e-03
5.324000000000000199e+01,4.942892143346803123e-03
5.328000000000000114e+01,6.436072631975110411e-03
5.332000000000000028e+01,5.524035728007734014e-03
5.335999999999999943e+01,4.997011391272865657e-03
5.339999999999999858e+01,6.202007760085657441e-03
5.343999999999999773e+01,6.926085813028975968e-03
5.347999999999999687e+01,7.938964959812678732e-03
5.352000000000000313e+01,5.873128721809168888e-03
5.356000000000000227e+01,5.827961973267625773e-03
5.360000000000000142e+01,6.648888361880463463e-03
5.364000000000000057e+01,7.566190687743631557e-03
5.367999999999999972e+01,5.308567260330375459e-03
5.371999999999999886e+01,4.398114225284661429e-03
5.375999999999999801e+01,7.336417178132047766e-03
5.379999999999999716e+01,5.849005447100424394e-03
5.384000000000000341e+01,5.227693482640719327e-03
5.388000000000000256e+01,7.781637304076761269e-03
5.392000000000000171e+01,6.487158484947784867e-03
5.396000000000000085e+01,5.385279230393374278e-03
5.400000000000000000e+01,6.881370347838229075e-03
5.403999999999999915e+01,7.800344934856487215e-03
5.407999999999999829e+01,3.139035115105686356e-03
5.411999999999999744e+01,5.116720082299591570e-03
5.415999999999999659e+01,8.826446748196581024e-03
5.420000000000000284e+01,4.935381771914942525e-03
5.424000000000000199e+01,6.624952228177171526e-03
5.428000000000000114e+01,5.332043080908470747e-03
5.432000000000000028e+01,5.097676535248434754e-03
5.435999999999999943e+01,5.825638907999126578e-03
5.439999999999999858e+01,7.227286939760805932e-03
5.443999999999999773e+01,7.185896397217214626e-03
5.447999999999999687e+01,6.471186690078250051e-03
5.452000000000000313e+01,7.680958201970411632e-03
5.456000000000000227e+01,7.543909242366909212e-03
5.460000000000000142e+01,5.290322611363697594e-03
5.464000000000000057e+01,4.961220514100367872e-03
5.467999999999999972e+01,5.017167445865837634e-03
5.471999999999999886e+01,4.303587054352569531e-03
5.475999999999999801e+01,5.514494511287926920e-03
5.479999999999999716e+01,7.014239523859970397e-03
5.484000000000000341e+01,6.493668282550682687e-03
5.488000000000000256e+01,4.433855832767372857e-03
5.492000000000000171e+01,4.779609591548681334e-03
5.496000000000000085e+01,8.685508121008040164e-03
5.500000000000000000e+01,6.337644139759330761e-03
5.503999999999999915e+01,7.453712350893657371e-03
5.507999999999999829e+01,8.185122335278967320e-03
5.511999999999999744e+01,4.394639309480696809e-03
5.515999999999999659e+01,7.628038950506479260e-03
5.520000000000000284e+01,7.782769612667579141e-03
5.524000000000000199e+01,7.264202103388747202e-03
5.528000000000000114e+01,8.285277653892992450e-03
5.532000000000000028e+01,5.169324871131703546e-03
5.535999999999999943e+01,6.575675789086359198e-03
5.539999999999999858e+01,6.250370286103151471e-03
5.543999999999999773e+01,5.251772136194625927e-03
5.547999999999999687e+01,8.390621849307281638e-03
5.552000000000000313e+01,7.681093117971635881e-03
5.556000000000000227e+01,5.720986325814190684e-03
5.560000000000000142e+01,6.839968042277073425e-03
5.564000000000000057e+01,7.189447848228339849e-03
5.567999999999999972e+01,7.827789517680518172e-03
5.571999999999999886e+01,5.772335724409430845e-03
5.575999999999999801e+01,6.218686130765144551e-03
5.579999999999999716e+01,5.125820741413917789e-03
5.584000000000000341e+01,5.187754728083127792e-03
5.588000000000000256e+01,7.559066652886116400e-03
5.592000000000000171e+01,6.659299910875222939e-03
5.596000000000000085e+01,7.972698528703121498e-03
5.600000000000000000e+01,8.035531239641268905e-03
5.603999999999999915e+01,7.328873089096957748e-03
5.607999999999999829e+01,6.141369546275761426e-03
5.611999999999999744e+01,6.397317478098006084e-03
5.615999999999999659e+01,7.038355320357040854e-03
5.620000000000000284e+01,7.390980661249668855e-03
5.624000000000000199e+01,7.358979817577912357e-03
5.628000000000000114e+01,8.962864444363035157e-03
5.632000000000000028e+01,7.584325817666065332e-03
5.635999999999999943e+01,8.515178387937935231e-03
5.639999999999999858e+01,7.137113431239630428e-03
5.643999999999999773e+01,9.030589762324701952e-03
5.647999999999999687e+01,7.941647259539382636e-03
5.652000000000000313e+01,8.296167280426683735e-03
5.656000000000000227e+01,8.362284744073826201e-03
5.660000000000000142e+01,7.466497238677654788e-03
5.664000000000000057e+01,8.302819935965460862e-03
5.667999999999999972e+01,6.349158900099204084e-03
5.671999999999999886e+01,6.897328581529744811e-03
5.675999999999999801e+01,8.504108263646973850e-03
5.679999999999999716e+01,1.030356595844589968e-02
5.684000000000000341e+01,8.350896458693676805e-03
5.688000000000000256e+01,7.841699426740383200e-03
5.692000000000000171e+01,7.910042874581026465e-03
5.696000000000000085e+01,7.689994814210699206e-03
5.700000000000000000e+01,9.202066900650663489e-03
5.703999999999999915e+01,8.405239138567154392e-03
5.707999999999999829e+01,7.704882335384906182e-03
5.711999999999999744e+01,7.870715900813826660e-03
5.715999999999999659e+01,8.517881787353374923e-03
5.720000000000000284e+01,8.780448006998561178e-03
5.724000000000000199e+01,7.888697359845346299e-03
5.728000000000000114e+01,7.766926712814116278e-03
5.732000000000000028e+01,8.896211111312122069e-03
5.735999999999999943e+01,8.871181957720474659e-03
5.739999999999999858e+01,8.365343873648234396e-03
5.743999999999999773e+01,7.282483175897381915e-03
5.747999999999999687e+01,1.043334037441451256e-02
5.752000000000000313e+01,6.560786366300459457e-03
5.756000000000000227e+01,8.076529921470666090e-03
5.760000000000000142e+01,9.303899646876586174e-03
5.764000000000000057e+01,1.091640016412724797e-02
5.767999999999999972e+01,9.738944570796789421e-03
5.771999999999999886e+01,9.427695919621247034e-03
5.775999999999999801e+01,1.046372925600792467e-02
5.779999999999999716e+01,8.132521067917000343e-03
5.784000000000000341e+01,6.956167500992365728e-03
5.788000000000000256e+01,1.299620131049193661e-02
5.792000000000000171e+01,9.415035683665947189e-03
5.796000000000000085e+01,1.006760121194290834e-02
5.800000000000000000e+01,8.796152561769934181e-03
5.803999999999999915e+01,1.041143024309357408e-02
5.807999999999999829e+01,7.312467100847819257e-03
5.811999999999999744e+01,9.024528261921941144e-03
5.815999999999999659e+01,1.054444584997349735e-02
5.820000000000000284e+01,1.023656957219059270e-02
5.824000000000000199e+01,1.002519629549355334e-02
5.828000000000000114e+01,9.429253184280960570e-03
5.832000000000000028e+01,1.027682231737233470e-02
5.835999999999999943e+01,1.112468297815746333e-02
5.839999999999999858e+01,1.072204402622792957e-02
5.843999999999999773e+01,1.108941711660498507e-02
5.847999999999999687e+01,1.107222589698108467e-02
5.852000000000000313e+01,1.067047147225912498e-02
5.856000000000000227e+01,9.980369735442912518e-03
5.860000000000000142e+01,8.809492215233643772e-03
5.864000000000000057e+01,1.100643154056908657e-02
5.867999999999999972e+01,1.147180504700592851e-02
5.871999999999999886e+01,1.030182862754798652e-02
5.875999999999999801e+01,1.047916181822520186e-02
5.879999999999999716e+01,1.238866487634399105e-02
5.884000000000000341e+01,9.487733315947925739e-03
5.888000000000000256e+01,1.264863929733856147e-02
5.892000000000000171e+01,1.032560935331405631e-02
5.896000000000000085e+01,1.050447200114979114e-02
5.900000000000000000e+01,1.366630228625306288e-02
5.903999999999999915e+01,1.067069644394382476e-02
5.907999999999999829e+01,1.181263790591840536e-02
5.911999999999999744e+01,1.228138837203610924e-02
5.915999999999999659e+01,1.121101585429196482e-02
5.920000000000000284e+01,1.235389819352293757e-02
5.924000000000000199e+01,1.359331115641275629e-02
5.928000000000000114e+01,1.108066432382941169e-02
5.932000000000000028e+01,1.020398693432469917e-02
5.935999999999999943e+01,1.134813924520503524e-02
5.939999999999999858e+01,1.335854490416287996e-02
5.943999999999999773e+01,1.017367336574613590e-02
5.947999999999999687e+01,1.324308551886158210e-02
5.952000000000000313e+01,1.150208183681181336e-02
5.956000000000000227e+01,1.120462465105641868e-02
5.960000000000000142e+01,1.263935943080096019e-02
5.964000000000000057e+01,1.388199151893092231e-02
5.967999999999999972e+01,1.377794456313869396e-02
5.971999999999999886e+01,1.251964924452898635e-02
5.975999999999999801e+01,1.366705382773699025e-02
5.979999999999999716e+01,1.192834607211764285e-02
5.984000000000000341e+01,1.326884394482794050e-02
5.988000000000000256e+01,1.364752745053420327e-02
5.992000000000000171e+01,1.421897515134975046e-02
5.996000000000000085e+01,1.421346984737052732e-02
