2.003999999999999915e+01,3.524347594463118211e-02
2.007999999999999829e+01,2.335361173639061844e-02
2.012000000000000099e+01,3.570892413646451630e-02
2.016000000000000014e+01,2.955751948630206891e-02
2.019999999999999929e+01,2.857074719732114951e-02
2.023999999999999844e+01,1.043343667962824770e-03
2.028000000000000114e+01,2.774482405877553431e-02
2.032000000000000028e+01,2.503641722753382343e-02
2.035999999999999943e+01,1.300290438533304241e-02
2.039999999999999858e+01,1.187252947128128455e-02
2.044000000000000128e+01,2.910535363133923137e-02
2.048000000000000043e+01,5.107241699357272652e-02
2.051999999999999957e+01,8.337758489032611950e-03
2.055999999999999872e+01,3.346093809092115512e-02
2.060000000000000142e+01,3.563004825636829215e-02
2.064000000000000057e+01,3.507333292448224643e-02
2.067999999999999972e+01,3.695544959301767796e-02
2.071999999999999886e+01,3.352941023856847308e-02
2.076000000000000156e+01,1.087932953317484117e-02
2.080000000000000071e+01,4.088003350058583285e-02
2.083999999999999986e+01,2.224683545299043289e-02
2.087999999999999901e+01,3.187575689458884559e-02
2.092000000000000171e+01,2.098946959028853004e-02
2.096000000000000085e+01,2.832290939286046319e-02
2.100000000000000000e+01,3.723439914209958346e-02
2.103999999999999915e+01,4.141157809472928442e-02
2.107999999999999829e+01,2.894703911496979490e-02
2.112000000000000099e+01,2.781601345462551486e-02
2.116000000000000014e+01,1.836410666522061280e-02
2.119999999999999929e+01,3.358774547901071522e-02
2.123999999999999844e+01,1.122410522769116958e-02
2.128000000000000114e+01,2.673458013533342587e-02
2.132000000000000028e+01,1.025282094894951201e-02
2.135999999999999943e+01,3.035401094799227567e-02
2.139999999999999858e+01,5.978023109930263174e-02
2.144000000000000128e+01,2.249623484533844198e-02
2.148000000000000043e+01,3.657184662999998781e-02
2.151999999999999957e+01,4.663045272960135434e-02
2.155999999999999872e+01,1.106786130969446107e-02
2.160000000000000142e+01,8.981220259512447384e-04
2.164000000000000057e+01,2.702440149664159935e-02
2.167999999999999972e+01,1.742840954858453778e-02
2.171999999999999886e+01,3.795953762898775924e-02
2.176000000000000156e+01,3.424541111025546786e-02
2.180000000000000071e+01,3.497857488425677036e-02
2.183999999999999986e+01,3.026010000739234179e-02
2.187999999999999901e+01,3.730551313049963041e-02
2.192000000000000171e+01,3.273038887676783110e-02
2.196000000000000085e+01,4.092339029767876057e-02
2.200000000000000000e+01,2.673614831936453606e-02
2.203999999999999915e+01,4.884491798838809518e-02
2.207999999999999829e+01,5.861583379766970719e-02
2.212000000000000099e+01,4.614996680361029696e-02
2.216000000000000014e+01,4.171795190622034494e-02
2.219999999999999929e+01,3.427315833779752408e-02
2.223999999999999844e+01,4.289612821334697762e-02
2.228000000000000114e+01,3.315580609906507853e-02
2.232000000000000028e+01,3.489243871092374133e-02
2.235999999999999943e+01,5.513569901084496017e-02
2.239999999999999858e+01,4.467787057969749287e-02
2.244000000000000128e+01,3.637191742172377062e-02
2.248000000000000043e+01,4.198178252327146309e-02
2.251999999999999957e+01,3.152375501893651955e-02
2.255999999999999872e+01,4.229814348136123892e-02
2.260000000000000142e+01,2.093681237904026701e-02
2.264000000000000057e+01,2.826795767873026971e-02
2.267999999999999972e+01,3.645980943522053597e-02
2.271999999999999886e+01,4.163887328145340905e-02
2.276000000000000156e+01,3.046311480152042589e-02
2.280000000000000071e+01,3.205546707132892609e-02
2.283999999999999986e+01,1.442374103329448036e-02
2.287999999999999901e+01,3.653111719000617930e-02
2.292000000000000171e+01,1.918616896763810156e-02
2.296000000000000085e+01,3.254216965378459864e-02
2.300000000000000000e+01,2.480907372508227987e-02
2.303999999999999915e+01,3.400450339423793933e-02
2.307999999999999829e+01,3.114898689193773204e-02
2.312000000000000099e+01,2.212449535600070558e-02
2.316000000000000014e+01,4.035784370272105931e-02
2.319999999999999929e+01,2.616853636802627878e-02
2.323999999999999844e+01,5.014023482354927619e-02
2.328000000000000114e+01,3.982426071207044449e-02
2.332000000000000028e+01,4.141561174303119708e-02
2.335999999999999943e+01,5.032347990930938209e-02
2.339999999999999858e+01,4.215920073800388107e-02
2.344000000000000128e+01,3.356444996790069329e-02
2.348000000000000043e+01,3.429469239316652179e-02
2.351999999999999957e+01,2.240012991711964191e-02
2.355999999999999872e+01,3.417683201631190049e-02
2.360000000000000142e+01,4.064532692142976134e-02
2.364000000000000057e+01,4.324024120189243203e-02
2.367999999999999972e+01,1.140401308024442152e-02
2.371999999999999886e+01,3.709625050203969876e-02
2.376000000000000156e+01,3.911704870127195172e-02
2.380000000000000071e+01,2.836957429621151522e-02
2.383999999999999986e+01,4.559724133180996508e-02
2.387999999999999901e+01,2.452026875540165921e-02
2.392000000000000171e+01,2.410183706957555808e-02
2.396000000000000085e+01,4.262039282746746954e-02
2.400000000000000000e+01,3.459825053828110425e-02
2.403999999999999915e+01,4.293076516716135688e-02
2.407999999999999829e+01,3.519535947248523394e-02
2.412000000000000099e+01,3.233759103342546265e-02
2.416000000000000014e+01,3.980904280376208748e-02
2.419999999999999929e+01,1.744015022917592278e-02
2.423999999999999844e+01,6.261252810644613205e-03
2.428000000000000114e+01,4.988501915337736209e-02
2.432000000000000028e+01,1.819075423897198451e-02
2.435999999999999943e+01,3.584756799992182275e-02
2.439999999999999858e+01,2.294672022233644818e-02
2.444000000000000128e+01,2.539628315963178562e-02
2.448000000000000043e+01,2.038568234704834364e-02
2.451999999999999957e+01,2.383927988330756392e-02
2.455999999999999872e+01,2.542775864077168393e-02
2.460000000000000142e+01,1.869529514815096785e-02
2.464000000000000057e+01,4.868918529078383045e-02
2.467999999999999972e+01,2.933179155022567347e-02
2.471999999999999886e+01,3.464988087041900866e-02
2.476000000000000156e+01,5.531837521981632783e-02
2.480000000000000071e+01,4.327726000338932844e-02
2.483999999999999986e+01,3.582684379378017064e-02
2.487999999999999901e+01,3.526252952848556860e-02
2.492000000000000171e+01,4.172777922480903207e-02
2.496000000000000085e+01,3.427703388215851826e-02
2.500000000000000000e+01,3.543394108784858609e-02
2.503999999999999915e+01,3.343455643411252093e-02
2.507999999999999829e+01,3.631279197896263716e-02
2.512000000000000099e+01,3.574780878694162195e-02
2.516000000000000014e+01,4.450778894048726397e-02
2.519999999999999929e+01,3.174824520611827655e-02
2.523999999999999844e+01,4.366417529327619451e-02
2.528000000000000114e+01,3.736022281539681800e-02
2.532000000000000028e+01,3.894660356011692137e-02
2.535999999999999943e+01,3.450743219947632889e-02
2.539999999999999858e+01,4.240593720841556724e-02
2.544000000000000128e+01,3.237148226550509017e-02
2.548000000000000043e+01,4.557786959973497004e-02
2.551999999999999957e+01,3.296084551998683387e-02
2.555999999999999872e+01,2.737337403050324469e-02
2.560000000000000142e+01,3.900130810948991555e-02
2.564000000000000057e+01,3.872171325962030924e-02
2.567999999999999972e+01,3.299041153076498478e-02
2.571999999999999886e+01,2.568089586856233883e-02
2.576000000000000156e+01,2.726594470724384017e-02
2.580000000000000071e+01,4.118866280840938893e-02
2.583999999999999986e+01,3.187029291415228310e-02
2.587999999999999901e+01,3.230726175672808675e-02
2.592000000000000171e+01,2.757944491208624838e-02
2.596000000000000085e+01,4.365359543985085355e-02
2.600000000000000000e+01,3.347393784108367021e-02
2.603999999999999915e+01,4.753935166561307907e-02
2.607999999999999829e+01,4.252409234283607148e-02
2.612000000000000099e+01,6.361891848610411182e-02
2.616000000000000014e+01,5.946417275609220537e-02
2.619999999999999929e+01,6.334320734108184192e-02
2.623999999999999844e+01,3.264759131053451835e-02
2.628000000000000114e+01,4.556451072076658781e-02
2.632000000000000028e+01,2.706295811032610049e-02
2.635999999999999943e+01,3.079799304532503459e-02
2.639999999999999858e+01,3.654137016523598819e-02
2.644000000000000128e+01,2.176944046132547883e-02
2.648000000000000043e+01,3.841571076355065895e-02
2.651999999999999957e+01,2.651276005181332773e-02
2.655999999999999872e+01,1.948740324240748334e-02
2.660000000000000142e+01,3.154244969789987002e-02
2.664000000000000057e+01,1.662636301544282921e-02
2.667999999999999972e+01,3.571080188980551434e-02
2.671999999999999886e+01,6.957176005655096862e-02
2.676000000000000156e+01,1.286820159499106331e-01
2.680000000000000071e+01,1.341370684520846457e-01
2.683999999999999986e+01,1.334230798246304472e-01
2.687999999999999901e+01,6.972880906373342402e-02
2.692000000000000171e+01,5.251631693252031829e-02
2.696000000000000085e+01,2.712630334736969642e-02
2.700000000000000000e+01,3.415871962522050442e-02
2.703999999999999915e+01,3.889558487624329708e-02
2.707999999999999829e+01,2.612984922036194757e-02
2.712000000000000099e+01,3.732224034259253725e-02
2.716000000000000014e+01,3.789824008111867398e-02
2.719999999999999929e+01,2.785784772523067568e-02
2.723999999999999844e+01,1.638267715704405658e-02
2.728000000000000114e+01,2.413136049970578817e-02
2.732000000000000028e+01,3.632723605717819160e-02
2.735999999999999943e+01,2.585584752431532504e-02
2.739999999999999858e+01,3.231290712196567549e-02
2.744000000000000128e+01,4.006097678601437673e-02
2.748000000000000043e+01,3.590148482856595630e-02
2.751999999999999957e+01,5.856936710239152993e-02
2.755999999999999872e+01,4.278908165091572374e-02
2.760000000000000142e+01,2.873019160703872005e-02
2.764000000000000057e+01,3.819903091801038486e-02
2.767999999999999972e+01,4.336382963862024653e-02
2.771999999999999886e+01,8.789293238974359504e-03
2.776000000000000156e+01,1.854457962391774586e-02
2.780000000000000071e+01,4.537176976029138470e-02
2.783999999999999986e+01,2.428224714754577754e-02
2.787999999999999901e+01,2.815507690552023976e-02
2.792000000000000171e+01,3.360583365740391071e-02
2.796000000000000085e+01,4.106490487652592059e-02
2.800000000000000000e+01,4.178106344339020672e-02
2.803999999999999915e+01,5.555216511306629301e-02
2.807999999999999829e+01,3.159240345828092517e-02
2.812000000000000099e+01,4.278084359887335264e-02
2.816000000000000014e+01,4.148785912385420660e-02
2.819999999999999929e+01,5.353674036483425935e-02
2.823999999999999844e+01,5.052186646455141678e-02
2.828000000000000114e+01,5.037607771390750777e-02
2.832000000000000028e+01,6.228098799501798066e-02
2.835999999999999943e+01,6.844721832357483771e-02
2.839999999999999858e+01,5.625004792373396179e-02
2.844000000000000128e+01,6.958907085673046722e-02
2.848000000000000043e+01,5.796540615131708096e-02
2.851999999999999957e+01,3.672956499416361181e-02
2.855999999999999872e+01,5.092884327060835659e-02
2.860000000000000142e+01,3.299229537586991640e-02
2.864000000000000057e+01,5.508167278972304209e-02
2.867999999999999972e+01,4.876525353930889067e-02
2.871999999999999886e+01,6.224651352624952644e-02
2.876000000000000156e+01,4.387886995519431343e-02
2.880000000000000071e+01,3.383188595904330215e-02
2.883999999999999986e+01,4.444335543619572226e-02
2.887999999999999901e+01,5.017691208964712712e-02
2.892000000000000171e+01,3.338663966310233266e-02
2.896000000000000085e+01,3.452902674548726653e-02
2.900000000000000000e+01,4.973057896974402564e-02
2.903999999999999915e+01,4.054328451770838893e-02
2.907999999999999829e+01,2.518690913630774672e-02
2.912000000000000099e+01,5.760343784767995440e-02
2.916000000000000014e+01,4.023821489234895299e-02
2.919999999999999929e+01,3.707561625335498851e-02
2.923999999999999844e+01,4.022519117927925159e-02
2.928000000000000114e+01,3.060639613369778994e-02
2.932000000000000028e+01,2.686938504757674373e-02
2.935999999999999943e+01,3.833923453104463169e-02
2.939999999999999858e+01,3.201951643042663664e-02
2.944000000000000128e+01,2.153918919623799486e-02
2.948000000000000043e+01,1.694064307867153979e-02
2.951999999999999957e+01,2.138005738330129094e-02
2.955999999999999872e+01,2.911892227890190005e-02
2.960000000000000142e+01,4.087455069482831549e-02
2.964000000000000057e+01,4.057911638292716061e-02
2.967999999999999972e+01,2.780223044845006597e-02
2.971999999999999886e+01,3.869649963993618269e-02
2.976000000000000156e+01,3.380967304313071964e-02
2.980000000000000071e+01,3.408730823720633463e-02
2.983999999999999986e+01,2.360504170202234325e-02
2.987999999999999901e+01,2.000878827245489155e-02
2.992000000000000171e+01,1.756003811727881170e-02
2.996000000000000085e+01,2.013228418213247953e-02
3.000000000000000000e+01,1.165770021886242645e-02
3.003999999999999915e+01,2.699772842389190283e-02
3.007999999999999829e+01,2.684358061097888437e-02
3.012000000000000099e+01,1.650337700589082218e-02
3.016000000000000014e+01,3.327742618126991458e-02
3.019999999999999929e+01,1.777215802906942019e-02
3.023999999999999844e+01,1.890836209097591578e-02
3.028000000000000114e+01,1.774895755857806498e-02
3.032000000000000028e+01,2.476672286610732965e-02
3.035999999999999943e+01,2.331998085335871065e-02
3.039999999999999858e+01,2.086879266629304910e-02
3.044000000000000128e+01,5.155728686126885563e-02
3.048000000000000043e+01,2.113045042310691957e-02
3.051999999999999957e+01,1.566591944883242993e-02
3.055999999999999872e+01,1.680046404208584282e-02
3.060000000000000142e+01,1.779133527555151750e-02
3.064000000000000057e+01,2.107739881473919691e-02
3.067999999999999972e+01,2.694557940496497550e-02
3.071999999999999886e+01,2.578387355865547487e-02
3.076000000000000156e+01,2.792159698202942991e-02
3.080000000000000071e+01,1.097856339436611463e-02
3.083999999999999986e+01,3.647317687534247597e-03
3.087999999999999901e+01,3.433347929737676912e-02
3.092000000000000171e+01,1.409015614519141396e-02
3.096000000000000085e+01,7.475575126069703216e-03
3.100000000000000000e+01,0.000000000000000000e+00
3.103999999999999915e+01,1.045704742596157907e-02
3.107999999999999829e+01,2.823047482029086147e-02
3.112000000000000099e+01,2.104116766937763269e-02
3.116000000000000014e+01,1.528626721688434824e-02
3.119999999999999929e+01,2.344703008922304974e-02
3.123999999999999844e+01,6.645056284190466178e-03
3.128000000000000114e+01,1.337074715943444708e-02
3.132000000000000028e+01,7.328031816983746755e-03
3.135999999999999943e+01,1.161440875620438871e-02
3.139999999999999858e+01,4.136617152401459059e-03
3.144000000000000128e+01,1.229603734532770144e-02
3.148000000000000043e+01,2.432872492721637261e-02
3.151999999999999957e+01,8.672879024521762750e-03
3.155999999999999872e+01,6.358839138221256300e-03
3.160000000000000142e+01,1.308272271721860371e-02
3.164000000000000057e+01,2.411025902637867896e-02
3.167999999999999972e+01,1.548317177683907787e-02
3.171999999999999886e+01,2.278021680508733257e-02
3.176000000000000156e+01,2.878586603886684400e-02
3.180000000000000071e+01,3.220895421535204667e-02
3.183999999999999986e+01,1.698165508638940432e-02
3.187999999999999901e+01,1.653078356827312329e-02
3.192000000000000171e+01,8.906541564321251644e-03
3.196000000000000085e+01,2.308839942242827195e-02
3.200000000000000000e+01,1.245096982769479041e-02
3.203999999999999915e+01,3.452280600258078591e-02
3.207999999999999829e+01,1.685522958986646405e-02
3.211999999999999744e+01,2.874073750906881719e-02
3.215999999999999659e+01,3.216170612606199936e-02
3.220000000000000284e+01,7.607203720383206962e-03
3.224000000000000199e+01,2.609127994770414627e-02
3.228000000000000114e+01,1.703027191497258688e-02
3.232000000000000028e+01,2.045028002707572137e-02
3.235999999999999943e+01,2.688276352445310297e-02
3.239999999999999858e+01,3.761888624851111168e-02
3.243999999999999773e+01,3.372156739083859156e-02
3.247999999999999687e+01,3.957947000291746342e-02
3.252000000000000313e+01,4.213748512486502340e-02
3.256000000000000227e+01,5.387686938309316914e-02
3.260000000000000142e+01,6.776794839426082684e-02
3.264000000000000057e+01,8.208916871150351291e-02
3.267999999999999972e+01,9.813169417622774615e-02
3.271999999999999886e+01,1.438707560402378016e-01
3.275999999999999801e+01,1.855926125097946133e-01
3.279999999999999716e+01,2.409431784197741677e-01
3.284000000000000341e+01,3.115005430676087150e-01
3.288000000000000256e+01,4.197883540406127656e-01
3.292000000000000171e+01,5.121515503512550360e-01
3.296000000000000085e+01,5.614756756943898308e-01
3.300000000000000000e+01,5.805289121524545015e-01
3.303999999999999915e+01,5.211077824024081817e-01
3.307999999999999829e+01,4.357196441862593583e-01
3.311999999999999744e+01,3.659686879170371276e-01
3.315999999999999659e+01,3.002344319149877205e-01
3.320000000000000284e+01,2.220186617479190105e-01
3.324000000000000199e+01,1.516930840829520677e-01
3.328000000000000114e+01,1.159417656197749419e-01
3.332000000000000028e+01,1.093131219831884188e-01
3.335999999999999943e+01,1.061273241481751894e-01
3.339999999999999858e+01,8.615612675420795952e-02
3.343999999999999773e+01,7.177971466058821748e-02
3.347999999999999687e+01,5.525109984391032847e-02
3.352000000000000313e+01,3.657028159346459306e-02
3.356000000000000227e+01,2.520579924739232633e-02
3.360000000000000142e+01,3.665162672037621666e-02
3.364000000000000057e+01,2.758201944181343929e-02
3.367999999999999972e+01,5.351705244198348005e-02
3.371999999999999886e+01,4.789001921219496194e-02
3.375999999999999801e+01,5.431358835765746906e-02
3.379999999999999716e+01,3.577437534033528488e-02
3.384000000000000341e+01,3.373310784524453931e-02
3.388000000000000256e+01,4.775939697763699476e-02
3.392000000000000171e+01,3.667943908710310369e-02
3.396000000000000085e+01,3.851085638634963587e-02
3.400000000000000000e+01,3.933776354741652659e-02
3.403999999999999915e+01,1.591919792150562132e-02
3.407999999999999829e+01,1.990174088254851106e-02
3.411999999999999744e+01,2.761404159770833311e-02
3.415999999999999659e+01,6.490060097349184022e-03
3.420000000000000284e+01,1.420181233194385030e-02
3.424000000000000199e+01,1.789633287583064850e-02
3.428000000000000114e+01,2.044287557855778772e-02
3.432000000000000028e+01,1.165558604050035384e-02
3.435999999999999943e+01,4.015720888070382390e-03
3.439999999999999858e+01,1.488226950011813272e-02
3.443999999999999773e+01,1.771462648354909380e-02
3.447999999999999687e+01,1.007392475143450115e-02
3.452000000000000313e+01,6.736824578392625225e-03
3.456000000000000227e+01,5.264458877494765723e-03
3.460000000000000142e+01,6.356314575800410234e-04
3.464000000000000057e+01,1.838670719423362090e-02
3.467999999999999972e+01,8.879581484285440848e-03
3.471999999999999886e+01,3.532591051849181922e-03
3.475999999999999801e+01,1.827009799564618953e-02
3.479999999999999716e+01,1.320946321738299990e-02
3.484000000000000341e+01,1.288281249655459301e-02
3.488000000000000256e+01,1.399050237815475592e-02
3.492000000000000171e+01,1.524136759935791792e-02
3.496000000000000085e+01,1.821349745759634833e-02
3.500000000000000000e+01,7.986767528819714232e-03
3.503999999999999915e+01,4.072108112071670151e-03
3.507999999999999829e+01,1.435996853735168471e-02
3.511999999999999744e+01,2.952527077311222284e-02
3.515999999999999659e+01,2.374472306632315066e-02
3.520000000000000284e+01,3.617610194867993106e-03
3.524000000000000199e+01,7.591942555492077645e-03
3.528000000000000114e+01,1.228329477138447902e-02
3.532000000000000028e+01,2.027399523606762677e-02
3.535999999999999943e+01,3.342905870299960058e-02
3.539999999999999858e+01,4.615343806896805151e-02
3.543999999999999773e+01,1.001947864750147299e-01
3.547999999999999687e+01,1.317121892446934117e-01
3.552000000000000313e+01,1.336759719946628011e-01
3.556000000000000227e+01,1.253101395679407370e-01
3.560000000000000142e+01,1.015934957733664740e-01
3.564000000000000057e+01,7.830693998164846292e-02
3.567999999999999972e+01,5.918050241041234588e-02
3.571999999999999886e+01,5.325233421376068810e-02
3.575999999999999801e+01,5.263198464027485368e-02
3.579999999999999716e+01,4.096470198577566862e-02
3.584000000000000341e+01,4.794727023822204642e-02
3.588000000000000256e+01,3.886170850778469799e-02
3.592000000000000171e+01,1.872921156420518513e-02
3.596000000000000085e+01,3.618364349314420747e-02
3.600000000000000000e+01,4.029573513931565543e-02
3.603999999999999915e+01,3.709092036855135555e-02
3.607999999999999829e+01,3.833314216719890810e-02
3.611999999999999744e+01,3.814042797602011647e-02
3.615999999999999659e+01,3.479122434815071219e-02
3.620000000000000284e+01,3.646290606961598985e-02
3.624000000000000199e+01,3.397385783688121330e-02
3.628000000000000114e+01,1.685129979429572308e-02
3.632000000000000028e+01,3.014252782719799295e-02
3.635999999999999943e+01,2.793946826075297679e-02
3.639999999999999858e+01,2.946612593797868010e-02
3.643999999999999773e+01,4.404757746900345161e-02
3.647999999999999687e+01,2.233264370668295445e-02
3.652000000000000313e+01,3.777424068290815423e-02
3.656000000000000227e+01,3.069187283360650872e-02
3.660000000000000142e+01,4.512859694802619920e-02
3.664000000000000057e+01,2.369932111030097557e-02
3.667999999999999972e+01,2.751916674321309292e-02
3.671999999999999886e+01,4.381995034290558227e-02
3.675999999999999801e+01,5.208650109282544904e-02
3.679999999999999716e+01,5.404037101841766694e-02
3.684000000000000341e+01,9.071189962065978607e-02
3.688000000000000256e+01,1.057202340797757101e-01
3.692000000000000171e+01,9.590919366877227736e-02
3.696000000000000085e+01,1.113472697534391431e-01
3.700000000000000000e+01,8.159426216873690019e-02
3.703999999999999915e+01,7.866845966642746490e-02
3.707999999999999829e+01,6.283068587623040491e-02
3.711999999999999744e+01,6.707736753040118016e-02
3.715999999999999659e+01,7.993148567719880748e-02
3.720000000000000284e+01,8.403404951635386200e-02
3.724000000000000199e+01,1.238585040211531707e-01
3.728000000000000114e+01,2.346966795720584475e-01
3.732000000000000028e+01,3.451041369079401178e-01
3.735999999999999943e+01,3.477707547644456887e-01
3.739999999999999858e+01,3.084024618607698609e-01
3.743999999999999773e+01,3.122161179258607366e-01
3.747999999999999687e+01,3.016831683158392452e-01
3.752000000000000313e+01,3.136735334193087588e-01
3.756000000000000227e+01,4.321129084131015152e-01
3.760000000000000142e+01,5.506954111289550369e-01
3.764000000000000057e+01,7.430174203267732036e-01
3.767999999999999972e+01,8.940218274295075318e-01
3.771999999999999886e+01,9.144748149024295447e-01
3.775999999999999801e+01,8.313473749012535441e-01
3.779999999999999716e+01,7.377468171956365062e-01
3.784000000000000341e+01,6.277911692263403731e-01
3.788000000000000256e+01,4.925857411458560708e-01
3.792000000000000171e+01,4.065876880821649442e-01
3.796000000000000085e+01,3.614761710998095623e-01
3.800000000000000000e+01,3.291324947975537984e-01
3.803999999999999915e+01,4.428335327886641082e-01
3.807999999999999829e+01,6.291263676198305399e-01
3.811999999999999744e+01,7.022267658036488447e-01
3.815999999999999659e+01,7.645671144306142031e-01
3.820000000000000284e+01,9.309175952003301280e-01
3.824000000000000199e+01,1.000000000000000000e+00
3.828000000000000114e+01,8.897536476955406615e-01
3.832000000000000028e+01,8.622849416557949453e-01
3.835999999999999943e+01,8.373982162108474236e-01
3.839999999999999858e+01,7.803754904708682938e-01
3.843999999999999773e+01,6.527687526176932931e-01
3.847999999999999687e+01,5.331955768916774030e-01
3.852000000000000313e+01,4.048708234046023979e-01
3.856000000000000227e+01,2.937612452160925369e-01
3.860000000000000142e+01,2.043141861838376205e-01
3.864000000000000057e+01,1.673741321198998488e-01
3.867999999999999972e+01,1.457842357582306014e-01
3.871999999999999886e+01,1.316540463474113465e-01
3.875999999999999801e+01,1.578365278916845915e-01
3.879999999999999716e+01,1.923394913334660616e-01
3.884000000000000341e+01,2.272724859213370585e-01
3.888000000000000256e+01,3.346538004070596095e-01
3.892000000000000171e+01,3.895273979806954112e-01
3.896000000000000085e+01,3.416813231270230955e-01
3.900000000000000000e+01,2.972779938648726361e-01
3.903999999999999915e+01,2.600474404118696126e-01
3.907999999999999829e+01,1.703091672039416526e-01
3.911999999999999744e+01,1.109846303218304797e-01
3.915999999999999659e+01,9.613317640008987863e-02
3.920000000000000284e+01,9.950112550165110537e-02
3.924000000000000199e+01,9.856482861778061155e-02
3.928000000000000114e+01,1.017885859905293955e-01
3.932000000000000028e+01,8.750952497924123497e-02
3.935999999999999943e+01,8.427672774777202058e-02
3.939999999999999858e+01,6.870576891931076680e-02
3.943999999999999773e+01,8.641779529124747616e-02
3.947999999999999687e+01,7.888001312361274386e-02
3.952000000000000313e+01,7.880192369263633312e-02
3.956000000000000227e+01,6.982877529413894502e-02
3.960000000000000142e+01,7.046725913107407258e-02
3.964000000000000057e+01,7.842197084452579015e-02
3.967999999999999972e+01,8.365051876288220889e-02
3.971999999999999886e+01,7.467588393440233174e-02
3.975999999999999801e+01,8.607258309948348507e-02
3.979999999999999716e+01,9.015230904092801090e-02
3.984000000000000341e+01,8.390234375975556824e-02
3.988000000000000256e+01,7.593045022603008010e-02
3.992000000000000171e+01,9.464224787559452623e-02
3.996000000000000085e+01,8.767384027303383454e-02
4.000000000000000000e+01,9.619902964733839656e-02
4.003999999999999915e+01,1.063019306705480366e-01
4.007999999999999829e+01,1.106659435032957689e-01
4.011999999999999744e+01,1.335362684690507562e-01
4.015999999999999659e+01,1.374691328457385009e-01
4.020000000000000284e+01,1.607690843020916083e-01
4.024000000000000199e+01,2.139089012723416616e-01
4.028000000000000114e+01,2.169798435425982774e-01
4.032000000000000028e+01,2.064214433174265118e-01
4.035999999999999943e+01,2.026054072639472126e-01
4.039999999999999858e+01,1.653621708278412705e-01
4.043999999999999773e+01,1.341439835019442861e-01
4.047999999999999687e+01,1.126808755038817556e-01
4.052000000000000313e+01,1.061375043314083250e-01
4.056000000000000227e+01,8.022627727873325731e-02
4.060000000000000142e+01,7.396905565465346222e-02
4.064000000000000057e+01,7.875807506768585375e-02
4.067999999999999972e+01,7.221314923710980826e-02
4.071999999999999886e+01,6.810669934145334448e-02
4.075999999999999801e+01,7.389878652667718206e-02
4.079999999999999716e+01,7.739507820097595026e-02
4.084000000000000341e+01,6.597085358850564296e-02
4.088000000000000256e+01,5.296814568375558807e-02
4.092000000000000171e+01,6.162791571410462105e-02
4.096000000000000085e+01,5.264137549331089627e-02
4.100000000000000000e+01,6.216113176991344691e-02
4.103999999999999915e+01,6.077732459055995573e-02
4.107999999999999829e+01,4.863341597255377985e-02
4.111999999999999744e+01,6.173854993642099998e-02
4.115999999999999659e+01,5.590620554348156579e-02
4.120000000000000284e+01,4.749113307649541899e-02
4.124000000000000199e+01,5.327847100226135169e-02
4.128000000000000114e+01,5.002725667198127529e-02
4.132000000000000028e+01,7.518126138631042732e-02
4.135999999999999943e+01,5.944798680431245819e-02
4.139999999999999858e+01,4.012774149862968764e-02
4.143999999999999773e+01,5.107772856959488794e-02
4.147999999999999687e+01,5.628880257526271830e-02
4.152000000000000313e+01,7.268956471044484002e-02
4.156000000000000227e+01,7.359594685403374192e-02
4.160000000000000142e+01,6.689839833602889696e-02
4.164000000000000057e+01,6.579548942290681934e-02
4.167999999999999972e+01,6.469217301145512022e-02
4.171999999999999886e+01,6.114958201474503252e-02
4.175999999999999801e+01,5.445040208200252474e-02
4.179999999999999716e+01,5.607165074354934081e-02
4.184000000000000341e+01,3.072149619750453448e-02
4.188000000000000256e+01,3.779350713049571542e-02
4.192000000000000171e+01,3.984391082044853177e-02
4.196000000000000085e+01,3.715963201267918903e-02
4.200000000000000000e+01,3.246646182872307829e-02
4.203999999999999915e+01,3.537640233473431095e-02
4.207999999999999829e+01,2.580467089819852081e-02
4.211999999999999744e+01,2.584452692239137123e-02
4.215999999999999659e+01,4.711645066564755513e-02
4.220000000000000284e+01,3.725654569255201082e-02
4.224000000000000199e+01,3.442589694382436338e-02
4.228000000000000114e+01,2.556939545958183957e-02
4.232000000000000028e+01,2.618101515450719716e-02
4.235999999999999943e+01,3.712153168596819819e-02
4.239999999999999858e+01,2.338603870810963478e-02
4.243999999999999773e+01,2.916105573819263025e-02
4.247999999999999687e+01,3.852221925607657305e-02
4.252000000000000313e+01,3.382361300546625482e-02
4.256000000000000227e+01,2.352953722841269815e-02
4.260000000000000142e+01,2.987671405620444254e-02
4.264000000000000057e+01,2.101641715927002677e-02
4.267999999999999972e+01,2.908429690178761240e-02
4.271999999999999886e+01,3.342171973919116218e-02
4.275999999999999801e+01,3.359829677673246973e-02
4.279999999999999716e+01,2.244089090305731449e-02
4.284000000000000341e+01,1.472616239278397299e-02
4.288000000000000256e+01,3.010850427296900972e-02
4.292000000000000171e+01,2.770103834922876471e-02
4.296000000000000085e+01,2.974048675285182256e-02
4.300000000000000000e+01,3.292720602883206921e-02
4.303999999999999915e+01,2.076298174497740248e-02
4.307999999999999829e+01,3.528239249835553315e-02
4.311999999999999744e+01,3.215545462227331619e-02
4.315999999999999659e+01,4.868247668937296380e-02
4.320000000000000284e+01,5.244088145803142698e-02
4.324000000000000199e+01,4.371759367356489734e-02
4.328000000000000114e+01,5.005745640373900074e-02
4.332000000000000028e+01,5.209300065610370650e-02
4.335999999999999943e+01,6.632243944143205450e-02
4.339999999999999858e+01,4.741154999694071476e-02
4.343999999999999773e+01,4.829807824867704547e-02
4.347999999999999687e+01,5.678769160483568279e-02
4.352000000000000313e+01,7.288038935470707302e-02
4.356000000000000227e+01,8.079527070616354667e-02
4.360000000000000142e+01,9.287012955760420851e-02
4.364000000000000057e+01,9.547600603709469058e-02
4.367999999999999972e+01,1.095584577238077062e-01
4.371999999999999886e+01,1.704093149982049138e-01
4.375999999999999801e+01,1.876470585014550496e-01
4.379999999999999716e+01,2.206652569201857095e-01
4.384000000000000341e+01,2.486618139818179418e-01
4.388000000000000256e+01,2.410791679088962469e-01
4.392000000000000171e+01,2.385172700183594563e-01
4.396000000000000085e+01,2.112793349008293964e-01
4.400000000000000000e+01,1.715596937266921085e-01
4.403999999999999915e+01,1.710049278698792252e-01
4.407999999999999829e+01,1.354448062370160466e-01
4.411999999999999744e+01,1.026100255847835624e-01
4.415999999999999659e+01,8.885533619594179755e-02
4.420000000000000284e+01,8.313410730278850136e-02
4.424000000000000199e+01,6.679618355293817644e-02
4.428000000000000114e+01,7.054258803044007042e-02
4.432000000000000028e+01,5.492106982103939217e-02
4.435999999999999943e+01,3.528214011140597128e-02
4.439999999999999858e+01,3.902717924129249505e-02
4.443999999999999773e+01,5.008836096254552089e-02
4.447999999999999687e+01,3.116537528110371880e-02
4.452000000000000313e+01,2.974438445852450874e-02
4.456000000000000227e+01,3.248335407889948317e-02
4.460000000000000142e+01,2.661410063837164192e-02
4.464000000000000057e+01,2.963907624380424446e-02
4.467999999999999972e+01,2.864663466332738329e-02
4.471999999999999886e+01,2.048059516994791412e-02
4.475999999999999801e+01,2.709075443892863116e-02
4.479999999999999716e+01,2.925310620583248394e-02
4.484000000000000341e+01,3.543195071271051239e-02
4.488000000000000256e+01,2.296017622281626772e-02
4.492000000000000171e+01,3.889355681366857276e-02
4.496000000000000085e+01,3.043780786581378600e-02
4.500000000000000000e+01,1.896887514246310344e-02
4.503999999999999915e+01,1.424222343778362883e-02
4.507999999999999829e+01,2.759140755408417620e-02
4.511999999999999744e+01,1.224757744845251552e-02
4.515999999999999659e+01,2.172232995898765520e-02
4.520000000000000284e+01,2.029344509976994254e-02
4.524000000000000199e+01,2.661107680176575188e-02
4.528000000000000114e+01,1.456500785591915981e-02
4.532000000000000028e+01,1.112623041794432062e-02
4.535999999999999943e+01,2.719791110611131588e-02
4.539999999999999858e+01,1.758928988564972817e-02
4.543999999999999773e+01,1.816604804907286791e-02
4.547999999999999687e+01,1.730770391662697291e-02
4.552000000000000313e+01,2.118315408215676668e-02
4.556000000000000227e+01,3.036624874700419655e-02
4.560000000000000142e+01,2.348104072653889665e-02
4.564000000000000057e+01,1.386956301525014805e-02
4.567999999999999972e+01,2.850280776885201831e-02
4.571999999999999886e+01,1.817305856821310045e-02
4.575999999999999801e+01,7.986292104879827783e-03
4.579999999999999716e+01,1.487110957366383213e-02
4.584000000000000341e+01,2.103813199025696482e-02
4.588000000000000256e+01,2.921315047619462216e-02
4.592000000000000171e+01,1.644212783870448169e-02
4.596000000000000085e+01,1.801689445824834063e-02
4.600000000000000000e+01,1.514383225442786363e-02
4.603999999999999915e+01,1.542646510121662221e-02
4.607999999999999829e+01,1.972556865598247208e-02
4.611999999999999744e+01,2.258955854352590401e-02
4.615999999999999659e+01,3.320004864596236976e-02
4.620000000000000284e+01,2.200371628192664478e-02
4.624000000000000199e+01,3.089167732047349083e-02
4.628000000000000114e+01,4.594804643364287094e-02
4.632000000000000028e+01,5.913891014200324536e-02
4.635999999999999943e+01,4.263249850034401406e-02
4.639999999999999858e+01,3.903724101778446864e-02
4.643999999999999773e+01,3.673265601457073593e-02
4.647999999999999687e+01,3.399719004383860294e-02
4.652000000000000313e+01,2.652696055449167700e-02
4.656000000000000227e+01,2.881170236512246158e-02
4.660000000000000142e+01,2.664860469174511540e-02
4.664000000000000057e+01,2.477193684807543761e-02
4.667999999999999972e+01,2.762904269180351674e-02
4.671999999999999886e+01,2.345597781516267286e-02
4.675999999999999801e+01,1.899548972404914438e-02
4.679999999999999716e+01,2.916770142109411518e-02
4.684000000000000341e+01,1.337266016793974346e-02
4.688000000000000256e+01,2.583927644274940441e-02
4.692000000000000171e+01,3.141918117165504870e-02
4.696000000000000085e+01,1.691380266676112756e-02
4.700000000000000000e+01,2.378386861308366337e-02
4.703999999999999915e+01,1.917641358496099957e-02
4.707999999999999829e+01,1.485538056874052999e-02
4.711999999999999744e+01,2.330202619083433790e-02
4.715999999999999659e+01,2.514888145879241518e-02
4.720000000000000284e+01,3.086872480684631909e-02
4.724000000000000199e+01,2.970185092331957544e-02
4.728000000000000114e+01,2.781715640205687998e-02
4.732000000000000028e+01,2.994891055677417410e-02
4.735999999999999943e+01,2.820666263605273172e-02
4.739999999999999858e+01,2.302080011322173159e-02
4.743999999999999773e+01,2.027329412610009290e-02
4.747999999999999687e+01,3.502773040533184445e-02
4.752000000000000313e+01,2.309758801223682489e-02
4.756000000000000227e+01,1.891392095919940813e-02
4.760000000000000142e+01,1.889016033518773827e-02
4.764000000000000057e+01,2.202206633340197603e-02
4.767999999999999972e+01,2.529692095486181166e-02
4.771999999999999886e+01,2.842779803283187676e-02
4.775999999999999801e+01,3.270586140871861724e-02
4.779999999999999716e+01,1.775940299398185568e-02
4.784000000000000341e+01,1.988449226517357074e-02
4.788000000000000256e+01,2.301330297414030251e-02
4.792000000000000171e+01,2.786314805023691610e-02
4.796000000000000085e+01,3.041707039839292026e-02
4.800000000000000000e+01,1.905458833885445569e-02
4.803999999999999915e+01,2.992830862016067350e-02
4.807999999999999829e+01,2.301212941600518092e-02
4.811999999999999744e+01,2.441626651402468984e-02
4.815999999999999659e+01,3.213224101132908933e-02
4.820000000000000284e+01,2.521449390732669049e-02
4.824000000000000199e+01,1.800929729259704778e-02
4.828000000000000114e+01,3.088835783426116186e-02
4.832000000000000028e+01,2.468635007409006668e-02
4.835999999999999943e+01,2.465271343164306475e-02
4.839999999999999858e+01,1.543693529883120169e-02
4.843999999999999773e+01,1.640648324668526892e-02
4.847999999999999687e+01,2.311401199609600110e-02
4.852000000000000313e+01,3.613337174840541843e-02
4.856000000000000227e+01,1.357344521313956671e-02
4.860000000000000142e+01,2.114016110949323152e-02
4.864000000000000057e+01,2.368515036359836873e-02
4.867999999999999972e+01,3.082041504160913312e-02
4.871999999999999886e+01,1.614881247844388371e-02
4.875999999999999801e+01,1.524909851059019598e-02
4.879999999999999716e+01,3.299900517977674003e-02
4.884000000000000341e+01,2.449469790725888538e-02
4.888000000000000256e+01,3.019266528196248162e-02
4.892000000000000171e+01,2.455654100688324168e-02
4.896000000000000085e+01,2.164567171657496777e-02
4.900000000000000000e+01,3.308053766937227996e-02
4.903999999999999915e+01,2.514739707153604634e-02
4.907999999999999829e+01,2.424339116672875882e-02
4.911999999999999744e+01,2.549078649180253411e-02
4.915999999999999659e+01,2.157298320739027900e-02
4.920000000000000284e+01,2.540162612394269992e-02
4.924000000000000199e+01,1.832655988907428216e-02
4.928000000000000114e+01,1.727638569759663151e-02
4.932000000000000028e+01,2.870692559938033128e-02
4.935999999999999943e+01,2.378217055312452019e-02
4.939999999999999858e+01,2.459537996210496569e-02
4.943999999999999773e+01,2.497765581105775012e-02
4.947999999999999687e+01,2.492899738927325040e-02
4.952000000000000313e+01,3.305716766681544155e-02
4.956000000000000227e+01,2.913392128315695981e-02
4.960000000000000142e+01,2.492320122464534299e-02
4.964000000000000057e+01,2.286387315679021259e-02
4.967999999999999972e+01,2.123438363272722729e-02
4.971999999999999886e+01,3.194213836681684265e-02
4.975999999999999801e+01,3.576313109462198742e-02
4.979999999999999716e+01,1.576875919991182692e-02
4.984000000000000341e+01,3.651724957777809089e-02
4.988000000000000256e+01,3.086804480747782145e-02
4.992000000000000171e+01,3.655184164569200839e-02
4.996000000000000085e+01,3.319693200388041526e-02
5.000000000000000000e+01,3.443227433255816733e-02
5.003999999999999915e+01,2.935470059203594204e-02
5.007999999999999829e+01,2.571119738430025642e-02
5.011999999999999744e+01,2.507985400678337112e-02
5.015999999999999659e+01,3.377302978134292394e-02
5.020000000000000284e+01,2.998438933930978878e-02
5.024000000000000199e+01,3.193369842761165783e-02
5.028000000000000114e+01,2.326620534206925647e-02
5.032000000000000028e+01,2.105397400550713602e-02
5.035999999999999943e+01,2.472315279516410294e-02
5.039999999999999858e+01,2.781791823975046998e-02
5.043999999999999773e+01,2.474322323605392115e-02
5.047999999999999687e+01,3.127996715478290751e-02
5.052000000000000313e+01,2.676951645137145772e-02
5.056000000000000227e+01,3.330513052909531146e-02
5.060000000000000142e+01,2.635468218704037358e-02
5.064000000000000057e+01,3.188492448483051800e-02
5.067999999999999972e+01,1.948175837302306909e-02
5.071999999999999886e+01,1.769426601547391398e-02
5.075999999999999801e+01,3.183056763795042571e-02
5.079999999999999716e+01,3.075925055094556188e-02
5.084000000000000341e+01,2.853966138901313163e-02
5.088000000000000256e+01,1.828558849682470830e-02
5.092000000000000171e+01,3.227614496657132959e-02
5.096000000000000085e+01,2.474671985143106490e-02
5.100000000000000000e+01,1.750364709865373167e-02
5.103999999999999915e+01,4.139141252030153345e-02
5.107999999999999829e+01,3.142139961582494229e-02
5.111999999999999744e+01,3.005857516633030774e-02
5.115999999999999659e+01,2.726054750020564729e-02
5.120000000000000284e+01,1.284146221782601384e-02
5.124000000000000199e+01,2.065852241952430626e-02
5.128000000000000114e+01,2.445804816823177186e-02
5.132000000000000028e+01,3.198702606593491898e-02
5.135999999999999943e+01,3.320306444102179982e-02
5.139999999999999858e+01,2.222419073425424899e-02
5.143999999999999773e+01,2.846026347756546587e-02
5.147999999999999687e+01,3.125264912638951037e-02
5.152000000000000313e+01,2.787555513777182498e-02
5.156000000000000227e+01,3.396641815440797768e-02
5.160000000000000142e+01,2.441926006333242430e-02
5.164000000000000057e+01,3.108280577269745965e-02
5.167999999999999972e+01,2.655567352133123352e-02
5.171999999999999886e+01,2.934455451218719382e-02
5.175999999999999801e+01,2.825935524955015821e-02
5.179999999999999716e+01,3.420324235169033833e-02
5.184000000000000341e+01,3.340379321866059070e-02
5.188000000000000256e+01,2.801294805994462150e-02
5.192000000000000171e+01,2.549076802150325102e-02
5.196000000000000085e+01,3.329731424929723016e-02
5.200000000000000000e+01,2.948278864664465038e-02
5.203999999999999915e+01,2.523728328784139233e-02
5.207999999999999829e+01,2.902509841493847512e-02
5.211999999999999744e+01,2.865190143613059043e-02
5.215999999999999659e+01,3.172121622539133406e-02
5.220000000000000284e+01,3.765919115995956801e-02
5.224000000000000199e+01,2.838952179950145899e-02
5.228000000000000114e+01,3.533054486813055201e-02
5.232000000000000028e+01,3.667592499717779730e-02
5.235999999999999943e+01,2.912601873163711205e-02
5.239999999999999858e+01,3.663910093895183379e-02
5.243999999999999773e+01,3.870000080256880831e-02
5.247999999999999687e+01,3.358716487562380532e-02
5.252000000000000313e+01,3.492955160863193964e-02
5.256000000000000227e+01,3.311515751401985369e-02
5.260000000000000142e+01,3.689520828986435352e-02
5.264000000000000057e+01,3.307113224826990772e-02
5.267999999999999972e+01,3.053761781532611519e-02
5.271999999999999886e+01,3.618087522494222580e-02
5.275999999999999801e+01,3.436346641300346699e-02
5.279999999999999716e+01,4.043590256617971002e-02
5.284000000000000341e+01,2.986605648355681458e-02
5.288000000000000256e+01,3.148993578501643742e-02
5.292000000000000171e+01,2.665738511817312625e-02
5.296000000000000085e+01,2.928428838956772737e-02
5.300000000000000000e+01,3.664485305624575612e-02
5.303999999999999915e+01,3.310164105409245383e-02
5.307999999999999829e+01,2.267160805675911758e-02
5.311999999999999744e+01,3.146496985188251827e-02
5.315999999999999659e+01,1.687329550892428809e-02
5.320000000000000284e+01,2.666967274546764785e-02
5.324000000000000199e+01,2.125838791924497193e-02
5.328000000000000114e+01,1.871574404917107637e-02
5.332000000000000028e+01,2.047636770466524161e-02
5.335999999999999943e+01,4.059960552028123171e-02
5.339999999999999858e+01,2.758233742868140478e-02
5.343999999999999773e+01,4.583932759694454157e-02
5.347999999999999687e+01,3.726817046913992459e-02
5.352000000000000313e+01,3.199603821726518249e-02
5.356000000000000227e+01,3.518758833907487810e-02
5.360000000000000142e+01,2.718842638609323195e-02
5.364000000000000057e+01,3.999073999448552602e-02
5.367999999999999972e+01,5.437052289981467168e-02
5.371999999999999886e+01,4.708681245328266707e-02
5.375999999999999801e+01,4.338904807444886325e-02
5.379999999999999716e+01,5.805389003793146735e-02
5.384000000000000341e+01,4.861637014120499811e-02
5.388000000000000256e+01,4.046939053184169660e-02
5.392000000000000171e+01,4.508996874016327205e-02
5.396000000000000085e+01,4.210639667762958865e-02
5.400000000000000000e+01,3.209252454558260415e-02
5.403999999999999915e+01,3.283772990691125743e-02
5.407999999999999829e+01,4.405508659488020090e-02
5.411999999999999744e+01,3.949091467242076686e-02
5.415999999999999659e+01,3.549996442229287619e-02
5.420000000000000284e+01,4.284193973475388523e-02
5.424000000000000199e+01,4.143205797728945899e-02
5.428000000000000114e+01,2.883145206297070551e-02
5.432000000000000028e+01,3.904078782014342580e-02
5.435999999999999943e+01,2.084387063749578231e-02
5.439999999999999858e+01,2.818268553716531816e-02
5.443999999999999773e+01,3.164737256579976121e-02
5.447999999999999687e+01,3.597220103711491063e-02
5.452000000000000313e+01,3.111477927949882205e-02
5.456000000000000227e+01,4.691535400892328511e-02
5.460000000000000142e+01,4.707785432741719983e-02
5.464000000000000057e+01,4.207505866921205928e-02
5.467999999999999972e+01,4.166243182847487181e-02
5.471999999999999886e+01,3.952761306192887486e-02
5.475999999999999801e+01,4.255681260348326972e-02
5.479999999999999716e+01,4.960232791832526467e-02
5.484000000000000341e+01,5.521257463125548576e-02
5.488000000000000256e+01,6.598683752015734039e-02
5.492000000000000171e+01,7.532583038572819578e-02
5.496000000000000085e+01,8.136453705309093509e-02
5.500000000000000000e+01,8.740259955583239149e-02
5.503999999999999915e+01,8.727111987868876875e-02
5.507999999999999829e+01,1.202788847864826594e-01
5.511999999999999744e+01,1.462563297248948568e-01
5.515999999999999659e+01,2.112549896753540546e-01
5.520000000000000284e+01,2.434000371926919593e-01
5.524000000000000199e+01,2.471388161345985657e-01
5.528000000000000114e+01,2.173066675819002314e-01
5.532000000000000028e+01,2.069848001886571420e-01
5.535999999999999943e+01,1.947972667702390914e-01
5.539999999999999858e+01,1.771574984156140675e-01
5.543999999999999773e+01,1.483269852935568400e-01
5.547999999999999687e+01,1.133269221738090055e-01
5.552000000000000313e+01,8.851205933913067203e-02
5.556000000000000227e+01,8.363786158368891055e-02
5.560000000000000142e+01,5.925207799322883967e-02
5.564000000000000057e+01,6.714475266969478773e-02
5.567999999999999972e+01,6.513784286658713674e-02
5.571999999999999886e+01,5.624406516146685658e-02
5.575999999999999801e+01,5.323160163677182616e-02
5.579999999999999716e+01,5.136618155736702440e-02
5.584000000000000341e+01,5.366052150081360161e-02
5.588000000000000256e+01,3.457825517010720134e-02
5.592000000000000171e+01,4.060130573071518006e-02
5.596000000000000085e+01,2.869085406806048608e-02
5.600000000000000000e+01,4.489843516357168440e-02
5.603999999999999915e+01,3.413436074958883099e-02
5.607999999999999829e+01,4.259362853555349188e-02
5.611999999999999744e+01,4.043599038407452717e-02
5.615999999999999659e+01,3.555189562515145146e-02
5.620000000000000284e+01,2.966289628422947092e-02
5.624000000000000199e+01,3.381562170759146169e-02
5.628000000000000114e+01,3.265955928714857348e-02
5.632000000000000028e+01,4.111483202553188609e-02
5.635999999999999943e+01,2.403307084887343695e-02
5.639999999999999858e+01,3.176969257898852594e-02
5.643999999999999773e+01,3.591907635861504161e-02
5.647999999999999687e+01,3.691160966108214536e-02
5.652000000000000313e+01,2.857839447112582240e-02
5.656000000000000227e+01,4.075967750471799073e-02
5.660000000000000142e+01,3.816362695997773530e-02
5.664000000000000057e+01,3.556690311152327366e-02
5.667999999999999972e+01,2.751792158415519718e-02
5.671999999999999886e+01,3.209298539678820394e-02
5.675999999999999801e+01,2.375572825241803465e-02
5.679999999999999716e+01,2.832944048265557610e-02
5.684000000000000341e+01,2.659011582306376742e-02
5.688000000000000256e+01,2.599781541960343584e-02
5.692000000000000171e+01,2.454406036938443572e-02
5.696000000000000085e+01,3.872706368317976877e-02
5.700000000000000000e+01,4.028466723174024128e-02
5.703999999999999915e+01,2.964725848839486200e-02
5.707999999999999829e+01,3.507699416097371375e-02
5.711999999999999744e+01,4.495339256972300662e-02
5.715999999999999659e+01,2.369769645673608718e-02
5.720000000000000284e+01,3.357272906889825076e-02
5.724000000000000199e+01,2.780964036329727773e-02
5.728000000000000114e+01,3.438366159173743969e-02
5.732000000000000028e+01,2.589341099304686908e-02
5.735999999999999943e+01,2.644062616268174487e-02
5.739999999999999858e+01,2.469175087691409878e-02
5.743999999999999773e+01,2.294218807324057210e-02
5.747999999999999687e+01,2.506543069729963782e-02
5.752000000000000313e+01,2.733144711004658473e-02
5.756000000000000227e+01,3.131832660891357978e-02
5.760000000000000142e+01,2.597943842619840349e-02
5.764000000000000057e+01,3.240380286908659674e-02
5.767999999999999972e+01,3.079356276108945190e-02
5.771999999999999886e+01,2.545259923188413625e-02
5.775999999999999801e+01,2.728407889974085454e-02
5.779999999999999716e+01,3.126680557349886813e-02
5.784000000000000341e+01,3.280997124603595577e-02
5.788000000000000256e+01,3.162664975061679762e-02
5.792000000000000171e+01,2.771684037653186772e-02
5.796000000000000085e+01,2.724943971762581324e-02
5.800000000000000000e+01,2.778558068696995037e-02
5.803999999999999915e+01,2.817756074975157066e-02
5.807999999999999829e+01,2.483881099493879044e-02
5.811999999999999744e+01,2.910288622484046364e-02
5.815999999999999659e+01,2.318040745514841558e-02
5.820000000000000284e+01,3.490314320965411110e-02
5.824000000000000199e+01,2.553615621416710849e-02
5.828000000000000114e+01,2.176351316837576641e-02
5.832000000000000028e+01,3.348414159446002486e-02
5.835999999999999943e+01,2.598006060259043515e-02
5.839999999999999858e+01,3.052614418886786044e-02
5.843999999999999773e+01,2.416835516052005112e-02
5.847999999999999687e+01,3.559923840941575657e-02
5.852000000000000313e+01,4.444708584701471954e-02
5.856000000000000227e+01,3.536138486522800300e-02
5.860000000000000142e+01,3.789545672400175536e-02
5.864000000000000057e+01,3.139066787876985259e-02
5.867999999999999972e+01,3.076714133216354105e-02
5.871999999999999886e+01,3.430332363731852102e-02
5.875999999999999801e+01,4.199921408352517288e-02
5.879999999999999716e+01,3.133116366204997255e-02
5.884000000000000341e+01,3.888216730547069261e-02
5.888000000000000256e+01,3.782469416466702206e-02
5.892000000000000171e+01,3.260608809732894880e-02
5.896000000000000085e+01,2.509136385691455168e-02
5.900000000000000000e+01,3.120488354214521684e-02
5.903999999999999915e+01,2.842299814428733695e-02
5.907999999999999829e+01,2.592732154545638809e-02
5.911999999999999744e+01,1.482316389814360667e-02
5.915999999999999659e+01,2.423345827825624729e-02
5.920000000000000284e+01,2.661336019660961658e-02
5.924000000000000199e+01,2.755791533499695259e-02
5.928000000000000114e+01,2.018091203808978010e-02
5.932000000000000028e+01,3.374874610980843626e-02
5.935999999999999943e+01,2.421835933948562197e-02
5.939999999999999858e+01,2.071268480302879827e-02
5.943999999999999773e+01,2.610097634998611096e-02
5.947999999999999687e+01,2.531964682829439955e-02
5.952000000000000313e+01,2.152487554352774599e-02
5.956000000000000227e+01,1.916400635337616593e-02
5.960000000000000142e+01,2.497978676373595330e-02
5.964000000000000057e+01,2.806904873491780639e-02
5.967999999999999972e+01,2.699716427608318467e-02
5.971999999999999886e+01,2.477684996479324539e-02
5.975999999999999801e+01,3.001586877111190807e-02
5.979999999999999716e+01,2.133827351040877215e-02
5.984000000000000341e+01,3.489667093122286040e-02
5.988000000000000256e+01,3.281690012744123419e-02
5.992000000000000171e+01,2.528481407726963087e-02
5.996000000000000085e+01,1.846930937455280516e-02
