2.003999999999999915e+01,1.757466271750264541e-02
2.007999999999999829e+01,1.281393509115924360e-02
2.012000000000000099e+01,2.453700753397935683e-02
2.016000000000000014e+01,7.578897623595044764e-03
2.019999999999999929e+01,1.715767780527334765e-02
2.023999999999999844e+01,2.030512858238784843e-02
2.028000000000000114e+01,1.376878013194270285e-02
2.032000000000000028e+01,1.425450196397780658e-02
2.035999999999999943e+01,1.599655189504103903e-02
2.039999999999999858e+01,1.618597875398197425e-02
2.044000000000000128e+01,8.022163503042866600e-03
2.048000000000000043e+01,9.689371158414419177e-03
2.051999999999999957e+01,1.697417481810283013e-02
2.055999999999999872e+01,1.819725027405292780e-02
2.060000000000000142e+01,1.491091309825895959e-02
2.064000000000000057e+01,1.576377729223903817e-02
2.067999999999999972e+01,1.336386561577519380e-02
2.071999999999999886e+01,1.429003836177437578e-02
2.076000000000000156e+01,1.262871379616939752e-02
2.080000000000000071e+01,1.207588097487333548e-02
2.083999999999999986e+01,1.477521367234064555e-02
2.087999999999999901e+01,1.119106116443482381e-02
2.092000000000000171e+01,1.573777992666190728e-02
2.096000000000000085e+01,1.540548979543113033e-02
2.100000000000000000e+01,1.632953241180412629e-02
2.103999999999999915e+01,1.762287076262638447e-02
2.107999999999999829e+01,2.046822154335455751e-02
2.112000000000000099e+01,1.836064481746111157e-02
2.116000000000000014e+01,1.935739638400385196e-02
2.119999999999999929e+01,1.717529563237793488e-02
2.123999999999999844e+01,1.462329431480579624e-02
2.128000000000000114e+01,1.517562216127768884e-02
2.132000000000000028e+01,1.631900710187338122e-02
2.135999999999999943e+01,2.330175347396403265e-02
2.139999999999999858e+01,1.771783751650842301e-02
2.144000000000000128e+01,2.307374806783996091e-02
2.148000000000000043e+01,9.210217093018604681e-03
2.151999999999999957e+01,7.247470287054449435e-03
2.155999999999999872e+01,5.875782318429883556e-03
2.160000000000000142e+01,1.374376718866292431e-02
2.164000000000000057e+01,2.360728720815079285e-02
2.167999999999999972e+01,1.683855928992954859e-02
2.171999999999999886e+01,2.115749946486239139e-02
2.176000000000000156e+01,1.276194037445767954e-02
2.180000000000000071e+01,1.471485220520356817e-02
2.183999999999999986e+01,9.423328724441709658e-03
2.187999999999999901e+01,2.305497068157706317e-02
2.192000000000000171e+01,1.554526015045923186e-02
2.196000000000000085e+01,1.712738552240774398e-02
2.200000000000000000e+01,1.316523157706592402e-02
2.203999999999999915e+01,1.008981905672549743e-02
2.207999999999999829e+01,1.677152128882726870e-02
2.212000000000000099e+01,1.753934619870889736e-02
2.216000000000000014e+01,1.971135183235264710e-02
2.219999999999999929e+01,1.582164117423311145e-02
2.223999999999999844e+01,2.035849047516395324e-02
2.228000000000000114e+01,1.728130878394511238e-02
2.232000000000000028e+01,1.472127167494185519e-02
2.235999999999999943e+01,1.859196146329334873e-02
2.239999999999999858e+01,1.292670697310706850e-02
2.244000000000000128e+01,2.367134962786530614e-02
2.248000000000000043e+01,1.172232858041570396e-02
2.251999999999999957e+01,2.172718840704799745e-02
2.255999999999999872e+01,2.190042601605622641e-02
2.260000000000000142e+01,1.800778417196453179e-02
2.264000000000000057e+01,1.980667350590402734e-02
2.267999999999999972e+01,1.147826239259721291e-02
2.271999999999999886e+01,1.542024304076453078e-02
2.276000000000000156e+01,1.573986404982101461e-02
2.280000000000000071e+01,1.650271335221732694e-02
2.283999999999999986e+01,1.770879123848939640e-02
2.287999999999999901e+01,2.238880878678231254e-02
2.292000000000000171e+01,2.477702381364399117e-02
2.296000000000000085e+01,1.230707480732879180e-02
2.300000000000000000e+01,1.499039083323354567e-02
2.303999999999999915e+01,2.048236970553521039e-02
2.307999999999999829e+01,1.289026002364878146e-02
2.312000000000000099e+01,1.660758792959830810e-02
2.316000000000000014e+01,1.478064494380068768e-02
2.319999999999999929e+01,2.123242933930180251e-02
2.323999999999999844e+01,1.703947892790758784e-02
2.328000000000000114e+01,1.609871175797135401e-02
2.332000000000000028e+01,1.338358339911642492e-02
2.335999999999999943e+01,1.347712021094624180e-02
2.339999999999999858e+01,9.874382256933275995e-03
2.344000000000000128e+01,1.802460286688925897e-02
2.348000000000000043e+01,1.419953445763003780e-02
2.351999999999999957e+01,2.094470878849105308e-02
2.355999999999999872e+01,2.148033715519690259e-02
2.360000000000000142e+01,2.312447760372994543e-02
2.364000000000000057e+01,1.974178907410036390e-02
2.367999999999999972e+01,2.389863365912582235e-02
2.371999999999999886e+01,1.807602490145553825e-02
2.376000000000000156e+01,1.720575770374835681e-02
2.380000000000000071e+01,1.818320179362360733e-02
2.383999999999999986e+01,2.329987049615104069e-02
2.387999999999999901e+01,2.213307578350351759e-02
2.392000000000000171e+01,2.525334581519522031e-02
2.396000000000000085e+01,1.957688065232759955e-02
2.400000000000000000e+01,2.284442665924611010e-02
2.403999999999999915e+01,1.827619513167528381e-02
2.407999999999999829e+01,2.346509288334544877e-02
2.412000000000000099e+01,1.823102154583434303e-02
2.416000000000000014e+01,1.824497377487635519e-02
2.419999999999999929e+01,2.454182671531285331e-02
2.423999999999999844e+01,1.745892042587451551e-02
2.428000000000000114e+01,1.843299003628361826e-02
2.432000000000000028e+01,1.815014414832622283e-02
2.435999999999999943e+01,1.217519653408596046e-02
2.439999999999999858e+01,2.054040659244198153e-02
2.444000000000000128e+01,1.663465550321600178e-02
2.448000000000000043e+01,2.359483322820389931e-02
2.451999999999999957e+01,1.880148881383462978e-02
2.455999999999999872e+01,2.435663536759837336e-02
2.460000000000000142e+01,1.461011114831498210e-02
2.464000000000000057e+01,2.452597016698649518e-02
2.467999999999999972e+01,2.128383247760155111e-02
2.471999999999999886e+01,1.589774489151932549e-02
2.476000000000000156e+01,2.137758815340279686e-02
2.480000000000000071e+01,1.680406614175432647e-02
2.483999999999999986e+01,1.880912859130620673e-02
2.487999999999999901e+01,2.746669556790196087e-02
2.492000000000000171e+01,1.557429004890314994e-02
2.496000000000000085e+01,2.216155368722639088e-02
2.500000000000000000e+01,2.061736766269361976e-02
2.503999999999999915e+01,1.825979002128716791e-02
2.507999999999999829e+01,1.826737139176718913e-02
2.512000000000000099e+01,1.568748711906450127e-02
2.516000000000000014e+01,1.776427547385403538e-02
2.519999999999999929e+01,1.821455584553078114e-02
2.523999999999999844e+01,1.134650582595031314e-02
2.528000000000000114e+01,2.332772616451745523e-02
2.532000000000000028e+01,2.207703466829616032e-02
2.535999999999999943e+01,2.400462174609609145e-02
2.539999999999999858e+01,1.462221172817551075e-02
2.544000000000000128e+01,1.566221884548704354e-02
2.548000000000000043e+01,1.581491776651307996e-02
2.551999999999999957e+01,1.973725462616456733e-02
2.555999999999999872e+01,1.833709735215021189e-02
2.560000000000000142e+01,1.819330623737690569e-02
2.564000000000000057e+01,2.359322854021793717e-02
2.567999999999999972e+01,1.531772297124907138e-02
2.571999999999999886e+01,1.694719814411132022e-02
2.576000000000000156e+01,1.850248468282286382e-02
2.580000000000000071e+01,2.183157726060809892e-02
2.583999999999999986e+01,1.784234380517580459e-02
2.587999999999999901e+01,2.124481989326214293e-02
2.592000000000000171e+01,1.651585300081990365e-02
2.596000000000000085e+01,2.634881443779957949e-02
2.600000000000000000e+01,2.073227571987629539e-02
2.603999999999999915e+01,2.117689175207979058e-02
2.607999999999999829e+01,2.280395765464864055e-02
2.612000000000000099e+01,1.925637304167031327e-02
2.616000000000000014e+01,1.866531348751017047e-02
2.619999999999999929e+01,2.073510018147398451e-02
2.623999999999999844e+01,1.252977273527842821e-02
2.628000000000000114e+01,1.977341324648303547e-02
2.632000000000000028e+01,2.162064536889779856e-02
2.635999999999999943e+01,1.969770444982452823e-02
2.639999999999999858e+01,1.688746201679321851e-02
2.644000000000000128e+01,2.058189589109383349e-02
2.648000000000000043e+01,1.533177332398662045e-02
2.651999999999999957e+01,1.488617281320976822e-02
2.655999999999999872e+01,1.806237824437870523e-02
2.660000000000000142e+01,1.961208586119412775e-02
2.664000000000000057e+01,2.093977168503521891e-02
2.667999999999999972e+01,1.716673083614041889e-02
2.671999999999999886e+01,1.664589821479759216e-02
2.676000000000000156e+01,2.455165838307046475e-02
2.680000000000000071e+01,2.033431409599912101e-02
2.683999999999999986e+01,1.508183194025043174e-02
2.687999999999999901e+01,1.367291737665796321e-02
2.692000000000000171e+01,1.743812665129337164e-02
2.696000000000000085e+01,1.595477173632957671e-02
2.700000000000000000e+01,2.615048146772913293e-02
2.703999999999999915e+01,2.060101949693087658e-02
2.707999999999999829e+01,1.904296612158376881e-02
2.712000000000000099e+01,1.977616680015045411e-02
2.716000000000000014e+01,1.880895395655972357e-02
2.719999999999999929e+01,1.377589507150630589e-02
2.723999999999999844e+01,2.123502010441493879e-02
2.728000000000000114e+01,2.270638551893689946e-02
2.732000000000000028e+01,1.427224351430847471e-02
2.735999999999999943e+01,1.796068742271235072e-02
2.739999999999999858e+01,2.467958517185721637e-02
2.744000000000000128e+01,2.230609390184257884e-02
2.748000000000000043e+01,1.978450671541671230e-02
2.751999999999999957e+01,1.977593581418699356e-02
2.755999999999999872e+01,2.050630688130836848e-02
2.760000000000000142e+01,1.561851953086853748e-02
2.764000000000000057e+01,1.575702169768908312e-02
2.767999999999999972e+01,2.254804872907188035e-02
2.771999999999999886e+01,2.704730810334060598e-02
2.776000000000000156e+01,2.348905763704326952e-02
2.780000000000000071e+01,2.140894863538825993e-02
2.783999999999999986e+01,1.895898700622319910e-02
2.787999999999999901e+01,2.138747708691933827e-02
2.792000000000000171e+01,1.952836702987773704e-02
2.796000000000000085e+01,2.010835667862043152e-02
2.800000000000000000e+01,2.689735486436796788e-02
2.803999999999999915e+01,2.429828928776549615e-02
2.807999999999999829e+01,1.822474226395212962e-02
2.812000000000000099e+01,2.020819903143999952e-02
2.816000000000000014e+01,2.573955358700519627e-02
2.819999999999999929e+01,2.114364778928886843e-02
2.823999999999999844e+01,2.113051721502735153e-02
2.828000000000000114e+01,2.488704462637366874e-02
2.832000000000000028e+01,2.561261098557025481e-02
2.835999999999999943e+01,2.352897590907560357e-02
2.839999999999999858e+01,2.211036912688009101e-02
2.844000000000000128e+01,2.911836733681131412e-02
2.848000000000000043e+01,1.919848789891926213e-02
2.851999999999999957e+01,1.785305358484097146e-02
2.855999999999999872e+01,2.693005906780091691e-02
2.860000000000000142e+01,2.565804777691649968e-02
2.864000000000000057e+01,2.615986315316017399e-02
2.867999999999999972e+01,2.148704660815919237e-02
2.871999999999999886e+01,2.901074562972128998e-02
2.876000000000000156e+01,2.389391600504928506e-02
2.880000000000000071e+01,2.380338432318092681e-02
2.883999999999999986e+01,2.430396435619994189e-02
2.887999999999999901e+01,1.792975908858075382e-02
2.892000000000000171e+01,2.057352050198037186e-02
2.896000000000000085e+01,2.188648034387917496e-02
2.900000000000000000e+01,1.403314272221410294e-02
2.903999999999999915e+01,2.266366995923716279e-02
2.907999999999999829e+01,2.419765402237931962e-02
2.912000000000000099e+01,1.819157655033134396e-02
2.916000000000000014e+01,1.942939289513702372e-02
2.919999999999999929e+01,2.044520604127088997e-02
2.923999999999999844e+01,1.872574391881258460e-02
2.928000000000000114e+01,1.301437063806996572e-02
2.932000000000000028e+01,1.232929907709871299e-02
2.935999999999999943e+01,2.591050143987723431e-02
2.939999999999999858e+01,1.783296721747749253e-02
2.944000000000000128e+01,1.640797064322292026e-02
2.948000000000000043e+01,1.978751762496103878e-02
2.951999999999999957e+01,1.680972238178939787e-02
2.955999999999999872e+01,1.789727352260705312e-02
2.960000000000000142e+01,1.713658931334675548e-02
2.964000000000000057e+01,1.519294802231237716e-02
2.967999999999999972e+01,1.724073421156765984e-02
2.971999999999999886e+01,1.330077850513076629e-02
2.976000000000000156e+01,1.926583288465861382e-02
2.980000000000000071e+01,1.118589044104447566e-02
2.983999999999999986e+01,2.069861529645106862e-02
2.987999999999999901e+01,1.646202301101780396e-02
2.992000000000000171e+01,1.000759882325673832e-02
2.996000000000000085e+01,2.269815808758269757e-02
3.000000000000000000e+01,1.579973883338107662e-02
3.003999999999999915e+01,1.784537461989802939e-02
3.007999999999999829e+01,1.515990730577477727e-02
3.012000000000000099e+01,1.617019156660673418e-02
3.016000000000000014e+01,8.309865890648254413e-03
3.019999999999999929e+01,1.456798068907995056e-02
3.023999999999999844e+01,1.476443759347964048e-02
3.028000000000000114e+01,1.555201667206184031e-02
3.032000000000000028e+01,1.486096450675137258e-02
3.035999999999999943e+01,1.261736161277673442e-02
3.039999999999999858e+01,9.042967606596492500e-03
3.044000000000000128e+01,1.241679761319100864e-02
3.048000000000000043e+01,1.239008338004077454e-02
3.051999999999999957e+01,1.413720946920951627e-02
3.055999999999999872e+01,1.418394673177886950e-02
3.060000000000000142e+01,1.489572826812605132e-02
3.064000000000000057e+01,1.472023908732873927e-02
3.067999999999999972e+01,4.491427341788033732e-03
3.071999999999999886e+01,1.651223513143453003e-02
3.076000000000000156e+01,1.086598408073305953e-02
3.080000000000000071e+01,1.896857898592376260e-02
3.083999999999999986e+01,1.110427046391181637e-02
3.087999999999999901e+01,1.018818915057039497e-02
3.092000000000000171e+01,1.134163016613786573e-02
3.096000000000000085e+01,1.212524121600141482e-02
3.100000000000000000e+01,1.113454685985376495e-02
3.103999999999999915e+01,1.354393165975865607e-02
3.107999999999999829e+01,1.003950421750211298e-02
3.112000000000000099e+01,1.119179269259824167e-02
3.116000000000000014e+01,1.441360523981910155e-02
3.119999999999999929e+01,1.526975563124834123e-02
3.123999999999999844e+01,9.103298313046985155e-03
3.128000000000000114e+01,3.971489084272753628e-03
3.132000000000000028e+01,1.125797363282267545e-02
3.135999999999999943e+01,7.899782353280477079e-03
3.139999999999999858e+01,1.548148992598361549e-02
3.144000000000000128e+01,0.000000000000000000e+00
3.148000000000000043e+01,1.682122457121252093e-02
3.151999999999999957e+01,1.154020930380822776e-02
3.155999999999999872e+01,1.379878438664638128e-02
3.160000000000000142e+01,9.478273026522942429e-03
3.164000000000000057e+01,1.277127237302141428e-02
3.167999999999999972e+01,1.665540406246153460e-02
3.171999999999999886e+01,1.506924681016112016e-02
3.176000000000000156e+01,8.604159109116394852e-03
3.180000000000000071e+01,1.167449743483352578e-02
3.183999999999999986e+01,9.052788364495372234e-03
3.187999999999999901e+01,1.175307870946129367e-02
3.192000000000000171e+01,1.334434830851135428e-02
3.196000000000000085e+01,7.247737449810507174e-03
3.200000000000000000e+01,1.475214171246604609e-02
3.203999999999999915e+01,1.634274070582358851e-02
3.207999999999999829e+01,1.556768393518099917e-02
3.211999999999999744e+01,9.100581802234974579e-03
3.215999999999999659e+01,8.472919545497637275e-03
3.220000000000000284e+01,1.191062284812397301e-02
3.224000000000000199e+01,1.401754840319965889e-02
3.228000000000000114e+01,1.634601178271895966e-02
3.232000000000000028e+01,1.172579507238652799e-02
3.235999999999999943e+01,1.375813721932560470e-02
3.239999999999999858e+01,1.275954794878449150e-02
3.243999999999999773e+01,1.553064687959279828e-02
3.247999999999999687e+01,1.430985789499486516e-02
3.252000000000000313e+01,1.922419050265954457e-02
3.256000000000000227e+01,1.186762094154554872e-02
3.260000000000000142e+01,9.611296699460583279e-03
3.264000000000000057e+01,9.498427054639034875e-03
3.267999999999999972e+01,1.115941342107917671e-02
3.271999999999999886e+01,1.836416463000154278e-02
3.275999999999999801e+01,1.233705804382708056e-02
3.279999999999999716e+01,1.133627845405399404e-02
3.284000000000000341e+01,1.173975716114883036e-02
3.288000000000000256e+01,1.051678366803842496e-02
3.292000000000000171e+01,9.958871299792530427e-03
3.296000000000000085e+01,1.139657630248278215e-02
3.300000000000000000e+01,1.298190458395669794e-02
3.303999999999999915e+01,1.841084520012720160e-02
3.307999999999999829e+01,9.055615064030381189e-03
3.311999999999999744e+01,9.827178744842965732e-03
3.315999999999999659e+01,6.680779224668448313e-03
3.320000000000000284e+01,7.230153650719343440e-03
3.324000000000000199e+01,1.021866613330349970e-02
3.328000000000000114e+01,1.002841403958387376e-02
3.332000000000000028e+01,1.316433788715990101e-02
3.335999999999999943e+01,1.423029436911716142e-02
3.339999999999999858e+01,1.315236400068418507e-02
3.343999999999999773e+01,1.222206010693058752e-02
3.347999999999999687e+01,8.260832640168167679e-03
3.352000000000000313e+01,8.956338522917002554e-03
3.356000000000000227e+01,6.990520290266685755e-03
3.360000000000000142e+01,1.027279419065985772e-02
3.364000000000000057e+01,6.975996465426238281e-03
3.367999999999999972e+01,1.587575033321680235e-02
3.371999999999999886e+01,1.302204888492479451e-02
3.375999999999999801e+01,8.098382976373778158e-03
3.379999999999999716e+01,8.422810653546180040e-03
3.384000000000000341e+01,6.455515125608948801e-03
3.388000000000000256e+01,1.513245736191743199e-02
3.392000000000000171e+01,6.659802137372858137e-03
3.396000000000000085e+01,1.371009042844352835e-02
3.400000000000000000e+01,3.980380716270798258e-03
3.403999999999999915e+01,9.551855774862652929e-03
3.407999999999999829e+01,1.630583881101507066e-02
3.411999999999999744e+01,1.197164741421254987e-02
3.415999999999999659e+01,8.967804126657590025e-03
3.420000000000000284e+01,1.402100879187233133e-02
3.424000000000000199e+01,1.500841854995625668e-02
3.428000000000000114e+01,1.111691616306239964e-02
3.432000000000000028e+01,9.960238778403294677e-03
3.435999999999999943e+01,1.042959005690185029e-02
3.439999999999999858e+01,1.156401321009604098e-02
3.443999999999999773e+01,7.376006728611117676e-03
3.447999999999999687e+01,1.043193270526473863e-02
3.452000000000000313e+01,9.052466932001717453e-03
3.456000000000000227e+01,7.155357790657572610e-03
3.460000000000000142e+01,1.390665770990315471e-02
3.464000000000000057e+01,1.496593057061184652e-02
3.467999999999999972e+01,1.506404228300210583e-02
3.471999999999999886e+01,9.174448416697270417e-03
3.475999999999999801e+01,6.167522299137999028e-03
3.479999999999999716e+01,1.794434804537410263e-02
3.484000000000000341e+01,1.693284975622942265e-02
3.488000000000000256e+01,1.148596233199188424e-02
3.492000000000000171e+01,1.439180719140170477e-02
3.496000000000000085e+01,1.397106012640370043e-02
3.500000000000000000e+01,1.355011131637310663e-02
3.503999999999999915e+01,1.497695543453435828e-02
3.507999999999999829e+01,1.625575883811990890e-02
3.511999999999999744e+01,1.243389687206057810e-02
3.515999999999999659e+01,1.644733050571172903e-02
3.520000000000000284e+01,1.698633440755581425e-02
3.524000000000000199e+01,8.211246618833227887e-03
3.528000000000000114e+01,1.259367912357188014e-02
3.532000000000000028e+01,1.239288613849829669e-02
3.535999999999999943e+01,8.643744808454038170e-03
3.539999999999999858e+01,1.391261722625674289e-02
3.543999999999999773e+01,9.423880754327405157e-03
3.547999999999999687e+01,1.594899254462052093e-02
3.552000000000000313e+01,1.456449040894206709e-02
3.556000000000000227e+01,9.557721605665269599e-03
3.560000000000000142e+01,1.297760980045498634e-02
3.564000000000000057e+01,1.233171325687308986e-02
3.567999999999999972e+01,1.390321316659637145e-02
3.571999999999999886e+01,9.265255435101345596e-03
3.575999999999999801e+01,8.766608895979455945e-03
3.579999999999999716e+01,1.935573271867540787e-02
3.584000000000000341e+01,1.249959392501501926e-02
3.588000000000000256e+01,1.015236607187340080e-02
3.592000000000000171e+01,1.601003821516350928e-02
3.596000000000000085e+01,1.018819108769327027e-02
3.600000000000000000e+01,9.688373300732668059e-03
3.603999999999999915e+01,1.428882581889508695e-02
3.607999999999999829e+01,1.393645949089112289e-02
3.611999999999999744e+01,1.262294247386390803e-02
3.615999999999999659e+01,1.552265932987716840e-02
3.620000000000000284e+01,1.945706001124266823e-02
3.624000000000000199e+01,1.355993783828812402e-02
3.628000000000000114e+01,1.705043468150973726e-02
3.632000000000000028e+01,1.551419464647329008e-02
3.635999999999999943e+01,1.153841015947866012e-02
3.639999999999999858e+01,1.724592466149828598e-02
3.643999999999999773e+01,8.612811468117848035e-03
3.647999999999999687e+01,1.609401829657949520e-02
3.652000000000000313e+01,1.256098789955230159e-02
3.656000000000000227e+01,1.353687338215550130e-02
3.660000000000000142e+01,1.503000716831794613e-02
3.664000000000000057e+01,1.408359853627404006e-02
3.667999999999999972e+01,1.675906935177799706e-02
3.671999999999999886e+01,1.906475203875862209e-02
3.675999999999999801e+01,1.649154059399205244e-02
3.679999999999999716e+01,1.709669081653602055e-02
3.684000000000000341e+01,1.541013962416857945e-02
3.688000000000000256e+01,1.793682753448921224e-02
3.692000000000000171e+01,2.645082944541477313e-02
3.696000000000000085e+01,1.663253957130087987e-02
3.700000000000000000e+01,1.671931237016349020e-02
3.703999999999999915e+01,1.732333666848106385e-02
3.707999999999999829e+01,1.548782174448802042e-02
3.711999999999999744e+01,1.838298609355167382e-02
3.715999999999999659e+01,2.246068079144607904e-02
3.720000000000000284e+01,1.759389691157436930e-02
3.724000000000000199e+01,2.233649834666484243e-02
3.728000000000000114e+01,2.404820380966426682e-02
3.732000000000000028e+01,2.184197628741817512e-02
3.735999999999999943e+01,2.739714056905372119e-02
3.739999999999999858e+01,2.851693401936290437e-02
3.743999999999999773e+01,2.638407333380236516e-02
3.747999999999999687e+01,2.469454756828497188e-02
3.752000000000000313e+01,2.492675251949755949e-02
3.756000000000000227e+01,2.552837319651773268e-02
3.760000000000000142e+01,2.701684831703426645e-02
3.764000000000000057e+01,3.005745614935097232e-02
3.767999999999999972e+01,3.006717091493641206e-02
3.771999999999999886e+01,3.029846301785828547e-02
3.775999999999999801e+01,3.252540735603350053e-02
3.779999999999999716e+01,3.800464040022620560e-02
3.784000000000000341e+01,3.483507861645856324e-02
3.788000000000000256e+01,3.676580050246884557e-02
3.792000000000000171e+01,3.500035308719586652e-02
3.796000000000000085e+01,4.055278318199893872e-02
3.800000000000000000e+01,4.418311916397162087e-02
3.803999999999999915e+01,4.382160761503884477e-02
3.807999999999999829e+01,5.151717220086542148e-02
3.811999999999999744e+01,5.987783568123344197e-02
3.815999999999999659e+01,6.757304239114314548e-02
3.820000000000000284e+01,7.120248295698373975e-02
3.824000000000000199e+01,7.246631250136455205e-02
3.828000000000000114e+01,8.001314502580371413e-02
3.832000000000000028e+01,9.066443048261296767e-02
3.835999999999999943e+01,9.724995095749701390e-02
3.839999999999999858e+01,9.880874966199382214e-02
3.843999999999999773e+01,1.162601232986729127e-01
3.847999999999999687e+01,1.197404829338244853e-01
3.852000000000000313e+01,1.246251421219526229e-01
3.856000000000000227e+01,1.336491328399722900e-01
3.860000000000000142e+01,1.403814349266635508e-01
3.864000000000000057e+01,1.496268340675523667e-01
3.867999999999999972e+01,1.697382651629267269e-01
3.871999999999999886e+01,1.750655664716064541e-01
3.875999999999999801e+01,1.936243331256849720e-01
3.879999999999999716e+01,2.105566905788827659e-01
3.884000000000000341e+01,2.336981353043349752e-01
3.888000000000000256e+01,2.450122424175381064e-01
3.892000000000000171e+01,2.786499484011110694e-01
3.896000000000000085e+01,3.247799234296873117e-01
3.900000000000000000e+01,3.624828713817692116e-01
3.903999999999999915e+01,4.160044788487654577e-01
3.907999999999999829e+01,4.561464348747341635e-01
3.911999999999999744e+01,4.987275716660247160e-01
3.915999999999999659e+01,5.810773760434801982e-01
3.920000000000000284e+01,6.402161997356135004e-01
3.924000000000000199e+01,7.107384978768885864e-01
3.928000000000000114e+01,7.740164873803418999e-01
3.932000000000000028e+01,8.603572764126001804e-01
3.935999999999999943e+01,9.081117726577118132e-01
3.939999999999999858e+01,9.716849310325617051e-01
3.943999999999999773e+01,9.960065192235691978e-01
3.947999999999999687e+01,1.000000000000000000e+00
3.952000000000000313e+01,9.833696945511601895e-01
3.956000000000000227e+01,9.322926051850757290e-01
3.960000000000000142e+01,8.944469872656456433e-01
3.964000000000000057e+01,8.126928547706777639e-01
3.967999999999999972e+01,7.387740507059860073e-01
3.971999999999999886e+01,6.848134185125421824e-01
3.975999999999999801e+01,6.193950539751785778e-01
3.979999999999999716e+01,5.360140171573674062e-01
3.984000000000000341e+01,4.697082818454182962e-01
3.988000000000000256e+01,4.161905013620301741e-01
3.992000000000000171e+01,3.742040398175106031e-01
3.996000000000000085e+01,3.155854631102233410e-01
4.000000000000000000e+01,2.904523791892157925e-01
4.003999999999999915e+01,2.585924305777225207e-01
4.007999999999999829e+01,2.228884888032736933e-01
4.011999999999999744e+01,2.033728132647483755e-01
4.015999999999999659e+01,1.781651507616509034e-01
4.020000000000000284e+01,1.521442067548149091e-01
4.024000000000000199e+01,1.421636903048951739e-01
4.028000000000000114e+01,1.275999843916243714e-01
4.032000000000000028e+01,1.179148205449034453e-01
4.035999999999999943e+01,1.091165311886612282e-01
4.039999999999999858e+01,9.824832560113216928e-02
4.043999999999999773e+01,8.634508092715777183e-02
4.047999999999999687e+01,7.651142802019066103e-02
4.052000000000000313e+01,6.837776829422913261e-02
4.056000000000000227e+01,7.539750114578129547e-02
4.060000000000000142e+01,6.149777651530397710e-02
4.064000000000000057e+01,5.609866526573376727e-02
4.067999999999999972e+01,5.764785240614831580e-02
4.071999999999999886e+01,5.387465552603210028e-02
4.075999999999999801e+01,4.877074278252822165e-02
4.079999999999999716e+01,4.758441851300789643e-02
4.084000000000000341e+01,4.713713266978296346e-02
4.088000000000000256e+01,4.838984262238738704e-02
4.092000000000000171e+01,4.136337899483936292e-02
4.096000000000000085e+01,3.958506095895451826e-02
4.100000000000000000e+01,3.987633846704467799e-02
4.103999999999999915e+01,4.275465023679856508e-02
4.107999999999999829e+01,3.410131947501218036e-02
4.111999999999999744e+01,3.557484063733049040e-02
4.115999999999999659e+01,3.106070299724590297e-02
4.120000000000000284e+01,2.957711943281420008e-02
4.124000000000000199e+01,2.572794663712101373e-02
4.128000000000000114e+01,2.764436018453156688e-02
4.132000000000000028e+01,2.726910485706015089e-02
4.135999999999999943e+01,3.325079465622475527e-02
4.139999999999999858e+01,2.962275840613293187e-02
4.143999999999999773e+01,2.880351864898720790e-02
4.147999999999999687e+01,2.458381454949030639e-02
4.152000000000000313e+01,2.834729179553920758e-02
4.156000000000000227e+01,2.279672325570574268e-02
4.160000000000000142e+01,2.929492428440471502e-02
4.164000000000000057e+01,2.300485066883891858e-02
4.167999999999999972e+01,2.477187933627035543e-02
4.171999999999999886e+01,2.683443416994343855e-02
4.175999999999999801e+01,2.446164984071160994e-02
4.179999999999999716e+01,2.238439225879334735e-02
4.184000000000000341e+01,2.222889677149050142e-02
4.188000000000000256e+01,2.695195468164063995e-02
4.192000000000000171e+01,2.280448807257739324e-02
4.196000000000000085e+01,2.390517431857675651e-02
4.200000000000000000e+01,1.968348584119660946e-02
4.203999999999999915e+01,2.573649552086369405e-02
4.207999999999999829e+01,2.410169824838194128e-02
4.211999999999999744e+01,2.165363341788849663e-02
4.215999999999999659e+01,2.401020424329232059e-02
4.220000000000000284e+01,2.097048202268896044e-02
4.224000000000000199e+01,2.280931581436233813e-02
4.228000000000000114e+01,2.124769107440407229e-02
4.232000000000000028e+01,1.946415843157428549e-02
4.235999999999999943e+01,1.886319390725223200e-02
4.239999999999999858e+01,2.654109622149763981e-02
4.243999999999999773e+01,2.165248902812040230e-02
4.247999999999999687e+01,2.415571195069212210e-02
4.252000000000000313e+01,2.643702842307220358e-02
4.256000000000000227e+01,1.903470749643164026e-02
4.260000000000000142e+01,1.429335193766544977e-02
4.264000000000000057e+01,1.775694518537501015e-02
4.267999999999999972e+01,1.671128617719959061e-02
4.271999999999999886e+01,2.032242734181003915e-02
4.275999999999999801e+01,2.223326829329394863e-02
4.279999999999999716e+01,2.155677201849679619e-02
4.284000000000000341e+01,2.095405071902598296e-02
4.288000000000000256e+01,1.931630805580442437e-02
4.292000000000000171e+01,2.033953308474504423e-02
4.296000000000000085e+01,2.151045373592748097e-02
4.300000000000000000e+01,1.691548827528456533e-02
4.303999999999999915e+01,2.222562935855060609e-02
4.307999999999999829e+01,1.925661255060691010e-02
4.311999999999999744e+01,2.441862826026318378e-02
4.315999999999999659e+01,1.856645497340273995e-02
4.320000000000000284e+01,2.099315433582927756e-02
4.324000000000000199e+01,1.979764281356497999e-02
4.328000000000000114e+01,2.784196160065761927e-02
4.332000000000000028e+01,2.391113547437944548e-02
4.335999999999999943e+01,1.938881012262747006e-02
4.339999999999999858e+01,2.011464808523324987e-02
4.343999999999999773e+01,1.714435684052051379e-02
4.347999999999999687e+01,1.690895713078118326e-02
4.352000000000000313e+01,1.992588767370399513e-02
4.356000000000000227e+01,2.959545842397170654e-02
4.360000000000000142e+01,2.728988629462043500e-02
4.364000000000000057e+01,2.424497742293211730e-02
4.367999999999999972e+01,2.415672086481969114e-02
4.371999999999999886e+01,2.458576432567032705e-02
4.375999999999999801e+01,2.678874427624814564e-02
4.379999999999999716e+01,2.529559763433129882e-02
4.384000000000000341e+01,2.845925930020760594e-02
4.388000000000000256e+01,2.667015877443299279e-02
4.392000000000000171e+01,3.012922533998385263e-02
4.396000000000000085e+01,3.336639591463825411e-02
4.400000000000000000e+01,2.898969325817824308e-02
4.403999999999999915e+01,2.557381159681433591e-02
4.407999999999999829e+01,2.748001796422733928e-02
4.411999999999999744e+01,3.485615220156830507e-02
4.415999999999999659e+01,3.580113077485939238e-02
4.420000000000000284e+01,3.563717779677940539e-02
4.424000000000000199e+01,3.207278052333058932e-02
4.428000000000000114e+01,3.745254172140801557e-02
4.432000000000000028e+01,3.913618010395841090e-02
4.435999999999999943e+01,4.348079663796612648e-02
4.439999999999999858e+01,5.041247183865962128e-02
4.443999999999999773e+01,4.950851767821182192e-02
4.447999999999999687e+01,4.941754815814079771e-02
4.452000000000000313e+01,5.568354671704799086e-02
4.456000000000000227e+01,5.211808285311824579e-02
4.460000000000000142e+01,5.254415483939740839e-02
4.464000000000000057e+01,5.814447937134205324e-02
4.467999999999999972e+01,5.790501021866487769e-02
4.471999999999999886e+01,6.247019531618742266e-02
4.475999999999999801e+01,6.400453877184654472e-02
4.479999999999999716e+01,6.649970874278533783e-02
4.484000000000000341e+01,6.759027270969851509e-02
4.488000000000000256e+01,7.385509096549308650e-02
4.492000000000000171e+01,7.147116581819512593e-02
4.496000000000000085e+01,8.431458498267582757e-02
4.500000000000000000e+01,8.274351885114791805e-02
4.503999999999999915e+01,9.536492075816506431e-02
4.507999999999999829e+01,1.020726121106125539e-01
4.511999999999999744e+01,1.036057909521017895e-01
4.515999999999999659e+01,1.113481029705297443e-01
4.520000000000000284e+01,1.253734682317399762e-01
4.524000000000000199e+01,1.303804935376078333e-01
4.528000000000000114e+01,1.421140913191751287e-01
4.532000000000000028e+01,1.498558944473847021e-01
4.535999999999999943e+01,1.615153191706791003e-01
4.539999999999999858e+01,1.754661307228285727e-01
4.543999999999999773e+01,1.902299338882182944e-01
4.547999999999999687e+01,2.004845051352412977e-01
4.552000000000000313e+01,2.298841728528462913e-01
4.556000000000000227e+01,2.435388033864105684e-01
4.560000000000000142e+01,2.498752514115297751e-01
4.564000000000000057e+01,2.657472259888585264e-01
4.567999999999999972e+01,2.816929961695681106e-01
4.571999999999999886e+01,2.960124074121209259e-01
4.575999999999999801e+01,3.170583946168047951e-01
4.579999999999999716e+01,3.176284807609814909e-01
4.584000000000000341e+01,3.183462834459903634e-01
4.588000000000000256e+01,3.234991499302045659e-01
4.592000000000000171e+01,3.278387764573247320e-01
4.596000000000000085e+01,3.210903145501390887e-01
4.600000000000000000e+01,3.082063894447886754e-01
4.603999999999999915e+01,3.022708016612438153e-01
4.607999999999999829e+01,2.760071544015585965e-01
4.611999999999999744e+01,2.637881434742747611e-01
4.615999999999999659e+01,2.435117563529739515e-01
4.620000000000000284e+01,2.219786126564858575e-01
4.624000000000000199e+01,2.026629421148007648e-01
4.628000000000000114e+01,1.903695304134446209e-01
4.632000000000000028e+01,1.718667380629040342e-01
4.635999999999999943e+01,1.603122853584568186e-01
4.639999999999999858e+01,1.520841036005696478e-01
4.643999999999999773e+01,1.342462324009590091e-01
4.647999999999999687e+01,1.257221345288910275e-01
4.652000000000000313e+01,1.080318664480168500e-01
4.656000000000000227e+01,1.066777509299734611e-01
4.660000000000000142e+01,9.334851432250929060e-02
4.664000000000000057e+01,8.511962501220193822e-02
4.667999999999999972e+01,7.785157587236515853e-02
4.671999999999999886e+01,8.152353686005268940e-02
4.675999999999999801e+01,6.693719701932256128e-02
4.679999999999999716e+01,6.432574474149428678e-02
4.684000000000000341e+01,5.565275514206424745e-02
4.688000000000000256e+01,5.585002312369134747e-02
4.692000000000000171e+01,5.501229908570133553e-02
4.696000000000000085e+01,4.907399567671549834e-02
4.700000000000000000e+01,4.446613363902575389e-02
4.703999999999999915e+01,4.577173933223549485e-02
4.707999999999999829e+01,3.850253708660298507e-02
4.711999999999999744e+01,3.448569124187051554e-02
4.715999999999999659e+01,3.312984388611371622e-02
4.720000000000000284e+01,3.739178632217018960e-02
4.724000000000000199e+01,3.263540332968307978e-02
4.728000000000000114e+01,3.253585363108315448e-02
4.732000000000000028e+01,3.140131481822586168e-02
4.735999999999999943e+01,3.285385617171660000e-02
4.739999999999999858e+01,2.787526539457156963e-02
4.743999999999999773e+01,2.134424794762431951e-02
4.747999999999999687e+01,2.597500547430758866e-02
4.752000000000000313e+01,2.350935376419515180e-02
4.756000000000000227e+01,2.503525940395388491e-02
4.760000000000000142e+01,2.168234964721504204e-02
4.764000000000000057e+01,2.017732433750067667e-02
4.767999999999999972e+01,1.697203455058487326e-02
4.771999999999999886e+01,2.004981631021785990e-02
4.775999999999999801e+01,2.061421664533843318e-02
4.779999999999999716e+01,1.903483472302028301e-02
4.784000000000000341e+01,2.063389465594218236e-02
4.788000000000000256e+01,1.846293785573144622e-02
4.792000000000000171e+01,1.769634888445177981e-02
4.796000000000000085e+01,1.707749185241099268e-02
4.800000000000000000e+01,1.808476255629587123e-02
4.803999999999999915e+01,1.450890016080908472e-02
4.807999999999999829e+01,1.522027799339128323e-02
4.811999999999999744e+01,1.578370982612612924e-02
4.815999999999999659e+01,2.100398134453963089e-02
4.820000000000000284e+01,1.491442137273931226e-02
4.824000000000000199e+01,1.503401694914792766e-02
4.828000000000000114e+01,1.611446431746617336e-02
4.832000000000000028e+01,1.394233657570028394e-02
4.835999999999999943e+01,1.213970300445566149e-02
4.839999999999999858e+01,1.262847805226431121e-02
4.843999999999999773e+01,1.400418627881896277e-02
4.847999999999999687e+01,1.501019179442741533e-02
4.852000000000000313e+01,1.305930275386177862e-02
4.856000000000000227e+01,1.384334214633856086e-02
4.860000000000000142e+01,1.721447071177862817e-02
4.864000000000000057e+01,1.238040154581725692e-02
4.867999999999999972e+01,1.309021314619271230e-02
4.871999999999999886e+01,1.793943007259773612e-02
4.875999999999999801e+01,1.317897440836599855e-02
4.879999999999999716e+01,1.588431454007503338e-02
4.884000000000000341e+01,1.274989120290376081e-02
4.888000000000000256e+01,1.678558514151505532e-02
4.892000000000000171e+01,1.498151619231800381e-02
4.896000000000000085e+01,1.635589723336836401e-02
4.900000000000000000e+01,1.166875664175968941e-02
4.903999999999999915e+01,9.790467744932697738e-03
4.907999999999999829e+01,1.160806813711380038e-02
4.911999999999999744e+01,1.623452080514854040e-02
4.915999999999999659e+01,1.546473098043601307e-02
4.920000000000000284e+01,1.521228097811533342e-02
4.924000000000000199e+01,1.569893041464512709e-02
4.928000000000000114e+01,1.182421508434111819e-02
4.932000000000000028e+01,9.501717302342456428e-03
4.935999999999999943e+01,1.198390747271682599e-02
4.939999999999999858e+01,1.047433262440303908e-02
4.943999999999999773e+01,1.317808810707392711e-02
4.947999999999999687e+01,1.292495600643415316e-02
4.952000000000000313e+01,1.215428919816851673e-02
4.956000000000000227e+01,1.197488460242606377e-02
4.960000000000000142e+01,1.623057082573479276e-02
4.964000000000000057e+01,1.279850500819428721e-02
4.967999999999999972e+01,1.217529553401105850e-02
4.971999999999999886e+01,1.606109752579450850e-02
4.975999999999999801e+01,8.637079358267196055e-03
4.979999999999999716e+01,9.048463126617766264e-03
4.984000000000000341e+01,9.977191365935830086e-03
4.988000000000000256e+01,1.452789492967399010e-02
4.992000000000000171e+01,1.220396601469767202e-02
4.996000000000000085e+01,1.549784693851696989e-02
5.000000000000000000e+01,1.317373214492189269e-02
5.003999999999999915e+01,1.144088305028170480e-02
5.007999999999999829e+01,1.340393050804905388e-02
5.011999999999999744e+01,1.085777974962304736e-02
5.015999999999999659e+01,1.452079848513285892e-02
5.020000000000000284e+01,1.271366250652326141e-02
5.024000000000000199e+01,1.290226941039170419e-02
5.028000000000000114e+01,1.035575386759161887e-02
5.032000000000000028e+01,1.165297617103002240e-02
5.035999999999999943e+01,8.219242675568306025e-03
5.039999999999999858e+01,1.032940243949040209e-02
5.043999999999999773e+01,1.413962743734027347e-02
5.047999999999999687e+01,9.892507619058677620e-03
5.052000000000000313e+01,1.481135092183826982e-02
5.056000000000000227e+01,1.278164661917145090e-02
5.060000000000000142e+01,1.341296579157428247e-02
5.064000000000000057e+01,1.175268378397765524e-02
5.067999999999999972e+01,1.275342583252265551e-02
5.071999999999999886e+01,1.301488256359845629e-02
5.075999999999999801e+01,1.238921471712594799e-02
5.079999999999999716e+01,9.989385279950628582e-03
5.084000000000000341e+01,1.786431791773740105e-02
5.088000000000000256e+01,1.465119785714337833e-02
5.092000000000000171e+01,1.276854764037112060e-02
5.096000000000000085e+01,1.421220149126019815e-02
5.100000000000000000e+01,9.816107562211680987e-03
5.103999999999999915e+01,8.968077607819051680e-03
5.107999999999999829e+01,9.746197760622290693e-03
5.111999999999999744e+01,1.185478920992717386e-02
5.115999999999999659e+01,1.100650527843241577e-02
5.120000000000000284e+01,9.197180189977550296e-03
5.124000000000000199e+01,1.049240187701322609e-02
5.128000000000000114e+01,1.193537961777384540e-02
5.132000000000000028e+01,1.308259505095014236e-02
5.135999999999999943e+01,1.312093093869516440e-02
5.139999999999999858e+01,1.160686891969964739e-02
5.143999999999999773e+01,1.290167602764439279e-02
5.147999999999999687e+01,1.286584513584318468e-02
5.152000000000000313e+01,9.577462376835958399e-03
5.156000000000000227e+01,1.397665478667451527e-02
5.160000000000000142e+01,1.320138175238300300e-02
5.164000000000000057e+01,1.493930019648146562e-02
5.167999999999999972e+01,1.054179669852379868e-02
5.171999999999999886e+01,1.331443110440305375e-02
5.175999999999999801e+01,1.216923740852429194e-02
5.179999999999999716e+01,1.095004421741556030e-02
5.184000000000000341e+01,1.120916710307114789e-02
5.188000000000000256e+01,1.117253174864608380e-02
5.192000000000000171e+01,1.409260855820807130e-02
5.196000000000000085e+01,1.449933444953517558e-02
5.200000000000000000e+01,1.298406791562373153e-02
5.203999999999999915e+01,1.390807599015447468e-02
5.207999999999999829e+01,1.453632727728445054e-02
5.211999999999999744e+01,1.427746386508934803e-02
5.215999999999999659e+01,1.032253458241860593e-02
5.220000000000000284e+01,1.302030826286370950e-02
5.224000000000000199e+01,1.335257260944088496e-02
5.228000000000000114e+01,1.420219914968010380e-02
5.232000000000000028e+01,9.286007272976496210e-03
5.235999999999999943e+01,9.248444914151712423e-03
5.239999999999999858e+01,9.876085171211995695e-03
5.243999999999999773e+01,1.079932945815561054e-02
5.247999999999999687e+01,1.201817806551852379e-02
5.252000000000000313e+01,1.523278611591016504e-02
5.256000000000000227e+01,1.659932558387441567e-02
5.260000000000000142e+01,1.382628372541354345e-02
5.264000000000000057e+01,1.474915701366273126e-02
5.267999999999999972e+01,1.500667899601307656e-02
5.271999999999999886e+01,1.090286119762363254e-02
5.275999999999999801e+01,1.278647245208584284e-02
5.279999999999999716e+01,1.430041237348737143e-02
5.284000000000000341e+01,1.559252080297920777e-02
5.288000000000000256e+01,1.651495848048225440e-02
5.292000000000000171e+01,1.204118097561987337e-02
5.296000000000000085e+01,1.399835262813423770e-02
5.300000000000000000e+01,1.432921822003960753e-02
5.303999999999999915e+01,1.665584703194138150e-02
5.307999999999999829e+01,1.314274317177634675e-02
5.311999999999999744e+01,1.147756356206457509e-02
5.315999999999999659e+01,1.284302489826268621e-02
5.320000000000000284e+01,1.494761443637290452e-02
5.324000000000000199e+01,1.808701156816139993e-02
5.328000000000000114e+01,1.398220174971972346e-02
5.332000000000000028e+01,1.608658437755603257e-02
5.335999999999999943e+01,1.153811883869443160e-02
5.339999999999999858e+01,1.268140790002997634e-02
5.343999999999999773e+01,1.811197612125539300e-02
5.347999999999999687e+01,1.504170266470235620e-02
5.352000000000000313e+01,1.507599254419052237e-02
5.356000000000000227e+01,9.861911440503945067e-03
5.360000000000000142e+01,1.085702481684715226e-02
5.364000000000000057e+01,1.525238150206962434e-02
5.367999999999999972e+01,1.454720762634035928e-02
5.371999999999999886e+01,1.273317134680244586e-02
5.375999999999999801e+01,1.365410126998388950e-02
5.379999999999999716e+01,1.782743611357342356e-02
5.384000000000000341e+01,1.549576582751188529e-02
5.388000000000000256e+01,1.545554396393238571e-02
5.392000000000000171e+01,1.216278766530547867e-02
5.396000000000000085e+01,8.426448683853633020e-03
5.400000000000000000e+01,1.444745630255323335e-02
5.403999999999999915e+01,1.640281282943039515e-02
5.407999999999999829e+01,1.540131518463422680e-02
5.411999999999999744e+01,1.343879759200424830e-02
5.415999999999999659e+01,1.495044686052877762e-02
5.420000000000000284e+01,9.957093614226000117e-03
5.424000000000000199e+01,1.383405140760007694e-02
5.428000000000000114e+01,1.741526839305208157e-02
5.432000000000000028e+01,1.552636058959026150e-02
5.435999999999999943e+01,1.422874986296882721e-02
5.439999999999999858e+01,1.729234504440821038e-02
5.443999999999999773e+01,1.621637226407742285e-02
5.447999999999999687e+01,1.543601833096477222e-02
5.452000000000000313e+01,1.132921454553682643e-02
5.456000000000000227e+01,1.483608794384535558e-02
5.460000000000000142e+01,1.198580128330140916e-02
5.464000000000000057e+01,1.312712339749650368e-02
5.467999999999999972e+01,1.611638109304792607e-02
5.471999999999999886e+01,1.577919038896393941e-02
5.475999999999999801e+01,1.544194146461977217e-02
5.479999999999999716e+01,1.540031371178155264e-02
5.484000000000000341e+01,1.424983169014201051e-02
5.488000000000000256e+01,1.893895456914583206e-02
5.492000000000000171e+01,1.527508578028143917e-02
5.496000000000000085e+01,1.567674786575140936e-02
5.500000000000000000e+01,1.888730493586354350e-02
5.503999999999999915e+01,1.514934694055866844e-02
5.507999999999999829e+01,1.629003821957899362e-02
5.511999999999999744e+01,1.306940715001812282e-02
5.515999999999999659e+01,1.413606773339412710e-02
5.520000000000000284e+01,1.121100542579856092e-02
5.524000000000000199e+01,1.456906928551535835e-02
5.528000000000000114e+01,1.637476342048138286e-02
5.532000000000000028e+01,1.544537171631191891e-02
5.535999999999999943e+01,1.621608098199532957e-02
5.539999999999999858e+01,1.624753892291878887e-02
5.543999999999999773e+01,1.576150515554091552e-02
5.547999999999999687e+01,1.320566468893932636e-02
5.552000000000000313e+01,1.338480320864006423e-02
5.556000000000000227e+01,1.644676055579420010e-02
5.560000000000000142e+01,1.677363409756469845e-02
5.564000000000000057e+01,1.281310884302921602e-02
5.567999999999999972e+01,1.535747227762450026e-02
5.571999999999999886e+01,1.472323412659883902e-02
5.575999999999999801e+01,1.453246367055763440e-02
5.579999999999999716e+01,1.441556232349918733e-02
5.584000000000000341e+01,1.747716093887612468e-02
5.588000000000000256e+01,1.499472632093477170e-02
5.592000000000000171e+01,1.694742842672891658e-02
5.596000000000000085e+01,1.771736462342156371e-02
5.600000000000000000e+01,1.737845497685621202e-02
5.603999999999999915e+01,1.533934157510850535e-02
5.607999999999999829e+01,1.655264965431960458e-02
5.611999999999999744e+01,1.931822467295202933e-02
5.615999999999999659e+01,1.838776287470649320e-02
5.620000000000000284e+01,1.620061713526778704e-02
5.624000000000000199e+01,2.066620370307855128e-02
5.628000000000000114e+01,1.759192600962723035e-02
5.632000000000000028e+01,1.695695401196762112e-02
5.635999999999999943e+01,1.691329361794722402e-02
5.639999999999999858e+01,1.871758129833015274e-02
5.643999999999999773e+01,1.276024655367228623e-02
5.647999999999999687e+01,1.567323911870596026e-02
5.652000000000000313e+01,1.585115456068346071e-02
5.656000000000000227e+01,1.772917968859312465e-02
5.660000000000000142e+01,1.746348647697891152e-02
5.664000000000000057e+01,1.867614420644618869e-02
5.667999999999999972e+01,1.478829316515995092e-02
5.671999999999999886e+01,1.474422645586842204e-02
5.675999999999999801e+01,1.898746302095284666e-02
5.679999999999999716e+01,1.628219730420317479e-02
5.684000000000000341e+01,1.764247611697876417e-02
5.688000000000000256e+01,2.151598446835729234e-02
5.692000000000000171e+01,1.629731792559102263e-02
5.696000000000000085e+01,1.580947476172579746e-02
5.700000000000000000e+01,1.569118852415279583e-02
5.703999999999999915e+01,1.623813860463811307e-02
5.707999999999999829e+01,1.375433652834078674e-02
5.711999999999999744e+01,1.903206978069750532e-02
5.715999999999999659e+01,1.780482201788922275e-02
5.720000000000000284e+01,1.532089757728712781e-02
5.724000000000000199e+01,1.793739742587561331e-02
5.728000000000000114e+01,2.173657376289108920e-02
5.732000000000000028e+01,1.814373294319494151e-02
5.735999999999999943e+01,1.898603930652944041e-02
5.739999999999999858e+01,1.635407718552388950e-02
5.743999999999999773e+01,1.719630574962291436e-02
5.747999999999999687e+01,1.596874214129706884e-02
5.752000000000000313e+01,1.777185114730255033e-02
5.756000000000000227e+01,1.750516856195508814e-02
5.760000000000000142e+01,2.145187557693153599e-02
5.764000000000000057e+01,1.741520955702386894e-02
5.767999999999999972e+01,2.054872473081364309e-02
5.771999999999999886e+01,2.087325172231897438e-02
5.775999999999999801e+01,2.001502587884174816e-02
5.779999999999999716e+01,2.418330861675125135e-02
5.784000000000000341e+01,1.741142876015493862e-02
5.788000000000000256e+01,1.633133604378513362e-02
5.792000000000000171e+01,1.340321367680885438e-02
5.796000000000000085e+01,1.720175588543654266e-02
5.800000000000000000e+01,1.752603396776382730e-02
5.803999999999999915e+01,1.910691383400917737e-02
5.807999999999999829e+01,1.750920925625623278e-02
5.811999999999999744e+01,1.738986636941590794e-02
5.815999999999999659e+01,1.963592276771466277e-02
5.820000000000000284e+01,1.892515491954566836e-02
5.824000000000000199e+01,1.644027952036550971e-02
5.828000000000000114e+01,1.824271843592836090e-02
5.832000000000000028e+01,2.100608206793097218e-02
5.835999999999999943e+01,1.549039879346689533e-02
5.839999999999999858e+01,1.692314261642519080e-02
5.843999999999999773e+01,2.042560865704424675e-02
5.847999999999999687e+01,2.311492596886602011e-02
5.852000000000000313e+01,2.122118630174197121e-02
5.856000000000000227e+01,1.873605781281519056e-02
5.860000000000000142e+01,1.905985045676851161e-02
5.864000000000000057e+01,1.945753283775888270e-02
5.867999999999999972e+01,1.859854929078661248e-02
5.871999999999999886e+01,1.714817808415554021e-02
5.875999999999999801e+01,1.658481501455239676e-02
5.879999999999999716e+01,1.794333722681873758e-02
5.884000000000000341e+01,1.930183085349449282e-02
5.888000000000000256e+01,2.051245663450058931e-02
5.892000000000000171e+01,1.935762160114680788e-02
5.896000000000000085e+01,1.598516559458420735e-02
5.900000000000000000e+01,1.283444149049756469e-02
5.903999999999999915e+01,2.121517520147634880e-02
5.907999999999999829e+01,2.087334858379078645e-02
5.911999999999999744e+01,1.979229766119112305e-02
5.915999999999999659e+01,1.826770182544344354e-02
5.920000000000000284e+01,1.807363597446468365e-02
5.924000000000000199e+01,1.935793994940591956e-02
5.928000000000000114e+01,2.108573718649753639e-02
5.932000000000000028e+01,2.037415673928151538e-02
5.935999999999999943e+01,1.981039103405770468e-02
5.939999999999999858e+01,1.983795901320731941e-02
5.943999999999999773e+01,1.956982366357582631e-02
5.947999999999999687e+01,2.092789943369525313e-02
5.952000000000000313e+01,2.036403739933972598e-02
5.956000000000000227e+01,2.120462773988440047e-02
5.960000000000000142e+01,1.975368198048838356e-02
5.964000000000000057e+01,1.556768175984236426e-02
5.967999999999999972e+01,1.640820377577393088e-02
5.971999999999999886e+01,1.843142000282705154e-02
5.975999999999999801e+01,1.956757702292657997e-02
5.979999999999999716e+01,2.077763220560653601e-02
5.984000000000000341e+01,1.888303550317866480e-02
5.988000000000000256e+01,1.787545507278611584e-02
5.992000000000000171e+01,1.672001435065926037e-02
5.996000000000000085e+01,1.822566508902058457e-02
