2.003999999999999915e+01,2.598480891586384817e-03
2.007999999999999829e+01,6.233707344232098345e-03
2.012000000000000099e+01,4.418818283625700755e-03
2.016000000000000014e+01,4.245117623636232573e-03
2.019999999999999929e+01,4.990343376591067741e-03
2.023999999999999844e+01,3.896766807358664157e-03
2.028000000000000114e+01,4.181738987866358975e-03
2.032000000000000028e+01,6.830163589601912638e-03
2.035999999999999943e+01,3.437533158674703580e-03
2.039999999999999858e+01,3.327599009391058772e-03
2.044000000000000128e+01,0.000000000000000000e+00
2.048000000000000043e+01,3.238108968427750711e-03
2.051999999999999957e+01,4.900059331423643749e-03
2.055999999999999872e+01,4.263589101315769930e-03
2.060000000000000142e+01,1.656999772991974828e-03
2.064000000000000057e+01,5.156498525218725960e-03
2.067999999999999972e+01,5.569655292185600112e-03
2.071999999999999886e+01,6.639102887099854536e-03
2.076000000000000156e+01,5.804093227809833250e-03
2.080000000000000071e+01,4.377831074103288173e-03
2.083999999999999986e+01,3.016919009167958344e-03
2.087999999999999901e+01,6.580213546430941848e-03
2.092000000000000171e+01,5.218682443481901904e-03
2.096000000000000085e+01,5.957969396527490989e-03
2.100000000000000000e+01,3.545257399356604219e-03
2.103999999999999915e+01,7.895239725215370472e-03
2.107999999999999829e+01,6.335494772313970263e-03
2.112000000000000099e+01,7.007889937078896903e-03
2.116000000000000014e+01,4.199986689679075305e-03
2.119999999999999929e+01,6.053652426540968856e-03
2.123999999999999844e+01,5.477584046973753631e-03
2.128000000000000114e+01,7.593278935044468249e-03
2.132000000000000028e+01,9.183386832001597805e-03
2.135999999999999943e+01,7.949800526333454173e-03
2.139999999999999858e+01,7.832133484227296952e-03
2.144000000000000128e+01,5.613035446931570471e-03
2.148000000000000043e+01,7.464567281073141401e-03
2.151999999999999957e+01,7.280329150860990681e-03
2.155999999999999872e+01,1.234860562314176770e-02
2.160000000000000142e+01,1.446186989700485453e-02
2.164000000000000057e+01,1.887293979183719134e-02
2.167999999999999972e+01,2.052597895440764694e-02
2.171999999999999886e+01,2.546172781602304078e-02
2.176000000000000156e+01,3.525603200711105445e-02
2.180000000000000071e+01,4.485305517444047180e-02
2.183999999999999986e+01,5.924297426675834144e-02
2.187999999999999901e+01,6.082885135777570812e-02
2.192000000000000171e+01,5.407558165495968128e-02
2.196000000000000085e+01,4.423598297769729126e-02
2.200000000000000000e+01,3.669419358069547082e-02
2.203999999999999915e+01,2.737928037562286157e-02
2.207999999999999829e+01,2.528669358848582849e-02
2.212000000000000099e+01,1.597118574067482588e-02
2.216000000000000014e+01,1.558517078313489956e-02
2.219999999999999929e+01,1.572414126197548695e-02
2.223999999999999844e+01,1.271112539482514674e-02
2.228000000000000114e+01,1.206158187171083376e-02
2.232000000000000028e+01,9.638917386641214155e-03
2.235999999999999943e+01,7.938220617283714767e-03
2.239999999999999858e+01,1.004552220024578293e-02
2.244000000000000128e+01,5.652168369497110809e-03
2.248000000000000043e+01,1.077925264066281752e-02
2.251999999999999957e+01,6.057011210634235046e-03
2.255999999999999872e+01,6.652954765456595664e-03
2.260000000000000142e+01,7.051625428278797576e-03
2.264000000000000057e+01,6.596421429088926598e-03
2.267999999999999972e+01,1.027751971663395762e-02
2.271999999999999886e+01,5.159857818484118487e-03
2.276000000000000156e+01,7.133208814944549600e-03
2.280000000000000071e+01,8.384007211064503293e-03
2.283999999999999986e+01,7.533388842572201483e-03
2.287999999999999901e+01,8.652287610974808765e-03
2.292000000000000171e+01,4.715060633241497517e-03
2.296000000000000085e+01,8.919412065617875543e-03
2.300000000000000000e+01,3.931044852454902531e-03
2.303999999999999915e+01,3.669925544258051051e-03
2.307999999999999829e+01,4.130781270355947735e-03
2.312000000000000099e+01,4.722670478396607044e-03
2.316000000000000014e+01,5.182952704328025809e-03
2.319999999999999929e+01,5.905589660698030291e-03
2.323999999999999844e+01,5.971338706854738450e-03
2.328000000000000114e+01,5.577180902365992850e-03
2.332000000000000028e+01,3.212931647640012833e-03
2.335999999999999943e+01,8.202342256983061186e-03
2.339999999999999858e+01,5.312242639865742862e-03
2.344000000000000128e+01,6.952414340613817176e-03
2.348000000000000043e+01,7.476079047056163711e-03
2.351999999999999957e+01,6.029654336200895859e-03
2.355999999999999872e+01,7.406336503815057724e-03
2.360000000000000142e+01,8.388775291147159557e-03
2.364000000000000057e+01,6.416222616045562724e-03
2.367999999999999972e+01,3.524145632557828828e-03
2.371999999999999886e+01,8.839315002010282932e-03
2.376000000000000156e+01,7.588182157493426026e-03
2.380000000000000071e+01,7.846954277773775938e-03
2.383999999999999986e+01,5.282057403880037645e-03
2.387999999999999901e+01,3.636124349019428069e-03
2.392000000000000171e+01,6.257826620439304287e-03
2.396000000000000085e+01,9.273211782788275126e-03
2.400000000000000000e+01,7.757763918155123097e-03
2.403999999999999915e+01,6.635999757626903986e-03
2.407999999999999829e+01,5.710939054811573629e-03
2.412000000000000099e+01,7.018048963756691461e-03
2.416000000000000014e+01,4.450929648671260973e-03
2.419999999999999929e+01,6.873710900241631130e-03
2.423999999999999844e+01,3.912078734777580183e-03
2.428000000000000114e+01,6.334309255105085266e-03
2.432000000000000028e+01,5.341933701373666708e-03
2.435999999999999943e+01,5.728148369350377286e-03
2.439999999999999858e+01,5.982768659443403816e-03
2.444000000000000128e+01,5.055231495680849105e-03
2.448000000000000043e+01,5.506285773390203961e-03
2.451999999999999957e+01,3.921600580839995805e-03
2.455999999999999872e+01,2.533623725057722667e-03
2.460000000000000142e+01,6.857813896070330713e-03
2.464000000000000057e+01,3.827788186128101150e-03
2.467999999999999972e+01,3.949181827417035454e-03
2.471999999999999886e+01,3.216721949265795820e-03
2.476000000000000156e+01,5.176060711901690932e-03
2.480000000000000071e+01,4.640041326773531975e-03
2.483999999999999986e+01,5.942238566028482626e-03
2.487999999999999901e+01,5.930962388575025147e-03
2.492000000000000171e+01,3.686970153761254514e-03
2.496000000000000085e+01,4.660060333954108014e-03
2.500000000000000000e+01,5.173261146782167329e-03
2.503999999999999915e+01,6.408456916713158383e-03
2.507999999999999829e+01,2.718869331575974203e-03
2.512000000000000099e+01,4.741454058876665677e-03
2.516000000000000014e+01,3.086800379824836734e-03
2.519999999999999929e+01,3.467347637427370833e-03
2.523999999999999844e+01,1.943483178672895896e-03
2.528000000000000114e+01,5.015568958488185285e-03
2.532000000000000028e+01,3.819475999362735921e-03
2.535999999999999943e+01,6.365751262403040490e-03
2.539999999999999858e+01,3.921586205418571384e-03
2.544000000000000128e+01,6.795635407615431382e-03
2.548000000000000043e+01,4.876225755943315414e-03
2.551999999999999957e+01,3.547495505109206967e-03
2.555999999999999872e+01,3.663027891280890361e-03
2.560000000000000142e+01,4.172259838486434141e-03
2.564000000000000057e+01,3.302365876494097602e-03
2.567999999999999972e+01,1.906929241471658340e-03
2.571999999999999886e+01,3.925563399606333236e-03
2.576000000000000156e+01,2.463945903187250187e-03
2.580000000000000071e+01,4.219419360121162352e-03
2.583999999999999986e+01,6.631235688256453646e-03
2.587999999999999901e+01,5.300160710961806729e-03
2.592000000000000171e+01,6.332595077204062478e-03
2.596000000000000085e+01,4.804022869072030293e-03
2.600000000000000000e+01,6.755184517872544342e-03
2.603999999999999915e+01,1.877426257575353806e-03
2.607999999999999829e+01,2.055247891226291614e-03
2.612000000000000099e+01,3.611677636453924489e-03
2.616000000000000014e+01,3.854646975786631818e-03
2.619999999999999929e+01,4.031700451352135395e-03
2.623999999999999844e+01,6.506606305497944498e-03
2.628000000000000114e+01,5.304285137753017056e-03
2.632000000000000028e+01,3.707748237704701702e-03
2.635999999999999943e+01,4.606045588980429983e-03
2.639999999999999858e+01,5.044467803468605412e-03
2.644000000000000128e+01,2.724907669657581494e-03
2.648000000000000043e+01,2.965843224594347152e-03
2.651999999999999957e+01,1.499360726967574609e-03
2.655999999999999872e+01,2.659034948924397183e-03
2.660000000000000142e+01,5.459963032152929593e-03
2.664000000000000057e+01,6.159512976621757223e-03
2.667999999999999972e+01,4.626364753598817027e-03
2.671999999999999886e+01,2.436363993511756788e-03
2.676000000000000156e+01,4.382706992127658775e-03
2.680000000000000071e+01,5.803518702175248199e-03
2.683999999999999986e+01,4.532012347462834739e-03
2.687999999999999901e+01,3.522898129277852747e-03
2.692000000000000171e+01,3.564099066128039502e-03
2.696000000000000085e+01,3.539391864381524928e-03
2.700000000000000000e+01,4.302359760206099851e-03
2.703999999999999915e+01,4.145837501029978230e-03
2.707999999999999829e+01,2.413223316841179092e-03
2.712000000000000099e+01,3.372431762126884992e-03
2.716000000000000014e+01,2.230267354295881448e-03
2.719999999999999929e+01,4.633509218695070798e-03
2.723999999999999844e+01,1.127086418874038987e-03
2.728000000000000114e+01,2.085313751698891164e-03
2.732000000000000028e+01,2.911976387558364021e-03
2.735999999999999943e+01,1.768588638560686507e-03
2.739999999999999858e+01,3.776647888772896589e-03
2.744000000000000128e+01,6.112765185403397535e-03
2.748000000000000043e+01,4.377706351820897374e-03
2.751999999999999957e+01,2.182783765912673334e-03
2.755999999999999872e+01,3.730251764505924245e-03
2.760000000000000142e+01,2.125787899889756104e-03
2.764000000000000057e+01,1.768627161871341898e-03
2.767999999999999972e+01,3.578013004278424516e-03
2.771999999999999886e+01,2.563769291539824430e-03
2.776000000000000156e+01,1.680606224942933057e-03
2.780000000000000071e+01,3.554932917475191970e-03
2.783999999999999986e+01,5.035059328045105552e-03
2.787999999999999901e+01,6.186646080900566266e-03
2.792000000000000171e+01,1.888196605150411524e-03
2.796000000000000085e+01,3.236288091920596927e-03
2.800000000000000000e+01,4.978103534999975092e-03
2.803999999999999915e+01,3.371010934357117524e-03
2.807999999999999829e+01,6.556877686418530540e-03
2.812000000000000099e+01,3.504787630894070152e-03
2.816000000000000014e+01,4.917356652949769237e-03
2.819999999999999929e+01,1.930455775075110405e-03
2.823999999999999844e+01,1.372748040496815343e-03
2.828000000000000114e+01,2.521971461542931500e-03
2.832000000000000028e+01,3.802281220961662832e-03
2.835999999999999943e+01,4.819716419381005548e-03
2.839999999999999858e+01,3.867111804229164933e-03
2.844000000000000128e+01,3.899177576793554523e-03
2.848000000000000043e+01,3.405729137482352026e-03
2.851999999999999957e+01,5.801098211202897377e-03
2.855999999999999872e+01,3.534360173644433313e-03
2.860000000000000142e+01,1.530031755893996540e-03
2.864000000000000057e+01,3.333765118178903114e-03
2.867999999999999972e+01,2.839160424708148719e-03
2.871999999999999886e+01,3.788850488688993209e-03
2.876000000000000156e+01,4.869631363509594087e-03
2.880000000000000071e+01,2.010569960838581687e-03
2.883999999999999986e+01,3.616174547742407631e-03
2.887999999999999901e+01,3.383064635450088245e-03
2.892000000000000171e+01,3.149726725029240899e-03
2.896000000000000085e+01,3.178802093707730481e-03
2.900000000000000000e+01,1.872802650740703961e-04
2.903999999999999915e+01,3.630232988754483400e-03
2.907999999999999829e+01,3.855608675318619987e-03
2.912000000000000099e+01,2.439252955194121542e-03
2.916000000000000014e+01,7.600308058286638600e-04
2.919999999999999929e+01,4.858682658529087615e-03
2.923999999999999844e+01,4.229574094285199273e-03
2.928000000000000114e+01,2.287036838004295400e-03
2.932000000000000028e+01,2.051441308633777157e-03
2.935999999999999943e+01,3.457127695101567828e-03
2.939999999999999858e+01,5.453532921435779758e-03
2.944000000000000128e+01,4.035384116965037848e-03
2.948000000000000043e+01,1.697769959356836608e-03
2.951999999999999957e+01,4.087469573958077938e-03
2.955999999999999872e+01,4.966762689657808726e-03
2.960000000000000142e+01,4.729611019003859135e-03
2.964000000000000057e+01,2.391111703684349523e-03
2.967999999999999972e+01,1.365596468606575806e-03
2.971999999999999886e+01,1.653065720358472095e-03
2.976000000000000156e+01,4.501064001067730906e-03
2.980000000000000071e+01,1.045462333223861956e-03
2.983999999999999986e+01,4.155663784772473113e-03
2.987999999999999901e+01,2.538111324783533414e-03
2.992000000000000171e+01,3.284108867123659761e-03
2.996000000000000085e+01,4.292529853261186322e-03
3.000000000000000000e+01,1.689421847844700892e-03
3.003999999999999915e+01,5.455138341780355754e-03
3.007999999999999829e+01,4.361782521798071577e-03
3.012000000000000099e+01,5.434998084104514064e-03
3.016000000000000014e+01,4.144230416748423580e-03
3.019999999999999929e+01,2.984568197397271649e-03
3.023999999999999844e+01,4.976381844998431676e-03
3.028000000000000114e+01,2.437426299921220153e-03
3.032000000000000028e+01,5.676356141371688251e-03
3.035999999999999943e+01,3.924896079699704936e-03
3.039999999999999858e+01,6.309816776231550600e-03
3.044000000000000128e+01,3.638688165156787283e-03
3.048000000000000043e+01,4.381678731201827347e-03
3.051999999999999957e+01,7.553885616054777270e-03
3.055999999999999872e+01,6.326646589664759734e-03
3.060000000000000142e+01,8.316547307178359660e-03
3.064000000000000057e+01,6.694925538544686285e-03
3.067999999999999972e+01,8.356104544650471908e-03
3.071999999999999886e+01,1.060801580802408703e-02
3.076000000000000156e+01,9.839347763954103127e-03
3.080000000000000071e+01,1.307574410864720954e-02
3.083999999999999986e+01,1.394816413567241849e-02
3.087999999999999901e+01,1.613358044057705207e-02
3.092000000000000171e+01,2.009161495356892591e-02
3.096000000000000085e+01,2.332717981015638292e-02
3.100000000000000000e+01,4.100778569638469095e-02
3.103999999999999915e+01,5.061197836146574119e-02
3.107999999999999829e+01,5.837747888968637666e-02
3.112000000000000099e+01,5.832920788057553707e-02
3.116000000000000014e+01,5.690186707140004047e-02
3.119999999999999929e+01,4.444340487272949863e-02
3.123999999999999844e+01,3.520208892336931100e-02
3.128000000000000114e+01,2.635453027052791358e-02
3.132000000000000028e+01,2.446675108679205110e-02
3.135999999999999943e+01,1.535614476419215613e-02
3.139999999999999858e+01,1.097287132343404900e-02
3.144000000000000128e+01,1.013504725322584427e-02
3.148000000000000043e+01,9.559662077156052401e-03
3.151999999999999957e+01,9.378036637132576916e-03
3.155999999999999872e+01,7.292063721643737492e-03
3.160000000000000142e+01,5.205890049417129586e-03
3.164000000000000057e+01,5.680264515780199773e-03
3.167999999999999972e+01,4.906894903041575731e-03
3.171999999999999886e+01,7.941618377608249471e-03
3.176000000000000156e+01,5.395024220689838799e-03
3.180000000000000071e+01,3.833134604873082371e-03
3.183999999999999986e+01,5.225756466545554597e-03
3.187999999999999901e+01,6.552520199935719936e-03
3.192000000000000171e+01,5.383998158211926281e-03
3.196000000000000085e+01,4.083958583721669471e-03
3.200000000000000000e+01,5.147490154132450951e-03
3.203999999999999915e+01,3.781397386853012441e-03
3.207999999999999829e+01,2.349448524230878833e-03
3.211999999999999744e+01,1.442585931793857702e-03
3.215999999999999659e+01,2.767975675289574902e-03
3.220000000000000284e+01,4.158830978526331656e-03
3.224000000000000199e+01,2.135160712112668408e-03
3.228000000000000114e+01,1.884122477775582345e-03
3.232000000000000028e+01,1.961191893583261788e-03
3.235999999999999943e+01,1.447126318883774172e-03
3.239999999999999858e+01,3.493616607944504369e-03
3.243999999999999773e+01,2.191243577954406392e-03
3.247999999999999687e+01,4.040369183840254036e-03
3.252000000000000313e+01,3.065914025131033418e-03
3.256000000000000227e+01,1.172024820554314626e-03
3.260000000000000142e+01,3.611519389497105242e-03
3.264000000000000057e+01,3.161774195948597634e-03
3.267999999999999972e+01,2.908819876516167361e-03
3.271999999999999886e+01,1.342471831608007095e-03
3.275999999999999801e+01,8.921585212316004076e-04
3.279999999999999716e+01,1.032598610694974214e-03
3.284000000000000341e+01,3.667938818725711720e-03
3.288000000000000256e+01,4.595925621672465947e-03
3.292000000000000171e+01,2.962976596543321229e-03
3.296000000000000085e+01,2.136169384459491198e-04
3.300000000000000000e+01,3.373490343587001988e-03
3.303999999999999915e+01,2.593564569556171349e-03
3.307999999999999829e+01,2.732696129780505089e-03
3.311999999999999744e+01,2.871642383608099917e-03
3.315999999999999659e+01,1.959840255067045196e-03
3.320000000000000284e+01,2.558038639484838239e-03
3.324000000000000199e+01,3.615674460889561469e-03
3.328000000000000114e+01,2.768980290109550844e-03
3.332000000000000028e+01,3.366627634392164743e-03
3.335999999999999943e+01,3.110509282225698124e-03
3.339999999999999858e+01,2.854208469777949186e-03
3.343999999999999773e+01,2.072443862356915245e-03
3.347999999999999687e+01,2.144080437410287275e-03
3.352000000000000313e+01,4.054021866425803165e-03
3.356000000000000227e+01,3.403033972772158151e-03
3.360000000000000142e+01,2.948846304756800284e-03
3.364000000000000057e+01,5.646169063667126620e-03
3.367999999999999972e+01,2.696533489652601975e-03
3.371999999999999886e+01,2.964069373399589192e-03
3.375999999999999801e+01,1.983882320616817130e-03
3.379999999999999716e+01,5.862372980271091105e-03
3.384000000000000341e+01,5.407111286551974892e-03
3.388000000000000256e+01,3.178846134786955831e-03
3.392000000000000171e+01,4.430395344362999220e-03
3.396000000000000085e+01,3.711961256089006938e-03
3.400000000000000000e+01,2.336748629752674524e-03
3.403999999999999915e+01,2.405884837061535164e-03
3.407999999999999829e+01,3.656729413963555331e-03
3.411999999999999744e+01,3.134572972347196649e-03
3.415999999999999659e+01,6.424352658204063879e-04
3.420000000000000284e+01,1.695774984410131038e-03
3.424000000000000199e+01,6.294592534704290289e-03
3.428000000000000114e+01,4.524195456632565046e-03
3.432000000000000028e+01,4.460790928961444295e-03
3.435999999999999943e+01,5.447777181678970480e-03
3.439999999999999858e+01,2.954599602833868355e-03
3.443999999999999773e+01,1.971435141173163118e-03
3.447999999999999687e+01,4.205449862444488214e-03
3.452000000000000313e+01,4.797788066396618985e-03
3.456000000000000227e+01,4.273731900897382099e-03
3.460000000000000142e+01,2.895922643174672368e-03
3.464000000000000057e+01,3.750390929835843452e-03
3.467999999999999972e+01,4.801670420009173344e-03
3.471999999999999886e+01,4.014294772822969530e-03
3.475999999999999801e+01,4.145993536584643632e-03
3.479999999999999716e+01,3.555261676382417621e-03
3.484000000000000341e+01,4.934168522863729804e-03
3.488000000000000256e+01,4.408761640677197682e-03
3.492000000000000171e+01,3.620546877910449726e-03
3.496000000000000085e+01,4.736311823931016289e-03
3.500000000000000000e+01,4.998327743607318407e-03
3.503999999999999915e+01,4.669235914167220967e-03
3.507999999999999829e+01,1.779230212399005419e-03
3.511999999999999744e+01,4.732818905369102352e-03
3.515999999999999659e+01,2.170784744487432461e-03
3.520000000000000284e+01,3.219898391080314518e-03
3.524000000000000199e+01,2.627342838936600703e-03
3.528000000000000114e+01,4.135750901263536561e-03
3.532000000000000028e+01,1.967023830570087568e-03
3.535999999999999943e+01,3.606426846682833469e-03
3.539999999999999858e+01,4.129444031690582793e-03
3.543999999999999773e+01,2.879473615581355436e-03
3.547999999999999687e+01,3.599148411562426431e-03
3.552000000000000313e+01,3.793380555142146938e-03
3.556000000000000227e+01,4.250093064828312783e-03
3.560000000000000142e+01,5.297587435508776914e-03
3.564000000000000057e+01,4.769076890991848575e-03
3.567999999999999972e+01,5.290970544264977579e-03
3.571999999999999886e+01,4.105539660196589301e-03
3.575999999999999801e+01,2.329008345594393414e-03
3.579999999999999716e+01,6.527398773045158496e-03
3.584000000000000341e+01,6.457717394178616802e-03
3.588000000000000256e+01,5.862597022202027316e-03
3.592000000000000171e+01,4.807698281363305924e-03
3.596000000000000085e+01,4.212264625490194647e-03
3.600000000000000000e+01,4.732898637770511889e-03
3.603999999999999915e+01,4.334133977332542582e-03
3.607999999999999829e+01,4.591816274603922367e-03
3.611999999999999744e+01,6.819150289372337241e-03
3.615999999999999659e+01,5.369357709466732707e-03
3.620000000000000284e+01,5.692237007254036946e-03
3.624000000000000199e+01,7.919109024642153466e-03
3.628000000000000114e+01,6.600176102439978508e-03
3.632000000000000028e+01,6.594294754074587171e-03
3.635999999999999943e+01,7.047882556554013918e-03
3.639999999999999858e+01,6.779055998586415790e-03
3.643999999999999773e+01,7.101019839959479656e-03
3.647999999999999687e+01,5.256045345541619611e-03
3.652000000000000313e+01,6.365629899399843049e-03
3.656000000000000227e+01,6.490160848522758159e-03
3.660000000000000142e+01,7.468124693977981447e-03
3.664000000000000057e+01,8.905560536393500662e-03
3.667999999999999972e+01,6.271913763818036218e-03
3.671999999999999886e+01,9.350557214177764725e-03
3.675999999999999801e+01,8.029817774422427085e-03
3.679999999999999716e+01,8.875717617138756746e-03
3.684000000000000341e+01,8.276945177615327789e-03
3.688000000000000256e+01,9.385191310119507524e-03
3.692000000000000171e+01,9.311406844199714844e-03
3.696000000000000085e+01,1.035369980454347270e-02
3.700000000000000000e+01,9.229059714739293319e-03
3.703999999999999915e+01,1.138728504715411267e-02
3.707999999999999829e+01,1.216650075451669415e-02
3.711999999999999744e+01,1.084444484915508475e-02
3.715999999999999659e+01,1.063846840299663074e-02
3.720000000000000284e+01,1.154857182262926212e-02
3.724000000000000199e+01,1.482229965018068245e-02
3.728000000000000114e+01,1.428759183219988939e-02
3.732000000000000028e+01,1.552556727637382540e-02
3.735999999999999943e+01,1.663208007715074807e-02
3.739999999999999858e+01,1.544034345833898356e-02
3.743999999999999773e+01,1.792543763358536019e-02
3.747999999999999687e+01,1.955680799093862526e-02
3.752000000000000313e+01,2.282954320806626289e-02
3.756000000000000227e+01,2.426365215557679117e-02
3.760000000000000142e+01,2.530366002857787830e-02
3.764000000000000057e+01,2.608088766897743993e-02
3.767999999999999972e+01,2.981268614870282579e-02
3.771999999999999886e+01,3.216548150878272005e-02
3.775999999999999801e+01,3.865473243924404112e-02
3.779999999999999716e+01,4.205781540407604185e-02
3.784000000000000341e+01,4.953169453480534695e-02
3.788000000000000256e+01,5.976316588482009917e-02
3.792000000000000171e+01,6.960053941302879466e-02
3.796000000000000085e+01,8.613511903329809649e-02
3.800000000000000000e+01,1.062808749221964971e-01
3.803999999999999915e+01,1.303661085746118109e-01
3.807999999999999829e+01,1.632496765039711251e-01
3.811999999999999744e+01,2.220032357084593677e-01
3.815999999999999659e+01,3.024245326644251497e-01
3.820000000000000284e+01,4.243429535117729245e-01
3.824000000000000199e+01,5.886777417043302929e-01
3.828000000000000114e+01,7.928681491599458564e-01
3.832000000000000028e+01,9.354034797828654213e-01
3.835999999999999943e+01,1.000000000000000000e+00
3.839999999999999858e+01,9.606562640245817075e-01
3.843999999999999773e+01,8.298477136185966607e-01
3.847999999999999687e+01,6.690979731360414684e-01
3.852000000000000313e+01,5.102522485485988524e-01
3.856000000000000227e+01,3.772765197087522004e-01
3.860000000000000142e+01,2.710243698526693112e-01
3.864000000000000057e+01,2.096836796787548696e-01
3.867999999999999972e+01,1.634447107759622597e-01
3.871999999999999886e+01,1.238372954727407355e-01
3.875999999999999801e+01,1.060289444551355542e-01
3.879999999999999716e+01,8.618499911915891709e-02
3.884000000000000341e+01,7.205336555527733222e-02
3.888000000000000256e+01,5.916914936919952239e-02
3.892000000000000171e+01,5.212856620371261046e-02
3.896000000000000085e+01,4.607276035856534141e-02
3.900000000000000000e+01,4.435040334100507492e-02
3.903999999999999915e+01,3.941057052672104766e-02
3.907999999999999829e+01,3.440495276998065816e-02
3.911999999999999744e+01,3.281354201335117543e-02
3.915999999999999659e+01,3.063106538616125127e-02
3.920000000000000284e+01,2.969600938947847268e-02
3.924000000000000199e+01,2.462423658177172528e-02
3.928000000000000114e+01,2.526478001862717676e-02
3.932000000000000028e+01,2.492029790531393590e-02
3.935999999999999943e+01,2.411607238969983372e-02
3.939999999999999858e+01,2.429662866689253492e-02
3.943999999999999773e+01,2.322951974304035896e-02
3.947999999999999687e+01,2.321285364283081493e-02
3.952000000000000313e+01,2.464059207881176550e-02
3.956000000000000227e+01,2.396708370393174983e-02
3.960000000000000142e+01,2.493496133139803603e-02
3.964000000000000057e+01,2.183178643137955247e-02
3.967999999999999972e+01,1.991037682326328787e-02
3.971999999999999886e+01,1.779186834277741644e-02
3.975999999999999801e+01,1.659248509672965957e-02
3.979999999999999716e+01,1.440808117956826617e-02
3.984000000000000341e+01,1.491562918684051497e-02
3.988000000000000256e+01,1.371589494191511466e-02
3.992000000000000171e+01,1.251604451053966657e-02
3.996000000000000085e+01,1.236664178186192529e-02
4.000000000000000000e+01,1.353032803310975571e-02
4.003999999999999915e+01,1.141088843467190188e-02
4.007999999999999829e+01,1.231170428849514935e-02
4.011999999999999744e+01,1.354070707710791459e-02
4.015999999999999659e+01,1.358771220091839135e-02
4.020000000000000284e+01,1.383158463737423939e-02
4.024000000000000199e+01,1.453496566370334787e-02
4.028000000000000114e+01,1.346540828605402584e-02
4.032000000000000028e+01,1.351196248805369010e-02
4.035999999999999943e+01,1.460896845863026740e-02
4.039999999999999858e+01,1.065002636199277250e-02
4.043999999999999773e+01,1.102454773010745105e-02
4.047999999999999687e+01,8.772549897603463057e-03
4.052000000000000313e+01,9.081190466207807871e-03
4.056000000000000227e+01,8.470478306529031359e-03
4.060000000000000142e+01,6.612112736855108031e-03
4.064000000000000057e+01,7.051745917413327486e-03
4.067999999999999972e+01,8.213533030951902791e-03
4.071999999999999886e+01,5.829560336159507472e-03
4.075999999999999801e+01,7.713394141162670248e-03
4.079999999999999716e+01,6.839391562930566097e-03
4.084000000000000341e+01,7.606787591270335915e-03
4.088000000000000256e+01,8.374077191270196466e-03
4.092000000000000171e+01,7.434095110358358675e-03
4.096000000000000085e+01,4.524200884482808098e-03
4.100000000000000000e+01,6.932679080490159428e-03
4.103999999999999915e+01,7.568226597689602618e-03
4.107999999999999829e+01,5.839901883729161670e-03
4.111999999999999744e+01,6.869202322675844845e-03
4.115999999999999659e+01,6.585194826198302424e-03
4.120000000000000284e+01,7.548628289623995728e-03
4.124000000000000199e+01,5.951210495261528149e-03
4.128000000000000114e+01,7.439720568457818504e-03
4.132000000000000028e+01,6.827001720661714408e-03
4.135999999999999943e+01,7.790026547420464235e-03
4.139999999999999858e+01,6.717483484022653342e-03
4.143999999999999773e+01,6.498422514095685519e-03
4.147999999999999687e+01,8.446048397427243296e-03
4.152000000000000313e+01,5.994339774606415906e-03
4.156000000000000227e+01,5.577998382899984099e-03
4.160000000000000142e+01,6.277781581656036343e-03
4.164000000000000057e+01,5.073319765103024084e-03
4.167999999999999972e+01,6.363847923048091687e-03
4.171999999999999886e+01,7.588617973339613527e-03
4.175999999999999801e+01,6.186881833825970921e-03
4.179999999999999716e+01,5.901272317714419818e-03
4.184000000000000341e+01,5.221604825413145301e-03
4.188000000000000256e+01,7.693531517149443041e-03
4.192000000000000171e+01,5.700467550952588100e-03
4.196000000000000085e+01,5.480134011109394007e-03
4.200000000000000000e+01,8.214415222087571508e-03
4.203999999999999915e+01,6.089745688936430180e-03
4.207999999999999829e+01,5.278186278282796795e-03
4.211999999999999744e+01,6.108038485014534273e-03
4.215999999999999659e+01,7.528739233159754962e-03
4.220000000000000284e+01,5.272374781407128050e-03
4.224000000000000199e+01,6.955530784903231518e-03
4.228000000000000114e+01,7.391050455096912115e-03
4.232000000000000028e+01,6.119312674956158687e-03
4.235999999999999943e+01,6.751629822368267544e-03
4.239999999999999858e+01,9.156681868601175209e-03
4.243999999999999773e+01,7.753350719143794860e-03
4.247999999999999687e+01,6.284269187203382449e-03
4.252000000000000313e+01,6.062642032567633517e-03
4.256000000000000227e+01,8.139033144384274013e-03
4.260000000000000142e+01,7.785907257722079686e-03
4.264000000000000057e+01,8.942877838768252888e-03
4.267999999999999972e+01,8.589575281751266750e-03
4.271999999999999886e+01,7.776563475818856763e-03
4.275999999999999801e+01,8.145348269058640123e-03
4.279999999999999716e+01,6.872540708679053707e-03
4.284000000000000341e+01,9.210958614067078429e-03
4.288000000000000256e+01,9.185522584751699970e-03
4.292000000000000171e+01,1.001358369266027414e-02
4.296000000000000085e+01,1.208910365034064453e-02
4.300000000000000000e+01,1.173511067542138894e-02
4.303999999999999915e+01,1.052745039833014734e-02
4.307999999999999829e+01,1.030460932013451195e-02
4.311999999999999744e+01,9.228101752942741848e-03
4.315999999999999659e+01,1.038395833336220805e-02
4.320000000000000284e+01,9.044643796461668966e-03
4.324000000000000199e+01,9.740713567368237263e-03
4.328000000000000114e+01,1.037104108755021112e-02
4.332000000000000028e+01,1.113260741657548167e-02
4.335999999999999943e+01,8.808062295692543550e-03
4.339999999999999858e+01,1.042304942110806182e-02
4.343999999999999773e+01,1.065909156895090103e-02
4.347999999999999687e+01,1.207693763454854852e-02
4.352000000000000313e+01,1.362602454192908888e-02
4.356000000000000227e+01,1.359918703852076166e-02
4.360000000000000142e+01,1.265302770751136965e-02
4.364000000000000057e+01,1.498980088572808220e-02
4.367999999999999972e+01,1.410914543141997268e-02
4.371999999999999886e+01,1.743066634675366489e-02
4.375999999999999801e+01,1.733777878975840958e-02
4.379999999999999716e+01,1.842669840322132963e-02
4.384000000000000341e+01,1.774271579903086149e-02
4.388000000000000256e+01,2.139223162615384866e-02
4.392000000000000171e+01,2.372846757241921928e-02
4.396000000000000085e+01,2.553934665633473752e-02
4.400000000000000000e+01,2.918863712024792958e-02
4.403999999999999915e+01,3.342879523520691371e-02
4.407999999999999829e+01,3.668397618395992377e-02
4.411999999999999744e+01,4.177756973247433864e-02
4.415999999999999659e+01,5.172994629969759200e-02
4.420000000000000284e+01,5.944980278493882525e-02
4.424000000000000199e+01,6.854845156608532775e-02
4.428000000000000114e+01,8.546059438040390366e-02
4.432000000000000028e+01,1.044737926980634363e-01
4.435999999999999943e+01,1.376038667574297769e-01
4.439999999999999858e+01,1.835376126118910545e-01
4.443999999999999773e+01,2.264509182119780195e-01
4.447999999999999687e+01,2.806577114141559637e-01
4.452000000000000313e+01,3.380817858528344377e-01
4.456000000000000227e+01,3.714084913880459360e-01
4.460000000000000142e+01,3.804408477733985383e-01
4.464000000000000057e+01,3.588754745201214180e-01
4.467999999999999972e+01,3.121621701005813931e-01
4.471999999999999886e+01,2.635446519730021975e-01
4.475999999999999801e+01,2.093459483550125788e-01
4.479999999999999716e+01,1.628950838381779676e-01
4.484000000000000341e+01,1.252426223116461512e-01
4.488000000000000256e+01,9.724214701158490071e-02
4.492000000000000171e+01,7.751479377372237634e-02
4.496000000000000085e+01,6.290887255696704650e-02
4.500000000000000000e+01,5.263646115598701047e-02
4.503999999999999915e+01,4.466209322991048641e-02
4.507999999999999829e+01,3.970803157958532892e-02
4.511999999999999744e+01,3.639541204073966363e-02
4.515999999999999659e+01,2.960273804248234053e-02
4.520000000000000284e+01,2.688093502229993437e-02
4.524000000000000199e+01,2.429039032718108282e-02
4.528000000000000114e+01,2.176544414605369182e-02
4.532000000000000028e+01,2.101326254466539742e-02
4.535999999999999943e+01,1.927611678788461111e-02
4.539999999999999858e+01,1.964003751231870390e-02
4.543999999999999773e+01,1.409447857003701295e-02
4.547999999999999687e+01,1.360469671684552857e-02
4.552000000000000313e+01,1.613522561187252791e-02
4.556000000000000227e+01,1.347853845420736787e-02
4.560000000000000142e+01,1.134707458685698701e-02
4.564000000000000057e+01,1.315516573472869273e-02
4.567999999999999972e+01,9.382080743712087681e-03
4.571999999999999886e+01,9.548551581093411844e-03
4.575999999999999801e+01,8.598741893641478548e-03
4.579999999999999716e+01,1.106320710648341435e-02
4.584000000000000341e+01,8.012158024448712279e-03
4.588000000000000256e+01,7.456141608643892561e-03
4.592000000000000171e+01,8.016293694797104255e-03
4.596000000000000085e+01,6.606584459476817252e-03
4.600000000000000000e+01,8.808132810369979221e-03
4.603999999999999915e+01,7.923596952745677255e-03
4.607999999999999829e+01,6.907687087891332262e-03
4.611999999999999744e+01,5.826063840054838440e-03
4.615999999999999659e+01,5.335329792424002050e-03
4.620000000000000284e+01,7.011330575426479549e-03
4.624000000000000199e+01,5.404268529871136817e-03
4.628000000000000114e+01,4.125456033645272767e-03
4.632000000000000028e+01,4.225456975896620289e-03
4.635999999999999943e+01,4.719368498313267213e-03
4.639999999999999858e+01,4.490967307263345198e-03
4.643999999999999773e+01,5.050438815514495319e-03
4.647999999999999687e+01,5.544200600074806681e-03
4.652000000000000313e+01,4.002446537732533630e-03
4.656000000000000227e+01,6.203276189154584980e-03
4.660000000000000142e+01,5.252367106630102291e-03
4.664000000000000057e+01,4.498390797406407945e-03
4.667999999999999972e+01,3.941347668071427598e-03
4.671999999999999886e+01,2.793315513293231477e-03
4.675999999999999801e+01,4.140324969679178881e-03
4.679999999999999716e+01,3.320500989958034485e-03
4.684000000000000341e+01,1.187426810297547266e-03
4.688000000000000256e+01,2.599958944124802947e-03
4.692000000000000171e+01,3.618484738428403864e-03
4.696000000000000085e+01,3.389421770216427196e-03
4.700000000000000000e+01,3.685596322896487077e-03
4.703999999999999915e+01,5.163610979656372418e-03
4.707999999999999829e+01,2.504988516624965991e-03
4.711999999999999744e+01,2.210090888729033132e-03
4.715999999999999659e+01,4.475899155536447634e-03
4.720000000000000284e+01,3.196013481256235536e-03
4.724000000000000199e+01,4.017212991235304814e-03
4.728000000000000114e+01,2.934224814802277332e-03
4.732000000000000028e+01,3.755341982824423556e-03
4.735999999999999943e+01,3.394534671870191693e-03
4.739999999999999858e+01,5.069153953866945353e-03
4.743999999999999773e+01,1.950537598763810252e-03
4.747999999999999687e+01,2.246213220647256485e-03
4.752000000000000313e+01,2.476189690125826879e-03
4.756000000000000227e+01,2.509146978467456657e-03
4.760000000000000142e+01,2.148104839280107290e-03
4.764000000000000057e+01,4.282113256191196447e-03
4.767999999999999972e+01,1.557228257869932133e-03
4.771999999999999886e+01,2.509278546702743608e-03
4.775999999999999801e+01,3.592612775638156803e-03
4.779999999999999716e+01,2.443463515504540415e-03
4.784000000000000341e+01,4.839930326968769868e-03
4.788000000000000256e+01,3.362409021040090908e-03
4.792000000000000171e+01,1.293910887305843712e-03
4.796000000000000085e+01,2.311408521313292486e-03
4.800000000000000000e+01,1.818687093451188015e-03
4.803999999999999915e+01,1.457252451807149662e-03
4.807999999999999829e+01,3.656533056388668480e-03
4.811999999999999744e+01,3.885974295244473339e-03
4.815999999999999659e+01,2.605198098582395261e-03
4.820000000000000284e+01,3.162875973649777878e-03
4.824000000000000199e+01,2.210337226375127129e-03
4.828000000000000114e+01,2.045689881445956863e-03
4.832000000000000028e+01,2.603274127790209010e-03
4.835999999999999943e+01,1.978944059856128142e-03
4.839999999999999858e+01,2.930429225951161447e-03
4.843999999999999773e+01,3.750564373503529388e-03
4.847999999999999687e+01,3.585767079521294184e-03
4.852000000000000313e+01,2.239057097612428150e-03
4.856000000000000227e+01,3.650047893964153151e-03
4.860000000000000142e+01,2.500262244705321168e-03
4.864000000000000057e+01,2.401012527723223305e-03
4.867999999999999972e+01,2.236075449385975175e-03
4.871999999999999886e+01,2.727713810541379340e-03
4.875999999999999801e+01,3.416306494157432885e-03
4.879999999999999716e+01,1.872425853402483707e-03
4.884000000000000341e+01,2.889268184043608870e-03
4.888000000000000256e+01,3.774764968609207062e-03
4.892000000000000171e+01,3.018731607507466400e-03
4.896000000000000085e+01,3.510218084365804552e-03
4.900000000000000000e+01,3.476398928952442648e-03
4.903999999999999915e+01,3.902177812755144165e-03
4.907999999999999829e+01,1.701524912342361863e-03
4.911999999999999744e+01,3.046501094340937910e-03
4.915999999999999659e+01,2.093347393599821315e-03
4.920000000000000284e+01,2.125075099706353124e-03
4.924000000000000199e+01,3.010364183928482869e-03
4.928000000000000114e+01,2.648088087734496582e-03
4.932000000000000028e+01,2.942393529851989285e-03
4.935999999999999943e+01,3.476291632295045808e-04
4.939999999999999858e+01,3.202643037273481420e-03
4.943999999999999773e+01,3.562549221713260956e-03
4.947999999999999687e+01,4.579038570816196946e-03
4.952000000000000313e+01,4.544945832010522865e-03
4.956000000000000227e+01,4.510834894443970303e-03
4.960000000000000142e+01,5.067648123644345748e-03
4.964000000000000057e+01,2.078792213620332674e-03
4.967999999999999972e+01,5.458960437618060393e-03
4.971999999999999886e+01,4.177236635347426549e-03
4.975999999999999801e+01,5.193604285355116375e-03
4.979999999999999716e+01,5.356373346549605195e-03
4.984000000000000341e+01,5.256486184458717716e-03
4.988000000000000256e+01,7.192050823769953471e-03
4.992000000000000171e+01,8.077037441051806640e-03
4.996000000000000085e+01,1.277030254973132023e-02
5.000000000000000000e+01,1.601902914359734642e-02
5.003999999999999915e+01,1.782321762923782041e-02
5.007999999999999829e+01,1.824852863090063032e-02
5.011999999999999744e+01,2.418928540947249545e-02
5.015999999999999659e+01,2.619041702850300607e-02
5.020000000000000284e+01,2.786323586587944462e-02
5.024000000000000199e+01,2.612171209817027578e-02
5.028000000000000114e+01,2.523376027986266867e-02
5.032000000000000028e+01,1.896166013984565760e-02
5.035999999999999943e+01,1.603822103348560499e-02
5.039999999999999858e+01,1.219552921947119131e-02
5.043999999999999773e+01,8.878109892910089965e-03
5.047999999999999687e+01,9.762935649349569270e-03
5.052000000000000313e+01,7.102101211498911687e-03
5.056000000000000227e+01,5.163521133845300204e-03
5.060000000000000142e+01,5.457380829156372425e-03
5.064000000000000057e+01,4.963310691660598878e-03
5.067999999999999972e+01,4.928855263485671864e-03
5.071999999999999886e+01,4.172131033339736284e-03
5.075999999999999801e+01,3.546721237390543062e-03
5.079999999999999716e+01,3.052626282226026527e-03
5.084000000000000341e+01,3.740410056993923905e-03
5.088000000000000256e+01,3.837247091462460229e-03
5.092000000000000171e+01,3.540118445199527068e-03
5.096000000000000085e+01,3.374306266072962367e-03
5.100000000000000000e+01,3.668112048970612570e-03
5.103999999999999915e+01,3.239652282600627344e-03
5.107999999999999829e+01,2.679869332490818386e-03
5.111999999999999744e+01,2.579705564168986113e-03
5.115999999999999659e+01,2.348219425283179247e-03
5.120000000000000284e+01,3.823897416900978730e-03
5.124000000000000199e+01,3.461088191970946703e-03
5.128000000000000114e+01,1.785073898360906800e-03
5.132000000000000028e+01,3.392070178857964097e-03
5.135999999999999943e+01,3.882842856830817299e-03
5.139999999999999858e+01,2.469469726947538801e-03
5.143999999999999773e+01,3.222884690715312282e-03
5.147999999999999687e+01,3.779320318962502753e-03
5.152000000000000313e+01,2.759912447417251034e-03
5.156000000000000227e+01,3.447672365666904892e-03
5.160000000000000142e+01,3.347512209219844978e-03
5.164000000000000057e+01,2.919053908283891687e-03
5.167999999999999972e+01,3.147201134346794184e-03
5.171999999999999886e+01,3.441012335056594252e-03
5.175999999999999801e+01,2.618603999121401227e-03
5.179999999999999716e+01,2.058841103988909554e-03
5.184000000000000341e+01,3.206248844766787856e-03
5.188000000000000256e+01,1.989894133123654325e-03
5.192000000000000171e+01,2.021089346946813945e-03
5.196000000000000085e+01,2.708892933884282476e-03
5.200000000000000000e+01,2.346139641364302503e-03
5.203999999999999915e+01,3.624898800034296719e-03
5.207999999999999829e+01,2.539897539222901301e-03
5.211999999999999744e+01,2.702448236817410390e-03
5.215999999999999659e+01,3.849910428765777881e-03
5.220000000000000284e+01,4.669080168456158676e-03
5.224000000000000199e+01,3.387131985656805996e-03
5.228000000000000114e+01,3.090096516975077406e-03
5.232000000000000028e+01,2.727410686439080915e-03
5.235999999999999943e+01,2.233414682976758020e-03
5.239999999999999858e+01,3.315274572335738697e-03
5.243999999999999773e+01,2.952620748744452274e-03
5.247999999999999687e+01,2.918279495610516788e-03
5.252000000000000313e+01,2.096027519302066065e-03
5.256000000000000227e+01,1.930390014926754204e-03
5.260000000000000142e+01,2.158726518432543123e-03
5.264000000000000057e+01,3.371979395347277260e-03
5.267999999999999972e+01,2.681099475219355342e-03
5.271999999999999886e+01,1.333631300176494174e-03
5.275999999999999801e+01,3.597489424705858311e-03
5.279999999999999716e+01,2.250050312796663537e-03
5.284000000000000341e+01,2.872432872135815239e-03
5.288000000000000256e+01,3.429170761851612660e-03
5.292000000000000171e+01,3.001021341292145136e-03
5.296000000000000085e+01,4.936656117704722908e-03
5.300000000000000000e+01,3.983258084878216372e-03
5.303999999999999915e+01,4.934023538579693918e-03
5.307999999999999829e+01,3.389718302177849047e-03
5.311999999999999744e+01,2.633353665260022586e-03
5.315999999999999659e+01,2.730590252074137792e-03
5.320000000000000284e+01,2.696525204308275556e-03
5.324000000000000199e+01,3.450401975790204356e-03
5.328000000000000114e+01,2.234491831388329616e-03
5.332000000000000028e+01,3.054068454949875576e-03
5.335999999999999943e+01,2.757441805383299346e-03
5.339999999999999858e+01,2.920457513116256516e-03
5.343999999999999773e+01,2.229911631536912395e-03
5.347999999999999687e+01,3.903155232572604570e-03
5.352000000000000313e+01,2.818691745332155708e-03
5.356000000000000227e+01,2.653493765362861453e-03
5.360000000000000142e+01,2.750959522652736064e-03
5.364000000000000057e+01,4.621274429969442731e-03
5.367999999999999972e+01,3.339922569401773070e-03
5.371999999999999886e+01,2.124255012877091561e-03
5.375999999999999801e+01,2.418796955503046877e-03
5.379999999999999716e+01,2.516383144707867725e-03
5.384000000000000341e+01,2.417013987079483228e-03
5.388000000000000256e+01,3.696535113045530761e-03
5.392000000000000171e+01,3.662878005134400771e-03
5.396000000000000085e+01,3.103965681853902963e-03
5.400000000000000000e+01,4.252245950231529729e-03
5.403999999999999915e+01,2.511503980656033374e-03
5.407999999999999829e+01,3.594179116134321641e-03
5.411999999999999744e+01,4.151600662594922588e-03
5.415999999999999659e+01,3.658487285345826592e-03
5.420000000000000284e+01,3.493703961834728096e-03
5.424000000000000199e+01,3.722911316309545585e-03
5.428000000000000114e+01,2.179322572578556213e-03
5.432000000000000028e+01,4.312736203008728925e-03
5.435999999999999943e+01,3.819771718829119943e-03
5.439999999999999858e+01,3.655139321327104639e-03
5.443999999999999773e+01,4.081480287730564378e-03
5.447999999999999687e+01,3.260308930147747843e-03
5.452000000000000313e+01,2.964451531986274369e-03
5.456000000000000227e+01,3.456549370474001903e-03
5.460000000000000142e+01,3.751699587299034324e-03
5.464000000000000057e+01,3.193300412449417112e-03
5.467999999999999972e+01,3.422857694012762693e-03
5.471999999999999886e+01,4.440371838577008429e-03
5.475999999999999801e+01,5.063959334850288811e-03
5.479999999999999716e+01,4.374377542180667156e-03
5.484000000000000341e+01,4.735394702915660982e-03
5.488000000000000256e+01,4.505505782143497465e-03
5.492000000000000171e+01,3.553390751132084937e-03
5.496000000000000085e+01,5.293381334788771139e-03
5.500000000000000000e+01,7.624350974581830392e-03
5.503999999999999915e+01,8.576493547299562578e-03
5.507999999999999829e+01,7.558867500589963075e-03
5.511999999999999744e+01,8.839387388940210533e-03
5.515999999999999659e+01,9.988625565518662389e-03
5.520000000000000284e+01,1.382997179629273307e-02
5.524000000000000199e+01,1.366608428653151922e-02
5.528000000000000114e+01,1.829543260926141252e-02
5.532000000000000028e+01,2.128331584039145144e-02
5.535999999999999943e+01,2.151351068628975377e-02
5.539999999999999858e+01,2.082450364802393428e-02
5.543999999999999773e+01,1.941327578516187716e-02
5.547999999999999687e+01,1.734548772195147748e-02
5.552000000000000313e+01,1.600000443584041407e-02
5.556000000000000227e+01,1.380098110957691734e-02
5.560000000000000142e+01,1.107671923804880339e-02
5.564000000000000057e+01,8.418161186783925526e-03
5.567999999999999972e+01,8.451716068769737911e-03
5.571999999999999886e+01,7.697392754614760385e-03
5.575999999999999801e+01,9.569522969226321174e-03
5.579999999999999716e+01,5.138317517433919381e-03
5.584000000000000341e+01,6.485256855263350599e-03
5.588000000000000256e+01,6.059416358403852364e-03
5.592000000000000171e+01,7.275127751762751165e-03
5.596000000000000085e+01,6.324098817648659936e-03
5.600000000000000000e+01,4.585194533509230619e-03
5.603999999999999915e+01,6.260669236171647299e-03
5.607999999999999829e+01,4.259219824945102532e-03
5.611999999999999744e+01,5.803470649016220784e-03
5.615999999999999659e+01,3.408157301734262776e-03
5.620000000000000284e+01,3.836282608665949560e-03
5.624000000000000199e+01,3.804836093399777304e-03
5.628000000000000114e+01,4.889663386363385551e-03
5.632000000000000028e+01,5.383599234985009079e-03
5.635999999999999943e+01,4.236080563292767172e-03
5.639999999999999858e+01,4.992759531513923411e-03
5.643999999999999773e+01,3.320062180677181476e-03
5.647999999999999687e+01,3.879864371229660523e-03
5.652000000000000313e+01,4.571039544639612755e-03
5.656000000000000227e+01,5.327927889834991812e-03
5.660000000000000142e+01,3.983742630624119950e-03
5.664000000000000057e+01,5.134699409794072321e-03
5.667999999999999972e+01,5.038166227313454690e-03
5.671999999999999886e+01,2.577919789550377899e-03
5.675999999999999801e+01,4.319982269091617033e-03
5.679999999999999716e+01,6.324741012925765536e-03
5.684000000000000341e+01,4.783903803361431138e-03
5.688000000000000256e+01,4.162365847865760575e-03
5.692000000000000171e+01,5.051069511966546459e-03
5.696000000000000085e+01,3.576062360312406724e-03
5.700000000000000000e+01,5.121482647610327461e-03
5.703999999999999915e+01,3.974891844029211467e-03
5.707999999999999829e+01,4.010243198096309462e-03
5.711999999999999744e+01,4.636595157459645448e-03
5.715999999999999659e+01,6.576210522967021119e-03
5.720000000000000284e+01,5.692495988627081782e-03
5.724000000000000199e+01,5.399783279347141786e-03
5.728000000000000114e+01,4.516188883835353836e-03
5.732000000000000028e+01,5.011519738479256782e-03
5.735999999999999943e+01,4.128047108147279466e-03
5.739999999999999858e+01,4.951801629446811112e-03
5.743999999999999773e+01,3.740151302346410647e-03
5.747999999999999687e+01,5.089311769633193122e-03
5.752000000000000313e+01,5.256651031275763435e-03
5.756000000000000227e+01,6.146315806001678012e-03
5.760000000000000142e+01,5.788499970599213749e-03
5.764000000000000057e+01,6.021690026135979347e-03
5.767999999999999972e+01,5.401361590680153583e-03
5.771999999999999886e+01,6.356943124239207779e-03
5.775999999999999801e+01,6.393346762321522152e-03
5.779999999999999716e+01,4.985291170235113534e-03
5.784000000000000341e+01,4.365224155007491232e-03
5.788000000000000256e+01,6.043331129406323207e-03
5.792000000000000171e+01,6.736601617020120808e-03
5.796000000000000085e+01,4.934851018257048298e-03
5.800000000000000000e+01,7.269761723363868389e-03
5.803999999999999915e+01,5.599467149089946451e-03
5.807999999999999829e+01,6.686970121002010908e-03
5.811999999999999744e+01,5.082472979908936317e-03
5.815999999999999659e+01,5.447851586257823620e-03
5.820000000000000284e+01,4.894056769597109058e-03
5.824000000000000199e+01,5.456555683974350333e-03
5.828000000000000114e+01,5.428183076817767044e-03
5.832000000000000028e+01,5.859502837275112896e-03
5.835999999999999943e+01,5.437311018734518504e-03
5.839999999999999858e+01,3.439345633524052565e-03
5.843999999999999773e+01,6.694269724870411178e-03
5.847999999999999687e+01,6.666255403563045231e-03
5.852000000000000313e+01,5.981711782589399333e-03
5.856000000000000227e+01,5.822523186417187697e-03
5.860000000000000142e+01,5.729068498014434734e-03
5.864000000000000057e+01,5.701348123969026196e-03
5.867999999999999972e+01,6.264644212148803501e-03
5.871999999999999886e+01,5.120849551042113215e-03
5.875999999999999801e+01,6.143917389176170064e-03
5.879999999999999716e+01,4.803293114599703137e-03
5.884000000000000341e+01,5.892173023079785160e-03
5.888000000000000256e+01,6.193206855864929854e-03
5.892000000000000171e+01,5.706395019543019503e-03
5.896000000000000085e+01,6.335884232841663445e-03
5.900000000000000000e+01,6.177528590209130539e-03
5.903999999999999915e+01,7.004154375052997622e-03
5.907999999999999829e+01,6.583314593521604093e-03
5.911999999999999744e+01,6.228214005402643756e-03
5.915999999999999659e+01,6.858096064523852564e-03
5.920000000000000284e+01,6.109193341713586856e-03
5.924000000000000199e+01,6.936216038259250191e-03
5.928000000000000114e+01,6.975396724989165083e-03
5.932000000000000028e+01,5.110512108271458853e-03
5.935999999999999943e+01,6.397399354513162544e-03
5.939999999999999858e+01,6.239843634103020217e-03
5.943999999999999773e+01,5.885389489168710297e-03
5.947999999999999687e+01,7.041202985457868831e-03
5.952000000000000313e+01,6.555594081878977214e-03
5.956000000000000227e+01,7.514593415039395180e-03
5.960000000000000142e+01,6.963491596827579150e-03
5.964000000000000057e+01,5.033609469151436103e-03
5.967999999999999972e+01,5.467579845218200306e-03
5.971999999999999886e+01,5.770314860536246773e-03
5.975999999999999801e+01,6.138795574673473580e-03
5.979999999999999716e+01,6.638682611877792274e-03
5.984000000000000341e+01,5.956772025537337804e-03
5.988000000000000256e+01,7.047774016939534550e-03
5.992000000000000171e+01,6.825658762652821177e-03
5.996000000000000085e+01,5.356086886925117037e-03
