2.003999999999999915e+01,4.525504438200934204e-02
2.007999999999999829e+01,7.384118605837516891e-02
2.012000000000000099e+01,3.519871726286031427e-02
2.016000000000000014e+01,2.902368705715431194e-02
2.019999999999999929e+01,3.025974186515614436e-02
2.023999999999999844e+01,3.431909770904348345e-02
2.028000000000000114e+01,3.167328139761666633e-02
2.032000000000000028e+01,2.726298100742527084e-02
2.035999999999999943e+01,7.437705763164553785e-02
2.039999999999999858e+01,3.820527588271008246e-02
2.044000000000000128e+01,1.756141889134828563e-02
2.048000000000000043e+01,5.479425020682796021e-02
2.051999999999999957e+01,3.750308908797427010e-02
2.055999999999999872e+01,4.015117897101144057e-02
2.060000000000000142e+01,4.368157461036799305e-02
2.064000000000000057e+01,4.315358565583796852e-02
2.067999999999999972e+01,2.409804970284375181e-02
2.071999999999999886e+01,4.403870431317080669e-02
2.076000000000000156e+01,3.345299299031672530e-02
2.080000000000000071e+01,4.439460452411325003e-02
2.083999999999999986e+01,3.945546230501369156e-02
2.087999999999999901e+01,4.422127719403991936e-02
2.092000000000000171e+01,5.445717158575394401e-02
2.096000000000000085e+01,2.640275416769511177e-02
2.100000000000000000e+01,5.869535488440067589e-02
2.103999999999999915e+01,5.022729691098809512e-02
2.107999999999999829e+01,2.993690164612823265e-02
2.112000000000000099e+01,3.082091377090928619e-02
2.116000000000000014e+01,2.729362015065361566e-02
2.119999999999999929e+01,4.423491890161436457e-02
2.123999999999999844e+01,3.417890180129748434e-02
2.128000000000000114e+01,3.400428362701661544e-02
2.132000000000000028e+01,3.259451251184350418e-02
2.135999999999999943e+01,2.147983438173078213e-02
2.139999999999999858e+01,3.400990029015088512e-02
2.144000000000000128e+01,3.507052504805444060e-02
2.148000000000000043e+01,3.277855408344833299e-02
2.151999999999999957e+01,2.148748430135804383e-02
2.155999999999999872e+01,2.643012019042142655e-02
2.160000000000000142e+01,3.049050155317944641e-02
2.164000000000000057e+01,1.761138730932597374e-02
2.167999999999999972e+01,2.537730498094306272e-02
2.171999999999999886e+01,2.573219682666402428e-02
2.176000000000000156e+01,1.832315533727653031e-02
2.180000000000000071e+01,2.308938941565576511e-02
2.183999999999999986e+01,4.461868076596767207e-02
2.187999999999999901e+01,2.009369396700811522e-02
2.192000000000000171e+01,5.820959057626207828e-02
2.196000000000000085e+01,3.562559230864652260e-02
2.200000000000000000e+01,2.380523843512078602e-02
2.203999999999999915e+01,5.803916505726976205e-02
2.207999999999999829e+01,4.286619730835721648e-02
2.212000000000000099e+01,4.780888941122926616e-02
2.216000000000000014e+01,6.978870765025467103e-04
2.219999999999999929e+01,4.569544228626735288e-02
2.223999999999999844e+01,2.999309466136574134e-02
2.228000000000000114e+01,3.546512145808855543e-02
2.232000000000000028e+01,0.000000000000000000e+00
2.235999999999999943e+01,3.370451733412183765e-02
2.239999999999999858e+01,3.388291795984278709e-02
2.244000000000000128e+01,4.941273331553743681e-02
2.248000000000000043e+01,2.488766180006835721e-02
2.251999999999999957e+01,1.730208141664517710e-02
2.255999999999999872e+01,3.106732068324141033e-02
2.260000000000000142e+01,2.524623926646924268e-02
2.264000000000000057e+01,9.190854897680142063e-03
2.267999999999999972e+01,4.801239214491879320e-02
2.271999999999999886e+01,3.407440629419596773e-02
2.276000000000000156e+01,3.848753024408650691e-02
2.280000000000000071e+01,3.619541041848893526e-02
2.283999999999999986e+01,3.108001577680028979e-02
2.287999999999999901e+01,4.255119566332008635e-02
2.292000000000000171e+01,3.884737542664800508e-02
2.296000000000000085e+01,3.584934068724174305e-02
2.300000000000000000e+01,2.861640109489542450e-02
2.303999999999999915e+01,5.261564593738637247e-02
2.307999999999999829e+01,3.197220401529744793e-02
2.312000000000000099e+01,1.679877907034780030e-02
2.316000000000000014e+01,5.666020766025019369e-04
2.319999999999999929e+01,2.491862383856140520e-02
2.323999999999999844e+01,2.527297707309981642e-02
2.328000000000000114e+01,3.374414053034553718e-02
2.332000000000000028e+01,5.315536405254379232e-02
2.335999999999999943e+01,2.739453329378889468e-02
2.339999999999999858e+01,5.015828898524044011e-02
2.344000000000000128e+01,2.351511165347290253e-02
2.348000000000000043e+01,3.022154448573777588e-02
2.351999999999999957e+01,2.634074298338188319e-02
2.355999999999999872e+01,2.775349276686339337e-02
2.360000000000000142e+01,3.322462039600958261e-02
2.364000000000000057e+01,3.534309091392544983e-02
2.367999999999999972e+01,3.375599681139865998e-02
2.371999999999999886e+01,5.987200409378913568e-02
2.376000000000000156e+01,4.187466484409729794e-02
2.380000000000000071e+01,3.481737201742001603e-02
2.383999999999999986e+01,2.599549507110023375e-02
2.387999999999999901e+01,4.222991716950384722e-02
2.392000000000000171e+01,3.887798106920988678e-02
2.396000000000000085e+01,4.328992949316079475e-02
2.400000000000000000e+01,2.793906425856546374e-02
2.403999999999999915e+01,4.805523150671313359e-02
2.407999999999999829e+01,2.917518552772320473e-02
2.412000000000000099e+01,5.299675039169439439e-02
2.416000000000000014e+01,2.017678113566511583e-02
2.419999999999999929e+01,3.164649912466940135e-02
2.423999999999999844e+01,4.435132579101470213e-02
2.428000000000000114e+01,4.099884775105024776e-02
2.432000000000000028e+01,3.852856974238642179e-02
2.435999999999999943e+01,4.858640091687161516e-02
2.439999999999999858e+01,4.911569186366897960e-02
2.444000000000000128e+01,4.364550516979179978e-02
2.448000000000000043e+01,4.188076493897578689e-02
2.451999999999999957e+01,3.376363842144474575e-02
2.455999999999999872e+01,3.817461540292180211e-02
2.460000000000000142e+01,4.646748862316738699e-02
2.464000000000000057e+01,3.817368734707378419e-02
2.467999999999999972e+01,3.482049915324476885e-02
2.471999999999999886e+01,3.976053344250163324e-02
2.476000000000000156e+01,3.464265771404125005e-02
2.480000000000000071e+01,5.140489753179935950e-02
2.483999999999999986e+01,3.693484271513585576e-02
2.487999999999999901e+01,3.022864627566940188e-02
2.492000000000000171e+01,1.911103722931916174e-02
2.496000000000000085e+01,4.540141956677671425e-02
2.500000000000000000e+01,3.869497086057933910e-02
2.503999999999999915e+01,2.898873162655025634e-02
2.507999999999999829e+01,3.233994067133928035e-02
2.512000000000000099e+01,3.833785887278644972e-02
2.516000000000000014e+01,3.321913657108231666e-02
2.519999999999999929e+01,2.333608733231308865e-02
2.523999999999999844e+01,3.339215608654007988e-02
2.528000000000000114e+01,4.944753998776173221e-02
2.532000000000000028e+01,4.679879183226058614e-02
2.535999999999999943e+01,2.721044234512910720e-02
2.539999999999999858e+01,2.703184674510486496e-02
2.544000000000000128e+01,4.008714237863757884e-02
2.548000000000000043e+01,4.008480336628094526e-02
2.551999999999999957e+01,2.861290724693539567e-02
2.555999999999999872e+01,2.631647566824470152e-02
2.560000000000000142e+01,3.813619670675851003e-02
2.564000000000000057e+01,3.407502757299721297e-02
2.567999999999999972e+01,2.789631565311408851e-02
2.571999999999999886e+01,3.495148700899061711e-02
2.576000000000000156e+01,3.194871992644578163e-02
2.580000000000000071e+01,2.224062380630080840e-02
2.583999999999999986e+01,3.600069235057096195e-02
2.587999999999999901e+01,2.964498743298756012e-02
2.592000000000000171e+01,4.622808534758669069e-02
2.596000000000000085e+01,3.475501414803288530e-02
2.600000000000000000e+01,3.033995674971945097e-02
2.603999999999999915e+01,5.186340293836913529e-02
2.607999999999999829e+01,3.386121949989708002e-02
2.612000000000000099e+01,3.473940992704931119e-02
2.616000000000000014e+01,4.249915642193709958e-02
2.619999999999999929e+01,2.202627379551091655e-02
2.623999999999999844e+01,3.296193784386126924e-02
2.628000000000000114e+01,2.978122539260671595e-02
2.632000000000000028e+01,5.395063406005482648e-02
2.635999999999999943e+01,2.165489926814569491e-02
2.639999999999999858e+01,3.947174434005941424e-02
2.644000000000000128e+01,3.699634684833340292e-02
2.648000000000000043e+01,4.210830907448585153e-02
2.651999999999999957e+01,4.527915782731702088e-02
2.655999999999999872e+01,3.398071575036205189e-02
2.660000000000000142e+01,3.591613193894731271e-02
2.664000000000000057e+01,2.373516139647429551e-02
2.667999999999999972e+01,1.843573214297063514e-02
2.671999999999999886e+01,4.525064866707387279e-02
2.676000000000000156e+01,2.565824197648615759e-02
2.680000000000000071e+01,2.282875159113901750e-02
2.683999999999999986e+01,3.235084671940288009e-02
2.687999999999999901e+01,6.004748136878771542e-02
2.692000000000000171e+01,3.621964585659889768e-02
2.696000000000000085e+01,3.868319415670971179e-02
2.700000000000000000e+01,3.461783250056772038e-02
2.703999999999999915e+01,2.525873205468909949e-02
2.707999999999999829e+01,4.748460759638779144e-02
2.712000000000000099e+01,3.177290262916106917e-02
2.716000000000000014e+01,2.453080398469461090e-02
2.719999999999999929e+01,3.458096983576344069e-02
2.723999999999999844e+01,3.386734244100084862e-02
2.728000000000000114e+01,4.074105202755360505e-02
2.732000000000000028e+01,3.632160653604234873e-02
2.735999999999999943e+01,3.719560433169319391e-02
2.739999999999999858e+01,4.389240383625436781e-02
2.744000000000000128e+01,3.541407475604155947e-02
2.748000000000000043e+01,3.646406202111601019e-02
2.751999999999999957e+01,4.510137944653688780e-02
2.755999999999999872e+01,2.850573326375151900e-02
2.760000000000000142e+01,3.590756128351849791e-02
2.764000000000000057e+01,3.925080576447090991e-02
2.767999999999999972e+01,3.853546556978066501e-02
2.771999999999999886e+01,4.858360720275325950e-02
2.776000000000000156e+01,4.292725159775043209e-02
2.780000000000000071e+01,3.038905692754734211e-02
2.783999999999999986e+01,5.525877178952472157e-02
2.787999999999999901e+01,4.395541640476242906e-02
2.792000000000000171e+01,5.664952612792711895e-02
2.796000000000000085e+01,6.440277728669177582e-02
2.800000000000000000e+01,6.721516874422817089e-02
2.803999999999999915e+01,4.020680011062664067e-02
2.807999999999999829e+01,4.548919178866664415e-02
2.812000000000000099e+01,6.135860073989576891e-02
2.816000000000000014e+01,8.622694715175727165e-02
2.819999999999999929e+01,6.204113163023301097e-02
2.823999999999999844e+01,6.696991452158043701e-02
2.828000000000000114e+01,5.972324912002764663e-02
2.832000000000000028e+01,5.106477864646272874e-02
2.835999999999999943e+01,6.569794803094676505e-02
2.839999999999999858e+01,7.327280811161615559e-02
2.844000000000000128e+01,8.031812564074918004e-02
2.848000000000000043e+01,5.930720243555522714e-02
2.851999999999999957e+01,5.629431895533566071e-02
2.855999999999999872e+01,5.998647014697001956e-02
2.860000000000000142e+01,8.132375241753828088e-02
2.864000000000000057e+01,7.195799161358591711e-02
2.867999999999999972e+01,8.270770422159998136e-02
2.871999999999999886e+01,6.769506069481509569e-02
2.876000000000000156e+01,8.479670496740103480e-02
2.880000000000000071e+01,7.260692710769021951e-02
2.883999999999999986e+01,8.053261811263320857e-02
2.887999999999999901e+01,6.640146534549795643e-02
2.892000000000000171e+01,6.462183897690931822e-02
2.896000000000000085e+01,4.219699205212267684e-02
2.900000000000000000e+01,6.423814913918246550e-02
2.903999999999999915e+01,4.675359247383679279e-02
2.907999999999999829e+01,5.309001476220933519e-02
2.912000000000000099e+01,4.036929062279991792e-02
2.916000000000000014e+01,4.935210492914767627e-02
2.919999999999999929e+01,5.427629136038262386e-02
2.923999999999999844e+01,6.325869534451181164e-02
2.928000000000000114e+01,4.806680595397633954e-02
2.932000000000000028e+01,4.134446149748038229e-02
2.935999999999999943e+01,4.909106916872619381e-02
2.939999999999999858e+01,6.795401729323616302e-02
2.944000000000000128e+01,5.134966357947649829e-02
2.948000000000000043e+01,5.186105637585508576e-02
2.951999999999999957e+01,5.078415680918466069e-02
2.955999999999999872e+01,5.200093383886247173e-02
2.960000000000000142e+01,4.474774197034425000e-02
2.964000000000000057e+01,4.296438177597521058e-02
2.967999999999999972e+01,4.259242883650959238e-02
2.971999999999999886e+01,5.051355627660980563e-02
2.976000000000000156e+01,2.102638773570244049e-02
2.980000000000000071e+01,3.918135782153567975e-02
2.983999999999999986e+01,4.427856934721006998e-02
2.987999999999999901e+01,5.925693538086646700e-02
2.992000000000000171e+01,2.606335652848640674e-02
2.996000000000000085e+01,4.051191175553434110e-02
3.000000000000000000e+01,4.454950166799192396e-02
3.003999999999999915e+01,4.011711017714372773e-02
3.007999999999999829e+01,5.297690133020335757e-02
3.012000000000000099e+01,2.595804166411306776e-02
3.016000000000000014e+01,4.411096578662087458e-02
3.019999999999999929e+01,3.067853656734959023e-02
3.023999999999999844e+01,3.859670872709105444e-02
3.028000000000000114e+01,5.410213260603587843e-02
3.032000000000000028e+01,2.408239802354383147e-02
3.035999999999999943e+01,4.205769252458219781e-02
3.039999999999999858e+01,3.727028730930394967e-02
3.044000000000000128e+01,3.671751872826715946e-02
3.048000000000000043e+01,6.351475303580449150e-02
3.051999999999999957e+01,3.437608521243212811e-02
3.055999999999999872e+01,4.476268785123019289e-02
3.060000000000000142e+01,5.056126326735371074e-02
3.064000000000000057e+01,5.300698262731905891e-02
3.067999999999999972e+01,1.663275436969263721e-02
3.071999999999999886e+01,2.472448124030180230e-02
3.076000000000000156e+01,2.469911261708254355e-02
3.080000000000000071e+01,5.819959930453444397e-02
3.083999999999999986e+01,2.182437305727806878e-02
3.087999999999999901e+01,1.738692117130796397e-02
3.092000000000000171e+01,2.018379644290653474e-02
3.096000000000000085e+01,4.980130140256509852e-02
3.100000000000000000e+01,4.253983469811932483e-02
3.103999999999999915e+01,3.757200252737993157e-02
3.107999999999999829e+01,2.925130179537257721e-02
3.112000000000000099e+01,6.063230879613341201e-02
3.116000000000000014e+01,4.701749302064225228e-02
3.119999999999999929e+01,2.916753934243831656e-02
3.123999999999999844e+01,3.337397136731140579e-02
3.128000000000000114e+01,7.551757471571951541e-02
3.132000000000000028e+01,1.054856433722872883e-01
3.135999999999999943e+01,1.245133485035311294e-01
3.139999999999999858e+01,1.447759588198755387e-01
3.144000000000000128e+01,1.373351506489932927e-01
3.148000000000000043e+01,1.088961439293547884e-01
3.151999999999999957e+01,7.886878800525927435e-02
3.155999999999999872e+01,4.742953492607062532e-02
3.160000000000000142e+01,4.792803574526138810e-02
3.164000000000000057e+01,3.554518003321831265e-02
3.167999999999999972e+01,5.280618452540145752e-02
3.171999999999999886e+01,4.748090497213083155e-02
3.176000000000000156e+01,4.268470762773901583e-02
3.180000000000000071e+01,2.094872592238316081e-02
3.183999999999999986e+01,1.859262386554660874e-03
3.187999999999999901e+01,2.494182959044832781e-02
3.192000000000000171e+01,2.852099232162827024e-03
3.196000000000000085e+01,2.646346106378445751e-02
3.200000000000000000e+01,4.902523059570613843e-03
3.203999999999999915e+01,2.904267497160767375e-02
3.207999999999999829e+01,2.512648383478333775e-02
3.211999999999999744e+01,2.650360070257028189e-02
3.215999999999999659e+01,6.706046509330160742e-03
3.220000000000000284e+01,3.507992229171719850e-02
3.224000000000000199e+01,2.886868258882380189e-02
3.228000000000000114e+01,5.336000515488667495e-02
3.232000000000000028e+01,3.761970800386658237e-02
3.235999999999999943e+01,2.329074194026329800e-02
3.239999999999999858e+01,3.648817738367449853e-02
3.243999999999999773e+01,1.968827449865829388e-02
3.247999999999999687e+01,4.629555760428623323e-02
3.252000000000000313e+01,3.672963859110804641e-02
3.256000000000000227e+01,3.404509375315994263e-02
3.260000000000000142e+01,1.442074181768463609e-02
3.264000000000000057e+01,2.867509927116931867e-02
3.267999999999999972e+01,5.651604856469812782e-02
3.271999999999999886e+01,2.295098442981440348e-02
3.275999999999999801e+01,1.779457750145210446e-02
3.279999999999999716e+01,4.521017101025203398e-03
3.284000000000000341e+01,5.892763110482190751e-03
3.288000000000000256e+01,1.149907640766289346e-02
3.292000000000000171e+01,2.381030046242817860e-02
3.296000000000000085e+01,2.324013047063042126e-02
3.300000000000000000e+01,1.137664397117001125e-02
3.303999999999999915e+01,1.451136456983682585e-02
3.307999999999999829e+01,4.499601416324741643e-02
3.311999999999999744e+01,2.801444066913718819e-02
3.315999999999999659e+01,1.579678606352975453e-02
3.320000000000000284e+01,3.410521439363881080e-02
3.324000000000000199e+01,3.688544292650672990e-02
3.328000000000000114e+01,4.107697639974369763e-02
3.332000000000000028e+01,1.985892937532745747e-02
3.335999999999999943e+01,2.493208427070545130e-02
3.339999999999999858e+01,1.200669021484068386e-02
3.343999999999999773e+01,2.960737227372341185e-02
3.347999999999999687e+01,2.197492247383234232e-02
3.352000000000000313e+01,2.051800682052723479e-02
3.356000000000000227e+01,3.282411118323876748e-02
3.360000000000000142e+01,1.742673567000311077e-02
3.364000000000000057e+01,3.926065166267270201e-02
3.367999999999999972e+01,3.109719408524186032e-02
3.371999999999999886e+01,2.116887159161314619e-02
3.375999999999999801e+01,2.306257838174759212e-02
3.379999999999999716e+01,4.807131723510930932e-02
3.384000000000000341e+01,8.896050638099536889e-02
3.388000000000000256e+01,9.226482926638136794e-02
3.392000000000000171e+01,1.010388621853034324e-01
3.396000000000000085e+01,9.904891087126321825e-02
3.400000000000000000e+01,8.011911267071032683e-02
3.403999999999999915e+01,8.748049706387296676e-02
3.407999999999999829e+01,9.237119356461602482e-02
3.411999999999999744e+01,1.427864676803535515e-01
3.415999999999999659e+01,1.561462271363701082e-01
3.420000000000000284e+01,1.359795345196787852e-01
3.424000000000000199e+01,8.599190560348493606e-02
3.428000000000000114e+01,6.264835883242174386e-02
3.432000000000000028e+01,4.371579160946065939e-02
3.435999999999999943e+01,3.801686210737686977e-02
3.439999999999999858e+01,2.296556135675759461e-02
3.443999999999999773e+01,3.067636810773091000e-02
3.447999999999999687e+01,1.809470379260434691e-02
3.452000000000000313e+01,1.998184495438685634e-02
3.456000000000000227e+01,1.975119095419604343e-02
3.460000000000000142e+01,2.534313403384672383e-02
3.464000000000000057e+01,2.175915223018509356e-02
3.467999999999999972e+01,2.593875028082137310e-02
3.471999999999999886e+01,2.164823391925726689e-02
3.475999999999999801e+01,2.723873337263956959e-02
3.479999999999999716e+01,3.494630731168921894e-02
3.484000000000000341e+01,2.094977446364896731e-02
3.488000000000000256e+01,3.430311945308525678e-02
3.492000000000000171e+01,1.695324288597994944e-02
3.496000000000000085e+01,2.130673992454872739e-02
3.500000000000000000e+01,3.165927586086952905e-02
3.503999999999999915e+01,3.901173706231866878e-02
3.507999999999999829e+01,2.960077386908688962e-02
3.511999999999999744e+01,2.513012704597022973e-02
3.515999999999999659e+01,1.554196384319265350e-02
3.520000000000000284e+01,2.412810370127895301e-02
3.524000000000000199e+01,2.953770995416078737e-02
3.528000000000000114e+01,2.136004347967799047e-02
3.532000000000000028e+01,8.241309264413795160e-03
3.535999999999999943e+01,1.612012454177386145e-02
3.539999999999999858e+01,1.305846147416590483e-02
3.543999999999999773e+01,2.093651401257801831e-02
3.547999999999999687e+01,3.940137464779799870e-02
3.552000000000000313e+01,1.763452461968227289e-02
3.556000000000000227e+01,3.362827108829640615e-02
3.560000000000000142e+01,1.450744701948854243e-02
3.564000000000000057e+01,2.538327698130320165e-02
3.567999999999999972e+01,3.784679685998948440e-02
3.571999999999999886e+01,2.790037219659805695e-02
3.575999999999999801e+01,3.771631335420488895e-02
3.579999999999999716e+01,1.753482068981880582e-02
3.584000000000000341e+01,2.346800627568897471e-02
3.588000000000000256e+01,2.251912315707077852e-02
3.592000000000000171e+01,3.850935033306503857e-02
3.596000000000000085e+01,2.838410923597928931e-02
3.600000000000000000e+01,1.525876612014612568e-02
3.603999999999999915e+01,3.089489336330939959e-02
3.607999999999999829e+01,3.259081877016086620e-02
3.611999999999999744e+01,2.969856007205175230e-02
3.615999999999999659e+01,6.297880214252156439e-02
3.620000000000000284e+01,6.643805220890891539e-02
3.624000000000000199e+01,5.631000226405585840e-02
3.628000000000000114e+01,5.376903351418235028e-02
3.632000000000000028e+01,6.393228722203007919e-02
3.635999999999999943e+01,6.297858211484186342e-02
3.639999999999999858e+01,2.902772196797333629e-02
3.643999999999999773e+01,3.266098012142296808e-02
3.647999999999999687e+01,1.794269541547749078e-02
3.652000000000000313e+01,2.563355272367613333e-02
3.656000000000000227e+01,3.508852812471894428e-02
3.660000000000000142e+01,8.546638636675481931e-03
3.664000000000000057e+01,2.488245735057143318e-02
3.667999999999999972e+01,2.851322947907759114e-02
3.671999999999999886e+01,3.179067691881046209e-02
3.675999999999999801e+01,3.224445392625296253e-02
3.679999999999999716e+01,4.028529734990887734e-02
3.684000000000000341e+01,4.814926586049909918e-02
3.688000000000000256e+01,5.636571787977169568e-02
3.692000000000000171e+01,3.634923610778360153e-02
3.696000000000000085e+01,2.762533311472974498e-02
3.700000000000000000e+01,2.260652075752298332e-02
3.703999999999999915e+01,4.334944617334362399e-02
3.707999999999999829e+01,2.986002492006068626e-02
3.711999999999999744e+01,1.054721883776883751e-02
3.715999999999999659e+01,2.899496377908034744e-02
3.720000000000000284e+01,1.973912652991031969e-02
3.724000000000000199e+01,3.377467676293795240e-02
3.728000000000000114e+01,2.134181483517211958e-02
3.732000000000000028e+01,3.237679130213969025e-02
3.735999999999999943e+01,3.705901656055318738e-02
3.739999999999999858e+01,3.027134707401436461e-02
3.743999999999999773e+01,5.083348266795005566e-02
3.747999999999999687e+01,5.163242149224998856e-02
3.752000000000000313e+01,2.596294133478754124e-02
3.756000000000000227e+01,3.346621799165322431e-02
3.760000000000000142e+01,4.890944470055325760e-02
3.764000000000000057e+01,5.500020807783695398e-02
3.767999999999999972e+01,5.985535355151120479e-02
3.771999999999999886e+01,9.100157703071029558e-02
3.775999999999999801e+01,9.356193647287329440e-02
3.779999999999999716e+01,1.402351434523035623e-01
3.784000000000000341e+01,1.821436642569704001e-01
3.788000000000000256e+01,2.709882813043212879e-01
3.792000000000000171e+01,3.705960902881544339e-01
3.796000000000000085e+01,4.059744859400130634e-01
3.800000000000000000e+01,5.519885746394074255e-01
3.803999999999999915e+01,8.126967785319269000e-01
3.807999999999999829e+01,1.000000000000000000e+00
3.811999999999999744e+01,8.827445639951907452e-01
3.815999999999999659e+01,7.081413832357568161e-01
3.820000000000000284e+01,5.578882817917971693e-01
3.824000000000000199e+01,3.578749203258153044e-01
3.828000000000000114e+01,2.372650299935762652e-01
3.832000000000000028e+01,1.807071824595420650e-01
3.835999999999999943e+01,1.520284734175107455e-01
3.839999999999999858e+01,2.172223933664872708e-01
3.843999999999999773e+01,2.797690483225827029e-01
3.847999999999999687e+01,3.945453780547019673e-01
3.852000000000000313e+01,4.862058709220040686e-01
3.856000000000000227e+01,5.208715140387839559e-01
3.860000000000000142e+01,5.917095885776251230e-01
3.864000000000000057e+01,5.464409937179451893e-01
3.867999999999999972e+01,5.301102473727954401e-01
3.871999999999999886e+01,5.150141981731930496e-01
3.875999999999999801e+01,4.401000425598547428e-01
3.879999999999999716e+01,3.669499413769836127e-01
3.884000000000000341e+01,3.276783733747076766e-01
3.888000000000000256e+01,2.691729283723868216e-01
3.892000000000000171e+01,2.329001039883284163e-01
3.896000000000000085e+01,2.038613782593787227e-01
3.900000000000000000e+01,1.862916265173191199e-01
3.903999999999999915e+01,1.616632630751544952e-01
3.907999999999999829e+01,1.712663323650003289e-01
3.911999999999999744e+01,1.956909827689010672e-01
3.915999999999999659e+01,2.538177040725796973e-01
3.920000000000000284e+01,3.493520120492415448e-01
3.924000000000000199e+01,4.388864217588099859e-01
3.928000000000000114e+01,5.660048690538972416e-01
3.932000000000000028e+01,6.031316991808108874e-01
3.935999999999999943e+01,6.162604026385558598e-01
3.939999999999999858e+01,5.849224086920240540e-01
3.943999999999999773e+01,5.405263833465751011e-01
3.947999999999999687e+01,4.232546953462705819e-01
3.952000000000000313e+01,4.339110694408543911e-01
3.956000000000000227e+01,4.341562065189176756e-01
3.960000000000000142e+01,4.432235027385675874e-01
3.964000000000000057e+01,3.557704048063122793e-01
3.967999999999999972e+01,2.923144377545049966e-01
3.971999999999999886e+01,2.385628923647603872e-01
3.975999999999999801e+01,1.542844410484589257e-01
3.979999999999999716e+01,1.012376978359958990e-01
3.984000000000000341e+01,9.989123118882292651e-02
3.988000000000000256e+01,7.507598265229130374e-02
3.992000000000000171e+01,6.596455842421175553e-02
3.996000000000000085e+01,4.838287085944292798e-02
4.000000000000000000e+01,4.844599037758262616e-02
4.003999999999999915e+01,4.939086315355628587e-02
4.007999999999999829e+01,4.539453290619752807e-02
4.011999999999999744e+01,5.710202128315003400e-02
4.015999999999999659e+01,4.304682839244992898e-02
4.020000000000000284e+01,3.375535430849658375e-02
4.024000000000000199e+01,5.040198023750998985e-02
4.028000000000000114e+01,4.481498521222758435e-02
4.032000000000000028e+01,3.622776539075657498e-02
4.035999999999999943e+01,4.193273188309133703e-02
4.039999999999999858e+01,2.646279312779824602e-02
4.043999999999999773e+01,4.416552933520579566e-02
4.047999999999999687e+01,3.575266880795131136e-02
4.052000000000000313e+01,4.974883661202503943e-02
4.056000000000000227e+01,2.280733776764679380e-02
4.060000000000000142e+01,4.139023237210123773e-02
4.064000000000000057e+01,4.162146588703195121e-02
4.067999999999999972e+01,3.497049427809512806e-02
4.071999999999999886e+01,3.361258625571522662e-02
4.075999999999999801e+01,4.672330636505163393e-02
4.079999999999999716e+01,5.471634980195664438e-02
4.084000000000000341e+01,2.335979730834115628e-02
4.088000000000000256e+01,4.352703863629153735e-02
4.092000000000000171e+01,3.546123249016529255e-02
4.096000000000000085e+01,5.103961447360203657e-02
4.100000000000000000e+01,3.856139989549793590e-02
4.103999999999999915e+01,4.408086921515426415e-02
4.107999999999999829e+01,5.542275144849033441e-02
4.111999999999999744e+01,5.723561825996809072e-02
4.115999999999999659e+01,3.928518371361952588e-02
4.120000000000000284e+01,3.862661577295055382e-02
4.124000000000000199e+01,3.690878193715803335e-02
4.128000000000000114e+01,5.230635924719663488e-02
4.132000000000000028e+01,5.411649216881867647e-02
4.135999999999999943e+01,3.369297344178458220e-02
4.139999999999999858e+01,3.638427078062755893e-02
4.143999999999999773e+01,5.054447275984285531e-02
4.147999999999999687e+01,3.982422188703665239e-02
4.152000000000000313e+01,4.057287338094654749e-02
4.156000000000000227e+01,3.937998395414728930e-02
4.160000000000000142e+01,3.906880344888375572e-02
4.164000000000000057e+01,6.804829370525054821e-02
4.167999999999999972e+01,5.503136636482455074e-02
4.171999999999999886e+01,3.424993841203855666e-02
4.175999999999999801e+01,4.805277339616041005e-02
4.179999999999999716e+01,7.103061136870443548e-02
4.184000000000000341e+01,5.836434190005733436e-02
4.188000000000000256e+01,5.081464986375854032e-02
4.192000000000000171e+01,8.349571817520112793e-02
4.196000000000000085e+01,9.623700920606208242e-02
4.200000000000000000e+01,7.315773506222728040e-02
4.203999999999999915e+01,1.026609408890941516e-01
4.207999999999999829e+01,1.021665344119471186e-01
4.211999999999999744e+01,1.007892902156490716e-01
4.215999999999999659e+01,1.137041811758896237e-01
4.220000000000000284e+01,1.294417490533563142e-01
4.224000000000000199e+01,1.021241643012834738e-01
4.228000000000000114e+01,1.109789063830811245e-01
4.232000000000000028e+01,1.058932692833740169e-01
4.235999999999999943e+01,9.074922196155946197e-02
4.239999999999999858e+01,9.942577502968617809e-02
4.243999999999999773e+01,1.068665749116524954e-01
4.247999999999999687e+01,9.207369131377431126e-02
4.252000000000000313e+01,7.251598853223802099e-02
4.256000000000000227e+01,1.053642977564452632e-01
4.260000000000000142e+01,9.921586740207709310e-02
4.264000000000000057e+01,9.183167817740778283e-02
4.267999999999999972e+01,8.250591620084078703e-02
4.271999999999999886e+01,8.764872665141025532e-02
4.275999999999999801e+01,9.084996207642581645e-02
4.279999999999999716e+01,1.044613443725039004e-01
4.284000000000000341e+01,1.036029731497349754e-01
4.288000000000000256e+01,1.103314955452992796e-01
4.292000000000000171e+01,9.729666656259826352e-02
4.296000000000000085e+01,8.284961642877868015e-02
4.300000000000000000e+01,6.981359498608545600e-02
4.303999999999999915e+01,5.289500551192846678e-02
4.307999999999999829e+01,4.356330397196381266e-02
4.311999999999999744e+01,5.417021226280813173e-02
4.315999999999999659e+01,4.818991970587534895e-02
4.320000000000000284e+01,4.009158643208682316e-02
4.324000000000000199e+01,3.481590051799227786e-02
4.328000000000000114e+01,4.030325420540645243e-02
4.332000000000000028e+01,4.331965739309628222e-02
4.335999999999999943e+01,4.104185796516055668e-02
4.339999999999999858e+01,5.023290747301738940e-02
4.343999999999999773e+01,6.118787953927497247e-02
4.347999999999999687e+01,7.320096028233691321e-02
4.352000000000000313e+01,8.080209979342091453e-02
4.356000000000000227e+01,4.817130013870925959e-02
4.360000000000000142e+01,5.224214936111500063e-02
4.364000000000000057e+01,4.360775419003116993e-02
4.367999999999999972e+01,4.185441715594910572e-02
4.371999999999999886e+01,4.168854153627862824e-02
4.375999999999999801e+01,1.928894605826246209e-02
4.379999999999999716e+01,3.588488519371982322e-02
4.384000000000000341e+01,2.336542793568458995e-02
4.388000000000000256e+01,1.913864862004681713e-02
4.392000000000000171e+01,2.391035885474665848e-02
4.396000000000000085e+01,2.744627270381606171e-02
4.400000000000000000e+01,3.362835912665231713e-02
4.403999999999999915e+01,3.292814493205560578e-02
4.407999999999999829e+01,2.005203339743586236e-02
4.411999999999999744e+01,3.381972434821957363e-02
4.415999999999999659e+01,4.670451960161615956e-02
4.420000000000000284e+01,1.671055970708554966e-02
4.424000000000000199e+01,3.453478123052199783e-02
4.428000000000000114e+01,2.006743650389891317e-02
4.432000000000000028e+01,2.095088466224622609e-02
4.435999999999999943e+01,2.730374614198007380e-02
4.439999999999999858e+01,1.689291834607177176e-02
4.443999999999999773e+01,2.024480134892081909e-02
4.447999999999999687e+01,1.830244990495577886e-02
4.452000000000000313e+01,1.724172439407088350e-02
4.456000000000000227e+01,2.747336166476984504e-02
4.460000000000000142e+01,1.370672334181123782e-02
4.464000000000000057e+01,3.275973424221231833e-02
4.467999999999999972e+01,2.604993541337879970e-02
4.471999999999999886e+01,2.128047595063701017e-02
4.475999999999999801e+01,2.886209270249074157e-02
4.479999999999999716e+01,3.803114017439572503e-02
4.484000000000000341e+01,4.367047482995388419e-02
4.488000000000000256e+01,4.666236146329742068e-02
4.492000000000000171e+01,3.183182492508032646e-02
4.496000000000000085e+01,5.352644542563113339e-02
4.500000000000000000e+01,2.987194343500257365e-02
4.503999999999999915e+01,4.027225160279671035e-02
4.507999999999999829e+01,4.114343180274474682e-02
4.511999999999999744e+01,3.654390618043609068e-02
4.515999999999999659e+01,3.741377114295076772e-02
4.520000000000000284e+01,3.051903658905555372e-02
4.524000000000000199e+01,3.474019230447347034e-02
4.528000000000000114e+01,2.237408692022186188e-02
4.532000000000000028e+01,3.435785849603205377e-02
4.535999999999999943e+01,3.169535174662917870e-02
4.539999999999999858e+01,4.791267091167777936e-02
4.543999999999999773e+01,2.266282517666263693e-02
4.547999999999999687e+01,2.352738371631744180e-02
4.552000000000000313e+01,3.056713535411037172e-02
4.556000000000000227e+01,3.795912380887506155e-02
4.560000000000000142e+01,3.299871853795456611e-02
4.564000000000000057e+01,3.491931569945598557e-02
4.567999999999999972e+01,1.972328083443007987e-02
4.571999999999999886e+01,3.170036254025747346e-02
4.575999999999999801e+01,2.479627808398057048e-02
4.579999999999999716e+01,2.406737876804468726e-02
4.584000000000000341e+01,3.127819531754231358e-02
4.588000000000000256e+01,1.907848273587497631e-02
4.592000000000000171e+01,3.299316192376771512e-02
4.596000000000000085e+01,2.661504377587880360e-02
4.600000000000000000e+01,3.664638988333004943e-02
4.603999999999999915e+01,3.167853196710526675e-02
4.607999999999999829e+01,2.018122182759563357e-02
4.611999999999999744e+01,1.944687057479545580e-02
4.615999999999999659e+01,3.723941726432755672e-02
4.620000000000000284e+01,3.191590881803597207e-02
4.624000000000000199e+01,3.541437079985669534e-02
4.628000000000000114e+01,3.167756212948341643e-02
4.632000000000000028e+01,2.105838804247215160e-02
4.635999999999999943e+01,2.067280646262521435e-02
4.639999999999999858e+01,3.881411600414158558e-02
4.643999999999999773e+01,2.219345330018891380e-02
4.647999999999999687e+01,2.180578802344636941e-02
4.652000000000000313e+01,1.647673669403778782e-02
4.656000000000000227e+01,2.102836581526857512e-02
4.660000000000000142e+01,2.557929582355488243e-02
4.664000000000000057e+01,1.918942803816036866e-02
4.667999999999999972e+01,2.497412871341766344e-02
4.671999999999999886e+01,3.375783103051108874e-02
4.675999999999999801e+01,3.830595321873776077e-02
4.679999999999999716e+01,3.738332183792505981e-02
4.684000000000000341e+01,5.145850534952464694e-02
4.688000000000000256e+01,4.841702272975204058e-02
4.692000000000000171e+01,5.084488067436375436e-02
4.696000000000000085e+01,3.633252340013911480e-02
4.700000000000000000e+01,3.946477426389507354e-02
4.703999999999999915e+01,4.453729855770951346e-02
4.707999999999999829e+01,4.590359318660812427e-02
4.711999999999999744e+01,3.227065309747046556e-02
4.715999999999999659e+01,4.104655262618655404e-02
4.720000000000000284e+01,3.923454481801175175e-02
4.724000000000000199e+01,2.101167339177965193e-02
4.728000000000000114e+01,2.360955949718825456e-02
4.732000000000000028e+01,1.173756475899601429e-02
4.735999999999999943e+01,2.633282723693424268e-02
4.739999999999999858e+01,2.716401934238359128e-02
4.743999999999999773e+01,1.934828233808578296e-02
4.747999999999999687e+01,2.106029326499557833e-02
4.752000000000000313e+01,2.383029804906562285e-02
4.756000000000000227e+01,2.818765511204394600e-02
4.760000000000000142e+01,2.848586135895622706e-02
4.764000000000000057e+01,1.484353722621857379e-02
4.767999999999999972e+01,3.049171219405921035e-02
4.771999999999999886e+01,1.808309961322825121e-02
4.775999999999999801e+01,3.390626474216687503e-02
4.779999999999999716e+01,4.161185008848113792e-02
4.784000000000000341e+01,3.290655476431574022e-02
4.788000000000000256e+01,2.720022811396984735e-02
4.792000000000000171e+01,3.578587291690764338e-02
4.796000000000000085e+01,3.007807187318607689e-02
4.800000000000000000e+01,2.825150202375989114e-02
4.803999999999999915e+01,1.319020317117046079e-02
4.807999999999999829e+01,2.918392391279839293e-02
4.811999999999999744e+01,3.458971117048778576e-02
4.815999999999999659e+01,2.799593831787384676e-02
4.820000000000000284e+01,3.675284807789892111e-02
4.824000000000000199e+01,2.980467854393094654e-02
4.828000000000000114e+01,3.503103199748841545e-02
4.832000000000000028e+01,3.302205682061579162e-02
4.835999999999999943e+01,2.360129869029281222e-02
4.839999999999999858e+01,2.317890278555356440e-02
4.843999999999999773e+01,2.910807017668893062e-02
4.847999999999999687e+01,2.833126394865772765e-02
4.852000000000000313e+01,2.949468908804313283e-02
4.856000000000000227e+01,2.677538931367873937e-02
4.860000000000000142e+01,2.758439730880320184e-02
4.864000000000000057e+01,4.074437124619173511e-02
4.867999999999999972e+01,2.337718574434387991e-02
4.871999999999999886e+01,2.506618498640230883e-02
4.875999999999999801e+01,2.693087691298772304e-02
4.879999999999999716e+01,3.514712190399423009e-02
4.884000000000000341e+01,2.730536417620123626e-02
4.888000000000000256e+01,3.552008247973674482e-02
4.892000000000000171e+01,3.526428279707529562e-02
4.896000000000000085e+01,3.941904658340961154e-02
4.900000000000000000e+01,2.469255212455871359e-02
4.903999999999999915e+01,2.655188870829986586e-02
4.907999999999999829e+01,2.346976648237276281e-02
4.911999999999999744e+01,2.391593724716843672e-02
4.915999999999999659e+01,3.318399545162077635e-02
4.920000000000000284e+01,2.180625786482640396e-02
4.924000000000000199e+01,4.236577283519316756e-02
4.928000000000000114e+01,2.798678165909944393e-02
4.932000000000000028e+01,2.472356479584660385e-02
4.935999999999999943e+01,2.304764905423489427e-02
4.939999999999999858e+01,1.995932913217093874e-02
4.943999999999999773e+01,3.504490756014610325e-02
4.947999999999999687e+01,2.454399302569955366e-02
4.952000000000000313e+01,4.862712088349802758e-02
4.956000000000000227e+01,2.683163709313077933e-02
4.960000000000000142e+01,3.856147430419976790e-02
4.964000000000000057e+01,3.193939463940921597e-02
4.967999999999999972e+01,3.078657709785993443e-02
4.971999999999999886e+01,2.275129750927912947e-02
4.975999999999999801e+01,5.088813216770297909e-02
4.979999999999999716e+01,2.961728463315075818e-02
4.984000000000000341e+01,3.375490471423080868e-02
4.988000000000000256e+01,2.871616678046978038e-02
4.992000000000000171e+01,5.614402163636737081e-02
4.996000000000000085e+01,5.004497650926233859e-02
5.000000000000000000e+01,5.982592239610529106e-02
5.003999999999999915e+01,5.407819101788013949e-02
5.007999999999999829e+01,6.156365058706561588e-02
5.011999999999999744e+01,5.193235194179807862e-02
5.015999999999999659e+01,6.612143314180890519e-02
5.020000000000000284e+01,7.060478767377714737e-02
5.024000000000000199e+01,6.749985263517960243e-02
5.028000000000000114e+01,6.333539477829443209e-02
5.032000000000000028e+01,5.158264507718706565e-02
5.035999999999999943e+01,4.671076366277880643e-02
5.039999999999999858e+01,5.013137488777806572e-02
5.043999999999999773e+01,5.161019281621677390e-02
5.047999999999999687e+01,4.091293151212689605e-02
5.052000000000000313e+01,4.962471016706031246e-02
5.056000000000000227e+01,3.522030977190063888e-02
5.060000000000000142e+01,5.363538921270497722e-02
5.064000000000000057e+01,4.099389395111693868e-02
5.067999999999999972e+01,3.223355371633759153e-02
5.071999999999999886e+01,4.023544996355971071e-02
5.075999999999999801e+01,4.453101195767535103e-02
5.079999999999999716e+01,2.835718587360995871e-02
5.084000000000000341e+01,3.353337570205529999e-02
5.088000000000000256e+01,3.623840017025411336e-02
5.092000000000000171e+01,2.323826917697324052e-02
5.096000000000000085e+01,2.717682103091698456e-02
5.100000000000000000e+01,4.346627175426334699e-02
5.103999999999999915e+01,3.628662341319460749e-02
5.107999999999999829e+01,1.146083001522083152e-02
5.111999999999999744e+01,2.439519088782285058e-02
5.115999999999999659e+01,4.473975686913704564e-02
5.120000000000000284e+01,2.785187071574222670e-02
5.124000000000000199e+01,3.160817636180827950e-02
5.128000000000000114e+01,3.801044767891621767e-02
5.132000000000000028e+01,3.753021147586620143e-02
5.135999999999999943e+01,3.528460901540006467e-02
5.139999999999999858e+01,3.692014111883575034e-02
5.143999999999999773e+01,2.955572405732422026e-02
5.147999999999999687e+01,2.130820325887243516e-02
5.152000000000000313e+01,3.176388125397163614e-02
5.156000000000000227e+01,3.269024711506294395e-02
5.160000000000000142e+01,3.255705264253747067e-02
5.164000000000000057e+01,3.101139032718283617e-02
5.167999999999999972e+01,3.122941638362813216e-02
5.171999999999999886e+01,3.621083384031034691e-02
5.175999999999999801e+01,3.307455896838039366e-02
5.179999999999999716e+01,3.946590925021688928e-02
5.184000000000000341e+01,2.962271836494981617e-02
5.188000000000000256e+01,2.295483565687837443e-02
5.192000000000000171e+01,3.428432762930807426e-02
5.196000000000000085e+01,3.696676203040863418e-02
5.200000000000000000e+01,3.541346737815359580e-02
5.203999999999999915e+01,2.433084694995272038e-02
5.207999999999999829e+01,2.912815842063557273e-02
5.211999999999999744e+01,2.863101831032591887e-02
5.215999999999999659e+01,3.307371028133546109e-02
5.220000000000000284e+01,4.669110966544566532e-02
5.224000000000000199e+01,3.578065676314363258e-02
5.228000000000000114e+01,2.645742199402704303e-02
5.232000000000000028e+01,3.442573779236170889e-02
5.235999999999999943e+01,3.674668881635078516e-02
5.239999999999999858e+01,4.277229279734569289e-02
5.243999999999999773e+01,3.909210644792109057e-02
5.247999999999999687e+01,4.017528989899838560e-02
5.252000000000000313e+01,3.861080819368261502e-02
5.256000000000000227e+01,3.863353666375513723e-02
5.260000000000000142e+01,3.742022319331481800e-02
5.264000000000000057e+01,3.655894532126207491e-02
5.267999999999999972e+01,3.693196784172905756e-02
5.271999999999999886e+01,3.448086633547006730e-02
5.275999999999999801e+01,4.014573720956512298e-02
5.279999999999999716e+01,4.528037320377482217e-02
5.284000000000000341e+01,3.629787784448173377e-02
5.288000000000000256e+01,4.478337032323775890e-02
5.292000000000000171e+01,3.438749314764896758e-02
5.296000000000000085e+01,2.981369124777650051e-02
5.300000000000000000e+01,5.576540955368164409e-02
5.303999999999999915e+01,3.972038740359669362e-02
5.307999999999999829e+01,4.626048980698997670e-02
5.311999999999999744e+01,3.850699971289132939e-02
5.315999999999999659e+01,3.834011107228897652e-02
5.320000000000000284e+01,4.505401000358641439e-02
5.324000000000000199e+01,3.923884488882810329e-02
5.328000000000000114e+01,3.306988443843858483e-02
5.332000000000000028e+01,4.525116525194878420e-02
5.335999999999999943e+01,3.114003008593748539e-02
5.339999999999999858e+01,4.173144861308400455e-02
5.343999999999999773e+01,3.238276358996722976e-02
5.347999999999999687e+01,2.867968587760863497e-02
5.352000000000000313e+01,2.726960380153085201e-02
5.356000000000000227e+01,3.009350127301844632e-02
5.360000000000000142e+01,2.938743696279231057e-02
5.364000000000000057e+01,3.485633497458794777e-02
5.367999999999999972e+01,3.379556476574839541e-02
5.371999999999999886e+01,3.379261220570441843e-02
5.375999999999999801e+01,3.396521022666745132e-02
5.379999999999999716e+01,4.313601700141270895e-02
5.384000000000000341e+01,3.995419586387195104e-02
5.388000000000000256e+01,3.906536013115853578e-02
5.392000000000000171e+01,3.076458342588061709e-02
5.396000000000000085e+01,2.493324303796584998e-02
5.400000000000000000e+01,3.427596723641480880e-02
5.403999999999999915e+01,4.502940636141819497e-02
5.407999999999999829e+01,5.084124457323337121e-02
5.411999999999999744e+01,4.941758931453537479e-02
5.415999999999999659e+01,3.864100121419118683e-02
5.420000000000000284e+01,4.303847201606995215e-02
5.424000000000000199e+01,3.525975672357322538e-02
5.428000000000000114e+01,3.277371963288734646e-02
5.432000000000000028e+01,3.275710862811115343e-02
5.435999999999999943e+01,3.397475026907199880e-02
5.439999999999999858e+01,3.413275199844485741e-02
5.443999999999999773e+01,3.270175312082539837e-02
5.447999999999999687e+01,4.168056916044594190e-02
5.452000000000000313e+01,4.060062938219867468e-02
5.456000000000000227e+01,4.269592161366036337e-02
5.460000000000000142e+01,3.226211114690891169e-02
5.464000000000000057e+01,4.882471055213921662e-02
5.467999999999999972e+01,4.562362435162527208e-02
5.471999999999999886e+01,5.036200164069351559e-02
5.475999999999999801e+01,6.021659030344270191e-02
5.479999999999999716e+01,5.754207058383791623e-02
5.484000000000000341e+01,4.816139648938929513e-02
5.488000000000000256e+01,4.619082177863396282e-02
5.492000000000000171e+01,4.598384335659765065e-02
5.496000000000000085e+01,4.542302185214737442e-02
5.500000000000000000e+01,4.768451347991221195e-02
5.503999999999999915e+01,4.729826833110995637e-02
5.507999999999999829e+01,4.302911296556787696e-02
5.511999999999999744e+01,3.699448448076269463e-02
5.515999999999999659e+01,3.360571139466796836e-02
5.520000000000000284e+01,4.415579648674773650e-02
5.524000000000000199e+01,3.300119500937633010e-02
5.528000000000000114e+01,3.172702615410560173e-02
5.532000000000000028e+01,3.080481672973571852e-02
5.535999999999999943e+01,3.817495897808158289e-02
5.539999999999999858e+01,3.001627162638600271e-02
5.543999999999999773e+01,4.656007998961209787e-02
5.547999999999999687e+01,3.910530354192115476e-02
5.552000000000000313e+01,3.676671686817616774e-02
5.556000000000000227e+01,4.042658476250922395e-02
5.560000000000000142e+01,3.120441516554103845e-02
5.564000000000000057e+01,3.874434222071068690e-02
5.567999999999999972e+01,3.993099740002927639e-02
5.571999999999999886e+01,3.899925603527819307e-02
5.575999999999999801e+01,3.877236796870237034e-02
5.579999999999999716e+01,4.701427225592461762e-02
5.584000000000000341e+01,3.955088125180360181e-02
5.588000000000000256e+01,3.649785704540676329e-02
5.592000000000000171e+01,4.808948329904583208e-02
5.596000000000000085e+01,3.215344737598870711e-02
5.600000000000000000e+01,4.427250178990824181e-02
5.603999999999999915e+01,3.133423636016414993e-02
5.607999999999999829e+01,5.827342246860894165e-02
5.611999999999999744e+01,7.021311807268157401e-02
5.615999999999999659e+01,5.356642669876479634e-02
5.620000000000000284e+01,6.691580502579669298e-02
5.624000000000000199e+01,8.732233771198026628e-02
5.628000000000000114e+01,7.984829275445821939e-02
5.632000000000000028e+01,8.560726139915394994e-02
5.635999999999999943e+01,6.789697978128945988e-02
5.639999999999999858e+01,7.188946242920558893e-02
5.643999999999999773e+01,6.247052415385292989e-02
5.647999999999999687e+01,5.481513783092111652e-02
5.652000000000000313e+01,4.839394276500568609e-02
5.656000000000000227e+01,4.161885914354994387e-02
5.660000000000000142e+01,3.431343264353370337e-02
5.664000000000000057e+01,3.565322781011619896e-02
5.667999999999999972e+01,3.769785012782634476e-02
5.671999999999999886e+01,2.474296488874190222e-02
5.675999999999999801e+01,2.855014447060691407e-02
5.679999999999999716e+01,3.764993063410873586e-02
5.684000000000000341e+01,4.039641195374287647e-02
5.688000000000000256e+01,1.914426867347445230e-02
5.692000000000000171e+01,3.177014472747325541e-02
5.696000000000000085e+01,3.292557012754989548e-02
5.700000000000000000e+01,2.472798197118108998e-02
5.703999999999999915e+01,2.958693376793111382e-02
5.707999999999999829e+01,2.950419938938100492e-02
5.711999999999999744e+01,3.012627965684876175e-02
5.715999999999999659e+01,2.827701608204903974e-02
5.720000000000000284e+01,3.383778595490935515e-02
5.724000000000000199e+01,3.039844182273936102e-02
5.728000000000000114e+01,2.695809504450633401e-02
5.732000000000000028e+01,3.586846751682674916e-02
5.735999999999999943e+01,2.924995468452588204e-02
5.739999999999999858e+01,2.968856324336022895e-02
5.743999999999999773e+01,3.718429205650152641e-02
5.747999999999999687e+01,2.068137921731784401e-02
5.752000000000000313e+01,2.076405641315648767e-02
5.756000000000000227e+01,2.949192912854619111e-02
5.760000000000000142e+01,3.098420946937285522e-02
5.764000000000000057e+01,2.647606860215275665e-02
5.767999999999999972e+01,2.408435195489283531e-02
5.771999999999999886e+01,3.386689000371268660e-02
5.775999999999999801e+01,2.617954633151691954e-02
5.779999999999999716e+01,2.184379577214136045e-02
5.784000000000000341e+01,2.950584331216903403e-02
5.788000000000000256e+01,3.257908831271751765e-02
5.792000000000000171e+01,2.824027865788563199e-02
5.796000000000000085e+01,2.672369800998499259e-02
5.800000000000000000e+01,2.555900062549858534e-02
5.803999999999999915e+01,2.668717041571095488e-02
5.807999999999999829e+01,3.857795918101321331e-02
5.811999999999999744e+01,3.493984104195916457e-02
5.815999999999999659e+01,2.636000603324464495e-02
5.820000000000000284e+01,3.066022482344034697e-02
5.824000000000000199e+01,2.878355216697476085e-02
5.828000000000000114e+01,3.043491216758351450e-02
5.832000000000000028e+01,3.984918015704804611e-02
5.835999999999999943e+01,4.202783417221443024e-02
5.839999999999999858e+01,1.914910127085578048e-02
5.843999999999999773e+01,3.173642318002291296e-02
5.847999999999999687e+01,2.173670050569768628e-02
5.852000000000000313e+01,3.908618380340680987e-02
5.856000000000000227e+01,3.031955652012584962e-02
5.860000000000000142e+01,3.178617387459254512e-02
5.864000000000000057e+01,4.825027075716439157e-02
5.867999999999999972e+01,5.571421270889221483e-02
5.871999999999999886e+01,4.253208830427140236e-02
5.875999999999999801e+01,3.023118512190595478e-02
5.879999999999999716e+01,3.592746108559823764e-02
5.884000000000000341e+01,3.968170501881649465e-02
5.888000000000000256e+01,3.884711799185164294e-02
5.892000000000000171e+01,4.648123464608835964e-02
5.896000000000000085e+01,3.293991856443131278e-02
5.900000000000000000e+01,3.104346124177679786e-02
5.903999999999999915e+01,1.697068140536757766e-02
5.907999999999999829e+01,2.354187055009993382e-02
5.911999999999999744e+01,3.028845794086606341e-02
5.915999999999999659e+01,2.450581303500882005e-02
5.920000000000000284e+01,3.001511483162915689e-02
5.924000000000000199e+01,3.958178156002423176e-02
5.928000000000000114e+01,4.067763586372902251e-02
5.932000000000000028e+01,3.594947439879642159e-02
5.935999999999999943e+01,3.263187666227303219e-02
5.939999999999999858e+01,3.284227975163547114e-02
5.943999999999999773e+01,4.028619944008899473e-02
5.947999999999999687e+01,3.484797136490980218e-02
5.952000000000000313e+01,3.487872575324472979e-02
5.956000000000000227e+01,4.002555509588144600e-02
5.960000000000000142e+01,3.723092247777887165e-02
5.964000000000000057e+01,3.108260960310256504e-02
5.967999999999999972e+01,4.646051458810578072e-02
5.971999999999999886e+01,2.531153803877035646e-02
5.975999999999999801e+01,3.786404692271082284e-02
5.979999999999999716e+01,2.871173963878996885e-02
5.984000000000000341e+01,2.891037581998335410e-02
5.988000000000000256e+01,2.134399526883242262e-02
5.992000000000000171e+01,2.471663458486803022e-02
5.996000000000000085e+01,2.473558454970465822e-02
