2.003999999999999915e+01,1.329289313891156288e-02
2.007999999999999829e+01,4.798893742156796344e-03
2.012000000000000099e+01,6.770737037887980710e-03
2.016000000000000014e+01,1.204386243579520441e-02
2.019999999999999929e+01,9.590466039042349830e-03
2.023999999999999844e+01,1.078955512864148564e-02
2.028000000000000114e+01,1.121595982254577906e-02
2.032000000000000028e+01,1.494364551306447825e-02
2.035999999999999943e+01,1.305203192510277777e-02
2.039999999999999858e+01,1.797373815054338977e-02
2.044000000000000128e+01,8.987731632540778975e-03
2.048000000000000043e+01,1.215334421690408839e-02
2.051999999999999957e+01,1.250928791288049256e-02
2.055999999999999872e+01,1.279495315234309948e-02
2.060000000000000142e+01,1.055191210020344633e-02
2.064000000000000057e+01,9.151722274857153686e-03
2.067999999999999972e+01,1.709351867427003763e-02
2.071999999999999886e+01,1.140856354507248545e-02
2.076000000000000156e+01,1.394174148959134545e-02
2.080000000000000071e+01,1.766897349229897343e-02
2.083999999999999986e+01,1.612810683679846702e-02
2.087999999999999901e+01,1.697538707235928673e-02
2.092000000000000171e+01,1.494275486823799098e-02
2.096000000000000085e+01,1.389345325456973167e-02
2.100000000000000000e+01,1.179049912061436341e-02
2.103999999999999915e+01,2.219036415651657809e-02
2.107999999999999829e+01,1.004289517759052522e-02
2.112000000000000099e+01,1.721160119270459185e-02
2.116000000000000014e+01,5.134289647604269036e-03
2.119999999999999929e+01,1.251363411854594654e-02
2.123999999999999844e+01,8.373447089543557473e-03
2.128000000000000114e+01,7.253571274221100144e-03
2.132000000000000028e+01,1.182315631706031336e-02
2.135999999999999943e+01,1.140560225818206506e-02
2.139999999999999858e+01,8.599817954676852380e-03
2.144000000000000128e+01,6.707120137548804387e-03
2.148000000000000043e+01,2.019711073303048776e-02
2.151999999999999957e+01,2.034130742165973088e-02
2.155999999999999872e+01,8.544525674873718404e-03
2.160000000000000142e+01,7.424298756304298016e-03
2.164000000000000057e+01,1.557581064173361833e-02
2.167999999999999972e+01,7.993340743442326618e-03
2.171999999999999886e+01,8.207552561150183515e-03
2.176000000000000156e+01,1.095038676411381161e-02
2.180000000000000071e+01,1.629208386333416692e-02
2.183999999999999986e+01,1.151906106458225852e-02
2.187999999999999901e+01,8.782974310175427693e-03
2.192000000000000171e+01,1.082321403198677895e-02
2.196000000000000085e+01,1.342533271014355149e-02
2.200000000000000000e+01,1.251536439955571421e-02
2.203999999999999915e+01,1.638172173601492448e-02
2.207999999999999829e+01,1.020359830355103102e-02
2.212000000000000099e+01,1.175191303579120085e-02
2.216000000000000014e+01,2.102666565634492973e-02
2.219999999999999929e+01,1.119587510531723507e-02
2.223999999999999844e+01,2.138365968331285699e-02
2.228000000000000114e+01,2.398538966913153769e-02
2.232000000000000028e+01,1.331156100768164305e-02
2.235999999999999943e+01,1.928474885129793578e-02
2.239999999999999858e+01,1.500273135269400600e-02
2.244000000000000128e+01,2.111629972854326201e-02
2.248000000000000043e+01,1.079347291895066049e-02
2.251999999999999957e+01,1.648549442234037779e-02
2.255999999999999872e+01,1.824398034317196993e-02
2.260000000000000142e+01,2.098578552245118981e-02
2.264000000000000057e+01,1.438551393725576340e-02
2.267999999999999972e+01,1.354493460034067800e-02
2.271999999999999886e+01,1.460080392878990684e-02
2.276000000000000156e+01,2.078419786621633555e-02
2.280000000000000071e+01,1.235745487925354706e-02
2.283999999999999986e+01,1.341316476675241155e-02
2.287999999999999901e+01,1.186991182100616618e-02
2.292000000000000171e+01,8.078899702581418887e-03
2.296000000000000085e+01,1.313817254292474340e-02
2.300000000000000000e+01,6.748142509538858531e-03
2.303999999999999915e+01,1.819921766823607776e-02
2.307999999999999829e+01,1.609376577868214253e-02
2.312000000000000099e+01,1.440970325536993293e-02
2.316000000000000014e+01,1.490304950669349600e-02
2.319999999999999929e+01,1.532609905973843917e-02
2.323999999999999844e+01,9.497662347673505034e-03
2.328000000000000114e+01,1.006108082455559743e-02
2.332000000000000028e+01,1.034347941181380445e-02
2.335999999999999943e+01,1.434858271436613084e-02
2.339999999999999858e+01,1.912627738538439856e-02
2.344000000000000128e+01,2.875052881717797548e-02
2.348000000000000043e+01,1.203442713158660131e-02
2.351999999999999957e+01,1.617978117922293235e-02
2.355999999999999872e+01,1.611062958497622155e-02
2.360000000000000142e+01,1.154600892289065969e-02
2.364000000000000057e+01,2.426056300790157064e-02
2.367999999999999972e+01,1.653498873445105946e-02
2.371999999999999886e+01,2.271703086053033713e-02
2.376000000000000156e+01,1.941650690842177882e-02
2.380000000000000071e+01,1.632664526174439079e-02
2.383999999999999986e+01,1.506298375410948867e-02
2.387999999999999901e+01,1.703033785695417038e-02
2.392000000000000171e+01,1.766305611344871559e-02
2.396000000000000085e+01,1.197404234241527914e-02
2.400000000000000000e+01,1.239591563573659919e-02
2.403999999999999915e+01,1.218556012745040246e-02
2.407999999999999829e+01,1.050008609246988814e-02
2.412000000000000099e+01,1.078129183658191673e-02
2.416000000000000014e+01,1.260773235904791290e-02
2.419999999999999929e+01,1.752470470608767650e-02
2.423999999999999844e+01,1.506633127999628709e-02
2.428000000000000114e+01,1.471511810221866161e-02
2.432000000000000028e+01,1.436384127462325862e-02
2.435999999999999943e+01,1.843767012647627365e-02
2.439999999999999858e+01,1.366109556441772940e-02
2.444000000000000128e+01,1.640022077424719421e-02
2.448000000000000043e+01,1.787494705565269293e-02
2.451999999999999957e+01,1.611853208528541206e-02
2.455999999999999872e+01,1.302747684632198262e-02
2.460000000000000142e+01,1.176261649498385777e-02
2.464000000000000057e+01,1.471213752618740801e-02
2.467999999999999972e+01,1.548412801092719122e-02
2.471999999999999886e+01,1.014510357889593546e-02
2.476000000000000156e+01,1.140864647154194063e-02
2.480000000000000071e+01,1.344477105899074751e-02
2.483999999999999986e+01,1.147710352223860891e-02
2.487999999999999901e+01,1.857043003969061773e-02
2.492000000000000171e+01,1.934201789624562934e-02
2.496000000000000085e+01,1.793607327160426021e-02
2.500000000000000000e+01,1.224537226763493594e-02
2.503999999999999915e+01,2.018131539274758621e-02
2.507999999999999829e+01,1.196180851660936205e-02
2.512000000000000099e+01,2.017857671242727011e-02
2.516000000000000014e+01,1.596265608595643509e-02
2.519999999999999929e+01,1.195738809125363768e-02
2.523999999999999844e+01,8.443735601494051571e-03
2.528000000000000114e+01,1.209457314246780053e-02
2.532000000000000028e+01,9.142706109075249277e-03
2.535999999999999943e+01,1.391725485276623653e-02
2.539999999999999858e+01,1.187837610713606863e-02
2.544000000000000128e+01,1.243833510623844861e-02
2.548000000000000043e+01,1.011835015715580911e-02
2.551999999999999957e+01,1.664863247785720174e-02
2.555999999999999872e+01,1.341537313323825677e-02
2.560000000000000142e+01,1.657395294692450352e-02
2.564000000000000057e+01,1.256789967599046889e-02
2.567999999999999972e+01,1.066899697970708806e-02
2.571999999999999886e+01,6.662797338201571599e-03
2.576000000000000156e+01,1.284143826857389419e-02
2.580000000000000071e+01,1.023990689876285408e-02
2.583999999999999986e+01,1.150154468282532129e-02
2.587999999999999901e+01,1.262262646306256710e-02
2.592000000000000171e+01,1.079352046742933224e-02
2.596000000000000085e+01,2.245057066911661584e-02
2.600000000000000000e+01,1.795216451257442697e-02
2.603999999999999915e+01,1.162742234925262866e-02
2.607999999999999829e+01,1.450414752320643326e-02
2.612000000000000099e+01,1.731055582238417989e-02
2.616000000000000014e+01,1.702629311256638120e-02
2.619999999999999929e+01,1.322991439301449829e-02
2.623999999999999844e+01,1.385862836256333136e-02
2.628000000000000114e+01,1.673497033568988046e-02
2.632000000000000028e+01,1.216571137599426096e-02
2.635999999999999943e+01,1.370732317362125148e-02
2.639999999999999858e+01,1.314163332738967592e-02
2.644000000000000128e+01,1.039840077351785602e-02
2.648000000000000043e+01,1.362555657301465530e-02
2.651999999999999957e+01,1.467516911209045156e-02
2.655999999999999872e+01,1.031616189435163519e-02
2.660000000000000142e+01,1.789800912907711650e-02
2.664000000000000057e+01,2.421544251029834199e-02
2.667999999999999972e+01,1.191898727595558372e-02
2.671999999999999886e+01,1.331940534969031954e-02
2.676000000000000156e+01,1.675672574814420293e-02
2.680000000000000071e+01,1.829746410100992898e-02
2.683999999999999986e+01,2.770508957929800412e-02
2.687999999999999901e+01,3.943057970269957940e-02
2.692000000000000171e+01,3.759951624437384010e-02
2.696000000000000085e+01,3.555764853229136796e-02
2.700000000000000000e+01,2.283909896874718876e-02
2.703999999999999915e+01,1.124431955910162699e-02
2.707999999999999829e+01,1.805254372524223161e-02
2.712000000000000099e+01,9.407711668136529634e-03
2.716000000000000014e+01,1.136915523359378725e-02
2.719999999999999929e+01,1.080184690303672562e-02
2.723999999999999844e+01,1.620492167443122675e-02
2.728000000000000114e+01,8.753848250498755257e-03
2.732000000000000028e+01,1.429723611487438914e-02
2.735999999999999943e+01,8.110327829404304426e-03
2.739999999999999858e+01,1.393450925598238230e-02
2.744000000000000128e+01,7.606949255585728799e-03
2.748000000000000043e+01,9.146271958365401883e-03
2.751999999999999957e+01,1.497019693097105704e-02
2.755999999999999872e+01,8.712620434822179044e-03
2.760000000000000142e+01,1.109457447398367637e-02
2.764000000000000057e+01,7.786938144224920394e-03
2.767999999999999972e+01,1.016871872655804310e-02
2.771999999999999886e+01,1.163728192980359628e-02
2.776000000000000156e+01,1.226286826496253424e-02
2.780000000000000071e+01,4.459472417376161325e-03
2.783999999999999986e+01,1.372449993372269403e-02
2.787999999999999901e+01,1.392837762802080770e-02
2.792000000000000171e+01,1.090109057736413783e-02
2.796000000000000085e+01,1.110479094536864775e-02
2.800000000000000000e+01,1.060599436172697529e-02
2.803999999999999915e+01,1.172264653396422156e-02
2.807999999999999829e+01,1.192607883960049298e-02
2.812000000000000099e+01,1.627362769442428081e-02
2.816000000000000014e+01,1.479110101247020463e-02
2.819999999999999929e+01,1.639907851605230948e-02
2.823999999999999844e+01,1.098288654442241413e-02
2.828000000000000114e+01,2.326728198295368796e-02
2.832000000000000028e+01,1.532223936391396805e-02
2.835999999999999943e+01,1.587624045398467604e-02
2.839999999999999858e+01,1.874809568633462389e-02
2.844000000000000128e+01,2.126865486370115021e-02
2.848000000000000043e+01,2.238430589882336313e-02
2.851999999999999957e+01,1.654602631139233046e-02
2.855999999999999872e+01,2.370219944416771321e-02
2.860000000000000142e+01,1.505410219029610155e-02
2.864000000000000057e+01,1.708251111993485880e-02
2.867999999999999972e+01,1.531782375407069602e-02
2.871999999999999886e+01,1.994495398806233472e-02
2.876000000000000156e+01,2.063850579898756157e-02
2.880000000000000071e+01,1.964618410697995671e-02
2.883999999999999986e+01,1.605485839956122956e-02
2.887999999999999901e+01,1.351704934469246354e-02
2.892000000000000171e+01,1.357805398859347930e-02
2.896000000000000085e+01,9.494756465302098963e-03
2.900000000000000000e+01,1.271640484322178466e-02
2.903999999999999915e+01,1.600819774465070400e-02
2.907999999999999829e+01,1.873796780667608824e-02
2.912000000000000099e+01,1.872825034377497561e-02
2.916000000000000014e+01,1.232652413520561770e-02
2.919999999999999929e+01,1.020938858806636450e-02
2.923999999999999844e+01,1.132323161509632067e-02
2.928000000000000114e+01,5.553379555547199170e-03
2.932000000000000028e+01,1.678169984609572535e-02
2.935999999999999943e+01,1.129261426249220622e-02
2.939999999999999858e+01,1.072028504488928627e-02
2.944000000000000128e+01,1.316821065732949603e-02
2.948000000000000043e+01,8.872921376021577350e-03
2.951999999999999957e+01,1.146112967850158523e-02
2.955999999999999872e+01,1.440044206098143632e-02
2.960000000000000142e+01,8.348833524018040714e-03
2.964000000000000057e+01,8.969999379497339137e-03
2.967999999999999972e+01,1.422695651667912897e-02
2.971999999999999886e+01,7.753601196983006885e-03
2.976000000000000156e+01,1.174602195969260375e-02
2.980000000000000071e+01,9.486911129270659063e-03
2.983999999999999986e+01,6.174086696288437134e-03
2.987999999999999901e+01,5.670791690881134099e-03
2.992000000000000171e+01,9.733045521442657347e-03
2.996000000000000085e+01,7.965211377659381017e-03
3.000000000000000000e+01,2.404271817490724345e-03
3.003999999999999915e+01,6.395976168907355382e-03
3.007999999999999829e+01,7.929149511593985844e-03
3.012000000000000099e+01,6.231142907855106473e-03
3.016000000000000014e+01,6.218811198696521346e-03
3.019999999999999929e+01,6.698060722074478807e-03
3.023999999999999844e+01,1.005707797290533376e-02
3.028000000000000114e+01,0.000000000000000000e+00
3.032000000000000028e+01,2.937362586124591789e-03
3.035999999999999943e+01,9.948585456184306716e-03
3.039999999999999858e+01,1.415007116943412142e-02
3.044000000000000128e+01,1.097616826904442879e-02
3.048000000000000043e+01,8.645048603415491847e-03
3.051999999999999957e+01,1.137115913963939601e-02
3.055999999999999872e+01,1.170897613784016231e-02
3.060000000000000142e+01,1.654209648598197607e-02
3.064000000000000057e+01,1.498319786201165495e-02
3.067999999999999972e+01,1.518021132693806591e-02
3.071999999999999886e+01,6.456536920882102043e-03
3.076000000000000156e+01,5.950926490948516695e-03
3.080000000000000071e+01,9.097728580307653731e-03
3.083999999999999986e+01,1.112056936995572953e-02
3.087999999999999901e+01,7.102593466106231664e-03
3.092000000000000171e+01,1.038955019672974968e-02
3.096000000000000085e+01,8.925740915030554948e-04
3.100000000000000000e+01,2.774495736668321482e-03
3.103999999999999915e+01,6.131363833651468087e-03
3.107999999999999829e+01,5.484396689535007974e-03
3.112000000000000099e+01,5.680208357933301880e-03
3.116000000000000014e+01,6.437835412890462530e-03
3.119999999999999929e+01,9.443056475409156506e-03
3.123999999999999844e+01,3.176382136913687149e-03
3.128000000000000114e+01,9.974382511470482673e-03
3.132000000000000028e+01,4.550373861794715369e-03
3.135999999999999943e+01,6.361054018906424704e-03
3.139999999999999858e+01,7.609695305972801437e-03
3.144000000000000128e+01,1.391556043791337093e-02
3.148000000000000043e+01,8.139897014842582129e-03
3.151999999999999957e+01,1.016084759212879281e-02
3.155999999999999872e+01,7.124347800760264145e-03
3.160000000000000142e+01,1.125229437044559383e-02
3.164000000000000057e+01,1.053351238086955646e-02
3.167999999999999972e+01,6.724021240426121884e-03
3.171999999999999886e+01,4.178749490990028848e-03
3.176000000000000156e+01,8.376478272698103383e-03
3.180000000000000071e+01,1.187168384567430061e-02
3.183999999999999986e+01,1.613942246874714576e-02
3.187999999999999901e+01,7.904185048556642418e-03
3.192000000000000171e+01,6.833391778296987046e-03
3.196000000000000085e+01,4.217184745047523366e-03
3.200000000000000000e+01,5.464104301553633636e-03
3.203999999999999915e+01,7.062110801856212421e-03
3.207999999999999829e+01,8.589759245216701741e-03
3.211999999999999744e+01,1.398053344916161400e-02
3.215999999999999659e+01,1.171494400511530198e-02
3.220000000000000284e+01,1.211838638321936085e-02
3.224000000000000199e+01,1.069544991403544032e-02
3.228000000000000114e+01,1.594526959552937384e-02
3.232000000000000028e+01,1.979015460130286244e-02
3.235999999999999943e+01,1.773469426191759402e-02
3.239999999999999858e+01,1.546839207968445443e-02
3.243999999999999773e+01,1.776762132082648077e-02
3.247999999999999687e+01,2.322756596112579217e-02
3.252000000000000313e+01,1.990729186765856015e-02
3.256000000000000227e+01,2.424314301361578383e-02
3.260000000000000142e+01,2.232744321911512772e-02
3.264000000000000057e+01,2.989412858343390086e-02
3.267999999999999972e+01,3.893574906756514659e-02
3.271999999999999886e+01,4.903085967077020629e-02
3.275999999999999801e+01,6.917028090275459395e-02
3.279999999999999716e+01,9.015246933885792679e-02
3.284000000000000341e+01,1.124691102144294713e-01
3.288000000000000256e+01,1.488337857709174927e-01
3.292000000000000171e+01,1.994572180941056316e-01
3.296000000000000085e+01,2.644798884823864049e-01
3.300000000000000000e+01,3.141197028054269480e-01
3.303999999999999915e+01,3.673416733825077829e-01
3.307999999999999829e+01,3.852324037224176267e-01
3.311999999999999744e+01,3.746052499257292445e-01
3.315999999999999659e+01,3.148796610103798410e-01
3.320000000000000284e+01,2.562777996848111806e-01
3.324000000000000199e+01,2.094060245687303090e-01
3.328000000000000114e+01,1.506634308222452034e-01
3.332000000000000028e+01,1.079356107633408779e-01
3.335999999999999943e+01,8.178449041475792380e-02
3.339999999999999858e+01,6.357045265096704367e-02
3.343999999999999773e+01,5.392566428210023716e-02
3.347999999999999687e+01,3.739715180566489938e-02
3.352000000000000313e+01,4.046569179181849080e-02
3.356000000000000227e+01,3.082052176413881475e-02
3.360000000000000142e+01,2.595159750668752166e-02
3.364000000000000057e+01,1.757050583089211221e-02
3.367999999999999972e+01,1.775866189167851772e-02
3.371999999999999886e+01,2.047535769699819486e-02
3.375999999999999801e+01,1.694049454653911296e-02
3.379999999999999716e+01,1.143876019478461820e-02
3.384000000000000341e+01,1.478723562361593767e-02
3.388000000000000256e+01,1.504498670010913017e-02
3.392000000000000171e+01,1.481092228135468328e-02
3.396000000000000085e+01,1.513865390183279612e-02
3.400000000000000000e+01,1.047915908123461630e-02
3.403999999999999915e+01,8.839887305786312335e-03
3.407999999999999829e+01,9.518430425183781879e-03
3.411999999999999744e+01,4.858542337376948843e-03
3.415999999999999659e+01,1.361451299947214963e-02
3.420000000000000284e+01,7.198341666790002147e-03
3.424000000000000199e+01,1.033478522470360726e-02
3.428000000000000114e+01,3.848108438977615366e-03
3.432000000000000028e+01,8.178380164111329412e-03
3.435999999999999943e+01,1.180611099152914685e-02
3.439999999999999858e+01,5.389275921787975605e-03
3.443999999999999773e+01,6.347589951558093441e-03
3.447999999999999687e+01,8.078418789660018334e-03
3.452000000000000313e+01,8.615020112744925518e-03
3.456000000000000227e+01,6.903781833551795623e-03
3.460000000000000142e+01,3.857833911778146656e-03
3.464000000000000057e+01,1.310388882496004749e-02
3.467999999999999972e+01,6.334908977983581477e-03
3.471999999999999886e+01,5.185056611001456414e-03
3.475999999999999801e+01,1.569503916328139279e-02
3.479999999999999716e+01,8.644688803621609560e-03
3.484000000000000341e+01,1.493995170783612991e-02
3.488000000000000256e+01,9.434625713422808979e-03
3.492000000000000171e+01,8.494814006181326121e-03
3.496000000000000085e+01,4.394029696670209185e-03
3.500000000000000000e+01,2.330090775460740699e-03
3.503999999999999915e+01,8.062741532255130600e-03
3.507999999999999829e+01,4.242507204993809650e-03
3.511999999999999744e+01,1.440005129339646736e-02
3.515999999999999659e+01,1.310820848539554634e-02
3.520000000000000284e+01,1.251863472330827683e-02
3.524000000000000199e+01,4.132194456388099679e-03
3.528000000000000114e+01,6.351973704784473311e-03
3.532000000000000028e+01,2.320183218177402328e-03
3.535999999999999943e+01,6.717147284973599107e-03
3.539999999999999858e+01,9.217469882250726304e-03
3.543999999999999773e+01,6.660315301006618921e-03
3.547999999999999687e+01,1.372600782964800321e-02
3.552000000000000313e+01,2.008915144525252883e-02
3.556000000000000227e+01,2.181626177751295678e-02
3.560000000000000142e+01,1.946926484916986985e-02
3.564000000000000057e+01,2.239018510688559754e-02
3.567999999999999972e+01,1.372123330034006987e-02
3.571999999999999886e+01,1.558825718142563266e-02
3.575999999999999801e+01,1.148467143677910085e-02
3.579999999999999716e+01,1.489670696915379802e-02
3.584000000000000341e+01,8.685611378664234716e-03
3.588000000000000256e+01,1.448554690546305541e-02
3.592000000000000171e+01,8.695608709658414134e-03
3.596000000000000085e+01,1.323092218096844942e-02
3.600000000000000000e+01,1.277899539168335374e-02
3.603999999999999915e+01,1.324005420628813351e-02
3.607999999999999829e+01,1.138302212838925194e-02
3.611999999999999744e+01,1.409149604595091691e-02
3.615999999999999659e+01,9.284060251266506095e-03
3.620000000000000284e+01,8.199240450565399227e-03
3.624000000000000199e+01,1.540268754789649724e-02
3.628000000000000114e+01,1.115674000989350968e-02
3.632000000000000028e+01,1.407520621887999208e-02
3.635999999999999943e+01,1.165522574280109663e-02
3.639999999999999858e+01,1.323882302831912681e-02
3.643999999999999773e+01,1.376866110686482229e-02
3.647999999999999687e+01,1.387690678857017232e-02
3.652000000000000313e+01,1.398500452139299702e-02
3.656000000000000227e+01,1.409295402894297777e-02
3.660000000000000142e+01,1.708062731787603206e-02
3.664000000000000057e+01,1.711803875831776484e-02
3.667999999999999972e+01,2.101854445084104864e-02
3.671999999999999886e+01,1.965084175817694706e-02
3.675999999999999801e+01,1.800202630872260040e-02
3.679999999999999716e+01,1.796859908565473160e-02
3.684000000000000341e+01,2.158754264693276900e-02
3.688000000000000256e+01,2.106212931572389035e-02
3.692000000000000171e+01,2.643679141260414991e-02
3.696000000000000085e+01,3.103865385900266699e-02
3.700000000000000000e+01,2.531496929330225715e-02
3.703999999999999915e+01,3.399049460087603253e-02
3.707999999999999829e+01,2.917963691095835227e-02
3.711999999999999744e+01,3.335944791239835866e-02
3.715999999999999659e+01,3.732838418053570362e-02
3.720000000000000284e+01,4.185909410028516159e-02
3.724000000000000199e+01,4.505507613568926484e-02
3.728000000000000114e+01,5.099029567905731530e-02
3.732000000000000028e+01,4.695116993616028911e-02
3.735999999999999943e+01,5.660884398150069913e-02
3.739999999999999858e+01,6.970816257954766393e-02
3.743999999999999773e+01,8.926947931173982720e-02
3.747999999999999687e+01,1.230895213021293289e-01
3.752000000000000313e+01,1.622477082756213218e-01
3.756000000000000227e+01,2.323116865662854247e-01
3.760000000000000142e+01,3.648195694364578245e-01
3.764000000000000057e+01,5.802816665280294828e-01
3.767999999999999972e+01,7.966567378914856112e-01
3.771999999999999886e+01,9.353453421594887240e-01
3.775999999999999801e+01,1.000000000000000000e+00
3.779999999999999716e+01,9.909016742861945781e-01
3.784000000000000341e+01,9.260320063138736124e-01
3.788000000000000256e+01,8.149437428918735460e-01
3.792000000000000171e+01,7.084912138151587824e-01
3.796000000000000085e+01,6.512773188008604830e-01
3.800000000000000000e+01,5.707433241972997839e-01
3.803999999999999915e+01,5.184459676733544908e-01
3.807999999999999829e+01,4.808990177734906446e-01
3.811999999999999744e+01,4.201724490299758030e-01
3.815999999999999659e+01,4.012389895034403908e-01
3.820000000000000284e+01,3.831482598683231267e-01
3.824000000000000199e+01,4.091685848813198523e-01
3.828000000000000114e+01,5.216551590630382762e-01
3.832000000000000028e+01,6.915985369444509478e-01
3.835999999999999943e+01,7.952344508655670996e-01
3.839999999999999858e+01,7.339448350525079601e-01
3.843999999999999773e+01,6.216602463776912391e-01
3.847999999999999687e+01,4.999632307004195364e-01
3.852000000000000313e+01,3.533305737308087280e-01
3.856000000000000227e+01,2.391489984912209821e-01
3.860000000000000142e+01,1.772966475370244543e-01
3.864000000000000057e+01,1.426273187057170433e-01
3.867999999999999972e+01,1.144902202278445386e-01
3.871999999999999886e+01,9.541402017310607331e-02
3.875999999999999801e+01,7.619717511684129252e-02
3.879999999999999716e+01,6.856989627701921830e-02
3.884000000000000341e+01,6.487593755158976849e-02
3.888000000000000256e+01,6.125205535763696141e-02
3.892000000000000171e+01,6.029715855225131066e-02
3.896000000000000085e+01,6.587449016556799763e-02
3.900000000000000000e+01,6.527046740335795683e-02
3.903999999999999915e+01,6.206737014619091025e-02
3.907999999999999829e+01,6.160349795942086926e-02
3.911999999999999744e+01,5.467730741838753433e-02
3.915999999999999659e+01,4.585444942713977345e-02
3.920000000000000284e+01,3.738262890581119796e-02
3.924000000000000199e+01,4.043013077323980020e-02
3.928000000000000114e+01,4.235361302258799920e-02
3.932000000000000028e+01,3.676116372485038752e-02
3.935999999999999943e+01,3.959744134147841210e-02
3.939999999999999858e+01,3.238911851215044158e-02
3.943999999999999773e+01,3.339879968223322809e-02
3.947999999999999687e+01,3.461903481271980110e-02
3.952000000000000313e+01,2.839357780156007843e-02
3.956000000000000227e+01,2.223819262324063656e-02
3.960000000000000142e+01,2.121021569355002745e-02
3.964000000000000057e+01,2.545012831088060493e-02
3.967999999999999972e+01,1.985616090969666292e-02
3.971999999999999886e+01,2.142658376232024417e-02
3.975999999999999801e+01,2.110033501887375804e-02
3.979999999999999716e+01,2.091439723731670919e-02
3.984000000000000341e+01,2.592610683343758021e-02
3.988000000000000256e+01,2.433501124909525151e-02
3.992000000000000171e+01,1.944242721529390247e-02
3.996000000000000085e+01,2.311904752478528141e-02
4.000000000000000000e+01,1.162348576289473634e-02
4.003999999999999915e+01,1.965469062457047764e-02
4.007999999999999829e+01,2.101284813643973515e-02
4.011999999999999744e+01,2.525070510733897627e-02
4.015999999999999659e+01,2.183214315217179083e-02
4.020000000000000284e+01,2.087183537890555454e-02
4.024000000000000199e+01,1.892798292897262744e-02
4.028000000000000114e+01,2.330562741468546542e-02
4.032000000000000028e+01,2.634852273399397593e-02
4.035999999999999943e+01,2.538751868963559991e-02
4.039999999999999858e+01,2.702524902000907892e-02
4.043999999999999773e+01,2.213041108784543839e-02
4.047999999999999687e+01,1.639250839545557809e-02
4.052000000000000313e+01,1.704634176776062895e-02
4.056000000000000227e+01,1.805120321271205461e-02
4.060000000000000142e+01,1.659746095826452814e-02
4.064000000000000057e+01,1.851510008151172060e-02
4.067999999999999972e+01,1.762293101562233122e-02
4.071999999999999886e+01,1.911877175116767635e-02
4.075999999999999801e+01,1.155337366696345541e-02
4.079999999999999716e+01,1.255717412185407451e-02
4.084000000000000341e+01,1.608946512379103716e-02
4.088000000000000256e+01,1.196533222463477472e-02
4.092000000000000171e+01,1.296859845322491725e-02
4.096000000000000085e+01,1.446337156534041428e-02
4.100000000000000000e+01,1.595796577285129442e-02
4.103999999999999915e+01,1.063902442240396637e-02
4.107999999999999829e+01,1.887637558110633398e-02
4.111999999999999744e+01,1.411900133862885841e-02
4.115999999999999659e+01,1.631528503773121974e-02
4.120000000000000284e+01,1.619344246636176751e-02
4.124000000000000199e+01,1.635238248161092686e-02
4.128000000000000114e+01,1.433367724839025234e-02
4.132000000000000028e+01,1.090997515161448023e-02
4.135999999999999943e+01,1.296487307924783228e-02
4.139999999999999858e+01,1.768873925924498505e-02
4.143999999999999773e+01,1.447521451911820342e-02
4.147999999999999687e+01,1.161271149465911354e-02
4.152000000000000313e+01,1.626579022339750755e-02
4.156000000000000227e+01,1.143617988023056670e-02
4.160000000000000142e+01,1.672105987096117116e-02
4.164000000000000057e+01,1.245300944961431552e-02
4.167999999999999972e+01,9.730072747636670655e-03
4.171999999999999886e+01,1.438223484212185557e-02
4.175999999999999801e+01,1.538169183623384895e-02
4.179999999999999716e+01,1.792626172054391509e-02
4.184000000000000341e+01,1.232271555865212080e-02
4.188000000000000256e+01,1.346210000113929293e-02
4.192000000000000171e+01,1.221311241073649856e-02
4.196000000000000085e+01,1.363308920323223067e-02
4.200000000000000000e+01,1.378854600831923294e-02
4.203999999999999915e+01,1.190683388830199481e-02
4.207999999999999829e+01,1.332625240853455018e-02
4.211999999999999744e+01,1.544789215914567360e-02
4.215999999999999659e+01,1.349537932113159533e-02
4.220000000000000284e+01,1.315821739680319430e-02
4.224000000000000199e+01,1.710555603064231947e-02
4.228000000000000114e+01,1.339646108972506258e-02
4.232000000000000028e+01,1.256705040636707515e-02
4.235999999999999943e+01,1.026239488591285803e-02
4.239999999999999858e+01,1.793174259676587681e-02
4.243999999999999773e+01,1.611839515512529172e-02
4.247999999999999687e+01,1.402389543287068871e-02
4.252000000000000313e+01,2.134147181362121282e-02
4.256000000000000227e+01,1.763105489009681240e-02
4.260000000000000142e+01,1.680032028939906080e-02
4.264000000000000057e+01,1.337048631861044272e-02
4.267999999999999972e+01,1.267985254308497296e-02
4.271999999999999886e+01,1.606299364686837941e-02
4.275999999999999801e+01,1.424812541790895434e-02
4.279999999999999716e+01,1.720943938939138718e-02
4.284000000000000341e+01,1.827406048274479722e-02
4.288000000000000256e+01,2.221836196419224585e-02
4.292000000000000171e+01,1.471322292950312006e-02
4.296000000000000085e+01,1.788449113056970671e-02
4.300000000000000000e+01,1.908882456055442656e-02
4.303999999999999915e+01,2.057392813959082675e-02
4.307999999999999829e+01,2.353389497694188121e-02
4.311999999999999744e+01,2.487813015099678282e-02
4.315999999999999659e+01,2.018146377970864852e-02
4.320000000000000284e+01,2.840890818235791357e-02
4.324000000000000199e+01,2.708341111731470824e-02
4.328000000000000114e+01,3.397589151820612496e-02
4.332000000000000028e+01,3.433578375645336689e-02
4.335999999999999943e+01,3.680270440480501448e-02
4.339999999999999858e+01,4.081472688773968988e-02
4.343999999999999773e+01,4.552896148017050726e-02
4.347999999999999687e+01,5.796948664484451175e-02
4.352000000000000313e+01,6.450958935144478212e-02
4.356000000000000227e+01,8.011055703794354999e-02
4.360000000000000142e+01,9.592205021663739728e-02
4.364000000000000057e+01,1.219885012081022985e-01
4.367999999999999972e+01,1.471416245407195234e-01
4.371999999999999886e+01,1.778435723781050526e-01
4.375999999999999801e+01,2.225934797182247404e-01
4.379999999999999716e+01,2.585630903824918114e-01
4.384000000000000341e+01,2.905287776371291431e-01
4.388000000000000256e+01,3.097806835692162863e-01
4.392000000000000171e+01,3.120341198714888797e-01
4.396000000000000085e+01,3.058584623293042482e-01
4.400000000000000000e+01,2.866880594858325915e-01
4.403999999999999915e+01,2.701866066529599597e-01
4.407999999999999829e+01,2.446238920599365929e-01
4.411999999999999744e+01,2.229242203103847797e-01
4.415999999999999659e+01,1.979230308139940664e-01
4.420000000000000284e+01,1.843708886465625085e-01
4.424000000000000199e+01,1.543119601499331750e-01
4.428000000000000114e+01,1.385819507125284622e-01
4.432000000000000028e+01,1.215874052570732194e-01
4.435999999999999943e+01,9.953532098804286632e-02
4.439999999999999858e+01,8.710602219384408484e-02
4.443999999999999773e+01,6.547497757719841771e-02
4.447999999999999687e+01,4.995467851303489470e-02
4.452000000000000313e+01,4.525125748018516553e-02
4.456000000000000227e+01,3.703559357441867095e-02
4.460000000000000142e+01,3.057574557369802798e-02
4.464000000000000057e+01,2.418593430423992066e-02
4.467999999999999972e+01,2.229132909531048728e-02
4.471999999999999886e+01,2.194181660008166085e-02
4.475999999999999801e+01,2.306715575477169197e-02
4.479999999999999716e+01,2.117193588994231018e-02
4.484000000000000341e+01,2.173493814573028080e-02
4.488000000000000256e+01,1.688919405791138029e-02
4.492000000000000171e+01,1.042770586922938877e-02
4.496000000000000085e+01,1.323779534895684618e-02
4.500000000000000000e+01,1.478334411199734751e-02
4.503999999999999915e+01,1.077966385108672029e-02
4.507999999999999829e+01,1.316768814636809504e-02
4.511999999999999744e+01,1.141129861274507197e-02
4.515999999999999659e+01,1.169168426426813422e-02
4.520000000000000284e+01,1.218258435237120317e-02
4.524000000000000199e+01,1.211134993935878736e-02
4.528000000000000114e+01,1.779965161406412907e-02
4.532000000000000028e+01,1.126584752790522719e-02
4.535999999999999943e+01,1.238808023625042297e-02
4.539999999999999858e+01,1.140288001530841665e-02
4.543999999999999773e+01,8.942413675211183591e-03
4.547999999999999687e+01,1.455942802479515651e-02
4.552000000000000313e+01,8.165057593737121838e-03
4.556000000000000227e+01,1.062081596088467091e-02
4.560000000000000142e+01,1.427045702418767992e-02
4.564000000000000057e+01,9.490992634637608269e-03
4.567999999999999972e+01,1.159491416716351003e-02
4.571999999999999886e+01,9.975862449277582422e-03
4.575999999999999801e+01,1.502947373851277503e-02
4.579999999999999716e+01,8.493143036721587449e-03
4.584000000000000341e+01,7.505622191008754808e-03
4.588000000000000256e+01,8.835834704980742929e-03
4.592000000000000171e+01,1.213257636529031444e-02
4.596000000000000085e+01,1.009080500684418971e-02
4.600000000000000000e+01,6.292800510212122854e-03
4.603999999999999915e+01,1.036155047162187239e-02
4.607999999999999829e+01,1.147997335641153319e-02
4.611999999999999744e+01,1.154457014775782907e-02
4.615999999999999659e+01,8.237394585355032120e-03
4.620000000000000284e+01,1.097071190325685577e-02
4.624000000000000199e+01,8.997681354192724190e-03
4.628000000000000114e+01,9.553103763083792624e-03
4.632000000000000028e+01,1.200481176701729928e-02
4.635999999999999943e+01,9.188244775682741922e-03
4.639999999999999858e+01,1.142879825922168621e-02
4.643999999999999773e+01,6.574815722536126762e-03
4.647999999999999687e+01,1.014951090272923039e-02
4.652000000000000313e+01,1.119532069035636922e-02
4.656000000000000227e+01,8.026465911634172654e-03
4.660000000000000142e+01,1.244339857192305193e-02
4.664000000000000057e+01,8.782422806556302447e-03
4.667999999999999972e+01,8.703509046111560649e-03
4.671999999999999886e+01,6.657634810279952457e-03
4.675999999999999801e+01,7.983099664415491820e-03
4.679999999999999716e+01,4.391490419945724526e-03
4.684000000000000341e+01,4.452182862227820233e-03
4.688000000000000256e+01,8.867584588785183339e-03
4.692000000000000171e+01,9.560004773219442017e-03
4.696000000000000085e+01,1.102485353218812629e-02
4.700000000000000000e+01,4.060587441030966138e-03
4.703999999999999915e+01,8.826312204681758741e-03
4.707999999999999829e+01,6.005811014122407893e-03
4.711999999999999744e+01,8.663870047758011686e-03
4.715999999999999659e+01,5.561963046578446458e-03
4.720000000000000284e+01,1.187209981073000103e-02
4.724000000000000199e+01,1.157938053858915441e-02
4.728000000000000114e+01,7.774399598985929846e-03
4.732000000000000028e+01,1.029086695032229923e-02
4.735999999999999943e+01,1.084036940402575283e-02
4.739999999999999858e+01,1.096820400631617724e-02
4.743999999999999773e+01,1.053388890602041834e-02
4.747999999999999687e+01,1.375187107023053031e-02
4.752000000000000313e+01,1.268494124733090742e-02
4.756000000000000227e+01,1.140706482963086549e-02
4.760000000000000142e+01,1.216594673726396555e-02
4.764000000000000057e+01,9.342323702529950480e-03
4.767999999999999972e+01,1.080316363687227818e-02
4.771999999999999886e+01,9.735109886937345219e-03
4.775999999999999801e+01,8.807312097206962398e-03
4.779999999999999716e+01,8.511455503030399689e-03
4.784000000000000341e+01,9.128502977582718045e-03
4.788000000000000256e+01,7.708341174035895568e-03
4.792000000000000171e+01,8.605898634264700503e-03
4.796000000000000085e+01,5.499504216655132748e-03
4.800000000000000000e+01,9.487202052653850165e-03
4.803999999999999915e+01,9.049502733685219416e-03
4.807999999999999829e+01,8.541334801623994000e-03
4.811999999999999744e+01,9.648476877472804067e-03
4.815999999999999659e+01,1.201972474788436107e-02
4.820000000000000284e+01,9.192925696461956911e-03
4.824000000000000199e+01,1.058034495725925818e-02
4.828000000000000114e+01,8.666218003008931484e-03
4.832000000000000028e+01,1.019366014689243594e-02
4.835999999999999943e+01,7.857629223816567365e-03
4.839999999999999858e+01,1.198352070392283940e-02
4.843999999999999773e+01,8.242213682980717090e-03
4.847999999999999687e+01,9.347290402438371976e-03
4.852000000000000313e+01,9.819969169378356399e-03
4.856000000000000227e+01,7.833989235234539716e-03
4.860000000000000142e+01,8.868131740143683772e-03
4.864000000000000057e+01,9.199634675972633707e-03
4.867999999999999972e+01,1.170837004937730699e-02
4.871999999999999886e+01,6.630868136566440280e-03
4.875999999999999801e+01,1.145708472160164408e-02
4.879999999999999716e+01,1.438656724634176758e-02
4.884000000000000341e+01,8.465477482650491520e-03
4.888000000000000256e+01,1.076232649024119400e-02
4.892000000000000171e+01,8.633772262276262835e-03
4.896000000000000085e+01,8.682448537154430906e-03
4.900000000000000000e+01,1.336678259718340582e-02
4.903999999999999915e+01,9.130302199437709265e-03
4.907999999999999829e+01,1.044260927014991139e-02
4.911999999999999744e+01,1.273805235249037514e-02
4.915999999999999659e+01,8.009181407452112614e-03
4.920000000000000284e+01,1.290306277040029030e-02
4.924000000000000199e+01,1.266913081275610788e-02
4.928000000000000114e+01,1.208375880074255039e-02
4.932000000000000028e+01,8.548037324488454852e-03
4.935999999999999943e+01,8.734840909783906857e-03
4.939999999999999858e+01,1.018574172154047656e-02
4.943999999999999773e+01,1.086375664901794748e-02
4.947999999999999687e+01,1.301659061234989104e-02
4.952000000000000313e+01,1.509894601253571056e-02
4.956000000000000227e+01,1.647865548666268762e-02
4.960000000000000142e+01,8.867305846158354127e-03
4.964000000000000057e+01,6.523776655081170960e-03
4.967999999999999972e+01,1.148505047139057947e-02
4.971999999999999886e+01,8.438635367376786864e-03
4.975999999999999801e+01,1.227557799362059658e-02
4.979999999999999716e+01,1.540987303546328784e-02
4.984000000000000341e+01,1.116864541433401636e-02
4.988000000000000256e+01,7.629585403850334610e-03
4.992000000000000171e+01,1.371327272632633619e-02
4.996000000000000085e+01,1.452866017840044773e-02
5.000000000000000000e+01,1.232345268020622331e-02
5.003999999999999915e+01,9.977522238399625515e-03
5.007999999999999829e+01,1.100290794615894907e-02
5.011999999999999744e+01,8.375530787956469991e-03
5.015999999999999659e+01,9.821877100452883549e-03
5.020000000000000284e+01,1.463953873334409260e-02
5.024000000000000199e+01,8.077950058051277735e-03
5.028000000000000114e+01,1.303560748777182407e-02
5.032000000000000028e+01,1.005581263870490398e-02
5.035999999999999943e+01,1.044733200447126552e-02
5.039999999999999858e+01,1.315655349780993702e-02
5.043999999999999773e+01,7.366395584059019438e-03
5.047999999999999687e+01,8.670312787713043562e-03
5.052000000000000313e+01,1.004422609324430969e-02
5.056000000000000227e+01,1.015356026382632608e-02
5.060000000000000142e+01,8.085184786980866359e-03
5.064000000000000057e+01,9.669084739801544343e-03
5.067999999999999972e+01,9.988404728501846727e-03
5.071999999999999886e+01,1.388975880669618239e-02
5.075999999999999801e+01,9.572694416243407445e-03
5.079999999999999716e+01,8.697181987721153140e-03
5.084000000000000341e+01,1.119298045734767010e-02
5.088000000000000256e+01,7.788305613071285285e-03
5.092000000000000171e+01,1.070505418460059727e-02
5.096000000000000085e+01,8.423736763359997853e-03
5.100000000000000000e+01,1.162095275644785611e-02
5.103999999999999915e+01,1.088443637702976412e-02
5.107999999999999829e+01,1.106080167872012729e-02
5.111999999999999744e+01,8.216564291211625112e-03
5.115999999999999659e+01,1.548675118030075695e-02
5.120000000000000284e+01,1.060503246653171465e-02
5.124000000000000199e+01,1.366027306744696870e-02
5.128000000000000114e+01,1.566165192056032801e-02
5.132000000000000028e+01,1.281616623034723471e-02
5.135999999999999943e+01,6.669113043027558030e-03
5.139999999999999858e+01,1.042576011178909627e-02
5.143999999999999773e+01,9.195060233270338501e-03
5.147999999999999687e+01,9.790369508044122551e-03
5.152000000000000313e+01,1.087711269928394626e-02
5.156000000000000227e+01,1.112071457016336820e-02
5.160000000000000142e+01,1.283912082820734372e-02
5.164000000000000057e+01,1.209884710310855753e-02
5.167999999999999972e+01,1.437867453500377493e-02
5.171999999999999886e+01,1.061754127401545386e-02
5.175999999999999801e+01,9.103859955935253434e-03
5.179999999999999716e+01,1.454376305959486672e-02
5.184000000000000341e+01,1.612016905033237385e-02
5.188000000000000256e+01,1.137465009305931724e-02
5.192000000000000171e+01,1.070284244530861698e-02
5.196000000000000085e+01,1.234872614590553676e-02
5.200000000000000000e+01,1.258953918671694427e-02
5.203999999999999915e+01,1.058239184265595371e-02
5.207999999999999829e+01,7.661858797768273874e-03
5.211999999999999744e+01,1.014961064088719389e-02
5.215999999999999659e+01,1.186445780518140605e-02
5.220000000000000284e+01,1.617795780904649622e-02
5.224000000000000199e+01,1.114917651955860470e-02
5.228000000000000114e+01,1.166916058729851845e-02
5.232000000000000028e+01,1.169720202021773924e-02
5.235999999999999943e+01,7.861742747139952026e-03
5.239999999999999858e+01,1.196323477342556285e-02
5.243999999999999773e+01,1.121785451745418820e-02
5.247999999999999687e+01,1.461642248893127438e-02
5.252000000000000313e+01,1.471341494798086152e-02
5.256000000000000227e+01,1.509111177517259532e-02
5.260000000000000142e+01,1.476614167063689149e-02
5.264000000000000057e+01,1.022646498841469839e-02
5.267999999999999972e+01,1.453686790691110543e-02
5.271999999999999886e+01,1.076932038841471248e-02
5.275999999999999801e+01,1.016234813915492356e-02
5.279999999999999716e+01,1.475293371709121386e-02
5.284000000000000341e+01,1.196797590277728918e-02
5.288000000000000256e+01,1.262455567809432980e-02
5.292000000000000171e+01,1.131413213751620087e-02
5.296000000000000085e+01,1.323452327161416670e-02
5.300000000000000000e+01,1.150213163964321564e-02
5.303999999999999915e+01,1.243862783043664030e-02
5.307999999999999829e+01,1.232124983586123032e-02
5.311999999999999744e+01,1.683950115822786808e-02
5.315999999999999659e+01,1.756448703418138010e-02
5.320000000000000284e+01,7.823332385150863141e-03
5.324000000000000199e+01,8.477550789983915452e-03
5.328000000000000114e+01,1.095776591054258356e-02
5.332000000000000028e+01,1.343771699826078365e-02
5.335999999999999943e+01,1.359945779283277742e-02
5.339999999999999858e+01,8.633356522213274375e-03
5.343999999999999773e+01,9.777938892631682019e-03
5.347999999999999687e+01,1.071153376247396642e-02
5.352000000000000313e+01,1.248775266622037527e-02
5.356000000000000227e+01,1.117311123356362450e-02
5.360000000000000142e+01,1.210590902985770982e-02
5.364000000000000057e+01,1.626951680219148808e-02
5.367999999999999972e+01,1.031818466981361364e-02
5.371999999999999886e+01,1.469198148722341765e-02
5.375999999999999801e+01,1.091757989409927569e-02
5.379999999999999716e+01,1.437771205276161708e-02
5.384000000000000341e+01,1.727565028637759528e-02
5.388000000000000256e+01,1.441357605159519599e-02
5.392000000000000171e+01,1.787290450334029154e-02
5.396000000000000085e+01,1.571270150868902746e-02
5.400000000000000000e+01,1.924173356126213097e-02
5.403999999999999915e+01,1.335823109552392376e-02
5.407999999999999829e+01,1.674624328118940603e-02
5.411999999999999744e+01,1.528737157620212173e-02
5.415999999999999659e+01,1.417943397113332130e-02
5.420000000000000284e+01,1.679398798437856111e-02
5.424000000000000199e+01,1.491286121475677781e-02
5.428000000000000114e+01,1.120520330674976139e-02
5.432000000000000028e+01,1.466183477006297552e-02
5.435999999999999943e+01,1.573000824307922707e-02
5.439999999999999858e+01,1.314538927636341170e-02
5.443999999999999773e+01,1.646072467875196385e-02
5.447999999999999687e+01,1.556134078949671790e-02
5.452000000000000313e+01,2.035118835439098106e-02
5.456000000000000227e+01,1.249742158789584646e-02
5.460000000000000142e+01,2.297622745321669865e-02
5.464000000000000057e+01,1.835299087566935952e-02
5.467999999999999972e+01,2.166668984323394387e-02
5.471999999999999886e+01,1.837748108950578926e-02
5.475999999999999801e+01,2.049653898201937718e-02
5.479999999999999716e+01,2.577615804786037232e-02
5.484000000000000341e+01,2.368021990193236795e-02
5.488000000000000256e+01,3.078555009220915878e-02
5.492000000000000171e+01,2.559846740054005226e-02
5.496000000000000085e+01,4.155358634882846958e-02
5.500000000000000000e+01,4.430316162630238558e-02
5.503999999999999915e+01,5.098594508006658310e-02
5.507999999999999829e+01,6.363891926808049049e-02
5.511999999999999744e+01,7.292005919090105426e-02
5.515999999999999659e+01,9.273704047562990327e-02
5.520000000000000284e+01,1.165574696184788761e-01
5.524000000000000199e+01,1.292795770539122424e-01
5.528000000000000114e+01,1.509922276994725976e-01
5.532000000000000028e+01,1.602719811244004422e-01
5.535999999999999943e+01,1.655477315392703819e-01
5.539999999999999858e+01,1.579691394563789708e-01
5.543999999999999773e+01,1.472294332593453436e-01
5.547999999999999687e+01,1.334690942465617813e-01
5.552000000000000313e+01,1.120522301738073739e-01
5.556000000000000227e+01,9.548170092035621059e-02
5.560000000000000142e+01,8.607545219373320677e-02
5.564000000000000057e+01,6.451726718492031831e-02
5.567999999999999972e+01,5.180914104754781591e-02
5.571999999999999886e+01,4.668673933218060040e-02
5.575999999999999801e+01,3.980803703937561833e-02
5.579999999999999716e+01,3.566844428579039883e-02
5.584000000000000341e+01,2.801653071720234395e-02
5.588000000000000256e+01,2.647528392983921480e-02
5.592000000000000171e+01,2.352893939643369015e-02
5.596000000000000085e+01,2.367290723364331301e-02
5.600000000000000000e+01,1.875925582767834499e-02
5.603999999999999915e+01,1.967530694781132253e-02
5.607999999999999829e+01,2.023987102721101078e-02
5.611999999999999744e+01,2.024222542731289251e-02
5.615999999999999659e+01,1.610008971476654949e-02
5.620000000000000284e+01,1.476730156492759780e-02
5.624000000000000199e+01,1.624386070140564423e-02
5.628000000000000114e+01,1.624507881693652150e-02
5.632000000000000028e+01,1.308517673773691020e-02
5.635999999999999943e+01,1.645738284742598659e-02
5.639999999999999858e+01,1.673870899699515802e-02
5.643999999999999773e+01,1.701974955527451455e-02
5.647999999999999687e+01,1.231340834108617457e-02
5.652000000000000313e+01,1.343676633631124204e-02
5.656000000000000227e+01,1.406815239933575414e-02
5.660000000000000142e+01,1.420756625376934368e-02
5.664000000000000057e+01,1.842065880366089078e-02
5.667999999999999972e+01,1.617131166391399394e-02
5.671999999999999886e+01,1.560745589553761380e-02
5.675999999999999801e+01,1.398970051387781605e-02
5.679999999999999716e+01,1.293358335254578273e-02
5.684000000000000341e+01,1.545945799298021998e-02
5.688000000000000256e+01,1.524565329356714766e-02
5.692000000000000171e+01,1.341602157617814012e-02
5.696000000000000085e+01,1.179682303659854332e-02
5.700000000000000000e+01,1.397033755539803940e-02
5.703999999999999915e+01,1.382561635313673924e-02
5.707999999999999829e+01,1.382108671212234872e-02
5.711999999999999744e+01,1.184952473422329691e-02
5.715999999999999659e+01,1.008839455218178000e-02
5.720000000000000284e+01,8.748418251781527044e-03
5.724000000000000199e+01,8.461762643154535982e-03
5.728000000000000114e+01,1.372383784295835504e-02
5.732000000000000028e+01,1.491165570218439158e-02
5.735999999999999943e+01,1.111208570835444352e-02
5.739999999999999858e+01,1.286124569378417105e-02
5.743999999999999773e+01,1.369698294207680189e-02
5.747999999999999687e+01,1.052870253162154282e-02
5.752000000000000313e+01,1.038048292516538518e-02
5.756000000000000227e+01,1.290111990936106644e-02
5.760000000000000142e+01,1.303327651563930892e-02
5.764000000000000057e+01,1.084719325500113109e-02
5.767999999999999972e+01,1.189189205497467178e-02
5.771999999999999886e+01,1.427087137960243203e-02
5.775999999999999801e+01,1.138149693770493937e-02
5.779999999999999716e+01,1.375988656159788000e-02
5.784000000000000341e+01,9.043661394009083754e-03
5.788000000000000256e+01,1.458229564421748177e-02
5.792000000000000171e+01,1.422040793581676003e-02
5.796000000000000085e+01,6.834145394154562958e-03
5.800000000000000000e+01,1.068611246459764963e-02
5.803999999999999915e+01,1.236031847900329224e-02
5.807999999999999829e+01,1.010074347619678743e-02
5.811999999999999744e+01,1.275772639110080847e-02
5.815999999999999659e+01,1.119996458644641549e-02
5.820000000000000284e+01,1.455876014672181397e-02
5.824000000000000199e+01,1.489690382031139647e-02
5.828000000000000114e+01,1.375969265343500100e-02
5.832000000000000028e+01,1.465916573927095526e-02
5.835999999999999943e+01,1.288919004620684046e-02
5.839999999999999858e+01,1.266421254133467955e-02
5.843999999999999773e+01,1.096387909043504590e-02
5.847999999999999687e+01,9.473968314510559235e-03
5.852000000000000313e+01,1.325181662934968481e-02
5.856000000000000227e+01,1.141010171289917607e-02
5.860000000000000142e+01,1.350157037399547962e-02
5.864000000000000057e+01,1.194021729797982434e-02
5.867999999999999972e+01,1.009760000324778570e-02
5.871999999999999886e+01,1.331201805515341320e-02
5.875999999999999801e+01,1.392722535164655530e-02
5.879999999999999716e+01,1.531477941112280305e-02
5.884000000000000341e+01,1.269830641457836938e-02
5.888000000000000256e+01,1.605199789519793849e-02
5.892000000000000171e+01,1.062528822440265107e-02
5.896000000000000085e+01,1.173066877712159763e-02
5.900000000000000000e+01,1.114996715217368879e-02
5.903999999999999915e+01,1.120112905708386952e-02
5.907999999999999829e+01,1.104126476676528350e-02
5.911999999999999744e+01,1.151326345352405266e-02
5.915999999999999659e+01,1.388145901401450187e-02
5.920000000000000284e+01,9.716956684881424694e-03
5.924000000000000199e+01,1.320839524279193884e-02
5.928000000000000114e+01,1.459230496395469423e-02
5.932000000000000028e+01,9.513756753714188233e-03
5.935999999999999943e+01,1.110777757786690113e-02
5.939999999999999858e+01,1.312293708219020895e-02
5.943999999999999773e+01,1.001021278637518816e-02
5.947999999999999687e+01,1.061994362534457621e-02
5.952000000000000313e+01,1.277466491357541131e-02
5.956000000000000227e+01,1.204920676902075487e-02
5.960000000000000142e+01,7.811401828767906667e-03
5.964000000000000057e+01,1.108905343687210422e-02
5.967999999999999972e+01,1.218893265693343081e-02
5.971999999999999886e+01,9.495501102559903220e-03
5.975999999999999801e+01,6.872001803886733200e-03
5.979999999999999716e+01,1.288781054627109908e-02
5.984000000000000341e+01,1.040417492982745502e-02
5.988000000000000256e+01,9.957212786871503726e-03
5.992000000000000171e+01,8.667051557966517009e-03
5.996000000000000085e+01,8.289710651506456904e-03
