2.003999999999999915e+01,3.067835231988171821e-03
2.007999999999999829e+01,3.348984138758794114e-03
2.012000000000000099e+01,8.876844306449069300e-03
2.016000000000000014e+01,1.724033453409528141e-02
2.019999999999999929e+01,7.165199472091457640e-03
2.023999999999999844e+01,8.860884642667724020e-03
2.028000000000000114e+01,1.041380758200806042e-02
2.032000000000000028e+01,8.136431695625327698e-03
2.035999999999999943e+01,1.096394594714036712e-02
2.039999999999999858e+01,1.308138808620527317e-02
2.044000000000000128e+01,1.675801335474326470e-02
2.048000000000000043e+01,1.433509060066022814e-02
2.051999999999999957e+01,2.027911549281545892e-02
2.055999999999999872e+01,1.189754891103105006e-02
2.060000000000000142e+01,4.366028409453121678e-03
2.064000000000000057e+01,1.044910913225226626e-02
2.067999999999999972e+01,1.809138023855514504e-02
2.071999999999999886e+01,8.287840411675972269e-03
2.076000000000000156e+01,1.025513653444301392e-02
2.080000000000000071e+01,1.434894017595864449e-02
2.083999999999999986e+01,1.432880395470247266e-02
2.087999999999999901e+01,1.515872227668847196e-02
2.092000000000000171e+01,1.357664367860166726e-02
2.096000000000000085e+01,1.100085314002110203e-02
2.100000000000000000e+01,1.211168831284580201e-02
2.103999999999999915e+01,1.095235856967032365e-02
2.107999999999999829e+01,4.402640824237163096e-03
2.112000000000000099e+01,9.765598286553333479e-03
2.116000000000000014e+01,1.129828231225334795e-02
2.119999999999999929e+01,1.509931432381014099e-02
2.123999999999999844e+01,1.436093343147387333e-02
2.128000000000000114e+01,1.546541781183242287e-02
2.132000000000000028e+01,1.259780521453772451e-02
2.135999999999999943e+01,1.128940355383313728e-02
2.139999999999999858e+01,8.278161366403781474e-03
2.144000000000000128e+01,2.469650804280641362e-02
2.148000000000000043e+01,1.714496141248361694e-02
2.151999999999999957e+01,1.455651160414873219e-02
2.155999999999999872e+01,1.792395846620873506e-02
2.160000000000000142e+01,1.575920466601973824e-02
2.164000000000000057e+01,1.869937969189137614e-02
2.167999999999999972e+01,2.007855103113115672e-02
2.171999999999999886e+01,1.152884564635810877e-02
2.176000000000000156e+01,1.333172266578444391e-02
2.180000000000000071e+01,1.612651041262738380e-02
2.183999999999999986e+01,1.182899260362053201e-02
2.187999999999999901e+01,1.632394867819704845e-02
2.192000000000000171e+01,2.110167722191846548e-02
2.196000000000000085e+01,1.467408090214089578e-02
2.200000000000000000e+01,1.349325266652717098e-02
2.203999999999999915e+01,1.458079780587704516e-02
2.207999999999999829e+01,1.807854590625309482e-02
2.212000000000000099e+01,2.100810225845506710e-02
2.216000000000000014e+01,2.422043833383239961e-02
2.219999999999999929e+01,2.331887565261096806e-02
2.223999999999999844e+01,1.518319112853324000e-02
2.228000000000000114e+01,1.796741823395074308e-02
2.232000000000000028e+01,1.493580968509603327e-02
2.235999999999999943e+01,2.168948816728748577e-02
2.239999999999999858e+01,2.220184828204479349e-02
2.244000000000000128e+01,2.200419794361131720e-02
2.248000000000000043e+01,1.187769385226153558e-02
2.251999999999999957e+01,1.947887074319242309e-02
2.255999999999999872e+01,2.154787598799640796e-02
2.260000000000000142e+01,1.964482294330991211e-02
2.264000000000000057e+01,2.242124381863911525e-02
2.267999999999999972e+01,1.824721290428272732e-02
2.271999999999999886e+01,1.449780701623032929e-02
2.276000000000000156e+01,1.698799082284020018e-02
2.280000000000000071e+01,1.734989128673114847e-02
2.283999999999999986e+01,1.657630825631001975e-02
2.287999999999999901e+01,1.736198210467241460e-02
2.292000000000000171e+01,1.970691404082341308e-02
2.296000000000000085e+01,1.893076883087409581e-02
2.300000000000000000e+01,2.255045166787136846e-02
2.303999999999999915e+01,1.978700710445854827e-02
2.307999999999999829e+01,2.127756462894508580e-02
2.312000000000000099e+01,2.007253497452388818e-02
2.316000000000000014e+01,2.312150982601225008e-02
2.319999999999999929e+01,2.063833237545514149e-02
2.323999999999999844e+01,1.545957137300554320e-02
2.328000000000000114e+01,2.049161033989129951e-02
2.332000000000000028e+01,2.410452356641133720e-02
2.335999999999999943e+01,2.473820011393927654e-02
2.339999999999999858e+01,1.870510338798801742e-02
2.344000000000000128e+01,2.174818445093340546e-02
2.348000000000000043e+01,1.372781496963053523e-02
2.351999999999999957e+01,2.116590266281716953e-02
2.355999999999999872e+01,2.633390160732418037e-02
2.360000000000000142e+01,2.029662525754090049e-02
2.364000000000000057e+01,2.149176383993345318e-02
2.367999999999999972e+01,1.701293625128420806e-02
2.371999999999999886e+01,1.664630171755840035e-02
2.376000000000000156e+01,2.152648846422028708e-02
2.380000000000000071e+01,2.399476533917566448e-02
2.383999999999999986e+01,1.866165522324866530e-02
2.387999999999999901e+01,2.056096729352809363e-02
2.392000000000000171e+01,2.359408254555115173e-02
2.396000000000000085e+01,1.613107526961658073e-02
2.400000000000000000e+01,2.171545726625694409e-02
2.403999999999999915e+01,1.921480156292550145e-02
2.407999999999999829e+01,1.912440927087457471e-02
2.412000000000000099e+01,3.392517878015996469e-02
2.416000000000000014e+01,2.035945629728150297e-02
2.419999999999999929e+01,1.984112913200333436e-02
2.423999999999999844e+01,1.591810675467292269e-02
2.428000000000000114e+01,2.986464693290434569e-02
2.432000000000000028e+01,1.955772288965676800e-02
2.435999999999999943e+01,1.818517606536544304e-02
2.439999999999999858e+01,1.128051320918121818e-02
2.444000000000000128e+01,1.742325292462786057e-02
2.448000000000000043e+01,2.711089515786502604e-02
2.451999999999999957e+01,2.729523042861755830e-02
2.455999999999999872e+01,1.599066266708707232e-02
2.460000000000000142e+01,1.773350231320772533e-02
2.464000000000000057e+01,2.089382365727840765e-02
2.467999999999999972e+01,1.568546989134395400e-02
2.471999999999999886e+01,1.331288401194356472e-02
2.476000000000000156e+01,1.845640367097637485e-02
2.480000000000000071e+01,2.402461122457775697e-02
2.483999999999999986e+01,2.959202275058058634e-02
2.487999999999999901e+01,1.799740583404532343e-02
2.492000000000000171e+01,2.483968432538293317e-02
2.496000000000000085e+01,2.558255020266933868e-02
2.500000000000000000e+01,2.164428844548354006e-02
2.503999999999999915e+01,1.529415429574900592e-02
2.507999999999999829e+01,1.376539619239782082e-02
2.512000000000000099e+01,2.088738152498476053e-02
2.516000000000000014e+01,2.616481160026776914e-02
2.519999999999999929e+01,2.534283631553008523e-02
2.523999999999999844e+01,2.395276358501517711e-02
2.528000000000000114e+01,2.341287838830205872e-02
2.532000000000000028e+01,2.528329408202720924e-02
2.535999999999999943e+01,1.977785385823545641e-02
2.539999999999999858e+01,1.795917233640864988e-02
2.544000000000000128e+01,2.223833313552758817e-02
2.548000000000000043e+01,2.240369431646494630e-02
2.551999999999999957e+01,1.576051792413537059e-02
2.555999999999999872e+01,2.131380769323476185e-02
2.560000000000000142e+01,2.176050283176606329e-02
2.564000000000000057e+01,2.249008287691537863e-02
2.567999999999999972e+01,1.868038421773644472e-02
2.571999999999999886e+01,2.210316335899797577e-02
2.576000000000000156e+01,1.815009867279350486e-02
2.580000000000000071e+01,1.901843179506400999e-02
2.583999999999999986e+01,2.073696937720757166e-02
2.587999999999999901e+01,2.486582477586054760e-02
2.592000000000000171e+01,1.764764662546087701e-02
2.596000000000000085e+01,1.525087111955654440e-02
2.600000000000000000e+01,2.093755213947261912e-02
2.603999999999999915e+01,2.407056261490974833e-02
2.607999999999999829e+01,1.727482814788851642e-02
2.612000000000000099e+01,2.012266598133430687e-02
2.616000000000000014e+01,2.084232202848854826e-02
2.619999999999999929e+01,1.248420702254407315e-02
2.623999999999999844e+01,1.603892197700022837e-02
2.628000000000000114e+01,2.030202631332796506e-02
2.632000000000000028e+01,1.492004971534263875e-02
2.635999999999999943e+01,1.407583109778873416e-02
2.639999999999999858e+01,2.244970811256529614e-02
2.644000000000000128e+01,2.061119431181451106e-02
2.648000000000000043e+01,1.636085164269809183e-02
2.651999999999999957e+01,1.551364477357427933e-02
2.655999999999999872e+01,1.806957491344815883e-02
2.660000000000000142e+01,9.987633942642811999e-03
2.664000000000000057e+01,9.847340464681988634e-03
2.667999999999999972e+01,8.288022802782693543e-03
2.671999999999999886e+01,1.779057934700073104e-02
2.676000000000000156e+01,1.268407505895289417e-02
2.680000000000000071e+01,1.821396226386035044e-02
2.683999999999999986e+01,1.395695587446347391e-02
2.687999999999999901e+01,1.579783533019553723e-02
2.692000000000000171e+01,1.409227220015872584e-02
2.696000000000000085e+01,1.252780549685043703e-02
2.700000000000000000e+01,1.436648910159584944e-02
2.703999999999999915e+01,5.000001386488423308e-03
2.707999999999999829e+01,2.130372159545565122e-02
2.712000000000000099e+01,1.860171216442357486e-02
2.716000000000000014e+01,1.618263358220288495e-02
2.719999999999999929e+01,1.617391271365951205e-02
2.723999999999999844e+01,1.077499002964187567e-02
2.728000000000000114e+01,1.402687606783716186e-02
2.732000000000000028e+01,1.486695862677360133e-02
2.735999999999999943e+01,1.088415650548066327e-02
2.739999999999999858e+01,1.711227888104717779e-02
2.744000000000000128e+01,1.241889878092653464e-02
2.748000000000000043e+01,1.751096046450332372e-02
2.751999999999999957e+01,1.749648554975629516e-02
2.755999999999999872e+01,1.563752791801058598e-02
2.760000000000000142e+01,1.406151443413215622e-02
2.764000000000000057e+01,6.669826093658235908e-03
2.767999999999999972e+01,1.346026527068635084e-02
2.771999999999999886e+01,6.208986139800312491e-03
2.776000000000000156e+01,1.824565851849269810e-02
2.780000000000000071e+01,1.354587584319055966e-02
2.783999999999999986e+01,1.451852289796721519e-02
2.787999999999999901e+01,9.675502350178871031e-03
2.792000000000000171e+01,9.228458556962979356e-03
2.796000000000000085e+01,9.631683300889750873e-03
2.800000000000000000e+01,1.514002910268612105e-02
2.803999999999999915e+01,8.875920301527262177e-03
2.807999999999999829e+01,7.433278222133373955e-03
2.812000000000000099e+01,7.550051401189497753e-03
2.816000000000000014e+01,1.092818157238943308e-02
2.819999999999999929e+01,1.232001999361467467e-02
2.823999999999999844e+01,1.002362734918161268e-02
2.828000000000000114e+01,1.084676694685021529e-02
2.832000000000000028e+01,1.181104407742035803e-02
2.835999999999999943e+01,1.476022885164318850e-02
2.839999999999999858e+01,2.040346436381074852e-02
2.844000000000000128e+01,9.735749297237408437e-03
2.848000000000000043e+01,8.995334616546080478e-03
2.851999999999999957e+01,5.701324349691214155e-03
2.855999999999999872e+01,9.639877722638081139e-03
2.860000000000000142e+01,1.230129332094809756e-02
2.864000000000000057e+01,8.579750779560184337e-03
2.867999999999999972e+01,1.067249173441532639e-02
2.871999999999999886e+01,0.000000000000000000e+00
2.876000000000000156e+01,9.040975131462482967e-03
2.880000000000000071e+01,1.098985507396042956e-02
2.883999999999999986e+01,1.010149234822075096e-02
2.887999999999999901e+01,6.375888163248515095e-03
2.892000000000000171e+01,1.130114226969773823e-02
2.896000000000000085e+01,8.566992514973186326e-03
2.900000000000000000e+01,1.618564399436897908e-02
2.903999999999999915e+01,1.018810219419064196e-02
2.907999999999999829e+01,7.168288439158353002e-03
2.912000000000000099e+01,1.053008498765464242e-02
2.916000000000000014e+01,9.352708015265259051e-03
2.919999999999999929e+01,1.583339915793119043e-02
2.923999999999999844e+01,8.272417934876241316e-03
2.928000000000000114e+01,1.163155991720684485e-02
2.932000000000000028e+01,6.622167034122473060e-03
2.935999999999999943e+01,9.270847102113795313e-03
2.939999999999999858e+01,1.177704059202916952e-02
2.944000000000000128e+01,1.272246494229977223e-02
2.948000000000000043e+01,9.696038951954994572e-03
2.951999999999999957e+01,1.149112320755833402e-02
2.955999999999999872e+01,1.172544195053218212e-02
2.960000000000000142e+01,4.867689684643244571e-03
2.964000000000000057e+01,9.639213390472566381e-03
2.967999999999999972e+01,9.162437407195429123e-03
2.971999999999999886e+01,6.273930484964771077e-03
2.976000000000000156e+01,9.625224833286679174e-03
2.980000000000000071e+01,5.033483955426921660e-03
2.983999999999999986e+01,9.801771061392558493e-03
2.987999999999999901e+01,1.542038473674509774e-02
2.992000000000000171e+01,6.571861468291065669e-03
2.996000000000000085e+01,8.927138712423872760e-03
3.000000000000000000e+01,9.296178611810920062e-03
3.003999999999999915e+01,1.250114719540870722e-02
3.007999999999999829e+01,1.258525383581181843e-02
3.012000000000000099e+01,1.266872403728796538e-02
3.016000000000000014e+01,1.388618602530139988e-02
3.019999999999999929e+01,5.742341106610089445e-03
3.023999999999999844e+01,1.404995511466474410e-02
3.028000000000000114e+01,8.457756568188236346e-03
3.032000000000000028e+01,7.545264070704185005e-03
3.035999999999999943e+01,9.468709929471602615e-03
3.039999999999999858e+01,1.011507241883113570e-02
3.044000000000000128e+01,7.640583846041751684e-03
3.048000000000000043e+01,1.410065746998700846e-02
3.051999999999999957e+01,7.086410924603777674e-03
3.055999999999999872e+01,7.446616846334060645e-03
3.060000000000000142e+01,1.234470890303504889e-02
3.064000000000000057e+01,8.023335729144584483e-03
3.067999999999999972e+01,5.261455190029773986e-03
3.071999999999999886e+01,6.611979281728718946e-03
3.076000000000000156e+01,6.685430885065598086e-03
3.080000000000000071e+01,6.758266602562013059e-03
3.083999999999999986e+01,1.448922000432229483e-02
3.087999999999999901e+01,1.356802893775131864e-02
3.092000000000000171e+01,7.682232415346334359e-03
3.096000000000000085e+01,8.319930187761342619e-03
3.100000000000000000e+01,1.321186943108316157e-02
3.103999999999999915e+01,1.072812443561055144e-02
3.107999999999999829e+01,1.150582468965318308e-02
3.112000000000000099e+01,6.751612024657670588e-03
3.116000000000000014e+01,9.797355093024148059e-03
3.119999999999999929e+01,8.587643053879248992e-03
3.123999999999999844e+01,1.333412026436037873e-02
3.128000000000000114e+01,1.269051776888115504e-02
3.132000000000000028e+01,1.133717321934061585e-02
3.135999999999999943e+01,1.352893913646570356e-02
3.139999999999999858e+01,7.919546564669985647e-03
3.144000000000000128e+01,1.408131274687888547e-02
3.148000000000000043e+01,8.896213431742338099e-03
3.151999999999999957e+01,5.270632140488218202e-03
3.155999999999999872e+01,5.899309246212130695e-03
3.160000000000000142e+01,6.101909515025144906e-03
3.164000000000000057e+01,8.289516565908063711e-03
3.167999999999999972e+01,1.005104919789027475e-02
3.171999999999999886e+01,1.237930725937862533e-02
3.176000000000000156e+01,1.144492577882854668e-02
3.180000000000000071e+01,1.164458565402435967e-02
3.183999999999999986e+01,1.439657186454505571e-02
3.187999999999999901e+01,1.147483975006693795e-02
3.192000000000000171e+01,1.323286204478480582e-02
3.196000000000000085e+01,1.130276571131749903e-02
3.200000000000000000e+01,1.433608295917117477e-02
3.203999999999999915e+01,1.070288807864457764e-02
3.207999999999999829e+01,9.763855164530816158e-03
3.211999999999999744e+01,8.682417884687114798e-03
3.215999999999999659e+01,1.384085441570124045e-02
3.220000000000000284e+01,9.921701244379778351e-03
3.224000000000000199e+01,1.082414053135239557e-02
3.228000000000000114e+01,8.038470862180555065e-03
3.232000000000000028e+01,1.518021764337918258e-02
3.235999999999999943e+01,1.225158091886078410e-02
3.239999999999999858e+01,1.173345907868114830e-02
3.243999999999999773e+01,8.661860134836541630e-03
3.247999999999999687e+01,1.112100278860352238e-02
3.252000000000000313e+01,1.159398426494529996e-02
3.256000000000000227e+01,8.237036871120838322e-03
3.260000000000000142e+01,1.523299952187462392e-02
3.264000000000000057e+01,1.130761686760266109e-02
3.267999999999999972e+01,1.603320615123037668e-02
3.271999999999999886e+01,1.508510249896608153e-02
3.275999999999999801e+01,9.314277382159225419e-03
3.279999999999999716e+01,1.247808458438213162e-02
3.284000000000000341e+01,1.308842677299095446e-02
3.288000000000000256e+01,1.199627541933514889e-02
3.292000000000000171e+01,6.790549322444118172e-03
3.296000000000000085e+01,9.526661741201392433e-03
3.300000000000000000e+01,7.440059949446662518e-03
3.303999999999999915e+01,1.258615720606347417e-02
3.307999999999999829e+01,8.087377850227013554e-03
3.311999999999999744e+01,9.403016190198360685e-03
3.315999999999999659e+01,1.043445322151459811e-02
3.320000000000000284e+01,1.089803339906610623e-02
3.324000000000000199e+01,8.949989030111783067e-03
3.328000000000000114e+01,1.068894153712467675e-02
3.332000000000000028e+01,1.370380971913419225e-02
3.335999999999999943e+01,6.931981374668670474e-03
3.339999999999999858e+01,8.527489976079643402e-03
3.343999999999999773e+01,1.097343274833028660e-02
3.347999999999999687e+01,1.497895278571268786e-02
3.352000000000000313e+01,1.033240814909957075e-02
3.356000000000000227e+01,1.079115262206322041e-02
3.360000000000000142e+01,1.096570908542775398e-02
3.364000000000000057e+01,8.870481469394789903e-03
3.367999999999999972e+01,1.230603172112600639e-02
3.371999999999999886e+01,9.216948999748049084e-03
3.375999999999999801e+01,1.435338572823496341e-02
3.379999999999999716e+01,1.409981891808203235e-02
3.384000000000000341e+01,9.449048417696099753e-03
3.388000000000000256e+01,1.472574151887903054e-02
3.392000000000000171e+01,1.844180088898701372e-02
3.396000000000000085e+01,9.818271080663194816e-03
3.400000000000000000e+01,1.168952200915305932e-02
3.403999999999999915e+01,9.305403669492787883e-03
3.407999999999999829e+01,7.062596959466629389e-03
3.411999999999999744e+01,1.829297053147469279e-02
3.415999999999999659e+01,1.193611101895282814e-02
3.420000000000000284e+01,6.713365402482115128e-03
3.424000000000000199e+01,1.255272128508520303e-02
3.428000000000000114e+01,1.612231243237214479e-02
3.432000000000000028e+01,1.103986308576534840e-02
3.435999999999999943e+01,9.928100012377899519e-03
3.439999999999999858e+01,1.136874065064099465e-02
3.443999999999999773e+01,1.394350243898573316e-02
3.447999999999999687e+01,7.157086684170111193e-03
3.452000000000000313e+01,1.072363900617693232e-02
3.456000000000000227e+01,1.017666615415709769e-02
3.460000000000000142e+01,1.445135709173153184e-02
3.464000000000000057e+01,1.319424150271559376e-02
3.467999999999999972e+01,1.420588133427097555e-02
3.471999999999999886e+01,1.677713591011581115e-02
3.475999999999999801e+01,8.994422766434140293e-03
3.479999999999999716e+01,1.199017129378272123e-02
3.484000000000000341e+01,1.229068688071419981e-02
3.488000000000000256e+01,2.039127063848081636e-02
3.492000000000000171e+01,1.459218208630644331e-02
3.496000000000000085e+01,9.643573647165061893e-03
3.500000000000000000e+01,1.150223836647235563e-02
3.503999999999999915e+01,1.463687074799501289e-02
3.507999999999999829e+01,1.479262068901633642e-02
3.511999999999999744e+01,1.409691505440228802e-02
3.515999999999999659e+01,1.581180772547805327e-02
3.520000000000000284e+01,1.554062022246948532e-02
3.524000000000000199e+01,8.886674065602459885e-03
3.528000000000000114e+01,1.428765948134328410e-02
3.532000000000000028e+01,1.486600080886717364e-02
3.535999999999999943e+01,1.360009517538447732e-02
3.539999999999999858e+01,1.205005593753161360e-02
3.543999999999999773e+01,1.900924368187208516e-02
3.547999999999999687e+01,1.462168682937586318e-02
3.552000000000000313e+01,1.519764995064831412e-02
3.556000000000000227e+01,1.662411132003010356e-02
3.560000000000000142e+01,1.351159381834534171e-02
3.564000000000000057e+01,1.096592022866531985e-02
3.567999999999999972e+01,1.948239166224222801e-02
3.571999999999999886e+01,1.154630417894682293e-02
3.575999999999999801e+01,1.580699115337768842e-02
3.579999999999999716e+01,1.737247420351356944e-02
3.584000000000000341e+01,1.553361265307258952e-02
3.588000000000000256e+01,1.865828195744605525e-02
3.592000000000000171e+01,1.965506447276938601e-02
3.596000000000000085e+01,1.554556548984241220e-02
3.600000000000000000e+01,1.966165366106518986e-02
3.603999999999999915e+01,1.384929793209645731e-02
3.607999999999999829e+01,1.101488182416409008e-02
3.611999999999999744e+01,1.555508623505241945e-02
3.615999999999999659e+01,1.470535843860107904e-02
3.620000000000000284e+01,1.243689420142216756e-02
3.624000000000000199e+01,1.811036761830877792e-02
3.628000000000000114e+01,2.123047999601884034e-02
3.632000000000000028e+01,1.498947044480259533e-02
3.635999999999999943e+01,1.626491704349492320e-02
3.639999999999999858e+01,1.725626026294428336e-02
3.643999999999999773e+01,1.838898644332794680e-02
3.647999999999999687e+01,1.526641710487179268e-02
3.652000000000000313e+01,1.838385335882804228e-02
3.656000000000000227e+01,2.022439243015990151e-02
3.660000000000000142e+01,1.355478829794539916e-02
3.664000000000000057e+01,1.908198522156912685e-02
3.667999999999999972e+01,1.538989947436966710e-02
3.671999999999999886e+01,1.807965374166545583e-02
3.675999999999999801e+01,2.275456954368235835e-02
3.679999999999999716e+01,2.203957248244100067e-02
3.684000000000000341e+01,1.862940293103694175e-02
3.688000000000000256e+01,2.060827959074671215e-02
3.692000000000000171e+01,2.457232262119794092e-02
3.696000000000000085e+01,2.016806170620601482e-02
3.700000000000000000e+01,2.200382089168754010e-02
3.703999999999999915e+01,3.178154191133632234e-02
3.707999999999999829e+01,2.198652082502307661e-02
3.711999999999999744e+01,2.580659907318301471e-02
3.715999999999999659e+01,2.437860371618788546e-02
3.720000000000000284e+01,3.131806016055257297e-02
3.724000000000000199e+01,2.776179546664876360e-02
3.728000000000000114e+01,3.441675389386106287e-02
3.732000000000000028e+01,3.071782197787243512e-02
3.735999999999999943e+01,3.538634669926397913e-02
3.739999999999999858e+01,3.962896988948235583e-02
3.743999999999999773e+01,3.493599013408899695e-02
3.747999999999999687e+01,4.059606792189459495e-02
3.752000000000000313e+01,5.377263692075633095e-02
3.756000000000000227e+01,6.184297278157123434e-02
3.760000000000000142e+01,6.821095776272187439e-02
3.764000000000000057e+01,8.479017674603440968e-02
3.767999999999999972e+01,1.042055553335294732e-01
3.771999999999999886e+01,1.329812000788521964e-01
3.775999999999999801e+01,1.837398377491158141e-01
3.779999999999999716e+01,2.535030736351200353e-01
3.784000000000000341e+01,3.756005775543575509e-01
3.788000000000000256e+01,5.216666753043547322e-01
3.792000000000000171e+01,7.000692423405029396e-01
3.796000000000000085e+01,8.906686503296571411e-01
3.800000000000000000e+01,1.000000000000000000e+00
3.803999999999999915e+01,9.721829119999235713e-01
3.807999999999999829e+01,8.886268759693767283e-01
3.811999999999999744e+01,7.348653986575104380e-01
3.815999999999999659e+01,5.805362144085103315e-01
3.820000000000000284e+01,4.081944340533220084e-01
3.824000000000000199e+01,2.940018972807710296e-01
3.828000000000000114e+01,2.186699460200567935e-01
3.832000000000000028e+01,1.678739153973877740e-01
3.835999999999999943e+01,1.336714175065549792e-01
3.839999999999999858e+01,1.008868172114223138e-01
3.843999999999999773e+01,8.923426013197262308e-02
3.847999999999999687e+01,7.346829636099488914e-02
3.852000000000000313e+01,6.365874187856913891e-02
3.856000000000000227e+01,5.938011276252833093e-02
3.860000000000000142e+01,5.453379000840958418e-02
3.864000000000000057e+01,4.358846811997962173e-02
3.867999999999999972e+01,4.030150088081075471e-02
3.871999999999999886e+01,4.453106112285066392e-02
3.875999999999999801e+01,3.826494616881539329e-02
3.879999999999999716e+01,3.625330844167904548e-02
3.884000000000000341e+01,3.409946946166746151e-02
3.888000000000000256e+01,3.081063179838397850e-02
3.892000000000000171e+01,3.078347634961290519e-02
3.896000000000000085e+01,3.160692191438362747e-02
3.900000000000000000e+01,3.654302237402130143e-02
3.903999999999999915e+01,2.772140342829935294e-02
3.907999999999999829e+01,2.755094986129114076e-02
3.911999999999999744e+01,2.752196025855808623e-02
3.915999999999999659e+01,2.649980881264615840e-02
3.920000000000000284e+01,1.994598866672381982e-02
3.924000000000000199e+01,2.105054009613379143e-02
3.928000000000000114e+01,2.243838870289668538e-02
3.932000000000000028e+01,2.042199789252534606e-02
3.935999999999999943e+01,2.351107149746849145e-02
3.939999999999999858e+01,1.879922841450838017e-02
3.943999999999999773e+01,1.834188190252855274e-02
3.947999999999999687e+01,2.001160751467321794e-02
3.952000000000000313e+01,1.813527137765167524e-02
3.956000000000000227e+01,2.391731648800316662e-02
3.960000000000000142e+01,2.175662257841943018e-02
3.964000000000000057e+01,2.271580426838227390e-02
3.967999999999999972e+01,1.998710066814190014e-02
3.971999999999999886e+01,1.739987916725299968e-02
3.975999999999999801e+01,1.282671531885978648e-02
3.979999999999999716e+01,1.491914133246834834e-02
3.984000000000000341e+01,2.027327736770631259e-02
3.988000000000000256e+01,1.456445855078203171e-02
3.992000000000000171e+01,1.835780076402264774e-02
3.996000000000000085e+01,1.222281755957033839e-02
4.000000000000000000e+01,2.239775990204802628e-02
4.003999999999999915e+01,1.980781170369505517e-02
4.007999999999999829e+01,1.991226727277246519e-02
4.011999999999999744e+01,1.888176163773569102e-02
4.015999999999999659e+01,1.770909464699159733e-02
4.020000000000000284e+01,2.135826070655403794e-02
4.024000000000000199e+01,1.990127463141053502e-02
4.028000000000000114e+01,2.383343753281331329e-02
4.032000000000000028e+01,1.712814401228198238e-02
4.035999999999999943e+01,1.850674105039758557e-02
4.039999999999999858e+01,1.974318398683638787e-02
4.043999999999999773e+01,1.686627947299644548e-02
4.047999999999999687e+01,1.540733542312120417e-02
4.052000000000000313e+01,1.536635304621574404e-02
4.056000000000000227e+01,1.631784842011299586e-02
4.060000000000000142e+01,1.585074034384233166e-02
4.064000000000000057e+01,1.694342594461409682e-02
4.067999999999999972e+01,1.321362946385068286e-02
4.071999999999999886e+01,1.856053306218176727e-02
4.075999999999999801e+01,1.837581511170086751e-02
4.079999999999999716e+01,1.095753629672435031e-02
4.084000000000000341e+01,1.559435710606284740e-02
4.088000000000000256e+01,1.384858973126027078e-02
4.092000000000000171e+01,1.422993800476532109e-02
4.096000000000000085e+01,1.829851528321444626e-02
4.100000000000000000e+01,1.555902287336556090e-02
4.103999999999999915e+01,2.104526995230749861e-02
4.107999999999999829e+01,1.447579980983803964e-02
4.111999999999999744e+01,1.386281754125130022e-02
4.115999999999999659e+01,1.764621220792101514e-02
4.120000000000000284e+01,1.930187967421217662e-02
4.124000000000000199e+01,1.585142523092456651e-02
4.128000000000000114e+01,1.367712705464603495e-02
4.132000000000000028e+01,1.476458363318516875e-02
4.135999999999999943e+01,2.209219209375230808e-02
4.139999999999999858e+01,1.807323489023572941e-02
4.143999999999999773e+01,1.277752800271548216e-02
4.147999999999999687e+01,1.528208877186983811e-02
4.152000000000000313e+01,1.764452929148984522e-02
4.156000000000000227e+01,1.589365621297357187e-02
4.160000000000000142e+01,2.222671117226196480e-02
4.164000000000000057e+01,1.678772259032496397e-02
4.167999999999999972e+01,1.489415639836620328e-02
4.171999999999999886e+01,1.768064082184992586e-02
4.175999999999999801e+01,1.380090690518970785e-02
4.179999999999999716e+01,1.687048005490043856e-02
4.184000000000000341e+01,1.837965885654358617e-02
4.188000000000000256e+01,1.847027289618163870e-02
4.192000000000000171e+01,1.600769636636050625e-02
4.196000000000000085e+01,1.553043854192190029e-02
4.200000000000000000e+01,2.398809110768320221e-02
4.203999999999999915e+01,1.485874876291685444e-02
4.207999999999999829e+01,1.891917053808240060e-02
4.211999999999999744e+01,1.758984024766633431e-02
4.215999999999999659e+01,1.640206580591212215e-02
4.220000000000000284e+01,1.776693083180051758e-02
4.224000000000000199e+01,1.700410009144263587e-02
4.228000000000000114e+01,1.567368694147488681e-02
4.232000000000000028e+01,2.200173846023120716e-02
4.235999999999999943e+01,1.854336547865723453e-02
4.239999999999999858e+01,2.260163120676010953e-02
4.243999999999999773e+01,1.403690731139499263e-02
4.247999999999999687e+01,1.809464611778306697e-02
4.252000000000000313e+01,2.130115301447700962e-02
4.256000000000000227e+01,1.500489820998089120e-02
4.260000000000000142e+01,1.707625842253144080e-02
4.264000000000000057e+01,1.787090522123091843e-02
4.267999999999999972e+01,1.795615332331402733e-02
4.271999999999999886e+01,1.988491472481893063e-02
4.275999999999999801e+01,1.911868256891409781e-02
4.279999999999999716e+01,2.558544445862221545e-02
4.284000000000000341e+01,1.715997478199491472e-02
4.288000000000000256e+01,2.348440555303260568e-02
4.292000000000000171e+01,2.399362330741825616e-02
4.296000000000000085e+01,2.251699543470659162e-02
4.300000000000000000e+01,2.174926230799318488e-02
4.303999999999999915e+01,1.970482785747960236e-02
4.307999999999999829e+01,2.177317162035189921e-02
4.311999999999999744e+01,2.681966778915602020e-02
4.315999999999999659e+01,2.420718929359252578e-02
4.320000000000000284e+01,2.457286562197103300e-02
4.324000000000000199e+01,2.210173452394346635e-02
4.328000000000000114e+01,2.757275386487684568e-02
4.332000000000000028e+01,2.708674390215167968e-02
4.335999999999999943e+01,3.284094627170893593e-02
4.339999999999999858e+01,2.951789746035514764e-02
4.343999999999999773e+01,3.257689177635131328e-02
4.347999999999999687e+01,3.606113859229202051e-02
4.352000000000000313e+01,3.656675806780487065e-02
4.356000000000000227e+01,3.451923654306716244e-02
4.360000000000000142e+01,4.367592780165116539e-02
4.364000000000000057e+01,4.489000214981379855e-02
4.367999999999999972e+01,5.050052960055342183e-02
4.371999999999999886e+01,5.965654110053076470e-02
4.375999999999999801e+01,6.555027575999600176e-02
4.379999999999999716e+01,7.272024285379082020e-02
4.384000000000000341e+01,9.052711647670830253e-02
4.388000000000000256e+01,1.042207466237845825e-01
4.392000000000000171e+01,1.230199790127553539e-01
4.396000000000000085e+01,1.440882473114777906e-01
4.400000000000000000e+01,1.871396971399348352e-01
4.403999999999999915e+01,2.209720867545048040e-01
4.407999999999999829e+01,2.814679967597134014e-01
4.411999999999999744e+01,2.995570087376150381e-01
4.415999999999999659e+01,3.220424883261548410e-01
4.420000000000000284e+01,3.160202532570221545e-01
4.424000000000000199e+01,3.023390761666593929e-01
4.428000000000000114e+01,2.727729123947424950e-01
4.432000000000000028e+01,2.278890766585063010e-01
4.435999999999999943e+01,1.849906321679579135e-01
4.439999999999999858e+01,1.517363124932016027e-01
4.443999999999999773e+01,1.286934323514721257e-01
4.447999999999999687e+01,9.728247555725595686e-02
4.452000000000000313e+01,8.586911873103693360e-02
4.456000000000000227e+01,7.332093490026847515e-02
4.460000000000000142e+01,6.261632119216090087e-02
4.464000000000000057e+01,4.907494237282536420e-02
4.467999999999999972e+01,4.872340625875242609e-02
4.471999999999999886e+01,4.425865205794510260e-02
4.475999999999999801e+01,3.738262150409726176e-02
4.479999999999999716e+01,3.050639821618962924e-02
4.484000000000000341e+01,3.228151440372834663e-02
4.488000000000000256e+01,3.348912676698791863e-02
4.492000000000000171e+01,3.342009462968641847e-02
4.496000000000000085e+01,3.023065029908283616e-02
4.500000000000000000e+01,3.271415436174070906e-02
4.503999999999999915e+01,2.654594194386829600e-02
4.507999999999999829e+01,2.363959792729180762e-02
4.511999999999999744e+01,2.598072079981980989e-02
4.515999999999999659e+01,1.754270516297190899e-02
4.520000000000000284e+01,1.988346553847705755e-02
4.524000000000000199e+01,2.080576270840445510e-02
4.528000000000000114e+01,1.889131411118527212e-02
4.532000000000000028e+01,1.981325603812033459e-02
4.535999999999999943e+01,2.130233566529642075e-02
4.539999999999999858e+01,2.208209880820211773e-02
4.543999999999999773e+01,2.059243452821113082e-02
4.547999999999999687e+01,1.555688864081203673e-02
4.552000000000000313e+01,1.931453115900317111e-02
4.556000000000000227e+01,2.094457825837027498e-02
4.560000000000000142e+01,1.831960549205758487e-02
4.564000000000000057e+01,1.824737616782503777e-02
4.567999999999999972e+01,1.945143610116120345e-02
4.571999999999999886e+01,1.455671089408668017e-02
4.575999999999999801e+01,1.150559087082061484e-02
4.579999999999999716e+01,1.341830153563077811e-02
4.584000000000000341e+01,1.632364953991519499e-02
4.588000000000000256e+01,1.766872530564590066e-02
4.592000000000000171e+01,1.319867873010613889e-02
4.596000000000000085e+01,1.652903521981079552e-02
4.600000000000000000e+01,1.461158529448476975e-02
4.603999999999999915e+01,1.467957739306019992e-02
4.607999999999999829e+01,1.361278842927953793e-02
4.611999999999999744e+01,1.410595877623832539e-02
4.615999999999999659e+01,2.041394095466346828e-02
4.620000000000000284e+01,1.707744307430414388e-02
4.624000000000000199e+01,9.060459541174197343e-03
4.628000000000000114e+01,1.281508330293644644e-02
4.632000000000000028e+01,1.203105220699564847e-02
4.635999999999999943e+01,1.635269710225965845e-02
4.639999999999999858e+01,1.230632337728121417e-02
4.643999999999999773e+01,1.393294156974732127e-02
4.647999999999999687e+01,1.428296241285080884e-02
4.652000000000000313e+01,9.668849312104543792e-03
4.656000000000000227e+01,1.413161280519554738e-02
4.660000000000000142e+01,1.462304341184870668e-02
4.664000000000000057e+01,1.397970988221698338e-02
4.667999999999999972e+01,1.447086745822378367e-02
4.671999999999999886e+01,1.751480111944811111e-02
4.675999999999999801e+01,1.559460809085316119e-02
4.679999999999999716e+01,1.027040172907541481e-02
4.684000000000000341e+01,1.388125204711316250e-02
4.688000000000000256e+01,1.451357658115044399e-02
4.692000000000000171e+01,1.656405622897154720e-02
4.696000000000000085e+01,9.679220674391810289e-03
4.700000000000000000e+01,1.187127501270533736e-02
4.703999999999999915e+01,1.151029353421091292e-02
4.707999999999999829e+01,8.170792316741446945e-03
4.711999999999999744e+01,1.248990084860658774e-02
4.715999999999999659e+01,1.170306640364593420e-02
4.720000000000000284e+01,1.077428338787339394e-02
4.724000000000000199e+01,8.852582747949691230e-03
4.728000000000000114e+01,1.373852643103655111e-02
4.732000000000000028e+01,1.068196443217011779e-02
4.735999999999999943e+01,9.610884354373025809e-03
4.739999999999999858e+01,1.478013871837222971e-02
4.743999999999999773e+01,1.541077207681085075e-02
4.747999999999999687e+01,1.136095726163655929e-02
4.752000000000000313e+01,1.738084669582344588e-02
4.756000000000000227e+01,1.318898366916926301e-02
4.760000000000000142e+01,1.197540845701672643e-02
4.764000000000000057e+01,1.246366687485437295e-02
4.767999999999999972e+01,1.238450609876898256e-02
4.771999999999999886e+01,1.443266650185614716e-02
4.775999999999999801e+01,1.250952907965299614e-02
4.779999999999999716e+01,1.399017064814912781e-02
4.784000000000000341e+01,1.362694246522602910e-02
4.788000000000000256e+01,1.425641328103667387e-02
4.792000000000000171e+01,1.474395728812700514e-02
4.796000000000000085e+01,1.069289600672286740e-02
4.800000000000000000e+01,1.004561976104345784e-02
4.803999999999999915e+01,1.322761489126602838e-02
4.807999999999999829e+01,1.428209076998510595e-02
4.811999999999999744e+01,1.505281750795190582e-02
4.815999999999999659e+01,1.241957201890884696e-02
4.820000000000000284e+01,1.120452033181243076e-02
4.824000000000000199e+01,1.197497716389729627e-02
4.828000000000000114e+01,1.161071942890586767e-02
4.832000000000000028e+01,1.223917399170416226e-02
4.835999999999999943e+01,1.300937179895288696e-02
4.839999999999999858e+01,1.136840327262403534e-02
4.843999999999999773e+01,1.327306145813325969e-02
4.847999999999999687e+01,1.106461520338634062e-02
4.852000000000000313e+01,8.856088652052836879e-03
4.856000000000000227e+01,1.161147621014658841e-02
4.860000000000000142e+01,1.450861426672129390e-02
4.864000000000000057e+01,1.542007837492114473e-02
4.867999999999999972e+01,1.434586974375120887e-02
4.871999999999999886e+01,1.738460979568453441e-02
4.875999999999999801e+01,1.389917146042166443e-02
4.879999999999999716e+01,1.580313961978875234e-02
4.884000000000000341e+01,1.274304395760116233e-02
4.888000000000000256e+01,9.966535633987513854e-03
4.892000000000000171e+01,9.884698267928634929e-03
4.896000000000000085e+01,1.462495872429051338e-02
4.900000000000000000e+01,8.302539981650095685e-03
4.903999999999999915e+01,9.780617397645860814e-03
4.907999999999999829e+01,1.168411657429844000e-02
4.911999999999999744e+01,8.907217146546731606e-03
4.915999999999999659e+01,8.683167553322905172e-03
4.920000000000000284e+01,1.200476764303378373e-02
4.924000000000000199e+01,1.404985380473312319e-02
4.928000000000000114e+01,1.396745698508157496e-02
4.932000000000000028e+01,9.204667606051207193e-03
4.935999999999999943e+01,1.181689892652552226e-02
4.939999999999999858e+01,1.442907654852516180e-02
4.943999999999999773e+01,1.307000712344819071e-02
4.947999999999999687e+01,1.383831207376761893e-02
4.952000000000000313e+01,1.233731291970933952e-02
4.956000000000000227e+01,1.154540678848368744e-02
4.960000000000000142e+01,1.259722190555490930e-02
4.964000000000000057e+01,1.223070680760805773e-02
4.967999999999999972e+01,1.186414647422211720e-02
4.971999999999999886e+01,1.149754211440221809e-02
4.975999999999999801e+01,1.354197734712911730e-02
4.979999999999999716e+01,1.246614667616952575e-02
4.984000000000000341e+01,1.394318639282433533e-02
4.988000000000000256e+01,1.485287341083591818e-02
4.992000000000000171e+01,1.235864139806152999e-02
4.996000000000000085e+01,1.454470905577768224e-02
5.000000000000000000e+01,1.233406146131624248e-02
5.003999999999999915e+01,1.054886464363373119e-02
5.007999999999999829e+01,1.245117248405524200e-02
5.011999999999999744e+01,1.392796325692148389e-02
5.015999999999999659e+01,1.299364089243402326e-02
5.020000000000000284e+01,9.080893091368360398e-03
5.024000000000000199e+01,1.240136421086194402e-02
5.028000000000000114e+01,1.146695691827094576e-02
5.032000000000000028e+01,1.464554666898673294e-02
5.035999999999999943e+01,1.172549152388199442e-02
5.039999999999999858e+01,8.947241282487158540e-03
5.043999999999999773e+01,1.084930521964392984e-02
5.047999999999999687e+01,9.914780560315498634e-03
5.052000000000000313e+01,1.167497521874534191e-02
5.056000000000000227e+01,1.230052422338888396e-02
5.060000000000000142e+01,1.136594365207903821e-02
5.064000000000000057e+01,1.085683199262442618e-02
5.067999999999999972e+01,8.220279666997001508e-03
5.071999999999999886e+01,8.987594589440289772e-03
5.075999999999999801e+01,8.194784771950526167e-03
5.079999999999999716e+01,1.179864325994335952e-02
5.084000000000000341e+01,1.058032675369328414e-02
5.088000000000000256e+01,7.376404003353245233e-03
5.092000000000000171e+01,1.168937748077374106e-02
5.096000000000000085e+01,1.274029173859793362e-02
5.100000000000000000e+01,9.110864215256928370e-03
5.103999999999999915e+01,9.594455497314274828e-03
5.107999999999999829e+01,1.149632762968457421e-02
5.111999999999999744e+01,9.852488624364089467e-03
5.115999999999999659e+01,8.066820739735407197e-03
5.120000000000000284e+01,1.152880351298456001e-02
5.124000000000000199e+01,1.229604903790258892e-02
5.128000000000000114e+01,1.249598417935548350e-02
5.132000000000000028e+01,1.269592365457788974e-02
5.135999999999999943e+01,1.303769704963232343e-02
5.139999999999999858e+01,1.493958934409777770e-02
5.143999999999999773e+01,8.048130221789611544e-03
5.147999999999999687e+01,1.037552477800194120e-02
5.152000000000000313e+01,1.057550405714831852e-02
5.156000000000000227e+01,1.375389084230000704e-02
5.160000000000000142e+01,1.168464047313330645e-02
5.164000000000000057e+01,9.189918978604620994e-03
5.167999999999999972e+01,1.137554914178525063e-02
5.171999999999999886e+01,1.001548630235146731e-02
5.175999999999999801e+01,9.790068112202301998e-03
5.179999999999999716e+01,1.055746740328548754e-02
5.184000000000000341e+01,9.906602974630415032e-03
5.188000000000000256e+01,1.039038682227522159e-02
5.192000000000000171e+01,9.172252614077150770e-03
5.196000000000000085e+01,1.305996365779618987e-02
5.200000000000000000e+01,1.226736314547728114e-02
5.203999999999999915e+01,1.161661710607684618e-02
5.207999999999999829e+01,8.838472715681690989e-03
5.211999999999999744e+01,1.173349192145361868e-02
5.215999999999999659e+01,9.948204407207870276e-03
5.220000000000000284e+01,7.879291070728803095e-03
5.224000000000000199e+01,1.034891794097291332e-02
5.228000000000000114e+01,1.423686193168256786e-02
5.232000000000000028e+01,1.089159325136185817e-02
5.235999999999999943e+01,7.971845470115141233e-03
5.239999999999999858e+01,1.285269540393201189e-02
5.243999999999999773e+01,1.149313493313550323e-02
5.247999999999999687e+01,1.169372600488739061e-02
5.252000000000000313e+01,9.908760401757969738e-03
5.256000000000000227e+01,1.110223252976102852e-02
5.260000000000000142e+01,1.343037469615557603e-02
5.264000000000000057e+01,1.377296381468405898e-02
5.267999999999999972e+01,1.198817271729411826e-02
5.271999999999999886e+01,1.233085392471268242e-02
5.275999999999999801e+01,1.182261272773956796e-02
5.279999999999999716e+01,1.117259222066687915e-02
5.284000000000000341e+01,1.335918953070487983e-02
5.288000000000000256e+01,7.745277587554171179e-03
5.292000000000000171e+01,9.506493945361012970e-03
5.296000000000000085e+01,7.863883156768490881e-03
5.300000000000000000e+01,1.075983554599579083e-02
5.303999999999999915e+01,1.039379158389136179e-02
5.307999999999999829e+01,1.399899970938732301e-02
5.311999999999999744e+01,1.136381798335642061e-02
5.315999999999999659e+01,8.019554320042142012e-03
5.320000000000000284e+01,1.247591255189315317e-02
5.324000000000000199e+01,9.557257542773416048e-03
5.328000000000000114e+01,9.049748518648211004e-03
5.332000000000000028e+01,1.024424480323566679e-02
5.335999999999999943e+01,1.484268813022955082e-02
5.339999999999999858e+01,1.220795142933043045e-02
5.343999999999999773e+01,1.099156691004445248e-02
5.347999999999999687e+01,9.775252010802724933e-03
5.352000000000000313e+01,1.394848626879130471e-02
5.356000000000000227e+01,1.103037371196465867e-02
5.360000000000000142e+01,1.378546948449328215e-02
5.364000000000000057e+01,1.526418431956996086e-02
5.367999999999999972e+01,1.447372078679804580e-02
5.371999999999999886e+01,1.254870711164179399e-02
5.375999999999999801e+01,9.630972880163655298e-03
5.379999999999999716e+01,1.096816925249228039e-02
5.384000000000000341e+01,1.017802047005007295e-02
5.388000000000000256e+01,9.246125020645602419e-03
5.392000000000000171e+01,1.356196244146491876e-02
5.396000000000000085e+01,8.800867858716383135e-03
5.400000000000000000e+01,1.028030720360354443e-02
5.403999999999999915e+01,9.774235815802695404e-03
5.407999999999999829e+01,1.068653595369635674e-02
5.411999999999999744e+01,1.074795479337135179e-02
5.415999999999999659e+01,1.265323270792320653e-02
5.420000000000000284e+01,1.356580336520913505e-02
5.424000000000000199e+01,1.050727205602899721e-02
5.428000000000000114e+01,1.241282774400364643e-02
5.432000000000000028e+01,1.119825414586671578e-02
5.435999999999999943e+01,1.012560514294341685e-02
5.439999999999999858e+01,1.160596435421445624e-02
5.443999999999999773e+01,1.464653434928319710e-02
5.447999999999999687e+01,1.158858397605545647e-02
5.452000000000000313e+01,1.108364544403737592e-02
5.456000000000000227e+01,1.525914561809489992e-02
5.460000000000000142e+01,1.347795742792859928e-02
5.464000000000000057e+01,1.283150093541329806e-02
5.467999999999999972e+01,1.275246384132442887e-02
5.471999999999999886e+01,1.168073520703578720e-02
5.475999999999999801e+01,1.245288378270036772e-02
5.479999999999999716e+01,1.450159726909362387e-02
5.484000000000000341e+01,1.399751069467102503e-02
5.488000000000000256e+01,1.533730495721691983e-02
5.492000000000000171e+01,1.341515969167015113e-02
5.496000000000000085e+01,1.447152469756115764e-02
5.500000000000000000e+01,1.212412421631230315e-02
5.503999999999999915e+01,1.459900532625756607e-02
5.507999999999999829e+01,1.523023551470444742e-02
5.511999999999999744e+01,1.189039033479716290e-02
5.515999999999999659e+01,1.493294252073057611e-02
5.520000000000000284e+01,1.556453390395130809e-02
5.524000000000000199e+01,8.395687365283481182e-03
5.528000000000000114e+01,1.427517554116915395e-02
5.532000000000000028e+01,1.363068360669295737e-02
5.535999999999999943e+01,1.256083298432797597e-02
5.539999999999999858e+01,1.432767755539934330e-02
5.543999999999999773e+01,1.382539695484600629e-02
5.547999999999999687e+01,1.119582076873037492e-02
5.552000000000000313e+01,1.409768256715683392e-02
5.556000000000000227e+01,1.132654177159640729e-02
5.560000000000000142e+01,1.493781164093258007e-02
5.564000000000000057e+01,1.358522321957896829e-02
5.567999999999999972e+01,1.308374117589384232e-02
5.571999999999999886e+01,1.400068022711180131e-02
5.575999999999999801e+01,1.676152671341014574e-02
5.579999999999999716e+01,1.115463869566158880e-02
5.584000000000000341e+01,1.207199697389762724e-02
5.588000000000000256e+01,1.440778118305709871e-02
5.592000000000000171e+01,1.504176823688246033e-02
5.596000000000000085e+01,1.411578772143622096e-02
5.600000000000000000e+01,9.644243566919894969e-03
5.603999999999999915e+01,1.410803416338925718e-02
5.607999999999999829e+01,1.374980814528221733e-02
5.611999999999999744e+01,1.395904504978477158e-02
5.615999999999999659e+01,1.175735016769680411e-02
5.620000000000000284e+01,1.239237465914694650e-02
5.624000000000000199e+01,1.274389543787759170e-02
5.628000000000000114e+01,1.408836910641039081e-02
5.632000000000000028e+01,1.571665498846347778e-02
5.635999999999999943e+01,1.294841785014797311e-02
5.639999999999999858e+01,1.344239126156815053e-02
5.643999999999999773e+01,1.521297915292560421e-02
5.647999999999999687e+01,1.414715979856108301e-02
5.652000000000000313e+01,1.308150194862745148e-02
5.656000000000000227e+01,1.471074597622032062e-02
5.660000000000000142e+01,1.392907151627863216e-02
5.664000000000000057e+01,1.300573381072571769e-02
5.667999999999999972e+01,1.562827187205893115e-02
5.671999999999999886e+01,1.810914910579110304e-02
5.675999999999999801e+01,1.321511949100029858e-02
5.679999999999999716e+01,1.541267869654568308e-02
5.684000000000000341e+01,1.505749829152960503e-02
5.688000000000000256e+01,1.385152000964592553e-02
5.692000000000000171e+01,1.477314097810492229e-02
5.696000000000000085e+01,1.300019758596034428e-02
5.700000000000000000e+01,1.477313963274260594e-02
5.703999999999999915e+01,1.342603460575926382e-02
5.707999999999999829e+01,1.406470528808157795e-02
5.711999999999999744e+01,1.385258534756679018e-02
5.715999999999999659e+01,1.420795976379392658e-02
5.720000000000000284e+01,1.456351623753845796e-02
5.724000000000000199e+01,1.307548707605937603e-02
5.728000000000000114e+01,1.201312752128010433e-02
5.732000000000000028e+01,1.208558066749263263e-02
5.735999999999999943e+01,1.329284772370208437e-02
5.739999999999999858e+01,1.606041503008576177e-02
5.743999999999999773e+01,1.457332033629553207e-02
5.747999999999999687e+01,1.478835668774706666e-02
5.752000000000000313e+01,1.613821178521590224e-02
5.756000000000000227e+01,1.124781123072259373e-02
5.760000000000000142e+01,1.500913582429861184e-02
5.764000000000000057e+01,1.522494634801316478e-02
5.767999999999999972e+01,1.501546830613402841e-02
5.771999999999999886e+01,1.267876238297752436e-02
5.775999999999999801e+01,1.459710675513148197e-02
5.779999999999999716e+01,1.623199456576441754e-02
5.784000000000000341e+01,1.460503110567607475e-02
5.788000000000000256e+01,1.269461350207687703e-02
5.792000000000000171e+01,1.688301993155464156e-02
5.796000000000000085e+01,1.497301117617850542e-02
5.800000000000000000e+01,1.745988834720077487e-02
5.803999999999999915e+01,1.455749463666633839e-02
5.807999999999999829e+01,1.661930277877006132e-02
5.811999999999999744e+01,1.556109649024553336e-02
5.815999999999999659e+01,1.521224316064750080e-02
5.820000000000000284e+01,1.514725886780889270e-02
5.824000000000000199e+01,1.593345832896431863e-02
5.828000000000000114e+01,1.558524547431538142e-02
5.832000000000000028e+01,1.537907690638374431e-02
5.835999999999999943e+01,1.403849844065788860e-02
5.839999999999999858e+01,1.326545181083166672e-02
5.843999999999999773e+01,1.603833414411541883e-02
5.847999999999999687e+01,1.696766832133330197e-02
5.852000000000000313e+01,1.548614204326078866e-02
5.856000000000000227e+01,1.542312269945261480e-02
5.860000000000000142e+01,2.018249254829136002e-02
5.864000000000000057e+01,1.614872860127222753e-02
5.867999999999999972e+01,1.793015490431190337e-02
5.871999999999999886e+01,1.630792815768490264e-02
5.875999999999999801e+01,1.567872925917548205e-02
5.879999999999999716e+01,1.434061889310002391e-02
5.884000000000000341e+01,1.427919554726710984e-02
5.888000000000000256e+01,1.591994556185406112e-02
5.892000000000000171e+01,1.812824312940675489e-02
5.896000000000000085e+01,1.891849218012677664e-02
5.900000000000000000e+01,1.786520879184710225e-02
5.903999999999999915e+01,1.610302119003187427e-02
5.907999999999999829e+01,1.618484137071928702e-02
5.911999999999999744e+01,1.669238677234056306e-02
5.915999999999999659e+01,1.663285996449895277e-02
5.920000000000000284e+01,1.316969461505168755e-02
5.924000000000000199e+01,1.750733372053800418e-02
5.928000000000000114e+01,1.943413534183056901e-02
5.932000000000000028e+01,1.582987639267184957e-02
5.935999999999999943e+01,1.520426070551055692e-02
5.939999999999999858e+01,1.741546111229442736e-02
5.943999999999999773e+01,1.820862751030664917e-02
5.947999999999999687e+01,1.503085032151925578e-02
5.952000000000000313e+01,1.766828877189756050e-02
5.956000000000000227e+01,1.449101715174026979e-02
5.960000000000000142e+01,1.797993385110318448e-02
5.964000000000000057e+01,1.749791179968687715e-02
5.967999999999999972e+01,1.900174404290689081e-02
5.971999999999999886e+01,1.823658047804654903e-02
5.975999999999999801e+01,1.903178849466059114e-02
5.979999999999999716e+01,1.826714500649143785e-02
5.984000000000000341e+01,1.821190525546243291e-02
5.988000000000000256e+01,1.886607045057875007e-02
5.992000000000000171e+01,1.966232829261580634e-02
5.996000000000000085e+01,1.436023140005337692e-02
