2.003999999999999915e+01,2.346076083013944394e-02
2.007999999999999829e+01,3.046780166852526214e-02
2.012000000000000099e+01,2.692301074362232413e-02
2.016000000000000014e+01,2.337829907444991667e-02
2.019999999999999929e+01,2.142212581826899095e-02
2.023999999999999844e+01,3.523716730519130952e-02
2.028000000000000114e+01,2.533885011074716795e-02
2.032000000000000028e+01,2.905597942326101912e-02
2.035999999999999943e+01,2.641934536538382769e-02
2.039999999999999858e+01,1.652125594300045061e-02
2.044000000000000128e+01,2.307514642783961220e-02
2.048000000000000043e+01,1.941758340022596216e-02
2.051999999999999957e+01,2.313508566942020644e-02
2.055999999999999872e+01,2.594496920315126492e-02
2.060000000000000142e+01,2.160685545663734719e-02
2.064000000000000057e+01,3.145148996620279747e-02
2.067999999999999972e+01,3.426158727881089411e-02
2.071999999999999886e+01,1.710254530735340339e-02
2.076000000000000156e+01,2.774161950954475223e-02
2.080000000000000071e+01,2.453846955745460010e-02
2.083999999999999986e+01,2.076808045342145789e-02
2.087999999999999901e+01,9.849689404748725868e-03
2.092000000000000171e+01,1.334096477970409152e-02
2.096000000000000085e+01,1.603807617174707670e-02
2.100000000000000000e+01,2.055063548188304848e-02
2.103999999999999915e+01,2.665171921182661607e-02
2.107999999999999829e+01,2.288172368210110094e-02
2.112000000000000099e+01,2.546563071030744085e-02
2.116000000000000014e+01,2.203614528919606297e-02
2.119999999999999929e+01,2.155671861418344271e-02
2.123999999999999844e+01,3.514656878414740282e-02
2.128000000000000114e+01,2.581727352599428801e-02
2.132000000000000028e+01,3.135148369193498097e-02
2.135999999999999943e+01,2.088769347134389678e-02
2.139999999999999858e+01,2.630856008590708173e-02
2.144000000000000128e+01,2.934679489785001205e-02
2.148000000000000043e+01,2.807355316931293282e-02
2.151999999999999957e+01,3.451574432694645700e-02
2.155999999999999872e+01,2.779646716562850922e-02
2.160000000000000142e+01,4.592529536951334146e-02
2.164000000000000057e+01,1.935038028164921819e-02
2.167999999999999972e+01,2.726778958389220950e-02
2.171999999999999886e+01,2.145642082195733241e-02
2.176000000000000156e+01,2.483547935577178414e-02
2.180000000000000071e+01,2.639920716974526044e-02
2.183999999999999986e+01,3.125336731625922432e-02
2.187999999999999901e+01,4.178064886437575509e-02
2.192000000000000171e+01,3.381376954579538852e-02
2.196000000000000085e+01,3.038539613641706022e-02
2.200000000000000000e+01,3.637436885667893333e-02
2.203999999999999915e+01,3.362686048477782352e-02
2.207999999999999829e+01,3.099286080015908190e-02
2.212000000000000099e+01,3.528005409477819043e-02
2.216000000000000014e+01,1.891731562118706064e-02
2.219999999999999929e+01,2.388536862254677859e-02
2.223999999999999844e+01,3.373230711662886933e-02
2.228000000000000114e+01,4.074275415102035502e-02
2.232000000000000028e+01,4.173978941217357241e-02
2.235999999999999943e+01,2.458304072478178712e-02
2.239999999999999858e+01,2.864361876465897419e-02
2.244000000000000128e+01,2.930039559961900714e-02
2.248000000000000043e+01,2.541875640360360261e-02
2.251999999999999957e+01,2.789099644354709612e-02
2.255999999999999872e+01,1.901713416153316336e-02
2.260000000000000142e+01,9.689464824496188400e-03
2.264000000000000057e+01,2.294065520833514504e-02
2.267999999999999972e+01,2.722843100659460419e-02
2.271999999999999886e+01,2.675086394388277722e-02
2.276000000000000156e+01,3.126563512741787482e-02
2.280000000000000071e+01,2.352660866316998514e-02
2.283999999999999986e+01,2.565875999926489626e-02
2.287999999999999901e+01,2.438710280067978714e-02
2.292000000000000171e+01,2.844816543088819413e-02
2.296000000000000085e+01,3.557271890411520948e-02
2.300000000000000000e+01,3.668384927628857983e-02
2.303999999999999915e+01,2.111618277973285190e-02
2.307999999999999829e+01,3.243890248121193004e-02
2.312000000000000099e+01,3.264243336388764072e-02
2.316000000000000014e+01,2.762676839194273121e-02
2.319999999999999929e+01,2.124959504207036068e-02
2.323999999999999844e+01,2.610512982077963992e-02
2.328000000000000114e+01,2.767031081735964876e-02
2.332000000000000028e+01,2.276821771826267882e-02
2.335999999999999943e+01,1.900076472724589183e-02
2.339999999999999858e+01,3.009678251053452339e-02
2.344000000000000128e+01,1.543708348394274600e-02
2.348000000000000043e+01,3.039083797528413858e-02
2.351999999999999957e+01,2.696386636221694347e-02
2.355999999999999872e+01,2.444460869357628630e-02
2.360000000000000142e+01,2.861959651757314121e-02
2.364000000000000057e+01,2.303692385197907838e-02
2.367999999999999972e+01,2.891387481714693258e-02
2.371999999999999886e+01,2.764277652738718338e-02
2.376000000000000156e+01,3.261207540101011132e-02
2.380000000000000071e+01,3.100063076687942926e-02
2.383999999999999986e+01,2.451036319822749721e-02
2.387999999999999901e+01,2.460087504184699930e-02
2.392000000000000171e+01,2.548563341684250208e-02
2.396000000000000085e+01,2.829925181658834304e-02
2.400000000000000000e+01,3.281480674279917825e-02
2.403999999999999915e+01,2.768615593196990451e-02
2.407999999999999829e+01,2.596136155449584385e-02
2.412000000000000099e+01,2.355581196905629296e-02
2.416000000000000014e+01,1.593104987044393142e-02
2.419999999999999929e+01,2.305628380332364058e-02
2.423999999999999844e+01,2.552961097020447351e-02
2.428000000000000114e+01,1.972026539365230244e-02
2.432000000000000028e+01,3.648975155160839173e-02
2.435999999999999943e+01,3.113427088490831537e-02
2.439999999999999858e+01,1.863072963546510627e-02
2.444000000000000128e+01,3.324447476036928445e-02
2.448000000000000043e+01,2.788901796505188074e-02
2.451999999999999957e+01,2.934125275247587150e-02
2.455999999999999872e+01,2.330504004387351849e-02
2.460000000000000142e+01,3.383419935888846292e-02
2.464000000000000057e+01,2.938645639106541446e-02
2.467999999999999972e+01,2.028679932748052653e-02
2.471999999999999886e+01,2.423520839336616370e-02
2.476000000000000156e+01,2.965861849327388125e-02
2.480000000000000071e+01,2.577819444355676157e-02
2.483999999999999986e+01,2.212469451948961829e-02
2.487999999999999901e+01,2.335003610956729383e-02
2.492000000000000171e+01,2.865998863564621010e-02
2.496000000000000085e+01,1.819880363634900078e-02
2.500000000000000000e+01,2.067221868615603739e-02
2.503999999999999915e+01,3.108793081597357663e-02
2.507999999999999829e+01,2.142096961446669431e-02
2.512000000000000099e+01,1.992322699222939808e-02
2.516000000000000014e+01,3.726007538425278598e-02
2.519999999999999929e+01,1.613349905852146451e-02
2.523999999999999844e+01,1.338766675048009940e-02
2.528000000000000114e+01,3.038411478544636099e-02
2.532000000000000028e+01,2.536904141951793271e-02
2.535999999999999943e+01,2.602703148343073203e-02
2.539999999999999858e+01,2.861385758377875746e-02
2.544000000000000128e+01,3.006606082298597313e-02
2.548000000000000043e+01,3.072402478262517903e-02
2.551999999999999957e+01,3.115505587621240913e-02
2.555999999999999872e+01,2.171493307981703369e-02
2.560000000000000142e+01,7.395958029848638537e-03
2.564000000000000057e+01,2.042117219590821459e-02
2.567999999999999972e+01,2.391561472087383108e-02
2.571999999999999886e+01,2.616196830433240722e-02
2.576000000000000156e+01,2.613907953619712399e-02
2.580000000000000071e+01,2.747771306121811474e-02
2.583999999999999986e+01,2.836248555750723113e-02
2.587999999999999901e+01,3.185685458995636543e-02
2.592000000000000171e+01,1.958007010481928670e-02
2.596000000000000085e+01,2.897439870639206133e-02
2.600000000000000000e+01,3.269563847916952259e-02
2.603999999999999915e+01,2.030533848741976344e-02
2.607999999999999829e+01,2.935922675141021745e-02
2.612000000000000099e+01,3.160541002786282361e-02
2.616000000000000014e+01,3.033426871361286081e-02
2.619999999999999929e+01,2.792849187772245348e-02
2.623999999999999844e+01,4.742074629609047826e-02
2.628000000000000114e+01,3.752647128319794995e-02
2.632000000000000028e+01,2.774563432532661800e-02
2.635999999999999943e+01,3.702629122339676226e-02
2.639999999999999858e+01,2.860694253625796143e-02
2.644000000000000128e+01,1.417411344264602954e-02
2.648000000000000043e+01,2.583738399619043766e-02
2.651999999999999957e+01,1.809872572592522572e-02
2.655999999999999872e+01,2.647156116462861045e-02
2.660000000000000142e+01,1.714438768641263905e-02
2.664000000000000057e+01,3.130369862263714109e-02
2.667999999999999972e+01,2.265723559053476818e-02
2.671999999999999886e+01,3.171072342563543284e-02
2.676000000000000156e+01,2.726227206939876857e-02
2.680000000000000071e+01,3.949261750393637249e-02
2.683999999999999986e+01,4.888639551578573966e-02
2.687999999999999901e+01,5.873398650178203451e-02
2.692000000000000171e+01,5.712194111856196826e-02
2.696000000000000085e+01,4.450410436366999956e-02
2.700000000000000000e+01,3.812661079845188622e-02
2.703999999999999915e+01,2.584908824760103266e-02
2.707999999999999829e+01,2.196767445720082187e-02
2.712000000000000099e+01,3.884966310181697108e-02
2.716000000000000014e+01,2.452972500010049822e-02
2.719999999999999929e+01,2.734242268962390476e-02
2.723999999999999844e+01,3.049546594024390989e-02
2.728000000000000114e+01,2.729463054329219970e-02
2.732000000000000028e+01,1.785337724839828472e-02
2.735999999999999943e+01,2.327552875994333068e-02
2.739999999999999858e+01,2.257072245683364176e-02
2.744000000000000128e+01,2.685817643794698867e-02
2.748000000000000043e+01,2.615328543143772416e-02
2.751999999999999957e+01,3.010026912855223724e-02
2.755999999999999872e+01,2.894144508938847199e-02
2.760000000000000142e+01,3.708641247600127228e-02
2.764000000000000057e+01,2.185828282221897317e-02
2.767999999999999972e+01,2.376278096357163638e-02
2.771999999999999886e+01,3.474414569973137412e-02
2.776000000000000156e+01,3.460624432140581297e-02
2.780000000000000071e+01,3.356060359969973567e-02
2.783999999999999986e+01,2.797645755717875077e-02
2.787999999999999901e+01,3.192302110798306281e-02
2.792000000000000171e+01,3.836568579552948610e-02
2.796000000000000085e+01,3.754676917991562474e-02
2.800000000000000000e+01,2.538165961982076502e-02
2.803999999999999915e+01,4.475877168617920648e-02
2.807999999999999829e+01,3.531663141574125503e-02
2.812000000000000099e+01,2.712251337464712322e-02
2.816000000000000014e+01,3.492640097286654755e-02
2.819999999999999929e+01,4.443215513163200486e-02
2.823999999999999844e+01,4.996670438601993197e-02
2.828000000000000114e+01,3.859544664892242127e-02
2.832000000000000028e+01,3.641450692747232737e-02
2.835999999999999943e+01,4.217580897963960074e-02
2.839999999999999858e+01,6.166588435363541676e-02
2.844000000000000128e+01,4.984055024238028681e-02
2.848000000000000043e+01,5.435360068761695834e-02
2.851999999999999957e+01,5.205890616479073862e-02
2.855999999999999872e+01,5.339491627694958886e-02
2.860000000000000142e+01,4.417895336129755435e-02
2.864000000000000057e+01,5.016675817705262830e-02
2.867999999999999972e+01,5.842372863710691006e-02
2.871999999999999886e+01,5.476718707866462532e-02
2.876000000000000156e+01,4.623174062562455250e-02
2.880000000000000071e+01,5.925389853303459492e-02
2.883999999999999986e+01,5.582408578405655131e-02
2.887999999999999901e+01,4.842305746922755810e-02
2.892000000000000171e+01,4.079503964926944892e-02
2.896000000000000085e+01,5.086693538135764886e-02
2.900000000000000000e+01,3.767917283339151241e-02
2.903999999999999915e+01,4.151055400895776321e-02
2.907999999999999829e+01,4.409379027028188791e-02
2.912000000000000099e+01,4.996733758988691071e-02
2.916000000000000014e+01,4.642351671260819962e-02
2.919999999999999929e+01,4.242577883386243476e-02
2.923999999999999844e+01,3.184720682483958842e-02
2.928000000000000114e+01,2.989162975939593445e-02
2.932000000000000028e+01,3.860135245867873932e-02
2.935999999999999943e+01,3.573793672590646481e-02
2.939999999999999858e+01,3.798021004256661726e-02
2.944000000000000128e+01,3.364164589723912108e-02
2.948000000000000043e+01,4.064914734709964422e-02
2.951999999999999957e+01,3.449504787593382638e-02
2.955999999999999872e+01,3.401394186869026448e-02
2.960000000000000142e+01,3.296545078058716466e-02
2.964000000000000057e+01,2.635727164253078014e-02
2.967999999999999972e+01,2.542208396937034598e-02
2.971999999999999886e+01,3.050027134267877318e-02
2.976000000000000156e+01,2.128223963719201237e-02
2.980000000000000071e+01,2.919680041070967999e-02
2.983999999999999986e+01,2.542475334009552598e-02
2.987999999999999901e+01,3.084299829778757926e-02
2.992000000000000171e+01,2.514194115852169675e-02
2.996000000000000085e+01,2.057541418089208624e-02
3.000000000000000000e+01,2.134148908950691051e-02
3.003999999999999915e+01,2.335555424304531710e-02
3.007999999999999829e+01,2.003684684881073402e-02
3.012000000000000099e+01,2.273150783762413821e-02
3.016000000000000014e+01,2.247608468138458104e-02
3.019999999999999929e+01,2.914171990328185205e-02
3.023999999999999844e+01,2.389381778568325232e-02
3.028000000000000114e+01,2.239005306633162426e-02
3.032000000000000028e+01,3.177849428509765817e-02
3.035999999999999943e+01,2.301301828690181447e-02
3.039999999999999858e+01,2.264359574276363432e-02
3.044000000000000128e+01,2.794715200302177321e-02
3.048000000000000043e+01,2.258524250141945647e-02
3.051999999999999957e+01,2.482515454304701566e-02
3.055999999999999872e+01,1.537844674638535331e-02
3.060000000000000142e+01,9.789332433205641046e-03
3.064000000000000057e+01,1.475203447949194856e-02
3.067999999999999972e+01,2.062233186131360793e-02
3.071999999999999886e+01,2.274830585749183093e-02
3.076000000000000156e+01,2.498764394471979927e-02
3.080000000000000071e+01,2.813457536845694398e-02
3.083999999999999986e+01,2.538141450406332378e-02
3.087999999999999901e+01,2.081277166017549141e-02
3.092000000000000171e+01,1.624402882599755918e-02
3.096000000000000085e+01,1.746171754974052207e-02
3.100000000000000000e+01,1.391392547970067041e-02
3.103999999999999915e+01,1.603910221892594634e-02
3.107999999999999829e+01,1.453341099140055721e-02
3.112000000000000099e+01,2.380645095917945445e-02
3.116000000000000014e+01,1.401786905538180382e-02
3.119999999999999929e+01,1.058302179131070421e-02
3.123999999999999844e+01,0.000000000000000000e+00
3.128000000000000114e+01,9.726465680242296630e-03
3.132000000000000028e+01,2.024705461857500416e-02
3.135999999999999943e+01,1.420216950499652263e-02
3.139999999999999858e+01,1.814178101052636716e-02
3.144000000000000128e+01,1.130244934601407070e-02
3.148000000000000043e+01,1.739934379103292000e-03
3.151999999999999957e+01,1.430228554123901680e-02
3.155999999999999872e+01,1.290877188710069096e-02
3.160000000000000142e+01,1.832283187315459846e-02
3.164000000000000057e+01,8.759872966505587513e-03
3.167999999999999972e+01,1.905254920410213645e-02
3.171999999999999886e+01,1.561628079199959065e-02
3.176000000000000156e+01,1.728566211514642390e-02
3.180000000000000071e+01,2.020300436416519463e-02
3.183999999999999986e+01,1.948946598593367593e-02
3.187999999999999901e+01,1.389697073842186339e-02
3.192000000000000171e+01,1.443127530453581532e-02
3.196000000000000085e+01,1.428469405963561471e-02
3.200000000000000000e+01,8.124539786712585768e-03
3.203999999999999915e+01,1.818924934986415262e-02
3.207999999999999829e+01,1.191539569889031244e-02
3.211999999999999744e+01,1.948371481590270918e-02
3.215999999999999659e+01,1.706730868051681282e-02
3.220000000000000284e+01,2.066423627839047289e-02
3.224000000000000199e+01,1.631874277867104150e-02
3.228000000000000114e+01,1.957504150312981347e-02
3.232000000000000028e+01,1.159853673413404132e-02
3.235999999999999943e+01,2.120842746213576560e-02
3.239999999999999858e+01,1.073552291821162387e-02
3.243999999999999773e+01,1.875670386637389928e-02
3.247999999999999687e+01,1.940276679874865934e-02
3.252000000000000313e+01,1.358140237676697289e-02
3.256000000000000227e+01,1.241182869930648747e-02
3.260000000000000142e+01,2.463057412984067177e-02
3.264000000000000057e+01,2.731843197575811386e-02
3.267999999999999972e+01,2.785039360887266863e-02
3.271999999999999886e+01,2.146107889203382330e-02
3.275999999999999801e+01,3.662930256777866683e-02
3.279999999999999716e+01,4.306086590533986236e-02
3.284000000000000341e+01,5.153460275568016308e-02
3.288000000000000256e+01,4.922937244766321246e-02
3.292000000000000171e+01,6.371629839605320866e-02
3.296000000000000085e+01,6.038964806316073075e-02
3.300000000000000000e+01,7.011092592692723391e-02
3.303999999999999915e+01,6.428785449615963266e-02
3.307999999999999829e+01,7.378193824879941687e-02
3.311999999999999744e+01,8.236819403456140110e-02
3.315999999999999659e+01,6.395049551362838591e-02
3.320000000000000284e+01,6.187110292082113189e-02
3.324000000000000199e+01,5.808965045030841517e-02
3.328000000000000114e+01,4.477729973370551259e-02
3.332000000000000028e+01,4.167633648373413741e-02
3.335999999999999943e+01,5.377906233680386505e-02
3.339999999999999858e+01,3.536052599000562291e-02
3.343999999999999773e+01,4.451297175447210819e-02
3.347999999999999687e+01,4.674412850848553430e-02
3.352000000000000313e+01,2.548862885384573299e-02
3.356000000000000227e+01,2.363488736148702113e-02
3.360000000000000142e+01,1.485985485964900002e-02
3.364000000000000057e+01,3.115964998598939190e-02
3.367999999999999972e+01,1.716510108001046905e-02
3.371999999999999886e+01,2.347999899871724278e-02
3.375999999999999801e+01,2.162552766688848049e-02
3.379999999999999716e+01,3.134397279724577406e-02
3.384000000000000341e+01,2.812766787357480480e-02
3.388000000000000256e+01,2.536505931418594692e-02
3.392000000000000171e+01,2.827537158743209308e-02
3.396000000000000085e+01,2.267592703051731287e-02
3.400000000000000000e+01,2.433786179715621834e-02
3.403999999999999915e+01,2.214195645578695762e-02
3.407999999999999829e+01,2.323627954628007183e-02
3.411999999999999744e+01,4.474701544080913335e-03
3.415999999999999659e+01,1.884370304159881104e-02
3.420000000000000284e+01,1.040680529847788811e-02
3.424000000000000199e+01,1.388320093569498336e-02
3.428000000000000114e+01,1.304790680296480550e-02
3.432000000000000028e+01,1.743168117556227401e-02
3.435999999999999943e+01,1.920568568510279059e-02
3.439999999999999858e+01,1.678145984164141832e-02
3.443999999999999773e+01,7.549390411488623998e-03
3.447999999999999687e+01,3.536386821295118155e-03
3.452000000000000313e+01,1.813089548937121126e-02
3.456000000000000227e+01,8.104116264183605298e-03
3.460000000000000142e+01,1.532331097292187819e-02
3.464000000000000057e+01,6.430822653584582389e-03
3.467999999999999972e+01,1.092661879245354628e-02
3.471999999999999886e+01,1.326648473507328896e-02
3.475999999999999801e+01,2.559079132406624768e-02
3.479999999999999716e+01,2.305148779530320075e-02
3.484000000000000341e+01,1.438510251225764806e-02
3.488000000000000256e+01,1.729161570016185881e-02
3.492000000000000171e+01,1.770181111219153169e-02
3.496000000000000085e+01,1.618299516186276488e-02
3.500000000000000000e+01,2.283323320430858533e-02
3.503999999999999915e+01,9.060247748336058490e-03
3.507999999999999829e+01,1.582360929336161515e-02
3.511999999999999744e+01,8.744508133639222747e-03
3.515999999999999659e+01,1.494022202004642585e-02
3.520000000000000284e+01,1.875307488215615173e-02
3.524000000000000199e+01,1.519076375087458075e-02
3.528000000000000114e+01,1.684750513271061900e-02
3.532000000000000028e+01,1.929830313842855263e-02
3.535999999999999943e+01,2.379123267737428757e-02
3.539999999999999858e+01,1.829938299021285214e-02
3.543999999999999773e+01,2.449388386118362196e-02
3.547999999999999687e+01,2.603629072402974254e-02
3.552000000000000313e+01,4.845542150602591414e-02
3.556000000000000227e+01,7.643398438466002254e-02
3.560000000000000142e+01,8.716623408329221556e-02
3.564000000000000057e+01,8.280793683904132119e-02
3.567999999999999972e+01,7.288985092718232306e-02
3.571999999999999886e+01,6.739658028687654789e-02
3.575999999999999801e+01,6.156274478097349678e-02
3.579999999999999716e+01,4.971527294454951285e-02
3.584000000000000341e+01,4.762530093131916303e-02
3.588000000000000256e+01,3.963515267085530175e-02
3.592000000000000171e+01,4.446596113213496099e-02
3.596000000000000085e+01,3.658890705519914077e-02
3.600000000000000000e+01,3.676742889651417323e-02
3.603999999999999915e+01,3.184000173702881964e-02
3.607999999999999829e+01,2.952200119647184484e-02
3.611999999999999744e+01,3.026727227238772480e-02
3.615999999999999659e+01,3.203350881094495922e-02
3.620000000000000284e+01,3.243802041039733908e-02
3.624000000000000199e+01,3.477118746757994205e-02
3.628000000000000114e+01,3.256570860576783050e-02
3.632000000000000028e+01,3.149465395720040667e-02
3.635999999999999943e+01,2.043880409031577708e-02
3.639999999999999858e+01,1.880006046992072771e-02
3.643999999999999773e+01,3.009572632479367085e-02
3.647999999999999687e+01,3.027198080260686680e-02
3.652000000000000313e+01,2.545573969948629334e-02
3.656000000000000227e+01,3.266621474483443616e-02
3.660000000000000142e+01,4.078418650708944687e-02
3.664000000000000057e+01,2.950006086098728650e-02
3.667999999999999972e+01,2.320804157408654089e-02
3.671999999999999886e+01,2.860235152237125197e-02
3.675999999999999801e+01,2.718877923612359263e-02
3.679999999999999716e+01,3.110769555796594893e-02
3.684000000000000341e+01,3.275718495145698433e-02
3.688000000000000256e+01,4.064685294812690058e-02
3.692000000000000171e+01,5.364208472191728944e-02
3.696000000000000085e+01,5.937558526557832478e-02
3.700000000000000000e+01,6.204542630371833595e-02
3.703999999999999915e+01,7.333813301507306759e-02
3.707999999999999829e+01,7.453257109798153146e-02
3.711999999999999744e+01,6.074989899932142084e-02
3.715999999999999659e+01,5.990162438177180915e-02
3.720000000000000284e+01,6.449929312486298028e-02
3.724000000000000199e+01,7.511021164211098555e-02
3.728000000000000114e+01,8.038823767001071485e-02
3.732000000000000028e+01,9.009105231578033723e-02
3.735999999999999943e+01,1.412070765198292499e-01
3.739999999999999858e+01,2.298786214727799315e-01
3.743999999999999773e+01,2.831499960385319148e-01
3.747999999999999687e+01,2.894481351216368070e-01
3.752000000000000313e+01,2.604595639008304153e-01
3.756000000000000227e+01,2.690265107635576025e-01
3.760000000000000142e+01,2.791817061804691691e-01
3.764000000000000057e+01,3.333597190586129466e-01
3.767999999999999972e+01,4.528912949343134597e-01
3.771999999999999886e+01,5.906899455130019128e-01
3.775999999999999801e+01,8.115421386481372901e-01
3.779999999999999716e+01,9.483192079471655100e-01
3.784000000000000341e+01,1.000000000000000000e+00
3.788000000000000256e+01,9.192711036801290980e-01
3.792000000000000171e+01,8.430804473989680359e-01
3.796000000000000085e+01,7.109530957772963733e-01
3.800000000000000000e+01,5.781447577269555049e-01
3.803999999999999915e+01,4.798284715328092198e-01
3.807999999999999829e+01,3.796965834175934917e-01
3.811999999999999744e+01,3.511586288486110430e-01
3.815999999999999659e+01,3.833223112262435506e-01
3.820000000000000284e+01,3.997146355192696676e-01
3.824000000000000199e+01,3.619856424629364078e-01
3.828000000000000114e+01,3.435448675245465489e-01
3.832000000000000028e+01,3.178423387003966316e-01
3.835999999999999943e+01,2.474357880535062171e-01
3.839999999999999858e+01,2.385251002669794840e-01
3.843999999999999773e+01,2.913371975064176778e-01
3.847999999999999687e+01,3.472125270481457582e-01
3.852000000000000313e+01,3.165165696082334335e-01
3.856000000000000227e+01,2.819626967636573167e-01
3.860000000000000142e+01,2.468412889112526210e-01
3.864000000000000057e+01,1.929985188292162590e-01
3.867999999999999972e+01,1.473247414364827479e-01
3.871999999999999886e+01,1.094795718187950573e-01
3.875999999999999801e+01,1.053322121513427939e-01
3.879999999999999716e+01,9.085963237079131005e-02
3.884000000000000341e+01,1.119002438633371899e-01
3.888000000000000256e+01,1.231829409899578148e-01
3.892000000000000171e+01,1.567038423883108933e-01
3.896000000000000085e+01,1.973725790678274583e-01
3.900000000000000000e+01,2.366795441642931541e-01
3.903999999999999915e+01,2.273113265511960412e-01
3.907999999999999829e+01,2.028525046897965700e-01
3.911999999999999744e+01,1.636434621616676133e-01
3.915999999999999659e+01,1.245476437927506147e-01
3.920000000000000284e+01,1.034919526402211520e-01
3.924000000000000199e+01,8.844947794474432301e-02
3.928000000000000114e+01,8.157598594343895559e-02
3.932000000000000028e+01,7.288687136445953785e-02
3.935999999999999943e+01,7.622442629000290848e-02
3.939999999999999858e+01,5.947906933375552568e-02
3.943999999999999773e+01,6.928344179371544176e-02
3.947999999999999687e+01,6.910296706067557693e-02
3.952000000000000313e+01,7.107801597725825482e-02
3.956000000000000227e+01,6.125283371261091431e-02
3.960000000000000142e+01,6.776585076135574481e-02
3.964000000000000057e+01,6.599593919130694597e-02
3.967999999999999972e+01,7.250846506798043489e-02
3.971999999999999886e+01,5.882461231615485064e-02
3.975999999999999801e+01,6.181934046026801854e-02
3.979999999999999716e+01,6.481382068614818803e-02
3.984000000000000341e+01,7.824650259684333420e-02
3.988000000000000256e+01,6.966742055812497059e-02
3.992000000000000171e+01,7.073230895973595111e-02
3.996000000000000085e+01,6.612387597916408177e-02
4.000000000000000000e+01,7.830748131245010568e-02
4.003999999999999915e+01,8.617930092252866492e-02
4.007999999999999829e+01,7.964126812158253688e-02
4.011999999999999744e+01,8.070489694176599671e-02
4.015999999999999659e+01,9.527018034726174311e-02
4.020000000000000284e+01,9.894291323782708480e-02
4.024000000000000199e+01,9.875770273736109162e-02
4.028000000000000114e+01,1.083299180961173197e-01
4.032000000000000028e+01,1.266384059040089327e-01
4.035999999999999943e+01,1.421101010655876629e-01
4.039999999999999858e+01,1.386334818465398133e-01
4.043999999999999773e+01,1.224489254589629927e-01
4.047999999999999687e+01,1.134121790315504863e-01
4.052000000000000313e+01,9.904248614108079884e-02
4.056000000000000227e+01,9.034560347046002859e-02
4.060000000000000142e+01,9.265421690401273724e-02
4.064000000000000057e+01,7.930489302206361613e-02
4.067999999999999972e+01,7.196876160885209983e-02
4.071999999999999886e+01,6.395159845570982937e-02
4.075999999999999801e+01,7.215915387606768039e-02
4.079999999999999716e+01,6.141838825237814353e-02
4.084000000000000341e+01,6.486003438201522198e-02
4.088000000000000256e+01,6.353603513137451309e-02
4.092000000000000171e+01,5.937523390563170106e-02
4.096000000000000085e+01,6.292954172380627043e-02
4.100000000000000000e+01,6.387396906613782011e-02
4.103999999999999915e+01,5.642198305173109357e-02
4.107999999999999829e+01,5.430241434681127438e-02
4.111999999999999744e+01,4.662296635175975507e-02
4.115999999999999659e+01,4.767977681265991863e-02
4.120000000000000284e+01,4.703439479377967414e-02
4.124000000000000199e+01,4.729643219612441468e-02
4.128000000000000114e+01,4.415435454643009544e-02
4.132000000000000028e+01,4.816007286371627727e-02
4.135999999999999943e+01,3.367130647205239524e-02
4.139999999999999858e+01,5.390145879579105043e-02
4.143999999999999773e+01,4.100060241755513341e-02
4.147999999999999687e+01,3.604176925273278043e-02
4.152000000000000313e+01,3.936534288289680189e-02
4.156000000000000227e+01,3.951171962857046721e-02
4.160000000000000142e+01,5.542895529067394522e-02
4.164000000000000057e+01,3.889594741492221480e-02
4.167999999999999972e+01,4.562225057704372144e-02
4.171999999999999886e+01,3.918674958380306828e-02
4.175999999999999801e+01,4.262211121109907991e-02
4.179999999999999716e+01,3.788796965310048392e-02
4.184000000000000341e+01,3.281316194550763787e-02
4.188000000000000256e+01,3.443229521221960465e-02
4.192000000000000171e+01,4.285883020286591905e-02
4.196000000000000085e+01,3.211010199360107842e-02
4.200000000000000000e+01,2.555916160823891448e-02
4.203999999999999915e+01,3.046753900262171022e-02
4.207999999999999829e+01,2.368910465219469658e-02
4.211999999999999744e+01,2.417191435787811871e-02
4.215999999999999659e+01,3.316404302901784784e-02
4.220000000000000284e+01,2.910782096466197136e-02
4.224000000000000199e+01,3.707822042819876318e-02
4.228000000000000114e+01,1.861182073890338060e-02
4.232000000000000028e+01,1.705088213159661192e-02
4.235999999999999943e+01,2.207041508651799017e-02
4.239999999999999858e+01,2.618196548319781311e-02
4.243999999999999773e+01,2.484707601642875685e-02
4.247999999999999687e+01,3.065996319271975176e-02
4.252000000000000313e+01,2.081488173543098730e-02
4.256000000000000227e+01,1.834449842046133664e-02
4.260000000000000142e+01,2.563150231687299704e-02
4.264000000000000057e+01,2.452206620286297503e-02
4.267999999999999972e+01,2.806425224882667588e-02
4.271999999999999886e+01,2.116769146419519160e-02
4.275999999999999801e+01,1.994390425059796093e-02
4.279999999999999716e+01,2.223712303823194292e-02
4.284000000000000341e+01,3.519541636696769948e-02
4.288000000000000256e+01,2.716304851437830598e-02
4.292000000000000171e+01,3.546882466878809037e-02
4.296000000000000085e+01,3.560507831398278950e-02
4.300000000000000000e+01,3.142949692665573946e-02
4.303999999999999915e+01,3.599014267720235249e-02
4.307999999999999829e+01,2.341781205774881927e-02
4.311999999999999744e+01,2.741054494552734241e-02
4.315999999999999659e+01,3.276451093399727205e-02
4.320000000000000284e+01,4.004701643667471500e-02
4.324000000000000199e+01,4.642152538792679306e-02
4.328000000000000114e+01,4.882457889017744607e-02
4.332000000000000028e+01,4.510040937362357755e-02
4.335999999999999943e+01,5.306245847946912397e-02
4.339999999999999858e+01,5.455689898591111614e-02
4.343999999999999773e+01,5.242026562589818112e-02
4.347999999999999687e+01,5.777177649830808615e-02
4.352000000000000313e+01,7.208642934442989481e-02
4.356000000000000227e+01,8.367769765284360783e-02
4.360000000000000142e+01,7.586675260937741916e-02
4.364000000000000057e+01,8.564201515444086477e-02
4.367999999999999972e+01,1.029054186002166527e-01
4.371999999999999886e+01,1.148358222755685443e-01
4.375999999999999801e+01,1.391332064057287099e-01
4.379999999999999716e+01,1.646783515591353775e-01
4.384000000000000341e+01,2.058808568978434395e-01
4.388000000000000256e+01,2.287022969640218062e-01
4.392000000000000171e+01,2.741022422570867367e-01
4.396000000000000085e+01,2.882999809401436409e-01
4.400000000000000000e+01,2.791243500488926332e-01
4.403999999999999915e+01,2.751676257418427252e-01
4.407999999999999829e+01,2.404625384896448559e-01
4.411999999999999744e+01,2.198263469347509769e-01
4.415999999999999659e+01,2.019129088136559780e-01
4.420000000000000284e+01,1.675472441608122920e-01
4.424000000000000199e+01,1.314793363861896380e-01
4.428000000000000114e+01,1.210533860726090566e-01
4.432000000000000028e+01,1.016636606823810296e-01
4.435999999999999943e+01,8.511014681021314421e-02
4.439999999999999858e+01,6.333708325577747100e-02
4.443999999999999773e+01,6.675212883312893475e-02
4.447999999999999687e+01,5.904762976500369659e-02
4.452000000000000313e+01,5.168318839819430882e-02
4.456000000000000227e+01,4.908379928925236946e-02
4.460000000000000142e+01,5.056869327600590353e-02
4.464000000000000057e+01,3.492058490541796040e-02
4.467999999999999972e+01,4.446058166856468874e-02
4.471999999999999886e+01,3.584642199794106643e-02
4.475999999999999801e+01,2.791270027849572163e-02
4.479999999999999716e+01,3.643055266394322478e-02
4.484000000000000341e+01,3.292116307906214900e-02
4.488000000000000256e+01,2.441913864775160231e-02
4.492000000000000171e+01,2.204369746888924092e-02
4.496000000000000085e+01,2.919868135528189135e-02
4.500000000000000000e+01,2.886487724484288614e-02
4.503999999999999915e+01,2.160959155108833560e-02
4.507999999999999829e+01,2.887703122631426339e-02
4.511999999999999744e+01,2.502491559459017398e-02
4.515999999999999659e+01,1.935708009924759845e-02
4.520000000000000284e+01,2.764466089400110724e-02
4.524000000000000199e+01,2.242999464737406232e-02
4.528000000000000114e+01,2.447651981583275071e-02
4.532000000000000028e+01,2.141694139212735326e-02
4.535999999999999943e+01,1.359164295783069076e-02
4.539999999999999858e+01,1.529676225902614622e-02
4.543999999999999773e+01,2.210730340647798497e-02
4.547999999999999687e+01,1.484828643463857560e-02
4.552000000000000313e+01,2.222544891798838851e-02
4.556000000000000227e+01,2.256765973960392357e-02
4.560000000000000142e+01,1.859799221646215445e-02
4.564000000000000057e+01,2.325104710298695268e-02
4.567999999999999972e+01,1.871338142529021739e-02
4.571999999999999886e+01,1.610421328224959786e-02
4.575999999999999801e+01,2.098315139013297997e-02
4.579999999999999716e+01,1.485598427922248804e-02
4.584000000000000341e+01,1.201884969560146170e-02
4.588000000000000256e+01,1.644289653193492171e-02
4.592000000000000171e+01,1.916467226012192465e-02
4.596000000000000085e+01,1.825533214230266876e-02
4.600000000000000000e+01,2.154371321417760873e-02
4.603999999999999915e+01,1.518752206086571542e-02
4.607999999999999829e+01,1.915596722703191354e-02
4.611999999999999744e+01,1.779137264224906964e-02
4.615999999999999659e+01,1.983026666999060730e-02
4.620000000000000284e+01,2.447841873211310110e-02
4.624000000000000199e+01,1.868776532553694317e-02
4.628000000000000114e+01,2.208713074701211185e-02
4.632000000000000028e+01,2.559960105246608317e-02
4.635999999999999943e+01,3.365017079845033371e-02
4.639999999999999858e+01,3.330423789785695587e-02
4.643999999999999773e+01,2.785218274752111756e-02
4.647999999999999687e+01,3.476706274073183139e-02
4.652000000000000313e+01,3.226428534459398895e-02
4.656000000000000227e+01,2.454192228371577036e-02
4.660000000000000142e+01,2.498841997640757762e-02
4.664000000000000057e+01,2.407301881471026264e-02
4.667999999999999972e+01,2.168225671631015747e-02
4.671999999999999886e+01,2.382958806136164717e-02
4.675999999999999801e+01,2.053040757801907062e-02
4.679999999999999716e+01,1.870586097420985638e-02
4.684000000000000341e+01,2.448286404605995795e-02
4.688000000000000256e+01,2.004797381968131953e-02
4.692000000000000171e+01,1.935694379324235173e-02
4.696000000000000085e+01,2.138862055665635004e-02
4.700000000000000000e+01,2.614300344358120101e-02
4.703999999999999915e+01,1.637395655998699628e-02
4.707999999999999829e+01,1.477376243385777020e-02
4.711999999999999744e+01,1.612319526415640497e-02
4.715999999999999659e+01,1.542995208178904280e-02
4.720000000000000284e+01,1.553056761970444261e-02
4.724000000000000199e+01,2.368657183374479891e-02
4.728000000000000114e+01,2.616913272500078630e-02
4.732000000000000028e+01,1.741864024452041346e-02
4.735999999999999943e+01,1.195815497033028522e-02
4.739999999999999858e+01,1.455305570689680722e-02
4.743999999999999773e+01,2.157257647678570076e-02
4.747999999999999687e+01,2.371288050398120267e-02
4.752000000000000313e+01,2.721434500058088346e-02
4.756000000000000227e+01,1.687313956004420773e-02
4.760000000000000142e+01,3.047191503458200612e-02
4.764000000000000057e+01,2.149149020948373442e-02
4.767999999999999972e+01,2.079336956269074027e-02
4.771999999999999886e+01,2.111602180567664910e-02
4.775999999999999801e+01,2.166521636029792447e-02
4.779999999999999716e+01,2.210056831229762972e-02
4.784000000000000341e+01,1.935861876409961449e-02
4.788000000000000256e+01,1.468744262504972746e-02
4.792000000000000171e+01,2.192933197734482295e-02
4.796000000000000085e+01,1.964007853600466952e-02
4.800000000000000000e+01,2.563312394223314292e-02
4.803999999999999915e+01,2.583925194920598176e-02
4.807999999999999829e+01,1.946423197877969816e-02
4.811999999999999744e+01,1.660612938608731562e-02
4.815999999999999659e+01,1.760532775270163067e-02
4.820000000000000284e+01,1.576760286995435717e-02
4.824000000000000199e+01,1.721987053397148679e-02
4.828000000000000114e+01,2.434481981381514393e-02
4.832000000000000028e+01,2.273285021474619888e-02
4.835999999999999943e+01,2.191472001203949652e-02
4.839999999999999858e+01,1.145197826996297019e-02
4.843999999999999773e+01,1.800805707550769477e-02
4.847999999999999687e+01,1.038106637013318234e-02
4.852000000000000313e+01,1.807097364012132112e-02
4.856000000000000227e+01,1.577588245745637635e-02
4.860000000000000142e+01,2.017462030362596540e-02
4.864000000000000057e+01,2.809026686508235907e-02
4.867999999999999972e+01,2.148245633599420515e-02
4.871999999999999886e+01,2.179539566865760017e-02
4.875999999999999801e+01,2.165409215857449013e-02
4.879999999999999716e+01,2.344123487480699597e-02
4.884000000000000341e+01,2.534144049546693117e-02
4.888000000000000256e+01,2.485855720283640380e-02
4.892000000000000171e+01,2.290027565834632309e-02
4.896000000000000085e+01,1.935313377968297943e-02
4.900000000000000000e+01,1.989020169908584101e-02
4.903999999999999915e+01,1.883840795163125095e-02
4.907999999999999829e+01,1.903428727026793346e-02
4.911999999999999744e+01,2.410860429974596639e-02
4.915999999999999659e+01,2.180752544878714755e-02
4.920000000000000284e+01,2.506565147181529299e-02
4.924000000000000199e+01,2.015415036992102005e-02
4.928000000000000114e+01,2.726915351971246834e-02
4.932000000000000028e+01,1.872607475776972077e-02
4.935999999999999943e+01,2.141526900302712783e-02
4.939999999999999858e+01,2.603289947946889338e-02
4.943999999999999773e+01,2.645204905828486136e-02
4.947999999999999687e+01,2.346694698493438300e-02
4.952000000000000313e+01,2.660835153469236214e-02
4.956000000000000227e+01,1.908397247741535838e-02
4.960000000000000142e+01,2.131686402165479041e-02
4.964000000000000057e+01,2.411665080736652769e-02
4.967999999999999972e+01,2.873140774389636512e-02
4.971999999999999886e+01,2.551691380731367989e-02
4.975999999999999801e+01,3.149238072702092300e-02
4.979999999999999716e+01,1.659053260419393952e-02
4.984000000000000341e+01,2.199786277019254166e-02
4.988000000000000256e+01,3.148938807473143642e-02
4.992000000000000171e+01,2.736512695989424052e-02
4.996000000000000085e+01,1.995006761275719756e-02
5.000000000000000000e+01,2.569611468286465278e-02
5.003999999999999915e+01,2.418021262898103346e-02
5.007999999999999829e+01,2.516004255832448785e-02
5.011999999999999744e+01,1.899138344696432029e-02
5.015999999999999659e+01,2.008383445695554465e-02
5.020000000000000284e+01,2.560085952266530004e-02
5.024000000000000199e+01,1.772901567020550295e-02
5.028000000000000114e+01,1.507597445258150072e-02
5.032000000000000028e+01,1.696096670762139644e-02
5.035999999999999943e+01,2.485899017661431440e-02
5.039999999999999858e+01,2.345275303704803110e-02
5.043999999999999773e+01,2.306724347599885608e-02
5.047999999999999687e+01,2.472361357086938841e-02
5.052000000000000313e+01,1.934494937758708677e-02
5.056000000000000227e+01,1.952546740266085379e-02
5.060000000000000142e+01,2.208824733254296374e-02
5.064000000000000057e+01,2.442367593354382790e-02
5.067999999999999972e+01,1.972406758102350152e-02
5.071999999999999886e+01,2.160479152523559626e-02
5.075999999999999801e+01,1.951393541447639032e-02
5.079999999999999716e+01,1.583418831780801506e-02
5.084000000000000341e+01,2.304630532576774221e-02
5.088000000000000256e+01,2.186184505683631818e-02
5.092000000000000171e+01,1.636541781965034775e-02
5.096000000000000085e+01,2.085316136029319312e-02
5.100000000000000000e+01,2.409239483123133685e-02
5.103999999999999915e+01,2.426773491057661325e-02
5.107999999999999829e+01,2.988878712985926570e-02
5.111999999999999744e+01,3.006325488946060345e-02
5.115999999999999659e+01,2.615267451469817026e-02
5.120000000000000284e+01,2.099358073852061746e-02
5.124000000000000199e+01,3.273979945004673597e-02
5.128000000000000114e+01,2.304137138452334171e-02
5.132000000000000028e+01,2.536941358723934087e-02
5.135999999999999943e+01,2.020856184473222850e-02
5.139999999999999858e+01,2.934340735721294169e-02
5.143999999999999773e+01,2.372782696960198251e-02
5.147999999999999687e+01,2.775602444945787783e-02
5.152000000000000313e+01,2.542993947843858599e-02
5.156000000000000227e+01,1.935918395754953822e-02
5.160000000000000142e+01,2.781104519188117713e-02
5.164000000000000057e+01,2.457593542564474876e-02
5.167999999999999972e+01,2.621922072435624654e-02
5.171999999999999886e+01,2.752167528697857177e-02
5.175999999999999801e+01,2.507945596802071617e-02
5.179999999999999716e+01,2.604063130735331799e-02
5.184000000000000341e+01,2.893020223100311802e-02
5.188000000000000256e+01,2.240202647546495410e-02
5.192000000000000171e+01,2.721954249720512364e-02
5.196000000000000085e+01,2.613661440219371135e-02
5.200000000000000000e+01,3.515130117608855631e-02
5.203999999999999915e+01,2.635209382352642765e-02
5.207999999999999829e+01,2.470050319192399271e-02
5.211999999999999744e+01,2.418307356844274364e-02
5.215999999999999659e+01,2.184980747147815400e-02
5.220000000000000284e+01,2.360069786521296759e-02
5.224000000000000199e+01,2.569151735624131128e-02
5.228000000000000114e+01,2.539919129490194466e-02
5.232000000000000028e+01,3.111986379675340739e-02
5.235999999999999943e+01,3.230162251009201235e-02
5.239999999999999858e+01,2.656177703317145686e-02
5.243999999999999773e+01,2.672146670444386016e-02
5.247999999999999687e+01,3.073838537007778787e-02
5.252000000000000313e+01,2.794715926239794632e-02
5.256000000000000227e+01,2.594970258516142783e-02
5.260000000000000142e+01,2.531332175188432190e-02
5.264000000000000057e+01,2.887455149551531805e-02
5.267999999999999972e+01,2.403917397686133189e-02
5.271999999999999886e+01,2.986870641281420130e-02
5.275999999999999801e+01,2.605355467810999831e-02
5.279999999999999716e+01,2.768408643063352548e-02
5.284000000000000341e+01,2.659107905408521905e-02
5.288000000000000256e+01,2.163991772240670547e-02
5.292000000000000171e+01,2.145366938309988675e-02
5.296000000000000085e+01,2.342272080247510824e-02
5.300000000000000000e+01,2.868168547390663112e-02
5.303999999999999915e+01,2.611134396583257578e-02
5.307999999999999829e+01,2.501553172158451840e-02
5.311999999999999744e+01,2.267117409150127411e-02
5.315999999999999659e+01,2.475134120782231106e-02
5.320000000000000284e+01,2.422142461396440544e-02
5.324000000000000199e+01,2.981795267340103459e-02
5.328000000000000114e+01,2.713132489139306186e-02
5.332000000000000028e+01,2.489806963141392993e-02
5.335999999999999943e+01,2.118934215560381445e-02
5.339999999999999858e+01,2.269936533994687186e-02
5.343999999999999773e+01,2.738583303061166083e-02
5.347999999999999687e+01,2.038529906897247265e-02
5.352000000000000313e+01,2.473043023092824297e-02
5.356000000000000227e+01,2.657893310159797212e-02
5.360000000000000142e+01,1.980389055217146935e-02
5.364000000000000057e+01,2.618989378285977235e-02
5.367999999999999972e+01,2.520042583645563591e-02
5.371999999999999886e+01,2.772778197989355514e-02
5.375999999999999801e+01,3.059504189962573839e-02
5.379999999999999716e+01,3.913489147997673695e-02
5.384000000000000341e+01,2.872620278876068453e-02
5.388000000000000256e+01,3.159201729557851307e-02
5.392000000000000171e+01,3.264196600986130070e-02
5.396000000000000085e+01,2.949335852986275167e-02
5.400000000000000000e+01,3.485387277806333700e-02
5.403999999999999915e+01,3.590236808332676610e-02
5.407999999999999829e+01,2.889461705224715543e-02
5.411999999999999744e+01,3.198444557394328897e-02
5.415999999999999659e+01,3.042186890576108194e-02
5.420000000000000284e+01,2.897226585216697292e-02
5.424000000000000199e+01,2.967794123430824230e-02
5.428000000000000114e+01,2.766005349906263885e-02
5.432000000000000028e+01,3.074743968213060688e-02
5.435999999999999943e+01,2.566511344848929760e-02
5.439999999999999858e+01,2.523421413659087884e-02
5.443999999999999773e+01,2.718551276066063713e-02
5.447999999999999687e+01,2.811516617520756767e-02
5.452000000000000313e+01,3.029240203332225420e-02
5.456000000000000227e+01,3.609990940406675175e-02
5.460000000000000142e+01,2.477424849829069214e-02
5.464000000000000057e+01,3.409807016820490949e-02
5.467999999999999972e+01,3.899640081773694117e-02
5.471999999999999886e+01,3.118655641461574868e-02
5.475999999999999801e+01,4.050888869303800877e-02
5.479999999999999716e+01,3.428650918683207732e-02
5.484000000000000341e+01,3.521170042398195227e-02
5.488000000000000256e+01,3.182485872501089608e-02
5.492000000000000171e+01,3.342981953325050576e-02
5.496000000000000085e+01,3.458043421572041393e-02
5.500000000000000000e+01,3.550362493802183828e-02
5.503999999999999915e+01,3.722054377755735360e-02
5.507999999999999829e+01,4.574464511448128601e-02
5.511999999999999744e+01,4.303556314296227980e-02
5.515999999999999659e+01,4.690673950420431310e-02
5.520000000000000284e+01,4.873510591802129865e-02
5.524000000000000199e+01,6.179564738675194513e-02
5.528000000000000114e+01,7.655760430243722936e-02
5.532000000000000028e+01,8.167483440157197183e-02
5.535999999999999943e+01,7.090695913937448969e-02
5.539999999999999858e+01,6.104626741330391321e-02
5.543999999999999773e+01,6.411966865001106353e-02
5.547999999999999687e+01,6.095218288394824852e-02
5.552000000000000313e+01,5.358611493626277977e-02
5.556000000000000227e+01,5.132530025028628901e-02
5.560000000000000142e+01,4.293705797848517552e-02
5.564000000000000057e+01,4.714252108983648520e-02
5.567999999999999972e+01,3.455518218134581016e-02
5.571999999999999886e+01,3.649039139484103189e-02
5.575999999999999801e+01,3.547509000434902193e-02
5.579999999999999716e+01,3.264389150324396860e-02
5.584000000000000341e+01,3.854870691054547438e-02
5.588000000000000256e+01,3.151840510932996803e-02
5.592000000000000171e+01,3.254334738800702953e-02
5.596000000000000085e+01,2.539855059629143527e-02
5.600000000000000000e+01,3.527244841354305188e-02
5.603999999999999915e+01,2.801315396595898885e-02
5.607999999999999829e+01,2.563218128569352827e-02
5.611999999999999744e+01,3.584490599247543152e-02
5.615999999999999659e+01,3.073981909094149895e-02
5.620000000000000284e+01,2.971882204589853041e-02
5.624000000000000199e+01,2.676845914450791744e-02
5.628000000000000114e+01,2.075411556071133160e-02
5.632000000000000028e+01,2.302193222532973593e-02
5.635999999999999943e+01,2.279307395471615039e-02
5.639999999999999858e+01,2.823676203248586675e-02
5.643999999999999773e+01,2.153955348475082576e-02
5.647999999999999687e+01,2.221681119228940612e-02
5.652000000000000313e+01,2.913392032904314408e-02
5.656000000000000227e+01,3.219281420719492803e-02
5.660000000000000142e+01,2.277042454655873668e-02
5.664000000000000057e+01,2.787056768204049587e-02
5.667999999999999972e+01,2.287211568145437746e-02
5.671999999999999886e+01,3.001350540889778998e-02
5.675999999999999801e+01,2.308514910858207661e-02
5.679999999999999716e+01,2.432548364460466669e-02
5.684000000000000341e+01,1.864414002639667306e-02
5.688000000000000256e+01,2.011033316809816840e-02
5.692000000000000171e+01,2.259714594089902440e-02
5.696000000000000085e+01,2.360842652708126585e-02
5.700000000000000000e+01,2.586724824362199304e-02
5.703999999999999915e+01,2.506207661725709870e-02
5.707999999999999829e+01,2.471021487676505757e-02
5.711999999999999744e+01,2.651358359537827822e-02
5.715999999999999659e+01,2.468564989220151801e-02
5.720000000000000284e+01,3.193409168971525491e-02
5.724000000000000199e+01,2.749546919876906872e-02
5.728000000000000114e+01,2.577938158141795250e-02
5.732000000000000028e+01,2.508390693174531588e-02
5.735999999999999943e+01,2.813211856672824529e-02
5.739999999999999858e+01,2.380479705480487845e-02
5.743999999999999773e+01,2.628461872608690159e-02
5.747999999999999687e+01,2.479274839692735544e-02
5.752000000000000313e+01,2.545610186345221432e-02
5.756000000000000227e+01,2.158045491699317475e-02
5.760000000000000142e+01,2.076772176130739500e-02
5.764000000000000057e+01,2.903135677654923238e-02
5.767999999999999972e+01,2.356561468607883819e-02
5.771999999999999886e+01,2.173009146721360113e-02
5.775999999999999801e+01,2.534016910915752249e-02
5.779999999999999716e+01,2.180162977271756647e-02
5.784000000000000341e+01,2.949522217895575449e-02
5.788000000000000256e+01,2.266520423596985953e-02
5.792000000000000171e+01,2.355001280785744625e-02
5.796000000000000085e+01,2.364004103040407215e-02
5.800000000000000000e+01,2.338913390115419932e-02
5.803999999999999915e+01,2.132229234613453039e-02
5.807999999999999829e+01,2.538181481701719255e-02
5.811999999999999744e+01,2.773886294541749384e-02
5.815999999999999659e+01,2.884728172887992062e-02
5.820000000000000284e+01,3.018206890869359546e-02
5.824000000000000199e+01,2.504900027619017325e-02
5.828000000000000114e+01,2.365960260247437774e-02
5.832000000000000028e+01,2.158887999831051938e-02
5.835999999999999943e+01,2.814066790703020210e-02
5.839999999999999858e+01,2.697652176237656796e-02
5.843999999999999773e+01,2.138682196118478138e-02
5.847999999999999687e+01,2.918501014465880311e-02
5.852000000000000313e+01,2.835957094796017278e-02
5.856000000000000227e+01,2.844126264636378035e-02
5.860000000000000142e+01,2.874931607769782085e-02
5.864000000000000057e+01,2.803565499993217885e-02
5.867999999999999972e+01,2.482528033909361595e-02
5.871999999999999886e+01,3.500278966486834037e-02
5.875999999999999801e+01,2.804706141454563553e-02
5.879999999999999716e+01,3.232344891469103587e-02
5.884000000000000341e+01,2.922427927961506258e-02
5.888000000000000256e+01,2.986877060819544821e-02
5.892000000000000171e+01,2.722231444384896545e-02
5.896000000000000085e+01,2.888682499033280032e-02
5.900000000000000000e+01,2.249500724039715446e-02
5.903999999999999915e+01,2.404492017969981493e-02
5.907999999999999829e+01,2.389234278431011382e-02
5.911999999999999744e+01,2.612188536286471838e-02
5.915999999999999659e+01,2.619509061015625265e-02
5.920000000000000284e+01,2.059465396472207749e-02
5.924000000000000199e+01,2.497825016430518796e-02
5.928000000000000114e+01,2.380166455445006587e-02
5.932000000000000028e+01,2.217066018753801118e-02
5.935999999999999943e+01,1.826985374168087206e-02
5.939999999999999858e+01,2.242423340395490600e-02
5.943999999999999773e+01,2.589726947820248856e-02
5.947999999999999687e+01,2.426396607518795795e-02
5.952000000000000313e+01,2.444546890283869761e-02
5.956000000000000227e+01,2.122255216011760190e-02
5.960000000000000142e+01,2.469328120215770125e-02
5.964000000000000057e+01,2.578074208488649946e-02
5.967999999999999972e+01,2.176186015864271101e-02
5.971999999999999886e+01,1.933085829941052353e-02
5.975999999999999801e+01,1.701273743321660148e-02
5.979999999999999716e+01,1.730364804509478341e-02
5.984000000000000341e+01,1.838820681315684810e-02
5.988000000000000256e+01,2.151448864674869108e-02
5.992000000000000171e+01,2.112288349691829326e-02
5.996000000000000085e+01,2.742491813477034024e-02
