2.003999999999999915e+01,1.381101430303139678e-02
2.007999999999999829e+01,1.606087658555491182e-02
2.012000000000000099e+01,6.667584015268014121e-03
2.016000000000000014e+01,1.199836366332597548e-02
2.019999999999999929e+01,2.109540746516212761e-02
2.023999999999999844e+01,1.432597564271102623e-02
2.028000000000000114e+01,2.433520637557781002e-02
2.032000000000000028e+01,2.692460635227595864e-02
2.035999999999999943e+01,1.695770326335168526e-02
2.039999999999999858e+01,6.077169034673476217e-03
2.044000000000000128e+01,1.517132649728732130e-02
2.048000000000000043e+01,1.821538092633829056e-02
2.051999999999999957e+01,9.045565467353038416e-03
2.055999999999999872e+01,2.384547728833779842e-02
2.060000000000000142e+01,2.129504732747724768e-02
2.064000000000000057e+01,3.038681093763985486e-02
2.067999999999999972e+01,7.061246936957677432e-03
2.071999999999999886e+01,2.379969308413406107e-02
2.076000000000000156e+01,2.307365527370922736e-02
2.080000000000000071e+01,1.424292866484104352e-02
2.083999999999999986e+01,1.865241144191765593e-02
2.087999999999999901e+01,1.975124746193282488e-02
2.092000000000000171e+01,2.644265653070221322e-02
2.096000000000000085e+01,1.612615907343689300e-02
2.100000000000000000e+01,1.528312599962349319e-02
2.103999999999999915e+01,1.729321510144650811e-02
2.107999999999999829e+01,2.455344739959676101e-02
2.112000000000000099e+01,1.366433645093637420e-02
2.116000000000000014e+01,1.658615740505751251e-02
2.119999999999999929e+01,1.813778017897998626e-02
2.123999999999999844e+01,2.334153407511182013e-02
2.128000000000000114e+01,2.215276173557176667e-02
2.132000000000000028e+01,3.397591609304394938e-02
2.135999999999999943e+01,1.201202384560781655e-02
2.139999999999999858e+01,2.508981992522998916e-02
2.144000000000000128e+01,1.830611850816773675e-02
2.148000000000000043e+01,1.197852323378939196e-02
2.151999999999999957e+01,1.797799370463450813e-02
2.155999999999999872e+01,2.306384508942697226e-02
2.160000000000000142e+01,4.407310136706576835e-03
2.164000000000000057e+01,2.159147287326253911e-02
2.167999999999999972e+01,1.354938020523346887e-02
2.171999999999999886e+01,2.365569111576413738e-02
2.176000000000000156e+01,1.469951472311783330e-02
2.180000000000000071e+01,2.617461950703147897e-02
2.183999999999999986e+01,1.367905277063039340e-02
2.187999999999999901e+01,1.727730218532901388e-02
2.192000000000000171e+01,2.155994999147622590e-02
2.196000000000000085e+01,2.652699660471683624e-02
2.200000000000000000e+01,2.567224365557084498e-02
2.203999999999999915e+01,1.865326004467646528e-02
2.207999999999999829e+01,1.585713547621144318e-02
2.212000000000000099e+01,2.995383642106407354e-02
2.216000000000000014e+01,2.612949260254372394e-02
2.219999999999999929e+01,1.716821432987436155e-02
2.223999999999999844e+01,2.669777655415449258e-02
2.228000000000000114e+01,2.013259667536485692e-02
2.232000000000000028e+01,2.897637448975520780e-02
2.235999999999999943e+01,2.035568497233924273e-02
2.239999999999999858e+01,3.102484448280101725e-02
2.244000000000000128e+01,3.062159243953555335e-02
2.248000000000000043e+01,1.172657976637855350e-02
2.251999999999999957e+01,1.531744484142866410e-02
2.255999999999999872e+01,3.089295495346228160e-02
2.260000000000000142e+01,1.576331498063776593e-02
2.264000000000000057e+01,2.802773905138263022e-02
2.267999999999999972e+01,2.157211689378923589e-02
2.271999999999999886e+01,2.664456608241675545e-02
2.276000000000000156e+01,2.201433310250245148e-02
2.280000000000000071e+01,2.103624745494755977e-02
2.283999999999999986e+01,2.462346026208108579e-02
2.287999999999999901e+01,2.695463618443631054e-02
2.292000000000000171e+01,2.597518654761850690e-02
2.296000000000000085e+01,1.437990611379893167e-02
2.300000000000000000e+01,2.173204942752352334e-02
2.303999999999999915e+01,2.451798620731904590e-02
2.307999999999999829e+01,2.182456616214599118e-02
2.312000000000000099e+01,1.935898162442566475e-02
2.316000000000000014e+01,1.803438371648697150e-02
2.319999999999999929e+01,2.036193729735660471e-02
2.323999999999999844e+01,2.360219066262654597e-02
2.328000000000000114e+01,1.736805493940896117e-02
2.332000000000000028e+01,2.825504487552619667e-02
2.335999999999999943e+01,1.722596817587338305e-02
2.339999999999999858e+01,2.114928503847014057e-02
2.344000000000000128e+01,2.039225568525092694e-02
2.348000000000000043e+01,2.271666153867632834e-02
2.351999999999999957e+01,3.097609897277937493e-02
2.355999999999999872e+01,1.766190336434331903e-02
2.360000000000000142e+01,2.808917894821669897e-02
2.364000000000000057e+01,2.436217181264982781e-02
2.367999999999999972e+01,1.812355388351123697e-02
2.371999999999999886e+01,1.804825728994572526e-02
2.376000000000000156e+01,3.018590587938093164e-02
2.380000000000000071e+01,2.337523220186344536e-02
2.383999999999999986e+01,1.325394252500495564e-02
2.387999999999999901e+01,2.276494876989108851e-02
2.392000000000000171e+01,2.405715479829840728e-02
2.396000000000000085e+01,2.135388304428624887e-02
2.400000000000000000e+01,2.321592179866394448e-02
2.403999999999999915e+01,2.393607956030009004e-02
2.407999999999999829e+01,2.648209654156317636e-02
2.412000000000000099e+01,1.681428104282844949e-02
2.416000000000000014e+01,1.924527104520768958e-02
2.419999999999999929e+01,2.384455302915506822e-02
2.423999999999999844e+01,2.810096296693399484e-02
2.428000000000000114e+01,2.790532309411029865e-02
2.432000000000000028e+01,3.535688068989457228e-02
2.435999999999999943e+01,2.534399173611608450e-02
2.439999999999999858e+01,2.674504774730779647e-02
2.444000000000000128e+01,4.298436428918010060e-02
2.448000000000000043e+01,3.194286543156907993e-02
2.451999999999999957e+01,2.546668248573137616e-02
2.455999999999999872e+01,1.967492536390369820e-02
2.460000000000000142e+01,2.324252619523104260e-02
2.464000000000000057e+01,2.817941671187154315e-02
2.467999999999999972e+01,1.747816541747660574e-02
2.471999999999999886e+01,2.298490362330277148e-02
2.476000000000000156e+01,2.529517922795567961e-02
2.480000000000000071e+01,3.034447224052740782e-02
2.483999999999999986e+01,2.523452934474857898e-02
2.487999999999999901e+01,2.012415256812565695e-02
2.492000000000000171e+01,2.254683565644835519e-02
2.496000000000000085e+01,2.177305822182204822e-02
2.500000000000000000e+01,3.321223885518760632e-02
2.503999999999999915e+01,3.061129515501906373e-02
2.507999999999999829e+01,3.725557055740839202e-02
2.512000000000000099e+01,1.604831801895475335e-02
2.516000000000000014e+01,2.896964217149338577e-02
2.519999999999999929e+01,2.100221335294579286e-02
2.523999999999999844e+01,1.976884085615409140e-02
2.528000000000000114e+01,2.207349762336841686e-02
2.532000000000000028e+01,1.764323862003639234e-02
2.535999999999999943e+01,2.519765374882890901e-02
2.539999999999999858e+01,2.145140040494375802e-02
2.544000000000000128e+01,2.352605475435470134e-02
2.548000000000000043e+01,1.795264428911449300e-02
2.551999999999999957e+01,1.660212861176269677e-02
2.555999999999999872e+01,1.821892591625342075e-02
2.560000000000000142e+01,2.451519419326440852e-02
2.564000000000000057e+01,2.122295406649983215e-02
2.567999999999999972e+01,1.633227463509135530e-02
2.571999999999999886e+01,2.251312236992713059e-02
2.576000000000000156e+01,2.652481243973119074e-02
2.580000000000000071e+01,3.498768788360880067e-02
2.583999999999999986e+01,2.735585821681025057e-02
2.587999999999999901e+01,1.983774889862505511e-02
2.592000000000000171e+01,2.373360033991510701e-02
2.596000000000000085e+01,2.523200851772667772e-02
2.600000000000000000e+01,2.433297384770471625e-02
2.603999999999999915e+01,1.647074321207295244e-02
2.607999999999999829e+01,2.207706408853537389e-02
2.612000000000000099e+01,3.042241608919755633e-02
2.616000000000000014e+01,2.415693620270431552e-02
2.619999999999999929e+01,2.085877594837150933e-02
2.623999999999999844e+01,2.189766180187045427e-02
2.628000000000000114e+01,3.697582043736550445e-02
2.632000000000000028e+01,2.089229228963354612e-02
2.635999999999999943e+01,1.542372260512175387e-02
2.639999999999999858e+01,1.349319382267242205e-02
2.644000000000000128e+01,2.457464493977903550e-02
2.648000000000000043e+01,2.287156890825769312e-02
2.651999999999999957e+01,2.904400088248341311e-02
2.655999999999999872e+01,2.140461199435121295e-02
2.660000000000000142e+01,2.586405396167021017e-02
2.664000000000000057e+01,3.020893649818410381e-02
2.667999999999999972e+01,2.245415699430758014e-02
2.671999999999999886e+01,2.131930535271162747e-02
2.676000000000000156e+01,2.349421067731102125e-02
2.680000000000000071e+01,3.194661318047420373e-02
2.683999999999999986e+01,2.008099894566852534e-02
2.687999999999999901e+01,1.997178696082171565e-02
2.692000000000000171e+01,2.191675138305881204e-02
2.696000000000000085e+01,2.968263929309709892e-02
2.700000000000000000e+01,3.253993030304214856e-02
2.703999999999999915e+01,2.204198079170974212e-02
2.707999999999999829e+01,1.987612045849471848e-02
2.712000000000000099e+01,1.508454123883142331e-02
2.716000000000000014e+01,1.873919586691092515e-02
2.719999999999999929e+01,2.399145445824623496e-02
2.723999999999999844e+01,2.718871460174564561e-02
2.728000000000000114e+01,1.714488055617252246e-02
2.732000000000000028e+01,2.833139191450031319e-02
2.735999999999999943e+01,2.205348789663084258e-02
2.739999999999999858e+01,2.502082708872196623e-02
2.744000000000000128e+01,2.627560142620798123e-02
2.748000000000000043e+01,2.399150991136548075e-02
2.751999999999999957e+01,3.083851901508261398e-02
2.755999999999999872e+01,2.433029300090576441e-02
2.760000000000000142e+01,2.946433287995983696e-02
2.764000000000000057e+01,2.523817281415303634e-02
2.767999999999999972e+01,2.135403947764991789e-02
2.771999999999999886e+01,2.717172802960835659e-02
2.776000000000000156e+01,3.527188939386425443e-02
2.780000000000000071e+01,2.602178379235201705e-02
2.783999999999999986e+01,2.270675466116360910e-02
2.787999999999999901e+01,2.875111756600972138e-02
2.792000000000000171e+01,2.417970121381837756e-02
2.796000000000000085e+01,3.090812298065522684e-02
2.800000000000000000e+01,3.558155419690869903e-02
2.803999999999999915e+01,2.838362518136841942e-02
2.807999999999999829e+01,2.917536422006080862e-02
2.812000000000000099e+01,3.008084688347937435e-02
2.816000000000000014e+01,2.847476530555196131e-02
2.819999999999999929e+01,2.766729121365370248e-02
2.823999999999999844e+01,3.268075391019252540e-02
2.828000000000000114e+01,2.833402331218843814e-02
2.832000000000000028e+01,3.699929214904935926e-02
2.835999999999999943e+01,3.801652609768996910e-02
2.839999999999999858e+01,3.207058860376834492e-02
2.844000000000000128e+01,3.925079562998180088e-02
2.848000000000000043e+01,3.307577709813324524e-02
2.851999999999999957e+01,3.991276007937415160e-02
2.855999999999999872e+01,3.613397045389546425e-02
2.860000000000000142e+01,3.692053913596692744e-02
2.864000000000000057e+01,3.131465806102298050e-02
2.867999999999999972e+01,3.312773208330711122e-02
2.871999999999999886e+01,2.660791192816172254e-02
2.876000000000000156e+01,3.230108891162620371e-02
2.880000000000000071e+01,2.806335881225343123e-02
2.883999999999999986e+01,3.272845537105011082e-02
2.887999999999999901e+01,2.791922103164143701e-02
2.892000000000000171e+01,1.842969741976436399e-02
2.896000000000000085e+01,2.446334433645177761e-02
2.900000000000000000e+01,4.076954563391437664e-02
2.903999999999999915e+01,4.143765042563280626e-02
2.907999999999999829e+01,2.544036458223208549e-02
2.912000000000000099e+01,2.302580567827143890e-02
2.916000000000000014e+01,2.061085736746815639e-02
2.919999999999999929e+01,2.538658188060521556e-02
2.923999999999999844e+01,2.867804791982760115e-02
2.928000000000000114e+01,3.162669428413544120e-02
2.932000000000000028e+01,3.080820623910782499e-02
2.935999999999999943e+01,3.718039268060002733e-02
2.939999999999999858e+01,2.312044514705979478e-02
2.944000000000000128e+01,2.766555676488171439e-02
2.948000000000000043e+01,2.969911785763839837e-02
2.951999999999999957e+01,3.401517005106687030e-02
2.955999999999999872e+01,5.065837153433826179e-02
2.960000000000000142e+01,6.787190737453817346e-02
2.964000000000000057e+01,5.769053759510785889e-02
2.967999999999999972e+01,7.695789410278391918e-02
2.971999999999999886e+01,9.976332601104674624e-02
2.976000000000000156e+01,1.128661484886204630e-01
2.980000000000000071e+01,1.267675950780181859e-01
2.983999999999999986e+01,1.052840694425232343e-01
2.987999999999999901e+01,9.692670329037884891e-02
2.992000000000000171e+01,7.509998270505235940e-02
2.996000000000000085e+01,6.137709354760306074e-02
3.000000000000000000e+01,4.890940593354425187e-02
3.003999999999999915e+01,4.123537926692209116e-02
3.007999999999999829e+01,2.614162326148024296e-02
3.012000000000000099e+01,2.565789913161994201e-02
3.016000000000000014e+01,1.490085053584159006e-02
3.019999999999999929e+01,2.594489646207268421e-02
3.023999999999999844e+01,2.009527613021494172e-02
3.028000000000000114e+01,1.846860004798546104e-02
3.032000000000000028e+01,2.574476600278568020e-02
3.035999999999999943e+01,1.635555462310274433e-02
3.039999999999999858e+01,1.917935742346946193e-02
3.044000000000000128e+01,1.686631139253082570e-02
3.048000000000000043e+01,1.968936239612903427e-02
3.051999999999999957e+01,1.269566802795510374e-02
3.055999999999999872e+01,1.894228404743009825e-02
3.060000000000000142e+01,1.286099108304112129e-02
3.064000000000000057e+01,1.339966671413029067e-02
3.067999999999999972e+01,1.918858529631617404e-02
3.071999999999999886e+01,1.618805512997404522e-02
3.076000000000000156e+01,2.094893318939991880e-02
3.080000000000000071e+01,1.361019201985730169e-02
3.083999999999999986e+01,1.768546273410920994e-02
3.087999999999999901e+01,1.514001929078758260e-02
3.092000000000000171e+01,1.270834856733326496e-02
3.096000000000000085e+01,2.500086228633840654e-02
3.100000000000000000e+01,8.757046134283682365e-03
3.103999999999999915e+01,2.104881969457672239e-02
3.107999999999999829e+01,1.667522340199436084e-02
3.112000000000000099e+01,1.310026493751681627e-02
3.116000000000000014e+01,1.854230107694678636e-02
3.119999999999999929e+01,1.530903729392271706e-02
3.123999999999999844e+01,1.721187844268806666e-02
3.128000000000000114e+01,1.158085888364436544e-02
3.132000000000000028e+01,1.599413013610744699e-02
3.135999999999999943e+01,1.937974029717614774e-02
3.139999999999999858e+01,2.733073786093613219e-02
3.144000000000000128e+01,1.838808163595349876e-02
3.148000000000000043e+01,2.268574535845184481e-02
3.151999999999999957e+01,4.496708045056506571e-03
3.155999999999999872e+01,6.282477972227872715e-03
3.160000000000000142e+01,1.411750727867672368e-02
3.164000000000000057e+01,1.658741254649538296e-02
3.167999999999999972e+01,2.031253681478917966e-02
3.171999999999999886e+01,1.399264050398594909e-02
3.176000000000000156e+01,1.029769008497396880e-02
3.180000000000000071e+01,1.550559708185193092e-02
3.183999999999999986e+01,2.539303989185028032e-02
3.187999999999999901e+01,1.564738136514701172e-02
3.192000000000000171e+01,1.925619119635379670e-02
3.196000000000000085e+01,1.658672960740516927e-02
3.200000000000000000e+01,8.780435397301236677e-03
3.203999999999999915e+01,4.968816048528916160e-03
3.207999999999999829e+01,2.147444085871325764e-02
3.211999999999999744e+01,2.222785732947302889e-02
3.215999999999999659e+01,1.750201132665040946e-02
3.220000000000000284e+01,4.785738822508710764e-03
3.224000000000000199e+01,1.969191779337679110e-02
3.228000000000000114e+01,1.416599271564326912e-02
3.232000000000000028e+01,1.160745086373570455e-02
3.235999999999999943e+01,2.034879285179240146e-02
3.239999999999999858e+01,1.310964173326756126e-02
3.243999999999999773e+01,1.625722457931255693e-02
3.247999999999999687e+01,0.000000000000000000e+00
3.252000000000000313e+01,1.090865445186920031e-02
3.256000000000000227e+01,1.040257099315741902e-02
3.260000000000000142e+01,2.119637386827910586e-02
3.264000000000000057e+01,1.132978875893200441e-02
3.267999999999999972e+01,1.116507707801073918e-02
3.271999999999999886e+01,9.287855407607632785e-03
3.275999999999999801e+01,1.174774759515047687e-02
3.279999999999999716e+01,2.938841869815896415e-02
3.284000000000000341e+01,9.475415821265263314e-03
3.288000000000000256e+01,3.487610469436212921e-03
3.292000000000000171e+01,1.884435255012586671e-02
3.296000000000000085e+01,1.160026471980176756e-02
3.300000000000000000e+01,1.234589606802962217e-02
3.303999999999999915e+01,1.765693186038851462e-02
3.307999999999999829e+01,1.737457090066155119e-02
3.311999999999999744e+01,1.058566289780948910e-02
3.315999999999999659e+01,1.372692098779272965e-02
3.320000000000000284e+01,1.549810559103923305e-02
3.324000000000000199e+01,1.544264176985174659e-02
3.328000000000000114e+01,1.447368064655930181e-02
3.332000000000000028e+01,2.377731879368832901e-02
3.335999999999999943e+01,1.744290532471933983e-02
3.339999999999999858e+01,1.658705074736950558e-02
3.343999999999999773e+01,6.371056493665324706e-03
3.347999999999999687e+01,1.316214963475811732e-02
3.352000000000000313e+01,1.413156291918757357e-02
3.356000000000000227e+01,1.373090645768415205e-02
3.360000000000000142e+01,1.093288612087291167e-02
3.364000000000000057e+01,1.087397504949746962e-02
3.367999999999999972e+01,1.732092032427492989e-02
3.371999999999999886e+01,1.201070822716617838e-02
3.375999999999999801e+01,1.172248340913828804e-02
3.379999999999999716e+01,1.873912305254662319e-02
3.384000000000000341e+01,5.666106372509994819e-03
3.388000000000000256e+01,9.371893567047978948e-03
3.392000000000000171e+01,2.517658768004888900e-02
3.396000000000000085e+01,1.507029096142762509e-02
3.400000000000000000e+01,1.729118966923014200e-02
3.403999999999999915e+01,1.243483170206186733e-02
3.407999999999999829e+01,1.397019039915982190e-02
3.411999999999999744e+01,1.550521122937932421e-02
3.415999999999999659e+01,1.384386713497060863e-02
3.420000000000000284e+01,1.286704903498637163e-02
3.424000000000000199e+01,1.816780542351230376e-02
3.428000000000000114e+01,1.616301995426567759e-02
3.432000000000000028e+01,2.317526192487151179e-02
3.435999999999999943e+01,1.226658590379072801e-02
3.439999999999999858e+01,4.439458560404825269e-03
3.443999999999999773e+01,8.254668185523087939e-03
3.447999999999999687e+01,1.252611903790891261e-02
3.452000000000000313e+01,1.999326365325981153e-02
3.456000000000000227e+01,2.026901315868777712e-02
3.460000000000000142e+01,2.408288877337710562e-02
3.464000000000000057e+01,9.633417790887336546e-03
3.467999999999999972e+01,1.104960828918542283e-02
3.471999999999999886e+01,1.919995361707419607e-02
3.475999999999999801e+01,1.331027561313287769e-02
3.479999999999999716e+01,1.335574640172335938e-02
3.484000000000000341e+01,1.237359226002341696e-02
3.488000000000000256e+01,1.732658774214497835e-02
3.492000000000000171e+01,1.406089731012779426e-02
3.496000000000000085e+01,1.364847369816263659e-02
3.500000000000000000e+01,1.095284459679579138e-02
3.503999999999999915e+01,1.510551748851415854e-02
3.507999999999999829e+01,1.492039663208107915e-02
3.511999999999999744e+01,1.895827031830586359e-02
3.515999999999999659e+01,1.865835108766900757e-02
3.520000000000000284e+01,1.573279693084823211e-02
3.524000000000000199e+01,1.018160826348838734e-02
3.528000000000000114e+01,7.940265094681681068e-03
3.532000000000000028e+01,1.836856258358611146e-02
3.535999999999999943e+01,5.967767423498087850e-03
3.539999999999999858e+01,6.350757590746466778e-03
3.543999999999999773e+01,1.415277309920638313e-02
3.547999999999999687e+01,1.898672507598992559e-02
3.552000000000000313e+01,1.023723697153810369e-02
3.556000000000000227e+01,2.648492655890333572e-02
3.560000000000000142e+01,1.373975872102704485e-02
3.564000000000000057e+01,1.149550193764584984e-02
3.567999999999999972e+01,1.404496470762835007e-02
3.571999999999999886e+01,1.944770219491550114e-02
3.575999999999999801e+01,1.297915966986938965e-02
3.579999999999999716e+01,1.678324218522683070e-02
3.584000000000000341e+01,1.807584026305381064e-02
3.588000000000000256e+01,1.651452280398869182e-02
3.592000000000000171e+01,1.826305749379470572e-02
3.596000000000000085e+01,6.998875866136535645e-03
3.600000000000000000e+01,1.262766398056675531e-02
3.603999999999999915e+01,1.015192165725015486e-02
3.607999999999999829e+01,1.349719758876575561e-02
3.611999999999999744e+01,1.627143724396894892e-02
3.615999999999999659e+01,1.356645599007702888e-02
3.620000000000000284e+01,4.469103536050665106e-03
3.624000000000000199e+01,1.352030553967269177e-02
3.628000000000000114e+01,1.720643171946976968e-02
3.632000000000000028e+01,1.164659198767890522e-02
3.635999999999999943e+01,1.738667766033952927e-02
3.639999999999999858e+01,1.719096956443216459e-02
3.643999999999999773e+01,8.548303672220130406e-03
3.647999999999999687e+01,1.371672887477577360e-02
3.652000000000000313e+01,2.116771791585590062e-02
3.656000000000000227e+01,6.931065160645018264e-03
3.660000000000000142e+01,1.449557343062325698e-02
3.664000000000000057e+01,1.201511224582379848e-02
3.667999999999999972e+01,1.067577817877304880e-02
3.671999999999999886e+01,4.199660536662013464e-03
3.675999999999999801e+01,1.221949992884589428e-02
3.679999999999999716e+01,2.537550202745649311e-02
3.684000000000000341e+01,1.399026928090206685e-02
3.688000000000000256e+01,2.257989905568243486e-02
3.692000000000000171e+01,2.123870612353477919e-02
3.696000000000000085e+01,1.076569776845263775e-02
3.700000000000000000e+01,2.049584085831097219e-02
3.703999999999999915e+01,1.789814188312983251e-02
3.707999999999999829e+01,2.249119761392900929e-02
3.711999999999999744e+01,2.114846705776789876e-02
3.715999999999999659e+01,1.170121770191639987e-02
3.720000000000000284e+01,2.097325197086791562e-02
3.724000000000000199e+01,7.187925449464961300e-03
3.728000000000000114e+01,1.566034237255597636e-02
3.732000000000000028e+01,1.248978317013483240e-02
3.735999999999999943e+01,1.240080340312921421e-02
3.739999999999999858e+01,1.870357479891415417e-02
3.743999999999999773e+01,2.181001535295042787e-02
3.747999999999999687e+01,1.863824184582371299e-02
3.752000000000000313e+01,1.375400822659988108e-02
3.756000000000000227e+01,1.708782884611457012e-02
3.760000000000000142e+01,1.460001200474297413e-02
3.764000000000000057e+01,1.964538720338647459e-02
3.767999999999999972e+01,2.275001627584128522e-02
3.771999999999999886e+01,1.980472145767341388e-02
3.775999999999999801e+01,2.484919527979737031e-02
3.779999999999999716e+01,1.962042402417388601e-02
3.784000000000000341e+01,2.397943597682933997e-02
3.788000000000000256e+01,2.856643680989548809e-02
3.792000000000000171e+01,2.881567340559615040e-02
3.796000000000000085e+01,2.335742011954995700e-02
3.800000000000000000e+01,3.444972584282917499e-02
3.803999999999999915e+01,2.522413120870404049e-02
3.807999999999999829e+01,2.570046611506253756e-02
3.811999999999999744e+01,2.526335401234572689e-02
3.815999999999999659e+01,2.961998723297471284e-02
3.820000000000000284e+01,3.283488659914707286e-02
3.824000000000000199e+01,3.125544969977088472e-02
3.828000000000000114e+01,2.807770442388566115e-02
3.832000000000000028e+01,3.368874047566915164e-02
3.835999999999999943e+01,3.987020191060838825e-02
3.839999999999999858e+01,4.627965762934168475e-02
3.843999999999999773e+01,4.173101189063235794e-02
3.847999999999999687e+01,3.626892288365158451e-02
3.852000000000000313e+01,4.575938455268223348e-02
3.856000000000000227e+01,5.810315044980349924e-02
3.860000000000000142e+01,5.583621372532485139e-02
3.864000000000000057e+01,5.630843822189102871e-02
3.867999999999999972e+01,4.821958435992990122e-02
3.871999999999999886e+01,5.885002991727692617e-02
3.875999999999999801e+01,5.076059633552459927e-02
3.879999999999999716e+01,5.945001775266624267e-02
3.884000000000000341e+01,6.859572570236653621e-02
3.888000000000000256e+01,6.176100787995476155e-02
3.892000000000000171e+01,6.702524893161497521e-02
3.896000000000000085e+01,5.996166786918970953e-02
3.900000000000000000e+01,6.670920408715903804e-02
3.903999999999999915e+01,6.204206972901679662e-02
3.907999999999999829e+01,6.057067651735507235e-02
3.911999999999999744e+01,7.804687455812128749e-02
3.915999999999999659e+01,6.401908772265804681e-02
3.920000000000000284e+01,8.080985215780710218e-02
3.924000000000000199e+01,9.200728385018074051e-02
3.928000000000000114e+01,9.304562968200276452e-02
3.932000000000000028e+01,1.023020480409377181e-01
3.935999999999999943e+01,1.077914363174002355e-01
3.939999999999999858e+01,1.149926991671404303e-01
3.943999999999999773e+01,1.261887137725136998e-01
3.947999999999999687e+01,1.397814668124675863e-01
3.952000000000000313e+01,1.545153764809560626e-01
3.956000000000000227e+01,1.563507510783545551e-01
3.960000000000000142e+01,1.848955029227351277e-01
3.964000000000000057e+01,2.003134328506443185e-01
3.967999999999999972e+01,2.137906374346084937e-01
3.971999999999999886e+01,2.220169457785423073e-01
3.975999999999999801e+01,2.638012633321691891e-01
3.979999999999999716e+01,2.868657125534634922e-01
3.984000000000000341e+01,3.268231714187538883e-01
3.988000000000000256e+01,3.651823385333303196e-01
3.992000000000000171e+01,4.254568450099557309e-01
3.996000000000000085e+01,4.778551494587027770e-01
4.000000000000000000e+01,5.462333145073414720e-01
4.003999999999999915e+01,6.028543878559837754e-01
4.007999999999999829e+01,6.835595351576295720e-01
4.011999999999999744e+01,7.512520093688780376e-01
4.015999999999999659e+01,8.341253389742486757e-01
4.020000000000000284e+01,8.822986670367619633e-01
4.024000000000000199e+01,9.498761733431013710e-01
4.028000000000000114e+01,9.651755278342024624e-01
4.032000000000000028e+01,9.651793345464196872e-01
4.035999999999999943e+01,9.885823550911417845e-01
4.039999999999999858e+01,1.000000000000000000e+00
4.043999999999999773e+01,9.896158995917845314e-01
4.047999999999999687e+01,9.849387193210019653e-01
4.052000000000000313e+01,9.647377056728886346e-01
4.056000000000000227e+01,9.343776194648597544e-01
4.060000000000000142e+01,8.952281871725867868e-01
4.064000000000000057e+01,8.600735191052927275e-01
4.067999999999999972e+01,7.846258064044390190e-01
4.071999999999999886e+01,7.450189896554660907e-01
4.075999999999999801e+01,6.839528624295845294e-01
4.079999999999999716e+01,6.201470146294657537e-01
4.084000000000000341e+01,5.565691864674783274e-01
4.088000000000000256e+01,5.040630430011419083e-01
4.092000000000000171e+01,4.396856731406609264e-01
4.096000000000000085e+01,3.782757762852983485e-01
4.100000000000000000e+01,3.388953738527320514e-01
4.103999999999999915e+01,3.038521713166000837e-01
4.107999999999999829e+01,2.709774361641726914e-01
4.111999999999999744e+01,2.418691825477919111e-01
4.115999999999999659e+01,2.108202189663264114e-01
4.120000000000000284e+01,1.721233539186448058e-01
4.124000000000000199e+01,1.536296843742601392e-01
4.128000000000000114e+01,1.391307857051727048e-01
4.132000000000000028e+01,1.404976175139219519e-01
4.135999999999999943e+01,1.226880218471465278e-01
4.139999999999999858e+01,1.156076847643989353e-01
4.143999999999999773e+01,1.045320515360412816e-01
4.147999999999999687e+01,9.459759530281701412e-02
4.152000000000000313e+01,9.059835769046319098e-02
4.156000000000000227e+01,8.557156497615751867e-02
4.160000000000000142e+01,7.928892989887388609e-02
4.164000000000000057e+01,7.437576115597424598e-02
4.167999999999999972e+01,6.866332623472848340e-02
4.171999999999999886e+01,5.929802959239330318e-02
4.175999999999999801e+01,6.340144739494242565e-02
4.179999999999999716e+01,6.647731258940897670e-02
4.184000000000000341e+01,5.117576216443797676e-02
4.188000000000000256e+01,5.310967409635822256e-02
4.192000000000000171e+01,5.698377446385423373e-02
4.196000000000000085e+01,5.572114570576822828e-02
4.200000000000000000e+01,6.039374055629104232e-02
4.203999999999999915e+01,5.273854529738353919e-02
4.207999999999999829e+01,5.432874579010489591e-02
4.211999999999999744e+01,5.683184225160657632e-02
4.215999999999999659e+01,5.830738984582953949e-02
4.220000000000000284e+01,6.217970413848445538e-02
4.224000000000000199e+01,6.993265544357799013e-02
4.228000000000000114e+01,7.973994276338663978e-02
4.232000000000000028e+01,9.000355277685787025e-02
4.235999999999999943e+01,1.108822875114983952e-01
4.239999999999999858e+01,1.529915243481569098e-01
4.243999999999999773e+01,2.203262980442216301e-01
4.247999999999999687e+01,3.227029791121927005e-01
4.252000000000000313e+01,4.188014984902547200e-01
4.256000000000000227e+01,4.854506574119409890e-01
4.260000000000000142e+01,5.265313467963042005e-01
4.264000000000000057e+01,5.146490458584630501e-01
4.267999999999999972e+01,4.732032418728450707e-01
4.271999999999999886e+01,4.229681138321609302e-01
4.275999999999999801e+01,3.605193470019897317e-01
4.279999999999999716e+01,3.005814969432590300e-01
4.284000000000000341e+01,2.259188444829494102e-01
4.288000000000000256e+01,1.862981035509947980e-01
4.292000000000000171e+01,1.394860543788957463e-01
4.296000000000000085e+01,1.069417389893758535e-01
4.300000000000000000e+01,8.855101395974443457e-02
4.303999999999999915e+01,5.977295446350841535e-02
4.307999999999999829e+01,5.462242474029928990e-02
4.311999999999999744e+01,5.301010965870939229e-02
4.315999999999999659e+01,4.432063266917976585e-02
4.320000000000000284e+01,4.053909721258545928e-02
4.324000000000000199e+01,2.922382532599905255e-02
4.328000000000000114e+01,2.875197539708501671e-02
4.332000000000000028e+01,3.969426703316582261e-02
4.335999999999999943e+01,3.499861096436690522e-02
4.339999999999999858e+01,2.859055588326712971e-02
4.343999999999999773e+01,2.480756806226142031e-02
4.347999999999999687e+01,2.342136024032357572e-02
4.352000000000000313e+01,2.899768636651944148e-02
4.356000000000000227e+01,2.395839575282301612e-02
4.360000000000000142e+01,2.633821527189223258e-02
4.364000000000000057e+01,3.316940554264820318e-02
4.367999999999999972e+01,2.093833628361758958e-02
4.371999999999999886e+01,2.229014567440560507e-02
4.375999999999999801e+01,2.124469676368352308e-02
4.379999999999999716e+01,2.807493541729346592e-02
4.384000000000000341e+01,2.326226569550550113e-02
4.388000000000000256e+01,1.799278417084599138e-02
4.392000000000000171e+01,1.900097772075580449e-02
4.396000000000000085e+01,2.560198373086663981e-02
4.400000000000000000e+01,2.786528868163265851e-02
4.403999999999999915e+01,2.522017379702114898e-02
4.407999999999999829e+01,2.942345484123608593e-02
4.411999999999999744e+01,2.917489223470529774e-02
4.415999999999999659e+01,2.447448639307368834e-02
4.420000000000000284e+01,1.589295692366374593e-02
4.424000000000000199e+01,1.895386625575177716e-02
4.428000000000000114e+01,1.676392673132495043e-02
4.432000000000000028e+01,2.792858441471871705e-02
4.435999999999999943e+01,2.722205144942687130e-02
4.439999999999999858e+01,2.936888339637706846e-02
4.443999999999999773e+01,2.729216269441158207e-02
4.447999999999999687e+01,1.779586228578056498e-02
4.452000000000000313e+01,2.633405853495108737e-02
4.456000000000000227e+01,3.167599792716026957e-02
4.460000000000000142e+01,2.697305057792150421e-02
4.464000000000000057e+01,3.345597083328734345e-02
4.467999999999999972e+01,2.989400517849493885e-02
4.471999999999999886e+01,3.911592169629427712e-02
4.475999999999999801e+01,3.338476808679750885e-02
4.479999999999999716e+01,3.929605909782695611e-02
4.484000000000000341e+01,3.630390424463294380e-02
4.488000000000000256e+01,3.308323565636021868e-02
4.492000000000000171e+01,3.602610869544310701e-02
4.496000000000000085e+01,2.960896176389503365e-02
4.500000000000000000e+01,2.889878193765020586e-02
4.503999999999999915e+01,3.572187104572192851e-02
4.507999999999999829e+01,3.250007840008414112e-02
4.511999999999999744e+01,4.171974056848022638e-02
4.515999999999999659e+01,3.826921353273947390e-02
4.520000000000000284e+01,4.189538174055262854e-02
4.524000000000000199e+01,4.437988924740674662e-02
4.528000000000000114e+01,4.366814737890725023e-02
4.532000000000000028e+01,4.307032786242926542e-02
4.535999999999999943e+01,4.544002707200577029e-02
4.539999999999999858e+01,4.084673148809095378e-02
4.543999999999999773e+01,5.440208596014523695e-02
4.547999999999999687e+01,4.101927476128097022e-02
4.552000000000000313e+01,4.384466919797166268e-02
4.556000000000000227e+01,4.746885151056622759e-02
4.560000000000000142e+01,5.052209605468323955e-02
4.564000000000000057e+01,5.574385536602017438e-02
4.567999999999999972e+01,5.697036259010356679e-02
4.571999999999999886e+01,5.591377571761111526e-02
4.575999999999999801e+01,5.577012263758247129e-02
4.579999999999999716e+01,7.183467810262285369e-02
4.584000000000000341e+01,6.564096900930507794e-02
4.588000000000000256e+01,6.115920182373438263e-02
4.592000000000000171e+01,7.756554180192389014e-02
4.596000000000000085e+01,7.719252270879509159e-02
4.600000000000000000e+01,9.211456353227552574e-02
4.603999999999999915e+01,8.717536248066817817e-02
4.607999999999999829e+01,8.383396157669677218e-02
4.611999999999999744e+01,1.033211151664138183e-01
4.615999999999999659e+01,1.192695970099579145e-01
4.620000000000000284e+01,1.117042358142569247e-01
4.624000000000000199e+01,1.238855467241198605e-01
4.628000000000000114e+01,1.375505160215075573e-01
4.632000000000000028e+01,1.424261986718676209e-01
4.635999999999999943e+01,1.526664310444499351e-01
4.639999999999999858e+01,1.616508709314390668e-01
4.643999999999999773e+01,1.917517110622427856e-01
4.647999999999999687e+01,1.990235740933287423e-01
4.652000000000000313e+01,2.125731392159007083e-01
4.656000000000000227e+01,2.292043793722088885e-01
4.660000000000000142e+01,2.353341782159705797e-01
4.664000000000000057e+01,2.598409272617187016e-01
4.667999999999999972e+01,2.707643521911509144e-01
4.671999999999999886e+01,2.856826045235830724e-01
4.675999999999999801e+01,2.970621913445151696e-01
4.679999999999999716e+01,2.989676334761450782e-01
4.684000000000000341e+01,3.118306783961764528e-01
4.688000000000000256e+01,3.115669766314584921e-01
4.692000000000000171e+01,3.404097487817803191e-01
4.696000000000000085e+01,3.374061855916163366e-01
4.700000000000000000e+01,3.245860482753677445e-01
4.703999999999999915e+01,3.312843037009095548e-01
4.707999999999999829e+01,3.183496157348013056e-01
4.711999999999999744e+01,3.087248962981285483e-01
4.715999999999999659e+01,3.177054201434966196e-01
4.720000000000000284e+01,3.072812895208202888e-01
4.724000000000000199e+01,2.903507585776587963e-01
4.728000000000000114e+01,2.736483141914531902e-01
4.732000000000000028e+01,2.564890937478350730e-01
4.735999999999999943e+01,2.497167623043242135e-01
4.739999999999999858e+01,2.263933744293814831e-01
4.743999999999999773e+01,2.182509175959279346e-01
4.747999999999999687e+01,1.933291174856611450e-01
4.752000000000000313e+01,1.952309207583968753e-01
4.756000000000000227e+01,1.675692716920303138e-01
4.760000000000000142e+01,1.507510894729823803e-01
4.764000000000000057e+01,1.435207922952072279e-01
4.767999999999999972e+01,1.301265308840471036e-01
4.771999999999999886e+01,1.192432373686468927e-01
4.775999999999999801e+01,1.055061517628817364e-01
4.779999999999999716e+01,9.793263771090303382e-02
4.784000000000000341e+01,9.001649684323070888e-02
4.788000000000000256e+01,7.958899664713464661e-02
4.792000000000000171e+01,7.087345955667415098e-02
4.796000000000000085e+01,6.672348194588222092e-02
4.800000000000000000e+01,7.238968079383795162e-02
4.803999999999999915e+01,6.024924763898899943e-02
4.807999999999999829e+01,5.598454652247351199e-02
4.811999999999999744e+01,5.217622836812718656e-02
4.815999999999999659e+01,5.156374571164746429e-02
4.820000000000000284e+01,3.713966705668600432e-02
4.824000000000000199e+01,4.348957583455183296e-02
4.828000000000000114e+01,4.036535530197559590e-02
4.832000000000000028e+01,3.039231415631926669e-02
4.835999999999999943e+01,3.046374088688544313e-02
4.839999999999999858e+01,3.453001247753619690e-02
4.843999999999999773e+01,3.950924570885722131e-02
4.847999999999999687e+01,3.661236544465786003e-02
4.852000000000000313e+01,2.492622139389883903e-02
4.856000000000000227e+01,3.287262971777085707e-02
4.860000000000000142e+01,2.871960377464269354e-02
4.864000000000000057e+01,1.954406195696181681e-02
4.867999999999999972e+01,2.029884750232692145e-02
4.871999999999999886e+01,2.379289901124479259e-02
4.875999999999999801e+01,2.808577164765637540e-02
4.879999999999999716e+01,2.073578744863426027e-02
4.884000000000000341e+01,2.799602964699413749e-02
4.888000000000000256e+01,2.840745705130214016e-02
4.892000000000000171e+01,2.185592623886762134e-02
4.896000000000000085e+01,2.021239681223006152e-02
4.900000000000000000e+01,2.244957464201462541e-02
4.903999999999999915e+01,2.114811065205704846e-02
4.907999999999999829e+01,1.779187515636399333e-02
4.911999999999999744e+01,1.660419058899478828e-02
4.915999999999999659e+01,1.986793413230486527e-02
4.920000000000000284e+01,1.639701004505752721e-02
4.924000000000000199e+01,1.395319974971341581e-02
4.928000000000000114e+01,1.402037356027922670e-02
4.932000000000000028e+01,1.180449068230777533e-02
4.935999999999999943e+01,2.043209294002937965e-02
4.939999999999999858e+01,2.198259813041135088e-02
4.943999999999999773e+01,1.645600666909861204e-02
4.947999999999999687e+01,1.686471654198592324e-02
4.952000000000000313e+01,1.658838554125769554e-02
4.956000000000000227e+01,1.711088398092062979e-02
4.960000000000000142e+01,8.844129856435428705e-03
4.964000000000000057e+01,1.758463104727578385e-02
4.967999999999999972e+01,1.833488737360641080e-02
4.971999999999999886e+01,1.862839258121690850e-02
4.975999999999999801e+01,8.420489312225915013e-03
4.979999999999999716e+01,1.716028827284383010e-02
4.984000000000000341e+01,1.414309736645924347e-02
4.988000000000000256e+01,1.626220508237471996e-02
4.992000000000000171e+01,1.495682396107080037e-02
4.996000000000000085e+01,2.129890673673828783e-02
5.000000000000000000e+01,1.497085060129849272e-02
5.003999999999999915e+01,1.138207414569228533e-02
5.007999999999999829e+01,1.258716687560394905e-02
5.011999999999999744e+01,9.911197493178454734e-03
5.015999999999999659e+01,1.590998863096845448e-02
5.020000000000000284e+01,1.357610879262553978e-02
5.024000000000000199e+01,1.204106546063661923e-02
5.028000000000000114e+01,1.541403723072544071e-02
5.032000000000000028e+01,1.969999017679356992e-02
5.035999999999999943e+01,1.314210936592669250e-02
5.039999999999999858e+01,1.377512167078272058e-02
5.043999999999999773e+01,6.417897008381642267e-03
5.047999999999999687e+01,1.344262810813132147e-02
5.052000000000000313e+01,8.710376406841290400e-03
5.056000000000000227e+01,1.459333463391945113e-02
5.060000000000000142e+01,1.773667411975411376e-02
5.064000000000000057e+01,1.756967608831262392e-02
5.067999999999999972e+01,1.352162176356215550e-02
5.071999999999999886e+01,1.335429256796335021e-02
5.075999999999999801e+01,8.849332557003231417e-03
5.079999999999999716e+01,1.130698214154369184e-02
5.084000000000000341e+01,2.118381709057171047e-02
5.088000000000000256e+01,1.405305641592970688e-02
5.092000000000000171e+01,1.137374214034133670e-02
5.096000000000000085e+01,1.383073770946466677e-02
5.100000000000000000e+01,4.530755465286740585e-03
5.103999999999999915e+01,1.851595419245878268e-02
5.107999999999999829e+01,1.537941553584965849e-02
5.111999999999999744e+01,1.498216778148561343e-02
5.115999999999999659e+01,1.161701942823532493e-02
5.120000000000000284e+01,1.327403957523040634e-02
5.124000000000000199e+01,1.515918742802365923e-02
5.128000000000000114e+01,1.841390178561525676e-02
5.132000000000000028e+01,2.075530629693947415e-02
5.135999999999999943e+01,1.270946279579267604e-02
5.139999999999999858e+01,1.379496805319448821e-02
5.143999999999999773e+01,1.465202774127675328e-02
5.147999999999999687e+01,1.071488874226333640e-02
5.152000000000000313e+01,1.282721611367399275e-02
5.156000000000000227e+01,1.756469512108783243e-02
5.160000000000000142e+01,2.116057951507743437e-02
5.164000000000000057e+01,1.493993799778768616e-02
5.167999999999999972e+01,1.065958633342259550e-02
5.171999999999999886e+01,1.596716210610727577e-02
5.175999999999999801e+01,1.419766533449981147e-02
5.179999999999999716e+01,2.407068592127131756e-02
5.184000000000000341e+01,1.088649742806690156e-02
5.188000000000000256e+01,1.710660813134689748e-02
5.192000000000000171e+01,8.944442299440641050e-03
5.196000000000000085e+01,1.151164478180861754e-02
5.200000000000000000e+01,1.248068145385898380e-02
5.203999999999999915e+01,1.459100485128915319e-02
5.207999999999999829e+01,1.772847155140852560e-02
5.211999999999999744e+01,1.881119833480277351e-02
5.215999999999999659e+01,1.350171976036677879e-02
5.220000000000000284e+01,1.903575583240978836e-02
5.224000000000000199e+01,1.247039546113605513e-02
5.228000000000000114e+01,1.526468066926923647e-02
5.232000000000000028e+01,1.349306359552006167e-02
5.235999999999999943e+01,1.012328445225710999e-02
5.239999999999999858e+01,1.177568627858573136e-02
5.243999999999999773e+01,1.639568040011131142e-02
5.247999999999999687e+01,1.245473956059066356e-02
5.252000000000000313e+01,1.912902901603696568e-02
5.256000000000000227e+01,1.518779525168730341e-02
5.260000000000000142e+01,1.592631302014699268e-02
5.264000000000000057e+01,2.065971970704777796e-02
5.267999999999999972e+01,2.516469370962003127e-02
5.271999999999999886e+01,2.441890655674552532e-02
5.275999999999999801e+01,2.926602330594405346e-02
5.279999999999999716e+01,3.445542780942636996e-02
5.284000000000000341e+01,3.096975725433074797e-02
5.288000000000000256e+01,2.691322457812442281e-02
5.292000000000000171e+01,3.438507706001798364e-02
5.296000000000000085e+01,2.507764320844592040e-02
5.300000000000000000e+01,1.702564989606616605e-02
5.303999999999999915e+01,2.483950884547089441e-02
5.307999999999999829e+01,2.306514452348271821e-02
5.311999999999999744e+01,2.243207814928593891e-02
5.315999999999999659e+01,2.054328953347943701e-02
5.320000000000000284e+01,2.036651888843168598e-02
5.324000000000000199e+01,2.064618440809678698e-02
5.328000000000000114e+01,1.487608772299470715e-02
5.332000000000000028e+01,1.173116096227024008e-02
5.335999999999999943e+01,1.737517181168657734e-02
5.339999999999999858e+01,1.776842857161900491e-02
5.343999999999999773e+01,1.861812357448868957e-02
5.347999999999999687e+01,1.878281885258521050e-02
5.352000000000000313e+01,1.232703522810611914e-02
5.356000000000000227e+01,1.363289674697253442e-02
5.360000000000000142e+01,1.665078039304641530e-02
5.364000000000000057e+01,1.476034395851222140e-02
5.367999999999999972e+01,1.697895108752128096e-02
5.371999999999999886e+01,1.200636220050150735e-02
5.375999999999999801e+01,2.175819467351863129e-02
5.379999999999999716e+01,1.644290711664534582e-02
5.384000000000000341e+01,2.025899367265799819e-02
5.388000000000000256e+01,2.019405718695149385e-02
5.392000000000000171e+01,1.533494736848651369e-02
5.396000000000000085e+01,1.492731553808553623e-02
5.400000000000000000e+01,1.566099079966310967e-02
5.403999999999999915e+01,1.776426124553522404e-02
5.407999999999999829e+01,2.157955880635331961e-02
5.411999999999999744e+01,1.203989723747291365e-02
5.415999999999999659e+01,1.574079128671629704e-02
5.420000000000000284e+01,1.567480945773504220e-02
5.424000000000000199e+01,8.531780854443803130e-03
5.428000000000000114e+01,1.896677497296092932e-02
5.432000000000000028e+01,1.673167507001706647e-02
5.435999999999999943e+01,1.255600236479648309e-02
5.439999999999999858e+01,1.705513423814790375e-02
5.443999999999999773e+01,1.904297494883468514e-02
5.447999999999999687e+01,1.977510713419251831e-02
5.452000000000000313e+01,1.537064070645844174e-02
5.456000000000000227e+01,1.461865163311269408e-02
5.460000000000000142e+01,1.808985952147784682e-02
5.464000000000000057e+01,1.505474398365936814e-02
5.467999999999999972e+01,1.886813452055860485e-02
5.471999999999999886e+01,1.560448327088628621e-02
5.475999999999999801e+01,1.485187307047151385e-02
5.479999999999999716e+01,1.409913989157749944e-02
5.484000000000000341e+01,2.053734596498725529e-02
5.488000000000000256e+01,1.944193656106293563e-02
5.492000000000000171e+01,1.594938482054793910e-02
5.496000000000000085e+01,1.827804751924506227e-02
5.500000000000000000e+01,1.364381517922027588e-02
5.503999999999999915e+01,1.722781871474340920e-02
5.507999999999999829e+01,2.024098298962378334e-02
5.511999999999999744e+01,1.731854801773662078e-02
5.515999999999999659e+01,1.393941845483203865e-02
5.520000000000000284e+01,1.569664279499561471e-02
5.524000000000000199e+01,1.562744731540519419e-02
5.528000000000000114e+01,1.441669546171880228e-02
5.532000000000000028e+01,1.548870279964704479e-02
5.535999999999999943e+01,1.838689439149272450e-02
5.539999999999999858e+01,1.044130459765736478e-02
5.543999999999999773e+01,1.927474271098305464e-02
5.547999999999999687e+01,1.657953723990426495e-02
5.552000000000000313e+01,1.936312051205922244e-02
5.556000000000000227e+01,1.940713658293498692e-02
5.560000000000000142e+01,1.853788728154476956e-02
5.564000000000000057e+01,1.698366070020451701e-02
5.567999999999999972e+01,2.033750533299991461e-02
5.571999999999999886e+01,2.072349675042448741e-02
5.575999999999999801e+01,2.099523132651128290e-02
5.579999999999999716e+01,1.613038059014204259e-02
5.584000000000000341e+01,1.765747262884975050e-02
5.588000000000000256e+01,1.781472685146349294e-02
5.592000000000000171e+01,1.956988347035182318e-02
5.596000000000000085e+01,1.972691542776495652e-02
5.600000000000000000e+01,1.794339162434109916e-02
5.603999999999999915e+01,1.992650439250144567e-02
5.607999999999999829e+01,1.928419920110145333e-02
5.611999999999999744e+01,2.412068898760826377e-02
5.615999999999999659e+01,2.792977538254183198e-02
5.620000000000000284e+01,1.781320506963267325e-02
5.624000000000000199e+01,1.443101320325568607e-02
5.628000000000000114e+01,1.960950161242422038e-02
5.632000000000000028e+01,1.976555395085558692e-02
5.635999999999999943e+01,1.683961588589863445e-02
5.639999999999999858e+01,1.905004419335601731e-02
5.643999999999999773e+01,2.080379121043187882e-02
5.647999999999999687e+01,1.742095998101457835e-02
5.652000000000000313e+01,1.997350323929489649e-02
5.656000000000000227e+01,2.092792807077306638e-02
5.660000000000000142e+01,1.560433751933744742e-02
5.664000000000000057e+01,1.986872552927088087e-02
5.667999999999999972e+01,1.990968807761970757e-02
5.671999999999999886e+01,1.892325305342348885e-02
5.675999999999999801e+01,1.953472915404420862e-02
5.679999999999999716e+01,1.934709619008065720e-02
5.684000000000000341e+01,2.486655336230270824e-02
5.688000000000000256e+01,2.022710755771718258e-02
5.692000000000000171e+01,2.266447878063329244e-02
5.696000000000000085e+01,2.361787957153147974e-02
5.700000000000000000e+01,1.943470751931984999e-02
5.703999999999999915e+01,1.502314808807081806e-02
5.707999999999999829e+01,1.825912653858055568e-02
5.711999999999999744e+01,2.252230066303344269e-02
5.715999999999999659e+01,2.130647209194942368e-02
5.720000000000000284e+01,2.408557982282194185e-02
5.724000000000000199e+01,2.013010346775647580e-02
5.728000000000000114e+01,2.142514646762813668e-02
5.732000000000000028e+01,2.523125711802910731e-02
5.735999999999999943e+01,2.401494250445962084e-02
5.739999999999999858e+01,2.017322364761059417e-02
5.743999999999999773e+01,2.512048479667940495e-02
5.747999999999999687e+01,2.356145203035053814e-02
5.752000000000000313e+01,2.051845465103203231e-02
5.756000000000000227e+01,2.774830842292779626e-02
5.760000000000000142e+01,2.481926669962368492e-02
5.764000000000000057e+01,2.337400140698818810e-02
5.767999999999999972e+01,2.295593760732407215e-02
5.771999999999999886e+01,1.957004137453277615e-02
5.775999999999999801e+01,2.086395029273941867e-02
5.779999999999999716e+01,1.987489063912182760e-02
5.784000000000000341e+01,2.059789717106821211e-02
5.788000000000000256e+01,2.702800464596688892e-02
5.792000000000000171e+01,2.569624055587072659e-02
5.796000000000000085e+01,2.721798228162842018e-02
5.800000000000000000e+01,2.303244236372046713e-02
5.803999999999999915e+01,2.752174484806794649e-02
5.807999999999999829e+01,2.550475965169085243e-02
5.811999999999999744e+01,2.748272031710239163e-02
5.815999999999999659e+01,1.827449676132252704e-02
5.820000000000000284e+01,2.573118595386438348e-02
5.824000000000000199e+01,2.143097256482693821e-02
5.828000000000000114e+01,2.512074104190103671e-02
5.832000000000000028e+01,2.435881342215924505e-02
5.835999999999999943e+01,2.770597799641082853e-02
5.839999999999999858e+01,2.180740609504418920e-02
5.843999999999999773e+01,2.606755065074354769e-02
5.847999999999999687e+01,2.610428844887758768e-02
5.852000000000000313e+01,2.990768858857789300e-02
5.856000000000000227e+01,3.028668967035126960e-02
5.860000000000000142e+01,2.678471675650054284e-02
5.864000000000000057e+01,2.134221551437442271e-02
5.867999999999999972e+01,2.457456332482170144e-02
5.871999999999999886e+01,2.666539050663207025e-02
5.875999999999999801e+01,2.167921788200304414e-02
5.879999999999999716e+01,2.810734767693465197e-02
5.884000000000000341e+01,2.608875243669029828e-02
5.888000000000000256e+01,2.863583014716481953e-02
5.892000000000000171e+01,2.102402607872023640e-02
5.896000000000000085e+01,2.573967679909996975e-02
5.900000000000000000e+01,2.280761101523198081e-02
5.903999999999999915e+01,2.535437055134648343e-02
5.907999999999999829e+01,2.242214734287795164e-02
5.911999999999999744e+01,2.416974341733306095e-02
5.915999999999999659e+01,2.317780969854744272e-02
5.920000000000000284e+01,2.264237407556074499e-02
5.924000000000000199e+01,1.959569716729417377e-02
5.928000000000000114e+01,2.465315635459642413e-02
5.932000000000000028e+01,2.434577912952040277e-02
5.935999999999999943e+01,2.723435378287539579e-02
5.939999999999999858e+01,2.373079831012214758e-02
5.943999999999999773e+01,2.547778463712909239e-02
5.947999999999999687e+01,2.950757338281745704e-02
5.952000000000000313e+01,2.691694557266114188e-02
5.956000000000000227e+01,2.660912101247597111e-02
5.960000000000000142e+01,1.990916840440692601e-02
5.964000000000000057e+01,2.793369825617108074e-02
5.967999999999999972e+01,2.477205968124897642e-02
5.971999999999999886e+01,3.108428783401564338e-02
5.975999999999999801e+01,2.267188940298455260e-02
5.979999999999999716e+01,2.407579004593856514e-02
5.984000000000000341e+01,2.068557887157524214e-02
5.988000000000000256e+01,2.517122235078285419e-02
5.992000000000000171e+01,2.577590555064708869e-02
5.996000000000000085e+01,2.512493716852991568e-02
