2.003999999999999915e+01,8.219059411587589445e-03
2.007999999999999829e+01,0.000000000000000000e+00
2.012000000000000099e+01,1.352036923907926937e-02
2.016000000000000014e+01,1.936659175068098510e-02
2.019999999999999929e+01,1.604667574133062519e-02
2.023999999999999844e+01,1.400457354535811043e-02
2.028000000000000114e+01,5.780321305390033297e-03
2.032000000000000028e+01,1.268810618643290838e-02
2.035999999999999943e+01,1.639772950043649757e-02
2.039999999999999858e+01,1.776175990760401821e-02
2.044000000000000128e+01,1.763276606813850289e-02
2.048000000000000043e+01,1.771588407994303255e-02
2.051999999999999957e+01,2.078195933804607640e-02
2.055999999999999872e+01,1.681332567197393185e-02
2.060000000000000142e+01,1.710650285375638763e-02
2.064000000000000057e+01,9.299264259244171063e-03
2.067999999999999972e+01,1.300066217804374778e-02
2.071999999999999886e+01,1.009363978152974517e-02
2.076000000000000156e+01,1.784268890563306398e-02
2.080000000000000071e+01,1.152335507955251637e-02
2.083999999999999986e+01,2.097549984529602229e-02
2.087999999999999901e+01,1.742497340298658839e-02
2.092000000000000171e+01,1.472599783775462544e-02
2.096000000000000085e+01,1.202600693440277618e-02
2.100000000000000000e+01,2.424493207518656560e-02
2.103999999999999915e+01,2.452690019505429642e-02
2.107999999999999829e+01,1.308505437593396499e-02
2.112000000000000099e+01,1.080729806398210598e-02
2.116000000000000014e+01,2.003819293537688687e-02
2.119999999999999929e+01,2.031612170781789753e-02
2.123999999999999844e+01,2.592159018528537862e-02
2.128000000000000114e+01,2.193466943052976847e-02
2.132000000000000028e+01,2.029130479385598748e-02
2.135999999999999943e+01,1.758122774696648308e-02
2.139999999999999858e+01,1.295187207466389281e-02
2.144000000000000128e+01,1.876546684610325838e-02
2.148000000000000043e+01,2.415177845311082538e-02
2.151999999999999957e+01,1.163317564533621756e-02
2.155999999999999872e+01,1.445978971558836007e-02
2.160000000000000142e+01,1.579341499179215055e-02
2.164000000000000057e+01,1.627347827472560779e-02
2.167999999999999972e+01,3.273818768146945918e-02
2.171999999999999886e+01,2.746143531629537463e-02
2.176000000000000156e+01,2.452825251673522444e-02
2.180000000000000071e+01,2.031522889506639368e-02
2.183999999999999986e+01,2.739773537986888580e-02
2.187999999999999901e+01,1.870675704666614064e-02
2.192000000000000171e+01,2.195073684321566590e-02
2.196000000000000085e+01,1.070008542331588736e-02
2.200000000000000000e+01,2.374662242482644681e-02
2.203999999999999915e+01,1.846197718524287060e-02
2.207999999999999829e+01,1.253692525934617039e-02
2.212000000000000099e+01,1.215258179296535741e-02
2.216000000000000014e+01,1.752208986802823373e-02
2.219999999999999929e+01,1.884092517348620599e-02
2.223999999999999844e+01,1.376452847816679939e-02
2.228000000000000114e+01,1.465512885122491685e-02
2.232000000000000028e+01,2.215215309343871244e-02
2.235999999999999943e+01,1.963053739215814622e-02
2.239999999999999858e+01,1.710795036286299337e-02
2.244000000000000128e+01,1.671581182230646306e-02
2.248000000000000043e+01,1.781469741471629689e-02
2.251999999999999957e+01,2.658572228592165354e-02
2.255999999999999872e+01,2.086213427822149538e-02
2.260000000000000142e+01,1.535072291444640122e-02
2.264000000000000057e+01,2.369256842030150953e-02
2.267999999999999972e+01,1.540838612050955680e-02
2.271999999999999886e+01,3.142141424718047221e-02
2.276000000000000156e+01,1.972504032310830671e-02
2.280000000000000071e+01,1.868480026730249752e-02
2.283999999999999986e+01,1.124934654826312448e-02
2.287999999999999901e+01,1.574888029904614531e-02
2.292000000000000171e+01,1.641090514470189624e-02
2.296000000000000085e+01,2.517136643553522998e-02
2.300000000000000000e+01,1.879780271672014044e-02
2.303999999999999915e+01,2.137524532578873385e-02
2.307999999999999829e+01,3.077227689099346075e-02
2.312000000000000099e+01,3.249525219393482878e-02
2.316000000000000014e+01,1.226366787563829171e-02
2.319999999999999929e+01,1.547674121613956330e-02
2.323999999999999844e+01,2.636197584048879244e-02
2.328000000000000114e+01,1.998177541845975666e-02
2.332000000000000028e+01,2.404458289781006078e-02
2.335999999999999943e+01,2.640131351381547198e-02
2.339999999999999858e+01,1.660801737715223922e-02
2.344000000000000128e+01,1.001090958892588388e-02
2.348000000000000043e+01,2.280877268794202425e-02
2.351999999999999957e+01,1.535722204364688842e-02
2.355999999999999872e+01,1.706983547919834615e-02
2.360000000000000142e+01,1.984722355894804474e-02
2.364000000000000057e+01,1.239286895587191940e-02
2.367999999999999972e+01,1.495524953785130375e-02
2.371999999999999886e+01,1.069615963281131052e-02
2.376000000000000156e+01,9.846409715656588221e-03
2.380000000000000071e+01,1.837397307279103886e-02
2.383999999999999986e+01,2.157206262639013716e-02
2.387999999999999901e+01,2.221152377148221183e-02
2.392000000000000171e+01,1.816093913631990422e-02
2.396000000000000085e+01,1.986426105523288188e-02
2.400000000000000000e+01,1.431983732579680986e-02
2.403999999999999915e+01,2.305499697244328683e-02
2.407999999999999829e+01,1.750873205472042865e-02
2.412000000000000099e+01,7.698711188107826633e-03
2.416000000000000014e+01,2.197280289863821554e-02
2.419999999999999929e+01,1.834206210208237653e-02
2.423999999999999844e+01,1.982581083884718195e-02
2.428000000000000114e+01,1.491438992248353412e-02
2.432000000000000028e+01,2.897168184707368810e-02
2.435999999999999943e+01,8.925364838286603195e-03
2.439999999999999858e+01,1.850485608671097182e-02
2.444000000000000128e+01,2.190232443144362814e-02
2.448000000000000043e+01,1.442865018763667996e-02
2.451999999999999957e+01,2.080829027109736343e-02
2.455999999999999872e+01,1.013567628769825556e-02
2.460000000000000142e+01,1.203752792002228331e-02
2.464000000000000057e+01,3.013725800079807005e-02
2.467999999999999972e+01,1.008369359914421289e-02
2.471999999999999886e+01,1.795081235932495176e-02
2.476000000000000156e+01,2.368561332491306987e-02
2.480000000000000071e+01,2.217269309221058665e-02
2.483999999999999986e+01,1.469090404027064561e-02
2.487999999999999901e+01,1.935730544272424442e-02
2.492000000000000171e+01,1.059487539107004973e-02
2.496000000000000085e+01,1.589891497364053635e-02
2.500000000000000000e+01,2.226777198801144567e-02
2.503999999999999915e+01,1.201067332440776576e-02
2.507999999999999829e+01,1.496748052483741834e-02
2.512000000000000099e+01,1.664454837090086417e-02
2.516000000000000014e+01,1.896015481992638363e-02
2.519999999999999929e+01,1.253605927971526701e-02
2.523999999999999844e+01,2.678583957342545521e-02
2.528000000000000114e+01,1.801541574142743671e-02
2.532000000000000028e+01,1.180181213722854977e-02
2.535999999999999943e+01,1.624442064148298379e-02
2.539999999999999858e+01,1.493131930096589649e-02
2.544000000000000128e+01,2.534014181103327532e-02
2.548000000000000043e+01,2.317271741973373975e-02
2.551999999999999957e+01,1.908614032082218276e-02
2.555999999999999872e+01,1.094899314255112430e-02
2.560000000000000142e+01,1.751776073682659654e-02
2.564000000000000057e+01,1.321542119514726964e-02
2.567999999999999972e+01,1.615903379114411176e-02
2.571999999999999886e+01,1.228123702526761479e-02
2.576000000000000156e+01,1.415740182609787415e-02
2.580000000000000071e+01,1.581955735223677939e-02
2.583999999999999986e+01,1.854655598273752953e-02
2.587999999999999901e+01,1.743613617332715263e-02
2.592000000000000171e+01,1.398029216248382681e-02
2.596000000000000085e+01,1.904926000338736519e-02
2.600000000000000000e+01,1.814939447763816091e-02
2.603999999999999915e+01,3.088974787484250265e-02
2.607999999999999829e+01,1.997049601812202202e-02
2.612000000000000099e+01,1.629720974660979482e-02
2.616000000000000014e+01,1.880418098568359397e-02
2.619999999999999929e+01,1.811316914314477569e-02
2.623999999999999844e+01,2.381555911562293487e-02
2.628000000000000114e+01,1.481030804254233023e-02
2.632000000000000028e+01,2.136356118476098395e-02
2.635999999999999943e+01,2.237427568170339762e-02
2.639999999999999858e+01,2.040015506897274733e-02
2.644000000000000128e+01,1.522805870964704864e-02
2.648000000000000043e+01,1.325224360898027282e-02
2.651999999999999957e+01,1.596470400545053903e-02
2.655999999999999872e+01,1.505290860398440442e-02
2.660000000000000142e+01,1.222199350248507135e-02
2.664000000000000057e+01,1.088222967425607653e-02
2.667999999999999972e+01,1.764101598397640330e-02
2.671999999999999886e+01,2.056240952634700095e-02
2.676000000000000156e+01,1.666242549192026301e-02
2.680000000000000071e+01,1.766386737157610298e-02
2.683999999999999986e+01,1.674619688621621291e-02
2.687999999999999901e+01,1.071228736696812171e-02
2.692000000000000171e+01,1.981061668171307452e-02
2.696000000000000085e+01,2.294014196987544801e-02
2.700000000000000000e+01,1.136204821753169190e-02
2.703999999999999915e+01,1.939217601461551074e-02
2.707999999999999829e+01,1.505924766987440898e-02
2.712000000000000099e+01,2.010373406716504940e-02
2.716000000000000014e+01,1.981884812866281306e-02
2.719999999999999929e+01,1.399144921744559060e-02
2.723999999999999844e+01,1.327863152726810846e-02
2.728000000000000114e+01,1.682782884293317419e-02
2.732000000000000028e+01,1.419509127511689624e-02
2.735999999999999943e+01,1.262724326677346250e-02
2.739999999999999858e+01,1.340313719695597657e-02
2.744000000000000128e+01,1.289936267794179747e-02
2.748000000000000043e+01,1.985473716866027749e-02
2.751999999999999957e+01,1.210250851141059063e-02
2.755999999999999872e+01,1.117000573062431820e-02
2.760000000000000142e+01,8.318413812377923808e-03
2.764000000000000057e+01,1.484425252870119442e-02
2.767999999999999972e+01,2.477955103819606819e-02
2.771999999999999886e+01,1.446556416718644371e-02
2.776000000000000156e+01,7.987323253204356086e-03
2.780000000000000071e+01,1.259165273920390474e-02
2.783999999999999986e+01,1.634260971988605454e-02
2.787999999999999901e+01,2.030590471487882590e-02
2.792000000000000171e+01,9.561608786932679696e-03
2.796000000000000085e+01,1.672042765058105382e-02
2.800000000000000000e+01,1.087679291169659640e-02
2.803999999999999915e+01,1.036090570333537964e-02
2.807999999999999829e+01,1.368077423202503605e-02
2.812000000000000099e+01,1.763927182889297660e-02
2.816000000000000014e+01,1.285815790174053320e-02
2.819999999999999929e+01,1.404422197339807478e-02
2.823999999999999844e+01,2.119746526636855782e-02
2.828000000000000114e+01,9.806575169275731987e-03
2.832000000000000028e+01,1.290854111550316166e-02
2.835999999999999943e+01,1.537029230837617770e-02
2.839999999999999858e+01,6.321595139720856578e-03
2.844000000000000128e+01,1.091319024419436928e-02
2.848000000000000043e+01,1.315943938742192461e-02
2.851999999999999957e+01,1.156835077593124615e-02
2.855999999999999872e+01,1.594445116577689059e-02
2.860000000000000142e+01,1.158095347913423202e-02
2.864000000000000057e+01,1.318464723883373650e-02
2.867999999999999972e+01,1.414813602520220703e-02
2.871999999999999886e+01,1.234000246649218785e-02
2.876000000000000156e+01,1.074423381715716892e-02
2.880000000000000071e+01,1.852593125497650067e-02
2.883999999999999986e+01,1.223949146569926205e-02
2.887999999999999901e+01,9.362548144681218446e-03
2.892000000000000171e+01,1.096081181155055678e-02
2.896000000000000085e+01,1.170573720318427574e-02
2.900000000000000000e+01,2.246756037276211385e-02
2.903999999999999915e+01,9.783010613056367794e-03
2.907999999999999829e+01,1.265704942135154921e-02
2.912000000000000099e+01,8.070357202246639799e-03
2.916000000000000014e+01,8.598304884321714137e-03
2.919999999999999929e+01,1.083062393927915028e-02
2.923999999999999844e+01,1.199647141709637987e-02
2.928000000000000114e+01,1.188270668085127796e-02
2.932000000000000028e+01,1.326017512557226864e-02
2.935999999999999943e+01,1.357117566066180260e-02
2.939999999999999858e+01,1.047114905494741198e-02
2.944000000000000128e+01,1.376462206448367427e-02
2.948000000000000043e+01,2.989977406970060082e-03
2.951999999999999957e+01,1.459447426659066238e-02
2.955999999999999872e+01,2.326330370615578742e-03
2.960000000000000142e+01,1.755273506298142203e-02
2.964000000000000057e+01,1.508761536808345301e-02
2.967999999999999972e+01,9.850902668177115989e-03
2.971999999999999886e+01,9.089421406216557225e-03
2.976000000000000156e+01,1.045861235102935397e-02
2.980000000000000071e+01,7.990504661217374960e-03
2.983999999999999986e+01,1.575246228133590082e-02
2.987999999999999901e+01,2.223482602493595181e-02
2.992000000000000171e+01,5.910269312591765085e-03
2.996000000000000085e+01,1.388314429973927511e-02
3.000000000000000000e+01,1.205075470087560267e-02
3.003999999999999915e+01,1.405418074170598081e-02
3.007999999999999829e+01,1.690943761278283428e-02
3.012000000000000099e+01,1.464855447270807173e-02
3.016000000000000014e+01,1.238693717018548093e-02
3.019999999999999929e+01,1.374799853794360545e-02
3.023999999999999844e+01,1.404261889113455654e-02
3.028000000000000114e+01,1.987819709443741298e-02
3.032000000000000028e+01,9.940548427851407520e-03
3.035999999999999943e+01,1.215125769855929759e-02
3.039999999999999858e+01,1.286924712586162006e-02
3.044000000000000128e+01,1.358651094823653573e-02
3.048000000000000043e+01,1.345048295048688163e-02
3.051999999999999957e+01,1.736342712189137619e-02
3.055999999999999872e+01,1.807852146450173586e-02
3.060000000000000142e+01,6.430667245544289916e-03
3.064000000000000057e+01,1.268600972587712213e-02
3.067999999999999972e+01,1.510408046664946276e-02
3.071999999999999886e+01,1.517687370633947173e-02
3.076000000000000156e+01,9.707262776074561741e-03
3.080000000000000071e+01,9.778625588459526757e-03
3.083999999999999986e+01,1.027555873979635846e-02
3.087999999999999901e+01,1.610032621936389324e-02
3.092000000000000171e+01,1.233299908991249659e-02
3.096000000000000085e+01,3.449557621870816358e-03
3.100000000000000000e+01,1.545330988759623797e-02
3.103999999999999915e+01,1.019186427251014652e-02
3.107999999999999829e+01,1.345538698954491276e-02
3.112000000000000099e+01,1.011080724202584324e-02
3.116000000000000014e+01,9.962651786007517205e-03
3.119999999999999929e+01,1.812632647019373974e-02
3.123999999999999844e+01,1.691105818480944864e-02
3.128000000000000114e+01,1.207167835683353209e-02
3.132000000000000028e+01,1.575727419599597112e-02
3.135999999999999943e+01,1.027707259252165842e-02
3.139999999999999858e+01,1.097728864751613964e-02
3.144000000000000128e+01,1.167680966015629228e-02
3.148000000000000043e+01,1.408077172834536553e-02
3.151999999999999957e+01,1.094235285413498217e-02
3.155999999999999872e+01,4.606114713703497905e-03
3.160000000000000142e+01,8.499995673331109391e-03
3.164000000000000057e+01,1.409832257851927062e-02
3.167999999999999972e+01,1.415427343131972666e-02
3.171999999999999886e+01,7.602140157110156768e-03
3.176000000000000156e+01,1.277212388894664007e-02
3.180000000000000071e+01,1.964655845635537509e-02
3.183999999999999986e+01,1.543693351633711706e-02
3.187999999999999901e+01,1.335804557574702366e-02
3.192000000000000171e+01,1.404932143536313793e-02
3.196000000000000085e+01,1.111650653493727672e-02
3.200000000000000000e+01,1.415098577109902972e-02
3.203999999999999915e+01,1.505336970819990024e-02
3.207999999999999829e+01,1.190538283391751918e-02
3.211999999999999744e+01,1.110128215350588039e-02
3.215999999999999659e+01,8.804515419817242339e-03
3.220000000000000284e+01,1.013048848155540492e-02
3.224000000000000199e+01,1.614491185834843537e-02
3.228000000000000114e+01,9.370154299846384163e-03
3.232000000000000028e+01,9.841551814505498236e-03
3.235999999999999943e+01,1.436197773345314344e-02
3.239999999999999858e+01,1.632403563701614879e-02
3.243999999999999773e+01,1.146488955919676422e-02
3.247999999999999687e+01,1.790159877362586943e-02
3.252000000000000313e+01,1.623825529512818583e-02
3.256000000000000227e+01,8.819420799882019685e-03
3.260000000000000142e+01,1.056502667014279709e-02
3.264000000000000057e+01,8.260278844061223064e-03
3.267999999999999972e+01,1.149656221826681618e-02
3.271999999999999886e+01,1.515847338906165832e-02
3.275999999999999801e+01,1.178604849907241223e-02
3.279999999999999716e+01,1.182323988262874020e-02
3.284000000000000341e+01,1.185977901143301684e-02
3.288000000000000256e+01,1.445336942108856222e-02
3.292000000000000171e+01,1.065205423824680878e-02
3.296000000000000085e+01,1.196549509436262149e-02
3.300000000000000000e+01,8.376025818962226643e-03
3.303999999999999915e+01,1.181959176235056717e-02
3.307999999999999829e+01,1.973849183393011283e-02
3.311999999999999744e+01,1.550766222105103877e-02
3.315999999999999659e+01,7.865920382642617448e-03
3.320000000000000284e+01,1.365147443578577056e-02
3.324000000000000199e+01,1.261584895760488496e-02
3.328000000000000114e+01,1.200586839105415027e-02
3.332000000000000028e+01,1.331352697461175329e-02
3.335999999999999943e+01,1.973595382215607638e-02
3.339999999999999858e+01,1.486122698046239352e-02
3.343999999999999773e+01,7.215022049034996304e-03
3.347999999999999687e+01,1.022527739415408227e-02
3.352000000000000313e+01,9.398347797420110450e-03
3.356000000000000227e+01,1.411247629603761336e-02
3.360000000000000142e+01,1.498942229780789864e-02
3.364000000000000057e+01,2.098114512108540178e-02
3.367999999999999972e+01,1.183916934299467268e-02
3.371999999999999886e+01,1.548507977071832999e-02
3.375999999999999801e+01,1.849094048298199552e-02
3.379999999999999716e+01,1.403621320068743940e-02
3.384000000000000341e+01,1.768025488436524364e-02
3.388000000000000256e+01,1.237171800251543087e-02
3.392000000000000171e+01,1.281739207796841855e-02
3.396000000000000085e+01,1.326244812875115864e-02
3.400000000000000000e+01,1.711715712816713753e-02
3.403999999999999915e+01,1.415071104631754513e-02
3.407999999999999829e+01,1.310192734213180138e-02
3.411999999999999744e+01,1.759421884833840821e-02
3.415999999999999659e+01,8.444819439187052287e-03
3.420000000000000284e+01,1.272274648416025535e-02
3.424000000000000199e+01,1.678692220255864620e-02
3.428000000000000114e+01,1.616136876895932217e-02
3.432000000000000028e+01,1.638777575091621141e-02
3.435999999999999943e+01,9.793037431630860490e-03
3.439999999999999858e+01,1.662563167898472791e-02
3.443999999999999773e+01,1.876850166435258330e-02
3.447999999999999687e+01,8.761683530361089392e-03
3.452000000000000313e+01,1.410047836534286149e-02
3.456000000000000227e+01,1.133928285504683803e-02
3.460000000000000142e+01,8.151205161277232797e-03
3.464000000000000057e+01,1.199621158641322669e-02
3.467999999999999972e+01,1.456177083538135603e-02
3.471999999999999886e+01,8.814202769658307721e-03
3.475999999999999801e+01,2.139624103987655332e-02
3.479999999999999716e+01,1.756576378225813140e-02
3.484000000000000341e+01,1.437412097330884909e-02
3.488000000000000256e+01,1.224759755438166800e-02
3.492000000000000171e+01,1.289132962337985640e-02
3.496000000000000085e+01,1.268190679258065709e-02
3.500000000000000000e+01,1.673473491068792202e-02
3.503999999999999915e+01,2.036069429285373295e-02
3.507999999999999829e+01,1.354211876860431964e-02
3.511999999999999744e+01,1.290407459559541996e-02
3.515999999999999659e+01,1.119973977587875383e-02
3.520000000000000284e+01,1.375766201758313843e-02
3.524000000000000199e+01,1.119960072850988315e-02
3.528000000000000114e+01,1.055923849218812043e-02
3.532000000000000028e+01,1.908339975157201385e-02
3.535999999999999943e+01,1.353962305183551221e-02
3.539999999999999858e+01,1.865236530878576146e-02
3.543999999999999773e+01,1.843598828804794698e-02
3.547999999999999687e+01,1.949789085430111285e-02
3.552000000000000313e+01,1.501753472844703959e-02
3.556000000000000227e+01,2.098056058986636288e-02
3.560000000000000142e+01,2.204075578245939457e-02
3.564000000000000057e+01,1.542727735620357150e-02
3.567999999999999972e+01,1.286292880197881412e-02
3.571999999999999886e+01,1.264257646688776021e-02
3.575999999999999801e+01,1.391365413573319824e-02
3.579999999999999716e+01,1.390531885849255120e-02
3.584000000000000341e+01,1.624098346789439387e-02
3.588000000000000256e+01,1.132926551231497152e-02
3.592000000000000171e+01,1.707408240596028012e-02
3.596000000000000085e+01,2.622861215088201012e-02
3.600000000000000000e+01,1.619981887052922634e-02
3.603999999999999915e+01,1.554871295035972420e-02
3.607999999999999829e+01,1.553647937644990658e-02
3.611999999999999744e+01,2.213109143520375008e-02
3.615999999999999659e+01,1.678920857914602272e-02
3.620000000000000284e+01,2.061187611385820878e-02
3.624000000000000199e+01,1.825288138324061837e-02
3.628000000000000114e+01,1.525391395484713628e-02
3.632000000000000028e+01,1.651723781795652948e-02
3.635999999999999943e+01,2.119028675737151535e-02
3.639999999999999858e+01,1.584512485181779201e-02
3.643999999999999773e+01,1.582796720240086524e-02
3.647999999999999687e+01,1.389199181117245323e-02
3.652000000000000313e+01,2.112057659073731525e-02
3.656000000000000227e+01,2.216750888499578048e-02
3.660000000000000142e+01,1.596708061932560971e-02
3.664000000000000057e+01,1.509466272230685843e-02
3.667999999999999972e+01,1.336914249311637465e-02
3.671999999999999886e+01,1.952933739068357308e-02
3.675999999999999801e+01,1.311363013270794298e-02
3.679999999999999716e+01,2.076475436982185008e-02
3.684000000000000341e+01,2.116852538202465203e-02
3.688000000000000256e+01,2.327690248767079473e-02
3.692000000000000171e+01,2.602417761213799557e-02
3.696000000000000085e+01,1.790069156897722280e-02
3.700000000000000000e+01,1.830235478836971311e-02
3.703999999999999915e+01,1.998234527236713784e-02
3.707999999999999829e+01,1.931725263324679878e-02
3.711999999999999744e+01,1.630707809351163509e-02
3.715999999999999659e+01,1.542780192359032021e-02
3.720000000000000284e+01,1.667942534598578982e-02
3.724000000000000199e+01,2.496421234997677624e-02
3.728000000000000114e+01,2.067311309096286909e-02
3.732000000000000028e+01,2.362832171797537434e-02
3.735999999999999943e+01,2.040190230973993116e-02
3.739999999999999858e+01,2.165094906001127986e-02
3.743999999999999773e+01,2.758860505071734220e-02
3.747999999999999687e+01,2.862348783023445711e-02
3.752000000000000313e+01,2.283732188624017223e-02
3.756000000000000227e+01,3.175743624316610531e-02
3.760000000000000142e+01,3.279079502446133332e-02
3.764000000000000057e+01,2.444540643665350441e-02
3.767999999999999972e+01,3.080630181727465541e-02
3.771999999999999886e+01,3.460899177539977084e-02
3.775999999999999801e+01,3.436148451755650923e-02
3.779999999999999716e+01,3.922888122152434764e-02
3.784000000000000341e+01,4.707976451555583725e-02
3.788000000000000256e+01,4.576504963492686318e-02
3.792000000000000171e+01,4.764696564879244284e-02
3.796000000000000085e+01,5.485693237390585481e-02
3.800000000000000000e+01,6.377153942254440433e-02
3.803999999999999915e+01,7.524335545491113442e-02
3.807999999999999829e+01,9.673234677338525545e-02
3.811999999999999744e+01,1.241888192713940103e-01
3.815999999999999659e+01,1.529236532640895208e-01
3.820000000000000284e+01,1.946596522423516551e-01
3.824000000000000199e+01,2.372477314414563609e-01
3.828000000000000114e+01,3.218242709529384737e-01
3.832000000000000028e+01,4.334693418395483278e-01
3.835999999999999943e+01,6.060725009723697543e-01
3.839999999999999858e+01,7.695100778230686833e-01
3.843999999999999773e+01,9.352917340230998411e-01
3.847999999999999687e+01,9.942888387693480379e-01
3.852000000000000313e+01,1.000000000000000000e+00
3.856000000000000227e+01,9.174699539918524938e-01
3.860000000000000142e+01,7.822933924913899606e-01
3.864000000000000057e+01,6.426403769511732644e-01
3.867999999999999972e+01,4.982977667342802786e-01
3.871999999999999886e+01,3.680220466926170664e-01
3.875999999999999801e+01,2.997701364193196549e-01
3.879999999999999716e+01,2.415354234371823727e-01
3.884000000000000341e+01,1.945967601252581447e-01
3.888000000000000256e+01,1.504284733290485176e-01
3.892000000000000171e+01,1.324761688078103794e-01
3.896000000000000085e+01,9.768519218018938133e-02
3.900000000000000000e+01,9.593073977414685871e-02
3.903999999999999915e+01,7.414048981535172056e-02
3.907999999999999829e+01,6.748285033143792966e-02
3.911999999999999744e+01,6.231674354170601421e-02
3.915999999999999659e+01,5.693703579325864322e-02
3.920000000000000284e+01,5.219629574629890828e-02
3.924000000000000199e+01,4.020827582460335947e-02
3.928000000000000114e+01,4.463172364685391580e-02
3.932000000000000028e+01,4.116846846109942226e-02
3.935999999999999943e+01,3.536019983489369772e-02
3.939999999999999858e+01,3.466688407061596644e-02
3.943999999999999773e+01,3.354683404571818378e-02
3.947999999999999687e+01,2.816349751305263424e-02
3.952000000000000313e+01,2.618998263442353855e-02
3.956000000000000227e+01,2.997085108600920991e-02
3.960000000000000142e+01,2.202847161745962595e-02
3.964000000000000057e+01,1.834848490815538941e-02
3.967999999999999972e+01,2.511200610392549937e-02
3.971999999999999886e+01,2.548082953269499920e-02
3.975999999999999801e+01,2.840691451281834867e-02
3.979999999999999716e+01,3.197198553197311277e-02
3.984000000000000341e+01,2.658466013853562349e-02
3.988000000000000256e+01,2.268889066683556568e-02
3.992000000000000171e+01,1.921896904225065331e-02
3.996000000000000085e+01,1.617489648728384632e-02
4.000000000000000000e+01,2.336119975798969448e-02
4.003999999999999915e+01,2.031626157206766967e-02
4.007999999999999829e+01,2.537028306257380073e-02
4.011999999999999744e+01,2.061934926030796131e-02
4.015999999999999659e+01,1.586798692132477401e-02
4.020000000000000284e+01,1.559217631605287237e-02
4.024000000000000199e+01,2.512046515262108745e-02
4.028000000000000114e+01,1.994154081965320707e-02
4.032000000000000028e+01,2.477986023295634249e-02
4.035999999999999943e+01,2.130522470448029115e-02
4.039999999999999858e+01,1.868273541200454399e-02
4.043999999999999773e+01,1.435469126493159504e-02
4.047999999999999687e+01,2.409359108321701068e-02
4.052000000000000313e+01,1.784643391043365390e-02
4.056000000000000227e+01,2.119024410008874676e-02
4.060000000000000142e+01,1.387654622930680620e-02
4.064000000000000057e+01,1.849837861964456764e-02
4.067999999999999972e+01,1.480726584822653243e-02
4.071999999999999886e+01,2.113340904810871029e-02
4.075999999999999801e+01,1.211292817021474878e-02
4.079999999999999716e+01,1.886453591310284506e-02
4.084000000000000341e+01,1.240094061747098672e-02
4.088000000000000256e+01,1.957801779337665221e-02
4.092000000000000171e+01,1.375303623519324309e-02
4.096000000000000085e+01,1.687960868620243249e-02
4.100000000000000000e+01,1.808750153823026133e-02
4.103999999999999915e+01,1.652414857607951981e-02
4.107999999999999829e+01,1.943637424270437328e-02
4.111999999999999744e+01,1.915107282130643074e-02
4.115999999999999659e+01,1.758652226921393266e-02
4.120000000000000284e+01,2.390782376420636998e-02
4.124000000000000199e+01,1.850592746168331845e-02
4.128000000000000114e+01,1.289049499309968642e-02
4.132000000000000028e+01,1.601348567680988336e-02
4.135999999999999943e+01,1.188926127843911371e-02
4.139999999999999858e+01,1.863488107161839769e-02
4.143999999999999773e+01,1.834643008714761936e-02
4.147999999999999687e+01,1.635245603315559071e-02
4.152000000000000313e+01,1.585008802352076696e-02
4.156000000000000227e+01,1.236334823282032869e-02
4.160000000000000142e+01,1.846760758963433835e-02
4.164000000000000057e+01,1.924293715671316837e-02
4.167999999999999972e+01,1.426305443770966262e-02
4.171999999999999886e+01,1.631647222062892685e-02
4.175999999999999801e+01,1.176211272477156906e-02
4.179999999999999716e+01,1.424105617584282141e-02
4.184000000000000341e+01,1.266992710624372832e-02
4.188000000000000256e+01,1.536125925605362486e-02
4.192000000000000171e+01,1.528137248674921872e-02
4.196000000000000085e+01,1.520111219335893056e-02
4.200000000000000000e+01,1.575990517666077048e-02
4.203999999999999915e+01,1.759717823743277634e-02
4.207999999999999829e+01,2.071293259817786822e-02
4.211999999999999744e+01,2.340203460599868737e-02
4.215999999999999659e+01,2.012279713834719957e-02
4.220000000000000284e+01,2.067974695127799967e-02
4.224000000000000199e+01,1.739977832799270360e-02
4.228000000000000114e+01,1.646400641432028966e-02
4.232000000000000028e+01,1.936442544873892210e-02
4.235999999999999943e+01,1.906735529272534507e-02
4.239999999999999858e+01,1.706479018475771242e-02
4.243999999999999773e+01,1.761956853583968030e-02
4.247999999999999687e+01,1.199287533204767761e-02
4.252000000000000313e+01,1.979376286298797916e-02
4.256000000000000227e+01,1.800291153325957183e-02
4.260000000000000142e+01,1.301457834811649804e-02
4.264000000000000057e+01,1.846984353326395351e-02
4.267999999999999972e+01,2.051448744857752721e-02
4.271999999999999886e+01,1.616452528460963350e-02
4.275999999999999801e+01,2.204502329901603455e-02
4.279999999999999716e+01,1.726808049064607054e-02
4.284000000000000341e+01,1.654048638233018495e-02
4.288000000000000256e+01,1.495997942979545962e-02
4.292000000000000171e+01,1.956024221657101311e-02
4.296000000000000085e+01,2.032360857218306824e-02
4.300000000000000000e+01,1.831578901625971825e-02
4.303999999999999915e+01,1.993104055405498301e-02
4.307999999999999829e+01,1.728311560934541607e-02
4.311999999999999744e+01,1.719255490623513086e-02
4.315999999999999659e+01,2.690618288767829963e-02
4.320000000000000284e+01,1.807613347264797055e-02
4.324000000000000199e+01,2.182111935970238240e-02
4.328000000000000114e+01,2.343435347101695612e-02
4.332000000000000028e+01,2.547353934219503957e-02
4.335999999999999943e+01,2.090499683471339076e-02
4.339999999999999858e+01,2.379608989312728337e-02
4.343999999999999773e+01,1.901374772076207947e-02
4.347999999999999687e+01,2.488817145067382872e-02
4.352000000000000313e+01,2.117088565998699254e-02
4.356000000000000227e+01,2.299496359038210105e-02
4.360000000000000142e+01,2.439243440046101954e-02
4.364000000000000057e+01,2.365816443732638580e-02
4.367999999999999972e+01,2.676012698738215387e-02
4.371999999999999886e+01,2.900920236578043501e-02
4.375999999999999801e+01,2.166657555859769282e-02
4.379999999999999716e+01,2.327558955831495954e-02
4.384000000000000341e+01,3.447567116571027823e-02
4.388000000000000256e+01,2.862408917515706780e-02
4.392000000000000171e+01,2.916644934591220220e-02
4.396000000000000085e+01,3.631589475990366217e-02
4.400000000000000000e+01,3.962847552780758564e-02
4.403999999999999915e+01,3.484135568362617397e-02
4.407999999999999829e+01,4.412128983006611410e-02
4.411999999999999744e+01,4.231753977747604312e-02
4.415999999999999659e+01,4.903915781546223929e-02
4.420000000000000284e+01,5.533418707067606912e-02
4.424000000000000199e+01,5.331637996689413128e-02
4.428000000000000114e+01,6.685762598222341757e-02
4.432000000000000028e+01,8.146427989826439398e-02
4.435999999999999943e+01,8.200327091834237747e-02
4.439999999999999858e+01,8.872307691033873289e-02
4.443999999999999773e+01,1.216590338827097800e-01
4.447999999999999687e+01,1.379696293135262153e-01
4.452000000000000313e+01,1.753809735435223061e-01
4.456000000000000227e+01,1.993640865683451724e-01
4.460000000000000142e+01,2.423165322431031499e-01
4.464000000000000057e+01,2.869738211768712577e-01
4.467999999999999972e+01,3.352542313269779028e-01
4.471999999999999886e+01,3.615807407849214172e-01
4.475999999999999801e+01,3.491151438786270211e-01
4.479999999999999716e+01,3.438960834664054889e-01
4.484000000000000341e+01,3.037214726046023605e-01
4.488000000000000256e+01,2.722853936978531508e-01
4.492000000000000171e+01,2.336022085117830660e-01
4.496000000000000085e+01,2.049364088823228958e-01
4.500000000000000000e+01,1.690235054185476593e-01
4.503999999999999915e+01,1.358811667359370035e-01
4.507999999999999829e+01,1.165927707470956892e-01
4.511999999999999744e+01,9.964865826557467443e-02
4.515999999999999659e+01,8.867224212410254602e-02
4.520000000000000284e+01,7.726926776243107919e-02
4.524000000000000199e+01,6.266889223053782876e-02
4.528000000000000114e+01,6.618530269342921823e-02
4.532000000000000028e+01,5.115810055250200050e-02
4.535999999999999943e+01,3.932775669161277243e-02
4.539999999999999858e+01,4.838504666554249017e-02
4.543999999999999773e+01,3.847244398431227258e-02
4.547999999999999687e+01,3.964295204935517486e-02
4.552000000000000313e+01,3.782920936112171145e-02
4.556000000000000227e+01,2.855523809418903519e-02
4.560000000000000142e+01,3.185637425701351444e-02
4.564000000000000057e+01,2.620529127016934384e-02
4.567999999999999972e+01,2.780077167246226486e-02
4.571999999999999886e+01,2.555943999629328028e-02
4.575999999999999801e+01,2.012072304244040891e-02
4.579999999999999716e+01,2.342056616120863355e-02
4.584000000000000341e+01,2.949099851119983337e-02
4.588000000000000256e+01,2.213323999861423891e-02
4.592000000000000171e+01,2.500603824213371365e-02
4.596000000000000085e+01,2.617345033645916350e-02
4.600000000000000000e+01,2.243834961271802889e-02
4.603999999999999915e+01,2.104756051386439189e-02
4.607999999999999829e+01,1.688567963620036735e-02
4.611999999999999744e+01,1.783895700095515166e-02
4.615999999999999659e+01,2.326796825235658700e-02
4.620000000000000284e+01,1.505565656177953321e-02
4.624000000000000199e+01,1.963161372043138383e-02
4.628000000000000114e+01,2.058391777508728621e-02
4.632000000000000028e+01,1.492858391629965815e-02
4.635999999999999943e+01,1.630669236977369194e-02
4.639999999999999858e+01,1.427429324618560355e-02
4.643999999999999773e+01,1.586506912906445604e-02
4.647999999999999687e+01,1.745560963068758589e-02
4.652000000000000313e+01,1.819334853585776943e-02
4.656000000000000227e+01,1.530744289455243136e-02
4.660000000000000142e+01,1.625785900915078380e-02
4.664000000000000057e+01,1.401091674112954835e-02
4.667999999999999972e+01,1.517401495516778297e-02
4.671999999999999886e+01,2.059972231146853933e-02
4.675999999999999801e+01,1.643381916990735783e-02
4.679999999999999716e+01,1.780937877216479115e-02
4.684000000000000341e+01,1.364302565064182300e-02
4.688000000000000256e+01,1.373928656139308292e-02
4.692000000000000171e+01,1.724559528922133336e-02
4.696000000000000085e+01,1.030773219400214075e-02
4.700000000000000000e+01,1.210846584649167418e-02
4.703999999999999915e+01,1.561411610816667607e-02
4.707999999999999829e+01,1.975897490440487597e-02
4.711999999999999744e+01,1.729622023725797819e-02
4.715999999999999659e+01,1.270183237715463535e-02
4.720000000000000284e+01,1.450148692359926224e-02
4.724000000000000199e+01,1.416951072209330330e-02
4.728000000000000114e+01,1.873958635616588056e-02
4.732000000000000028e+01,1.947289881189342986e-02
4.735999999999999943e+01,1.317232142040332052e-02
4.739999999999999858e+01,2.008633204957695553e-02
4.743999999999999773e+01,1.378534135321271559e-02
4.747999999999999687e+01,1.814123880941760289e-02
4.752000000000000313e+01,1.738152804324185480e-02
4.756000000000000227e+01,1.598218932511414822e-02
4.760000000000000142e+01,1.223808900213713483e-02
4.764000000000000057e+01,1.765888870576567266e-02
4.767999999999999972e+01,1.327496416967446739e-02
4.771999999999999886e+01,8.038274712217970130e-03
4.775999999999999801e+01,1.260591452715089170e-02
4.779999999999999716e+01,1.973106161652493987e-02
4.784000000000000341e+01,1.513321262136560139e-02
4.788000000000000256e+01,1.032202917312776726e-02
4.792000000000000171e+01,1.254433571476558373e-02
4.796000000000000085e+01,1.561901954545587973e-02
4.800000000000000000e+01,9.528414494724964795e-03
4.803999999999999915e+01,1.260272169562883134e-02
4.807999999999999829e+01,1.098772150804300587e-02
4.811999999999999744e+01,1.491422440687218548e-02
4.815999999999999659e+01,1.223314562739224315e-02
4.820000000000000284e+01,1.168330262853256585e-02
4.824000000000000199e+01,9.428143163145418990e-03
4.828000000000000114e+01,1.079621493935964231e-02
4.832000000000000028e+01,8.966979678076992047e-03
4.835999999999999943e+01,1.267925483822687771e-02
4.839999999999999858e+01,1.660449515668629972e-02
4.843999999999999773e+01,1.434844607320713734e-02
4.847999999999999687e+01,1.060022971764304663e-02
4.852000000000000313e+01,1.345923797064838869e-02
4.856000000000000227e+01,9.497534910948761053e-03
4.860000000000000142e+01,1.555332865562493797e-02
4.864000000000000057e+01,1.137814378180146239e-02
4.867999999999999972e+01,1.125248609345860275e-02
4.871999999999999886e+01,1.091351962459861241e-02
4.875999999999999801e+01,1.462408278622513887e-02
4.879999999999999716e+01,8.956239657063788315e-03
4.884000000000000341e+01,1.309275880787076109e-02
4.888000000000000256e+01,1.531083919277195782e-02
4.892000000000000171e+01,1.156078670519467694e-02
4.896000000000000085e+01,1.292597925774368120e-02
4.900000000000000000e+01,1.407787158729595714e-02
4.903999999999999915e+01,1.629531607290470377e-02
4.907999999999999829e+01,1.147892327892143481e-02
4.911999999999999744e+01,1.326977343105139630e-02
4.915999999999999659e+01,9.305639905145424856e-03
4.920000000000000284e+01,1.386702850518382532e-02
4.924000000000000199e+01,1.267343587219214342e-02
4.928000000000000114e+01,1.467682132452477820e-02
4.932000000000000028e+01,1.561434889618397090e-02
4.935999999999999943e+01,1.569916166909765196e-02
4.939999999999999858e+01,1.194727483381820797e-02
4.943999999999999773e+01,1.181865469272489269e-02
4.947999999999999687e+01,1.168989085809496106e-02
4.952000000000000313e+01,1.582382174093210220e-02
4.956000000000000227e+01,1.057936956053689287e-02
4.960000000000000142e+01,1.066332383973973320e-02
4.964000000000000057e+01,1.373112534736821259e-02
4.967999999999999972e+01,9.765107912948475799e-03
4.971999999999999886e+01,8.569798292535159290e-03
4.975999999999999801e+01,1.121090700575635285e-02
4.979999999999999716e+01,1.065475391408875379e-02
4.984000000000000341e+01,1.478758903876167298e-02
4.988000000000000256e+01,1.231289505275108380e-02
4.992000000000000171e+01,1.196948941498640270e-02
4.996000000000000085e+01,1.354423148854552901e-02
5.000000000000000000e+01,1.490570390168098266e-02
5.003999999999999915e+01,1.072536139126980918e-02
5.007999999999999829e+01,1.336543302646701382e-02
5.011999999999999744e+01,8.971699167148189033e-03
5.015999999999999659e+01,9.906388882468352211e-03
5.020000000000000284e+01,1.190666620642965787e-02
5.024000000000000199e+01,1.390682306440991708e-02
5.028000000000000114e+01,1.675942811661213297e-02
5.032000000000000028e+01,1.023367333313754748e-02
5.035999999999999943e+01,1.287290170646718593e-02
5.039999999999999858e+01,1.615144008210251877e-02
5.043999999999999773e+01,9.838480430144784517e-03
5.047999999999999687e+01,1.482192619675039638e-02
5.052000000000000313e+01,1.149272753731897349e-02
5.056000000000000227e+01,1.285253909928063716e-02
5.060000000000000142e+01,1.016254586871179547e-02
5.064000000000000057e+01,1.557183505534250750e-02
5.067999999999999972e+01,1.437361958134813003e-02
5.071999999999999886e+01,1.061759599830731926e-02
5.075999999999999801e+01,7.287751560673473225e-03
5.079999999999999716e+01,1.141776885197570528e-02
5.084000000000000341e+01,1.021913752921478624e-02
5.088000000000000256e+01,1.370952620787033692e-02
5.092000000000000171e+01,1.378954545229388491e-02
5.096000000000000085e+01,1.323004065751384392e-02
5.100000000000000000e+01,1.245729676488318421e-02
5.103999999999999915e+01,1.424215916943032297e-02
5.107999999999999829e+01,1.197723145148205104e-02
5.111999999999999744e+01,1.269619619456747832e-02
5.115999999999999659e+01,1.021794069786348055e-02
5.120000000000000284e+01,8.592161512948661914e-03
5.124000000000000199e+01,9.737136597151294093e-03
5.128000000000000114e+01,1.471857647009946514e-02
5.132000000000000028e+01,1.287938938304425754e-02
5.135999999999999943e+01,1.082697420066476741e-02
5.139999999999999858e+01,1.197160189626443778e-02
5.143999999999999773e+01,1.823155042717156463e-02
5.147999999999999687e+01,1.191604668361107358e-02
5.152000000000000313e+01,1.092900807978886522e-02
5.156000000000000227e+01,1.463101025993279909e-02
5.160000000000000142e+01,9.594117302768547309e-03
5.164000000000000057e+01,1.478795591962716108e-02
5.167999999999999972e+01,1.465317159498398698e-02
5.171999999999999886e+01,1.451831203696785783e-02
5.175999999999999801e+01,1.012054127958093852e-02
5.179999999999999716e+01,1.041181864117767322e-02
5.184000000000000341e+01,1.368701046886072574e-02
5.188000000000000256e+01,1.056787617043139157e-02
5.192000000000000171e+01,1.512177969044497215e-02
5.196000000000000085e+01,1.285507581050194907e-02
5.200000000000000000e+01,1.101458897355653624e-02
5.203999999999999915e+01,1.365001573118721813e-02
5.207999999999999829e+01,1.628537825797124125e-02
5.211999999999999744e+01,1.082128711826014535e-02
5.215999999999999659e+01,9.193687662358849058e-03
5.220000000000000284e+01,1.161572297219532098e-02
5.224000000000000199e+01,1.339827336292170878e-02
5.228000000000000114e+01,1.795160980784149887e-02
5.232000000000000028e+01,1.504492427705585167e-02
5.235999999999999943e+01,1.107247377581879223e-02
5.239999999999999858e+01,1.221537344995933354e-02
5.243999999999999773e+01,1.335821989577945339e-02
5.247999999999999687e+01,1.236959574153176193e-02
5.252000000000000313e+01,1.287291381994480101e-02
5.256000000000000227e+01,1.380246605639627241e-02
5.260000000000000142e+01,1.665024668936436122e-02
5.264000000000000057e+01,1.630085231515117361e-02
5.267999999999999972e+01,1.040972370258416366e-02
5.271999999999999886e+01,2.050418987609492830e-02
5.275999999999999801e+01,8.005575502254865319e-03
5.279999999999999716e+01,1.405026067259889516e-02
5.284000000000000341e+01,1.135608860322523395e-02
5.288000000000000256e+01,1.462984881696433384e-02
5.292000000000000171e+01,1.001732167369181331e-02
5.296000000000000085e+01,1.052016182083773468e-02
5.300000000000000000e+01,1.080982399527913480e-02
5.303999999999999915e+01,1.344401173261940315e-02
5.307999999999999829e+01,1.181532861318528201e-02
5.311999999999999744e+01,1.487573395533125196e-02
5.315999999999999659e+01,1.282070344800859303e-02
5.320000000000000284e+01,7.994798767395561168e-03
5.324000000000000199e+01,1.233396526379713226e-02
5.328000000000000114e+01,8.786855405713360143e-03
5.332000000000000028e+01,9.076272684024142695e-03
5.335999999999999943e+01,1.277593460238230644e-02
5.339999999999999858e+01,1.775442378904040774e-02
5.343999999999999773e+01,1.250208105754948597e-02
5.347999999999999687e+01,1.236512150901498096e-02
5.352000000000000313e+01,1.265442545858904561e-02
5.356000000000000227e+01,1.273056855049952557e-02
5.360000000000000142e+01,1.515125432034973400e-02
5.364000000000000057e+01,1.330908634846648952e-02
5.367999999999999972e+01,1.231947048355357642e-02
5.371999999999999886e+01,1.324811724523913825e-02
5.375999999999999801e+01,1.289789996465049750e-02
5.379999999999999716e+01,1.148196172371562102e-02
5.384000000000000341e+01,1.113172233918784115e-02
5.388000000000000256e+01,1.930714811344627288e-02
5.392000000000000171e+01,1.064435899741456200e-02
5.396000000000000085e+01,1.327808165770046588e-02
5.400000000000000000e+01,1.314095459475441915e-02
5.403999999999999915e+01,1.449581621958011442e-02
5.407999999999999829e+01,1.521124916043012192e-02
5.411999999999999744e+01,1.038499187303153735e-02
5.415999999999999659e+01,1.365812458308955819e-02
5.420000000000000284e+01,1.884953458978108967e-02
5.424000000000000199e+01,1.231814411240676060e-02
5.428000000000000114e+01,1.559128217539806904e-02
5.432000000000000028e+01,1.417530356035553996e-02
5.435999999999999943e+01,1.297247225655791952e-02
5.439999999999999858e+01,1.176964762708307584e-02
5.443999999999999773e+01,1.482966808293463556e-02
5.447999999999999687e+01,1.405314418846419396e-02
5.452000000000000313e+01,1.327663063582531534e-02
5.456000000000000227e+01,1.164756120982075004e-02
5.460000000000000142e+01,1.321563246202910741e-02
5.464000000000000057e+01,1.350486656702760274e-02
5.467999999999999972e+01,1.358097404444428072e-02
5.471999999999999886e+01,1.387023983563215497e-02
5.475999999999999801e+01,1.671722561676955779e-02
5.479999999999999716e+01,1.466196753048309119e-02
5.484000000000000341e+01,1.516443187915200545e-02
5.488000000000000256e+01,1.183036410252812781e-02
5.492000000000000171e+01,1.830084442631666614e-02
5.496000000000000085e+01,1.539310672476729494e-02
5.500000000000000000e+01,1.824022423956051658e-02
5.503999999999999915e+01,1.447997034654717984e-02
5.507999999999999829e+01,1.498258109890699200e-02
5.511999999999999744e+01,1.399322751466691890e-02
5.515999999999999659e+01,1.854559217735613635e-02
5.520000000000000284e+01,1.734315775995056916e-02
5.524000000000000199e+01,2.082987659677992126e-02
5.528000000000000114e+01,1.344639417231952017e-02
5.532000000000000028e+01,1.501490463560061807e-02
5.535999999999999943e+01,1.296003950304898920e-02
5.539999999999999858e+01,1.644689995244412797e-02
5.543999999999999773e+01,1.545781981331230057e-02
5.547999999999999687e+01,1.723962352860758385e-02
5.552000000000000313e+01,1.347977980325650721e-02
5.556000000000000227e+01,1.291710609618854436e-02
5.560000000000000142e+01,1.555160362990651128e-02
5.564000000000000057e+01,1.584158528186245529e-02
5.567999999999999972e+01,1.250820111800911121e-02
5.571999999999999886e+01,1.258513372187549523e-02
5.575999999999999801e+01,1.458039129998933876e-02
5.579999999999999716e+01,1.806769135600348047e-02
5.584000000000000341e+01,1.473450259484446016e-02
5.588000000000000256e+01,1.225393317831646213e-02
5.592000000000000171e+01,1.147855176662256234e-02
5.596000000000000085e+01,1.539234561421621260e-02
5.600000000000000000e+01,1.909305317682445310e-02
5.603999999999999915e+01,1.469442687822389813e-02
5.607999999999999829e+01,1.413241206871952531e-02
5.611999999999999744e+01,1.570187509541391691e-02
5.615999999999999659e+01,1.386112883575906299e-02
5.620000000000000284e+01,1.180730240363348990e-02
5.624000000000000199e+01,1.188495747521542412e-02
5.628000000000000114e+01,1.281524411645760739e-02
5.632000000000000028e+01,1.395873797158784548e-02
5.635999999999999943e+01,1.297087980943374859e-02
5.639999999999999858e+01,1.432764990042384272e-02
5.643999999999999773e+01,1.461877971626057010e-02
5.647999999999999687e+01,1.810710766794761464e-02
5.652000000000000313e+01,1.626696060098633059e-02
5.656000000000000227e+01,1.698458853660604617e-02
5.660000000000000142e+01,2.047313455673476293e-02
5.664000000000000057e+01,1.330466274009804196e-02
5.667999999999999972e+01,1.849849512710276950e-02
5.671999999999999886e+01,1.346159584119796700e-02
5.675999999999999801e+01,1.588474043716466000e-02
5.679999999999999716e+01,1.340570229085356717e-02
5.684000000000000341e+01,1.476329886119413445e-02
5.688000000000000256e+01,1.484212674448845068e-02
5.692000000000000171e+01,1.875759178944026370e-02
5.696000000000000085e+01,1.990229757637638347e-02
5.700000000000000000e+01,1.316084070159888667e-02
5.703999999999999915e+01,1.366629440678823228e-02
5.707999999999999829e+01,1.395869483457107957e-02
5.711999999999999744e+01,1.574317808285064305e-02
5.715999999999999659e+01,1.539633376390427306e-02
5.720000000000000284e+01,9.721035208859260882e-03
5.724000000000000199e+01,1.534234867537141202e-02
5.728000000000000114e+01,1.243808245941531790e-02
5.732000000000000028e+01,1.337046563014587797e-02
5.735999999999999943e+01,1.941835056661632766e-02
5.739999999999999858e+01,1.566180833157707758e-02
5.743999999999999773e+01,1.467620985360809649e-02
5.747999999999999687e+01,1.965868424658789165e-02
5.752000000000000313e+01,1.632872815154198798e-02
5.756000000000000227e+01,1.513029390280002696e-02
5.760000000000000142e+01,1.926051061424050373e-02
5.764000000000000057e+01,1.635715166171422541e-02
5.767999999999999972e+01,1.558531822300073151e-02
5.771999999999999886e+01,1.289531619152715913e-02
5.775999999999999801e+01,1.638653744794785552e-02
5.779999999999999716e+01,1.774645069718934487e-02
5.784000000000000341e+01,1.484363856750416273e-02
5.788000000000000256e+01,1.833519525264703728e-02
5.792000000000000171e+01,1.543261040961876884e-02
5.796000000000000085e+01,1.764554566987413392e-02
5.800000000000000000e+01,1.900603019201513311e-02
5.803999999999999915e+01,1.248038383751845504e-02
5.807999999999999829e+01,1.490681472346492079e-02
5.811999999999999744e+01,1.989106828960630555e-02
5.815999999999999659e+01,1.805490394374394819e-02
5.820000000000000284e+01,1.792399728538229473e-02
5.824000000000000199e+01,1.779321466162386151e-02
5.828000000000000114e+01,1.680998985727149078e-02
5.832000000000000028e+01,2.051601243987907774e-02
5.835999999999999943e+01,1.782790694184757316e-02
5.839999999999999858e+01,1.492678850900602469e-02
5.843999999999999773e+01,1.543606997408291867e-02
5.847999999999999687e+01,1.615862466820568513e-02
5.852000000000000313e+01,1.816016311100236008e-02
5.856000000000000227e+01,1.973555164957563335e-02
5.860000000000000142e+01,1.598252873965263360e-02
5.864000000000000057e+01,1.393477696476235449e-02
5.867999999999999972e+01,1.508429056338304007e-02
5.871999999999999886e+01,1.623394286664209610e-02
5.875999999999999801e+01,1.631802579991720528e-02
5.879999999999999716e+01,1.810738475823679000e-02
5.884000000000000341e+01,1.819175121330318667e-02
5.888000000000000256e+01,1.380028221509387899e-02
5.892000000000000171e+01,1.729520683276382018e-02
5.896000000000000085e+01,1.738000773928905646e-02
5.900000000000000000e+01,2.002265822107356097e-02
5.903999999999999915e+01,1.307407351339310957e-02
5.907999999999999829e+01,1.699587334355415202e-02
5.911999999999999744e+01,1.793383807143225997e-02
5.915999999999999659e+01,2.015080610803103925e-02
5.920000000000000284e+01,1.767880661195243841e-02
5.924000000000000199e+01,1.733838030730054311e-02
5.928000000000000114e+01,1.912952841657820924e-02
5.932000000000000028e+01,1.942884055206277674e-02
5.935999999999999943e+01,2.122030396820772519e-02
5.939999999999999858e+01,2.109365013671537017e-02
5.943999999999999773e+01,1.883573842066355031e-02
5.947999999999999687e+01,1.743055607450573474e-02
5.952000000000000313e+01,2.028837407154544803e-02
5.956000000000000227e+01,2.186750528923461084e-02
5.960000000000000142e+01,1.662626260502524447e-02
5.964000000000000057e+01,1.756630066634749451e-02
5.967999999999999972e+01,1.680137189697786942e-02
5.971999999999999886e+01,2.307029375584582556e-02
5.975999999999999801e+01,1.846915127375127127e-02
5.979999999999999716e+01,2.175442930260028385e-02
5.984000000000000341e+01,2.631873142271964200e-02
5.988000000000000256e+01,1.681584497800975644e-02
5.992000000000000171e+01,1.775708502485259452e-02
5.996000000000000085e+01,2.146934584644976871e-02
