2.003999999999999915e+01,4.397200570448610291e-02
2.007999999999999829e+01,2.405977082449156298e-02
2.012000000000000099e+01,5.335079930191401199e-02
2.016000000000000014e+01,3.591565375896885876e-02
2.019999999999999929e+01,5.865720053565667141e-02
2.023999999999999844e+01,1.892032215614843083e-02
2.028000000000000114e+01,2.626280739595137498e-02
2.032000000000000028e+01,4.086155022145847304e-02
2.035999999999999943e+01,3.333594790917864675e-02
2.039999999999999858e+01,3.111969540591186245e-02
2.044000000000000128e+01,1.775257543966596296e-02
2.048000000000000043e+01,3.889841585456168399e-02
2.051999999999999957e+01,2.376058384969975332e-02
2.055999999999999872e+01,5.110033301482163476e-02
2.060000000000000142e+01,3.879356933127541679e-02
2.064000000000000057e+01,3.799085967053068141e-02
2.067999999999999972e+01,2.497533191797269084e-02
2.071999999999999886e+01,2.328686622679872545e-02
2.076000000000000156e+01,3.699626878219356568e-02
2.080000000000000071e+01,2.858132411040656753e-02
2.083999999999999986e+01,3.875009577279135697e-02
2.087999999999999901e+01,9.272353256893146184e-03
2.092000000000000171e+01,6.616610242026542410e-02
2.096000000000000085e+01,1.527157813742102167e-02
2.100000000000000000e+01,1.163340563640496983e-02
2.103999999999999915e+01,5.082679518908767013e-02
2.107999999999999829e+01,1.780721861272321904e-02
2.112000000000000099e+01,2.486399133278744625e-03
2.116000000000000014e+01,3.318298960519080326e-02
2.119999999999999929e+01,3.131272764035528816e-02
2.123999999999999844e+01,3.669871889248867147e-02
2.128000000000000114e+01,3.960642618764013273e-02
2.132000000000000028e+01,2.180571643854369024e-02
2.135999999999999943e+01,1.338515831490996733e-02
2.139999999999999858e+01,1.894653274650599795e-02
2.144000000000000128e+01,3.919780586949644235e-02
2.148000000000000043e+01,3.537782113943862411e-02
2.151999999999999957e+01,1.987598907330463335e-02
2.155999999999999872e+01,2.614371838982537319e-02
2.160000000000000142e+01,2.232252422412639437e-02
2.164000000000000057e+01,3.726203417522667288e-02
2.167999999999999972e+01,3.556393174770389187e-02
2.171999999999999886e+01,5.811327208443926168e-02
2.176000000000000156e+01,3.039659917245826626e-02
2.180000000000000071e+01,4.657343419438521315e-02
2.183999999999999986e+01,3.549316118626608119e-02
2.187999999999999901e+01,4.671342278582382712e-02
2.192000000000000171e+01,4.341996984541705157e-02
2.196000000000000085e+01,2.950661696870355774e-02
2.200000000000000000e+01,4.143362976037961998e-02
2.203999999999999915e+01,3.353717999643471975e-02
2.207999999999999829e+01,4.440143225989385406e-02
2.212000000000000099e+01,2.517670985925391652e-02
2.216000000000000014e+01,3.002243655194946487e-02
2.219999999999999929e+01,2.194737160881212248e-02
2.223999999999999844e+01,2.183652146012843298e-02
2.228000000000000114e+01,4.544213667189060668e-02
2.232000000000000028e+01,3.860479310677360915e-02
2.235999999999999943e+01,4.468742804904218130e-02
2.239999999999999858e+01,4.917673162350543609e-02
2.244000000000000128e+01,6.145325746116992588e-02
2.248000000000000043e+01,3.744610157177151455e-02
2.251999999999999957e+01,3.998727520758720011e-02
2.255999999999999872e+01,2.606782386751721817e-02
2.260000000000000142e+01,3.798873534666186852e-02
2.264000000000000057e+01,5.557296916095399303e-02
2.267999999999999972e+01,4.147530141817031696e-02
2.271999999999999886e+01,3.516485460897273568e-02
2.276000000000000156e+01,5.487176144073714623e-02
2.280000000000000071e+01,4.130384191184433701e-02
2.283999999999999986e+01,2.950542897477140963e-02
2.287999999999999901e+01,3.098097523885371893e-02
2.292000000000000171e+01,2.997822975820887970e-02
2.296000000000000085e+01,2.242638596776179785e-02
2.300000000000000000e+01,3.982994518944249496e-02
2.303999999999999915e+01,2.856045803050779458e-02
2.307999999999999829e+01,4.914904518337877976e-02
2.312000000000000099e+01,4.071060241268963098e-02
2.316000000000000014e+01,6.023641878031363306e-02
2.319999999999999929e+01,5.763787652405564371e-02
2.323999999999999844e+01,2.990611856800500304e-02
2.328000000000000114e+01,6.359002808910840798e-02
2.332000000000000028e+01,4.293711057851062884e-02
2.335999999999999943e+01,5.077942600108305976e-02
2.339999999999999858e+01,2.870975226284338058e-02
2.344000000000000128e+01,4.221497433897957591e-02
2.348000000000000043e+01,3.094096273870790975e-02
2.351999999999999957e+01,5.170201494237423867e-02
2.355999999999999872e+01,3.529442238282563815e-02
2.360000000000000142e+01,4.171833100790103138e-02
2.364000000000000057e+01,4.530996130618442086e-02
2.367999999999999972e+01,4.146753196801868796e-02
2.371999999999999886e+01,4.523532723328681920e-02
2.376000000000000156e+01,3.926817192235982495e-02
2.380000000000000071e+01,3.878734185664782508e-02
2.383999999999999986e+01,3.352732511761773865e-02
2.387999999999999901e+01,1.994828988477657244e-02
2.392000000000000171e+01,5.220965991555943236e-02
2.396000000000000085e+01,5.703692026768367868e-02
2.400000000000000000e+01,3.991680977855332352e-02
2.403999999999999915e+01,3.040692237329650077e-02
2.407999999999999829e+01,3.151611474793410139e-02
2.412000000000000099e+01,2.182840534770731297e-02
2.416000000000000014e+01,4.983948732117474828e-02
2.419999999999999929e+01,4.280582047063592743e-02
2.423999999999999844e+01,2.603720076456203514e-02
2.428000000000000114e+01,5.457800986802500975e-02
2.432000000000000028e+01,5.143690962666711691e-02
2.435999999999999943e+01,5.767594676489671418e-02
2.439999999999999858e+01,3.878176269492870226e-02
2.444000000000000128e+01,4.130314316852041340e-02
2.448000000000000043e+01,5.585953417477545341e-02
2.451999999999999957e+01,4.138888860939547026e-02
2.455999999999999872e+01,2.461693509307047445e-02
2.460000000000000142e+01,3.793313285536717427e-02
2.464000000000000057e+01,3.762056106907624153e-02
2.467999999999999972e+01,3.854651239255314082e-02
2.471999999999999886e+01,2.832157592893591938e-02
2.476000000000000156e+01,7.299734651334191873e-03
2.480000000000000071e+01,3.672007557827843688e-02
2.483999999999999986e+01,3.516647101722628760e-02
2.487999999999999901e+01,4.370096769258617619e-02
2.492000000000000171e+01,4.515538200625678761e-02
2.496000000000000085e+01,4.731734335549807324e-02
2.500000000000000000e+01,5.620456532229600038e-02
2.503999999999999915e+01,2.102046381834602601e-02
2.507999999999999829e+01,1.521654498756809179e-02
2.512000000000000099e+01,3.224412012350404838e-02
2.516000000000000014e+01,2.608537783908857627e-02
2.519999999999999929e+01,2.452799624417613053e-02
2.523999999999999844e+01,2.845693305645874416e-02
2.528000000000000114e+01,5.380143042345598980e-02
2.532000000000000028e+01,3.171176294107008742e-02
2.535999999999999943e+01,5.209965383526769800e-02
2.539999999999999858e+01,4.664635244653312501e-02
2.544000000000000128e+01,4.597140218915893306e-02
2.548000000000000043e+01,1.715436870910655442e-02
2.551999999999999957e+01,4.143438773750083431e-02
2.555999999999999872e+01,3.580240734805318487e-02
2.560000000000000142e+01,4.362136482502772944e-02
2.564000000000000057e+01,1.781149929219500577e-02
2.567999999999999972e+01,2.439067046932495014e-02
2.571999999999999886e+01,3.840306517111118090e-02
2.576000000000000156e+01,6.126461585982766883e-02
2.580000000000000071e+01,5.970090501838096891e-02
2.583999999999999986e+01,4.167655362555845039e-02
2.587999999999999901e+01,3.374029872052287243e-02
2.592000000000000171e+01,4.810455923871911205e-02
2.596000000000000085e+01,4.760110286945079539e-02
2.600000000000000000e+01,5.470786027675123009e-02
2.603999999999999915e+01,5.207965628099135713e-02
2.607999999999999829e+01,4.785810344248601217e-02
2.612000000000000099e+01,6.540609033290517571e-02
2.616000000000000014e+01,5.056419281492380291e-02
2.619999999999999929e+01,4.864225556960752317e-02
2.623999999999999844e+01,4.848980877078611085e-02
2.628000000000000114e+01,2.975282035286526405e-02
2.632000000000000028e+01,3.331634545872590170e-02
2.635999999999999943e+01,2.679092447891163326e-02
2.639999999999999858e+01,4.238902506146162430e-02
2.644000000000000128e+01,2.276537460155778070e-02
2.648000000000000043e+01,4.615025194435970479e-02
2.651999999999999957e+01,5.059660336533745167e-02
2.655999999999999872e+01,4.336108351716854575e-02
2.660000000000000142e+01,2.957644807420244451e-02
2.664000000000000057e+01,4.641092896724496181e-02
2.667999999999999972e+01,3.085552298260203427e-02
2.671999999999999886e+01,4.060948550825609765e-02
2.676000000000000156e+01,5.036302019584629891e-02
2.680000000000000071e+01,5.091256461600327660e-02
2.683999999999999986e+01,4.579795020932994620e-02
2.687999999999999901e+01,4.227583162850399173e-02
2.692000000000000171e+01,4.335506556954608209e-02
2.696000000000000085e+01,4.620378653807290931e-02
2.700000000000000000e+01,5.365385964857792567e-02
2.703999999999999915e+01,5.685570563474643541e-02
2.707999999999999829e+01,3.457033452334747070e-02
2.712000000000000099e+01,4.095717007181598479e-02
2.716000000000000014e+01,5.796307077441360811e-02
2.719999999999999929e+01,4.629590534211556335e-02
2.723999999999999844e+01,5.515933324959015893e-02
2.728000000000000114e+01,4.632317269697729112e-02
2.732000000000000028e+01,3.660162373943344483e-02
2.735999999999999943e+01,3.820710531240311542e-02
2.739999999999999858e+01,3.945817284513406659e-02
2.744000000000000128e+01,4.743448940877653675e-02
2.748000000000000043e+01,4.868469461730438180e-02
2.751999999999999957e+01,4.851853572659394626e-02
2.755999999999999872e+01,5.313071790015894830e-02
2.760000000000000142e+01,5.614954401306837539e-02
2.764000000000000057e+01,4.907941796206265889e-02
2.767999999999999972e+01,6.891158009642063542e-02
2.771999999999999886e+01,5.299101036550252219e-02
2.776000000000000156e+01,6.060988839103775144e-02
2.780000000000000071e+01,5.583892293302174931e-02
2.783999999999999986e+01,8.522689974321216722e-02
2.787999999999999901e+01,6.700370796601173851e-02
2.792000000000000171e+01,4.577122595637663632e-02
2.796000000000000085e+01,8.347650705894694989e-02
2.800000000000000000e+01,7.357061900429137657e-02
2.803999999999999915e+01,6.348730545180432394e-02
2.807999999999999829e+01,7.251864859802581442e-02
2.812000000000000099e+01,7.907167530666973920e-02
2.816000000000000014e+01,7.836761268655177692e-02
2.819999999999999929e+01,7.005247738467215712e-02
2.823999999999999844e+01,8.598475388601531377e-02
2.828000000000000114e+01,8.988116778752203162e-02
2.832000000000000028e+01,6.882133344774832295e-02
2.835999999999999943e+01,8.457531262980669262e-02
2.839999999999999858e+01,7.944384956582445367e-02
2.844000000000000128e+01,7.271902645234155915e-02
2.848000000000000043e+01,8.617080762728158982e-02
2.851999999999999957e+01,7.820617124176380830e-02
2.855999999999999872e+01,4.988706659500750928e-02
2.860000000000000142e+01,5.147910265084527925e-02
2.864000000000000057e+01,8.262829605627734775e-02
2.867999999999999972e+01,7.094508977665787974e-02
2.871999999999999886e+01,5.979242109625156065e-02
2.876000000000000156e+01,6.509953216257788333e-02
2.880000000000000071e+01,5.606988759992675986e-02
2.883999999999999986e+01,7.093366882826868114e-02
2.887999999999999901e+01,6.296509813442863202e-02
2.892000000000000171e+01,6.136778628048030620e-02
2.896000000000000085e+01,4.153990324417222713e-02
2.900000000000000000e+01,5.197714217406277509e-02
2.903999999999999915e+01,7.922814268412595173e-02
2.907999999999999829e+01,5.231928039193486923e-02
2.912000000000000099e+01,5.886138796360050607e-02
2.916000000000000014e+01,5.336762875663979278e-02
2.919999999999999929e+01,6.415665562548936163e-02
2.923999999999999844e+01,3.760001917740636579e-02
2.928000000000000114e+01,4.449435183340014199e-02
2.932000000000000028e+01,6.059180673427388281e-02
2.935999999999999943e+01,4.730821891711235738e-02
2.939999999999999858e+01,5.207733204130995941e-02
2.944000000000000128e+01,5.118227399225205171e-02
2.948000000000000043e+01,4.550800248763049727e-02
2.951999999999999957e+01,6.514308619715598880e-02
2.955999999999999872e+01,5.539712623892124876e-02
2.960000000000000142e+01,3.963301118459616745e-02
2.964000000000000057e+01,6.970927423175986293e-02
2.967999999999999972e+01,4.934249483956939381e-02
2.971999999999999886e+01,5.021426333667099173e-02
2.976000000000000156e+01,3.975812853208077896e-02
2.980000000000000071e+01,5.301842337827602364e-02
2.983999999999999986e+01,5.725170510274533997e-02
2.987999999999999901e+01,5.210399035248906852e-02
2.992000000000000171e+01,3.881422000825381080e-02
2.996000000000000085e+01,4.198422371240123629e-02
3.000000000000000000e+01,3.895907883948093731e-02
3.003999999999999915e+01,2.690691989510972729e-02
3.007999999999999829e+01,4.423491988078539355e-02
3.012000000000000099e+01,4.669518322471639254e-02
3.016000000000000014e+01,4.473021304707351653e-02
3.019999999999999929e+01,2.612759003252217854e-02
3.023999999999999844e+01,3.425025146532686277e-02
3.028000000000000114e+01,2.308038595842231214e-02
3.032000000000000028e+01,1.828177264333436317e-02
3.035999999999999943e+01,2.410220928677531474e-02
3.039999999999999858e+01,3.240008294854048593e-02
3.044000000000000128e+01,2.848509217191174184e-02
3.048000000000000043e+01,2.563160538149811957e-02
3.051999999999999957e+01,3.428212569747030036e-02
3.055999999999999872e+01,3.018880626063149761e-02
3.060000000000000142e+01,3.441364508279554091e-02
3.064000000000000057e+01,4.023096187597680062e-02
3.067999999999999972e+01,3.560532890636810416e-02
3.071999999999999886e+01,4.389963474563924467e-02
3.076000000000000156e+01,4.582179681736028160e-02
3.080000000000000071e+01,4.384969707296957481e-02
3.083999999999999986e+01,3.090367206142664858e-02
3.087999999999999901e+01,4.963869274088654471e-02
3.092000000000000171e+01,1.970058090797108946e-02
3.096000000000000085e+01,2.639927866893518327e-02
3.100000000000000000e+01,6.123918992051944482e-02
3.103999999999999915e+01,2.581299514355218233e-02
3.107999999999999829e+01,2.967848311354030766e-02
3.112000000000000099e+01,3.832229524269860355e-02
3.116000000000000014e+01,3.847006272652805925e-02
3.119999999999999929e+01,3.171470960883020912e-02
3.123999999999999844e+01,2.796776426519362313e-02
3.128000000000000114e+01,3.767172981578905538e-02
3.132000000000000028e+01,4.489736373320683815e-02
3.135999999999999943e+01,3.017559185948947773e-02
3.139999999999999858e+01,3.828528413112056161e-02
3.144000000000000128e+01,4.143876205835554660e-02
3.148000000000000043e+01,2.990148846724326182e-02
3.151999999999999957e+01,2.916025090778217102e-02
3.155999999999999872e+01,3.018847853213063939e-02
3.160000000000000142e+01,3.015430584590549426e-02
3.164000000000000057e+01,2.551790102861400608e-02
3.167999999999999972e+01,5.096961386967879815e-02
3.171999999999999886e+01,5.004912967191878920e-02
3.176000000000000156e+01,4.275649695798357242e-02
3.180000000000000071e+01,3.634837038055098446e-02
3.183999999999999986e+01,4.533805943492157792e-02
3.187999999999999901e+01,6.034501011019904881e-02
3.192000000000000171e+01,3.588238576390014034e-02
3.196000000000000085e+01,4.787957468132834904e-02
3.200000000000000000e+01,3.545147262711800112e-02
3.203999999999999915e+01,4.762474749440995941e-02
3.207999999999999829e+01,4.386832692348784091e-02
3.211999999999999744e+01,4.736810790449424297e-02
3.215999999999999659e+01,4.591167112209446066e-02
3.220000000000000284e+01,3.259634470677549162e-02
3.224000000000000199e+01,1.326285065899610385e-02
3.228000000000000114e+01,3.021217677385644104e-02
3.232000000000000028e+01,3.193977263694223329e-02
3.235999999999999943e+01,3.809170360784831094e-02
3.239999999999999858e+01,3.132279450694591683e-02
3.243999999999999773e+01,1.570385151941986607e-02
3.247999999999999687e+01,2.291636754872719561e-02
3.252000000000000313e+01,2.906647889872588861e-02
3.256000000000000227e+01,3.291524430877914437e-02
3.260000000000000142e+01,5.941847658430347845e-02
3.264000000000000057e+01,3.052288808177669108e-02
3.267999999999999972e+01,3.330833672272753149e-02
3.271999999999999886e+01,3.113756494104226447e-02
3.275999999999999801e+01,2.701942943274136116e-02
3.279999999999999716e+01,3.192740806257770431e-02
3.284000000000000341e+01,1.648089810706034053e-02
3.288000000000000256e+01,1.891008098615959768e-02
3.292000000000000171e+01,2.983440268897892197e-02
3.296000000000000085e+01,2.889983114992405316e-02
3.300000000000000000e+01,1.699132408668690281e-02
3.303999999999999915e+01,2.773728179952572939e-02
3.307999999999999829e+01,1.175705285235485210e-02
3.311999999999999744e+01,2.728086737773932624e-02
3.315999999999999659e+01,3.200773720068883499e-02
3.320000000000000284e+01,2.664562845736799523e-02
3.324000000000000199e+01,2.889369911057028742e-02
3.328000000000000114e+01,1.698198444248229591e-02
3.332000000000000028e+01,3.586634597111509198e-02
3.335999999999999943e+01,2.182981415666468417e-02
3.339999999999999858e+01,2.761588010434705073e-02
3.343999999999999773e+01,3.800326761286211552e-02
3.347999999999999687e+01,1.635471911609586923e-02
3.352000000000000313e+01,1.647567520842866187e-02
3.356000000000000227e+01,2.863159871590927399e-02
3.360000000000000142e+01,2.733570170864912247e-02
3.364000000000000057e+01,2.462341154056549297e-02
3.367999999999999972e+01,5.571605274566313049e-02
3.371999999999999886e+01,3.884351446834474753e-02
3.375999999999999801e+01,1.843068348203920695e-02
3.379999999999999716e+01,2.916790957616920144e-02
3.384000000000000341e+01,1.689576861340953001e-02
3.388000000000000256e+01,2.533118104107959234e-02
3.392000000000000171e+01,2.367761148346926581e-02
3.396000000000000085e+01,2.397048729449571119e-02
3.400000000000000000e+01,4.107710113251435147e-02
3.403999999999999915e+01,3.676727119766481228e-02
3.407999999999999829e+01,2.466934907761090742e-02
3.411999999999999744e+01,1.575681263710548494e-02
3.415999999999999659e+01,1.728631652882639536e-02
3.420000000000000284e+01,2.288616362784265737e-02
3.424000000000000199e+01,2.105190094492931374e-02
3.428000000000000114e+01,1.302246936083296773e-02
3.432000000000000028e+01,6.585498272813640995e-03
3.435999999999999943e+01,2.563485099712338108e-02
3.439999999999999858e+01,1.671906972254669221e-02
3.443999999999999773e+01,4.267016570136058368e-02
3.447999999999999687e+01,3.233752296961087819e-02
3.452000000000000313e+01,5.811069818205339549e-02
3.456000000000000227e+01,2.388326237937265714e-02
3.460000000000000142e+01,2.646961046710367624e-02
3.464000000000000057e+01,9.586419329592820587e-03
3.467999999999999972e+01,2.403027267525472896e-02
3.471999999999999886e+01,2.013394589155660837e-03
3.475999999999999801e+01,2.442093763936591805e-02
3.479999999999999716e+01,2.435008381858874346e-02
3.484000000000000341e+01,1.879202476350807366e-02
3.488000000000000256e+01,3.287956486106775877e-02
3.492000000000000171e+01,2.041790114267506839e-02
3.496000000000000085e+01,1.839827395760862058e-02
3.500000000000000000e+01,2.292686832232095073e-02
3.503999999999999915e+01,1.842842487245705679e-02
3.507999999999999829e+01,3.587647018536454374e-02
3.511999999999999744e+01,2.323547910204691938e-02
3.515999999999999659e+01,2.793919528189859475e-02
3.520000000000000284e+01,2.609375502877751482e-02
3.524000000000000199e+01,0.000000000000000000e+00
3.528000000000000114e+01,1.585278149686341134e-02
3.532000000000000028e+01,1.807674272982362149e-02
3.535999999999999943e+01,1.941527737890733768e-02
3.539999999999999858e+01,3.862949289607255782e-02
3.543999999999999773e+01,2.014403249177498800e-02
3.547999999999999687e+01,2.714489058134649316e-02
3.552000000000000313e+01,1.786205373437893540e-02
3.556000000000000227e+01,2.822481281098668596e-02
3.560000000000000142e+01,8.321541630501895492e-03
3.564000000000000057e+01,2.293115884200287377e-02
3.567999999999999972e+01,2.674381938453368468e-02
3.571999999999999886e+01,1.179490189941709115e-02
3.575999999999999801e+01,1.171280668691139330e-02
3.579999999999999716e+01,2.472761774179761327e-02
3.584000000000000341e+01,2.393661448196826580e-02
3.588000000000000256e+01,3.270268547909311457e-02
3.592000000000000171e+01,6.069968835271296811e-03
3.596000000000000085e+01,1.554306329762160724e-02
3.600000000000000000e+01,2.342276181086591635e-02
3.603999999999999915e+01,1.077096496162882784e-02
3.607999999999999829e+01,3.298603757803725278e-02
3.611999999999999744e+01,2.847490909861581654e-02
3.615999999999999659e+01,1.829957753517847535e-02
3.620000000000000284e+01,2.387602406259387369e-02
3.624000000000000199e+01,1.405373014209714694e-02
3.628000000000000114e+01,3.131067515031586007e-02
3.632000000000000028e+01,3.369985407531462390e-02
3.635999999999999943e+01,3.520360166781183464e-02
3.639999999999999858e+01,1.812275958512395840e-02
3.643999999999999773e+01,1.502377863834494960e-02
3.647999999999999687e+01,2.803055761585847294e-02
3.652000000000000313e+01,3.112533384319384269e-02
3.656000000000000227e+01,6.608948977667373180e-03
3.660000000000000142e+01,3.536655558734945470e-02
3.664000000000000057e+01,4.111478184399176145e-02
3.667999999999999972e+01,2.898638342194352277e-02
3.671999999999999886e+01,2.942391215397007626e-02
3.675999999999999801e+01,1.039189159366953920e-02
3.679999999999999716e+01,3.401436666720941693e-02
3.684000000000000341e+01,1.409643698080773229e-02
3.688000000000000256e+01,3.099228035795274089e-02
3.692000000000000171e+01,3.921506015616117030e-02
3.696000000000000085e+01,2.584439073398894435e-02
3.700000000000000000e+01,4.557067059345323162e-02
3.703999999999999915e+01,1.980963734644972801e-02
3.707999999999999829e+01,2.696856141966540513e-02
3.711999999999999744e+01,4.633942758445103866e-02
3.715999999999999659e+01,3.155044129068657749e-02
3.720000000000000284e+01,3.764598420344400509e-02
3.724000000000000199e+01,4.144015895269077127e-02
3.728000000000000114e+01,3.691525157655083100e-02
3.732000000000000028e+01,1.575265755329189124e-02
3.735999999999999943e+01,3.087285956965747646e-02
3.739999999999999858e+01,3.643503782010958092e-02
3.743999999999999773e+01,3.137724262553881482e-02
3.747999999999999687e+01,3.056676664430074686e-02
3.752000000000000313e+01,2.656996326230001010e-02
3.756000000000000227e+01,2.929836085512533758e-02
3.760000000000000142e+01,2.600856536285981943e-02
3.764000000000000057e+01,2.908998730247562212e-02
3.767999999999999972e+01,4.402936551137658083e-02
3.771999999999999886e+01,3.649033298330483371e-02
3.775999999999999801e+01,4.682697011655940350e-02
3.779999999999999716e+01,4.813655632903264536e-02
3.784000000000000341e+01,4.926867050714882346e-02
3.788000000000000256e+01,4.155072496612106925e-02
3.792000000000000171e+01,4.108895343499641833e-02
3.796000000000000085e+01,5.106920419132285338e-02
3.800000000000000000e+01,4.228786609313673478e-02
3.803999999999999915e+01,4.093969301654611787e-02
3.807999999999999829e+01,4.366184472258571869e-02
3.811999999999999744e+01,6.178178223906315852e-02
3.815999999999999659e+01,4.114008142865344803e-02
3.820000000000000284e+01,6.669270123455672827e-02
3.824000000000000199e+01,6.286423615463429537e-02
3.828000000000000114e+01,6.222113699998007424e-02
3.832000000000000028e+01,8.033866275505904819e-02
3.835999999999999943e+01,7.385387575571671082e-02
3.839999999999999858e+01,7.798810053595781056e-02
3.843999999999999773e+01,1.074316381726104219e-01
3.847999999999999687e+01,1.175826099308281969e-01
3.852000000000000313e+01,1.376446265726848917e-01
3.856000000000000227e+01,1.626619236254687184e-01
3.860000000000000142e+01,1.841389049859201155e-01
3.864000000000000057e+01,2.018985788825666261e-01
3.867999999999999972e+01,2.456755308220641976e-01
3.871999999999999886e+01,2.409563047914382306e-01
3.875999999999999801e+01,3.162367887896260221e-01
3.879999999999999716e+01,3.616052104981758442e-01
3.884000000000000341e+01,3.736987296781223988e-01
3.888000000000000256e+01,4.240219450765846387e-01
3.892000000000000171e+01,4.746986580567569280e-01
3.896000000000000085e+01,4.970562322212575546e-01
3.900000000000000000e+01,5.703868959044107179e-01
3.903999999999999915e+01,6.299117300772479888e-01
3.907999999999999829e+01,6.827103978109200222e-01
3.911999999999999744e+01,7.781635501616219752e-01
3.915999999999999659e+01,8.001647094574443342e-01
3.920000000000000284e+01,8.517229759573802239e-01
3.924000000000000199e+01,8.868205382743645782e-01
3.928000000000000114e+01,9.295282513061766672e-01
3.932000000000000028e+01,9.607310240579141070e-01
3.935999999999999943e+01,9.809598310842136959e-01
3.939999999999999858e+01,9.999492091791367665e-01
3.943999999999999773e+01,1.000000000000000000e+00
3.947999999999999687e+01,9.942095803898846063e-01
3.952000000000000313e+01,9.698345562888739391e-01
3.956000000000000227e+01,9.362554813279744259e-01
3.960000000000000142e+01,8.722333655339548075e-01
3.964000000000000057e+01,8.368833969470168554e-01
3.967999999999999972e+01,7.797629746419106889e-01
3.971999999999999886e+01,7.348544820819493673e-01
3.975999999999999801e+01,6.504763772711912306e-01
3.979999999999999716e+01,6.232660635336439992e-01
3.984000000000000341e+01,5.411878695725272914e-01
3.988000000000000256e+01,5.389323887402368563e-01
3.992000000000000171e+01,4.897736484732193585e-01
3.996000000000000085e+01,4.213223352998019533e-01
4.000000000000000000e+01,4.026051658257203125e-01
4.003999999999999915e+01,3.741529684678275292e-01
4.007999999999999829e+01,3.382666335960347048e-01
4.011999999999999744e+01,3.016718411184376447e-01
4.015999999999999659e+01,2.737491446660426098e-01
4.020000000000000284e+01,2.684808789895681835e-01
4.024000000000000199e+01,2.529466097349756248e-01
4.028000000000000114e+01,2.232525219187173338e-01
4.032000000000000028e+01,2.174518053792362793e-01
4.035999999999999943e+01,1.774912211856049526e-01
4.039999999999999858e+01,1.743443933403600321e-01
4.043999999999999773e+01,1.322589247598355000e-01
4.047999999999999687e+01,1.469872608604019248e-01
4.052000000000000313e+01,1.174672083999770689e-01
4.056000000000000227e+01,1.352034148382744438e-01
4.060000000000000142e+01,1.093991986618000484e-01
4.064000000000000057e+01,1.060724195903237910e-01
4.067999999999999972e+01,1.000902728570119693e-01
4.071999999999999886e+01,8.490406975540618073e-02
4.075999999999999801e+01,9.555814323798389465e-02
4.079999999999999716e+01,8.284883345018685674e-02
4.084000000000000341e+01,9.403289246988208450e-02
4.088000000000000256e+01,8.539339946986018726e-02
4.092000000000000171e+01,7.197463869000406134e-02
4.096000000000000085e+01,8.333420405544207654e-02
4.100000000000000000e+01,6.389673877663012980e-02
4.103999999999999915e+01,7.313141405682482832e-02
4.107999999999999829e+01,6.395846901979650168e-02
4.111999999999999744e+01,6.009477540026991055e-02
4.115999999999999659e+01,5.003588020901996586e-02
4.120000000000000284e+01,5.944556257757260126e-02
4.124000000000000199e+01,4.903169121690312271e-02
4.128000000000000114e+01,4.481202842159228567e-02
4.132000000000000028e+01,6.714060587734442531e-02
4.135999999999999943e+01,5.407036985962959674e-02
4.139999999999999858e+01,5.126514821256818871e-02
4.143999999999999773e+01,4.545057213166133619e-02
4.147999999999999687e+01,4.122842254667612866e-02
4.152000000000000313e+01,4.585535411029031949e-02
4.156000000000000227e+01,4.782691383327883350e-02
4.160000000000000142e+01,3.616962347099870329e-02
4.164000000000000057e+01,5.159154658480374911e-02
4.167999999999999972e+01,4.683593071693691740e-02
4.171999999999999886e+01,2.491163256341871052e-02
4.175999999999999801e+01,3.165947154989716406e-02
4.179999999999999716e+01,4.566346612161354540e-02
4.184000000000000341e+01,3.931292937035062857e-02
4.188000000000000256e+01,3.384685088944971304e-02
4.192000000000000171e+01,3.740684323922560672e-02
4.196000000000000085e+01,4.185129347947352807e-02
4.200000000000000000e+01,4.399435295275544444e-02
4.203999999999999915e+01,3.410148448512025088e-02
4.207999999999999829e+01,4.279223149086064382e-02
4.211999999999999744e+01,5.449133460562171488e-02
4.215999999999999659e+01,4.194209008424097662e-02
4.220000000000000284e+01,4.638353623265432241e-02
4.224000000000000199e+01,6.569177388258817807e-02
4.228000000000000114e+01,5.668085695141537178e-02
4.232000000000000028e+01,5.793495002216095952e-02
4.235999999999999943e+01,6.874608657877055717e-02
4.239999999999999858e+01,7.796379679507363381e-02
4.243999999999999773e+01,7.815443405697515555e-02
4.247999999999999687e+01,7.922952674006365770e-02
4.252000000000000313e+01,9.110060321992774490e-02
4.256000000000000227e+01,8.137820388711079767e-02
4.260000000000000142e+01,9.112437546602138172e-02
4.264000000000000057e+01,8.104698666763476833e-02
4.267999999999999972e+01,7.167706075918275910e-02
4.271999999999999886e+01,6.850133657806926901e-02
4.275999999999999801e+01,5.612154634146676591e-02
4.279999999999999716e+01,3.683858041928628202e-02
4.284000000000000341e+01,4.410384753025867882e-02
4.288000000000000256e+01,5.154560183685849561e-02
4.292000000000000171e+01,4.376557555625820023e-02
4.296000000000000085e+01,5.138331210275048216e-02
4.300000000000000000e+01,3.687659600258457598e-02
4.303999999999999915e+01,4.042251607253204843e-02
4.307999999999999829e+01,4.502988029601882880e-02
4.311999999999999744e+01,4.096415149909372194e-02
4.315999999999999659e+01,2.521647260584616856e-02
4.320000000000000284e+01,2.893736177515110822e-02
4.324000000000000199e+01,2.717100582170209333e-02
4.328000000000000114e+01,2.575812674595783641e-02
4.332000000000000028e+01,3.850406771710944420e-02
4.335999999999999943e+01,3.549725126708377920e-02
4.339999999999999858e+01,2.045450041801084862e-02
4.343999999999999773e+01,2.611925756251203684e-02
4.347999999999999687e+01,3.638528859165027218e-02
4.352000000000000313e+01,2.558881399400956755e-02
4.356000000000000227e+01,4.912819859771675596e-02
4.360000000000000142e+01,3.125104531910567057e-02
4.364000000000000057e+01,2.611677791561133402e-02
4.367999999999999972e+01,2.859264033299454069e-02
4.371999999999999886e+01,2.628922167439334476e-02
4.375999999999999801e+01,2.487025235873901313e-02
4.379999999999999716e+01,3.743310922911322752e-02
4.384000000000000341e+01,4.326977705686669423e-02
4.388000000000000256e+01,3.016783652666485752e-02
4.392000000000000171e+01,3.122471319418385072e-02
4.396000000000000085e+01,5.369706171210155560e-02
4.400000000000000000e+01,4.731927273669529754e-02
4.403999999999999915e+01,3.687016749185416387e-02
4.407999999999999829e+01,4.358873557091938467e-02
4.411999999999999744e+01,3.703242476123565219e-02
4.415999999999999659e+01,4.198005628669192191e-02
4.420000000000000284e+01,4.020149706002256601e-02
4.424000000000000199e+01,4.337819127208986797e-02
4.428000000000000114e+01,3.257203950951869514e-02
4.432000000000000028e+01,4.742915584449843708e-02
4.435999999999999943e+01,4.175473730843635989e-02
4.439999999999999858e+01,6.156659490850777822e-02
4.443999999999999773e+01,3.925394431130627831e-02
4.447999999999999687e+01,5.233909803588193688e-02
4.452000000000000313e+01,5.020246357545734422e-02
4.456000000000000227e+01,5.408303052337377903e-02
4.460000000000000142e+01,6.026397547761114942e-02
4.464000000000000057e+01,7.140017197113526781e-02
4.467999999999999972e+01,7.581017543319371055e-02
4.471999999999999886e+01,8.198958158715588529e-02
4.475999999999999801e+01,8.657555019405652197e-02
4.479999999999999716e+01,9.487782850977215243e-02
4.484000000000000341e+01,9.609992987118735897e-02
4.488000000000000256e+01,1.203304229480125914e-01
4.492000000000000171e+01,1.190736142117991142e-01
4.496000000000000085e+01,1.217101060061481360e-01
4.500000000000000000e+01,1.441691404785792607e-01
4.503999999999999915e+01,1.498134600629786040e-01
4.507999999999999829e+01,1.646608270539269003e-01
4.511999999999999744e+01,1.756138642284526541e-01
4.515999999999999659e+01,1.870973609347954814e-01
4.520000000000000284e+01,1.976953843307912295e-01
4.524000000000000199e+01,2.243991260531240373e-01
4.528000000000000114e+01,2.006597512575517273e-01
4.532000000000000028e+01,2.133801262840758495e-01
4.535999999999999943e+01,2.514097813065259701e-01
4.539999999999999858e+01,2.756335766174049517e-01
4.543999999999999773e+01,2.800337982548365412e-01
4.547999999999999687e+01,2.810706631109227138e-01
4.552000000000000313e+01,3.068858324585727604e-01
4.556000000000000227e+01,3.344704005092815624e-01
4.560000000000000142e+01,3.169215979683469020e-01
4.564000000000000057e+01,3.285758888873256400e-01
4.567999999999999972e+01,3.738580626144575869e-01
4.571999999999999886e+01,3.748918230877480995e-01
4.575999999999999801e+01,3.715002759609136729e-01
4.579999999999999716e+01,3.831524950120219764e-01
4.584000000000000341e+01,3.877245323602047100e-01
4.588000000000000256e+01,3.607915495647376902e-01
4.592000000000000171e+01,3.805838254707802903e-01
4.596000000000000085e+01,3.584285775431673149e-01
4.600000000000000000e+01,3.440604400011491038e-01
4.603999999999999915e+01,3.373024210732533668e-01
4.607999999999999829e+01,3.270040509333098089e-01
4.611999999999999744e+01,3.085635482716613809e-01
4.615999999999999659e+01,2.734853169850484100e-01
4.620000000000000284e+01,2.661942438468999916e-01
4.624000000000000199e+01,2.624424819980190060e-01
4.628000000000000114e+01,2.278936644321477578e-01
4.632000000000000028e+01,2.313975161734943831e-01
4.635999999999999943e+01,2.145468151280763291e-01
4.639999999999999858e+01,1.700849062633260356e-01
4.643999999999999773e+01,1.665075314403965945e-01
4.647999999999999687e+01,1.592128119244419215e-01
4.652000000000000313e+01,1.623600740477078308e-01
4.656000000000000227e+01,1.547103278369630075e-01
4.660000000000000142e+01,1.321927667271326490e-01
4.664000000000000057e+01,1.133915065886471202e-01
4.667999999999999972e+01,1.253862592052516212e-01
4.671999999999999886e+01,1.186193815593329925e-01
4.675999999999999801e+01,1.065422336570276407e-01
4.679999999999999716e+01,9.304863010199296292e-02
4.684000000000000341e+01,8.433327605774251778e-02
4.688000000000000256e+01,9.721037157943292206e-02
4.692000000000000171e+01,7.114879559475327520e-02
4.696000000000000085e+01,8.278590271511658549e-02
4.700000000000000000e+01,6.769675707460941216e-02
4.703999999999999915e+01,6.658942223458554077e-02
4.707999999999999829e+01,6.264969775999830459e-02
4.711999999999999744e+01,7.534665742891508144e-02
4.715999999999999659e+01,5.052087710401084730e-02
4.720000000000000284e+01,5.224330910825430302e-02
4.724000000000000199e+01,5.113335071815434951e-02
4.728000000000000114e+01,4.382816169474564733e-02
4.732000000000000028e+01,4.997380739762307539e-02
4.735999999999999943e+01,6.744638865851293463e-02
4.739999999999999858e+01,4.952012776424044582e-02
4.743999999999999773e+01,4.716860000474763781e-02
4.747999999999999687e+01,6.286968733147295374e-02
4.752000000000000313e+01,4.989761203124151723e-02
4.756000000000000227e+01,3.957988384445566138e-02
4.760000000000000142e+01,4.607582910336122106e-02
4.764000000000000057e+01,4.372166829654223347e-02
4.767999999999999972e+01,4.472982035944331886e-02
4.771999999999999886e+01,4.166663867796926296e-02
4.775999999999999801e+01,4.072682841563362438e-02
4.779999999999999716e+01,4.545022101303906881e-02
4.784000000000000341e+01,2.557125583905763694e-02
4.788000000000000256e+01,3.560333981417915239e-02
4.792000000000000171e+01,2.457289726857147388e-02
4.796000000000000085e+01,4.026765502468377528e-02
4.800000000000000000e+01,4.516539760876530502e-02
4.803999999999999915e+01,3.130150366213868551e-02
4.807999999999999829e+01,3.442827246339081465e-02
4.811999999999999744e+01,2.817395817499622826e-02
4.815999999999999659e+01,1.660936698213976923e-02
4.820000000000000284e+01,2.557526959787482027e-02
4.824000000000000199e+01,2.622203804329245255e-02
4.828000000000000114e+01,2.598331855259786161e-02
4.832000000000000028e+01,2.981487521861287196e-02
4.835999999999999943e+01,3.488484254695430747e-02
4.839999999999999858e+01,3.765338871712943514e-02
4.843999999999999773e+01,3.546563981628245155e-02
4.847999999999999687e+01,2.407379769781109111e-02
4.852000000000000313e+01,2.790270042254965402e-02
4.856000000000000227e+01,3.827976030571120236e-02
4.860000000000000142e+01,4.352353277654322922e-02
4.864000000000000057e+01,2.788176688916344306e-02
4.867999999999999972e+01,3.489439150936372858e-02
4.871999999999999886e+01,4.013656819641987089e-02
4.875999999999999801e+01,3.157286921652461414e-02
4.879999999999999716e+01,4.743347598964824108e-02
4.884000000000000341e+01,4.258553503636246934e-02
4.888000000000000256e+01,4.216185074361095825e-02
4.892000000000000171e+01,3.748983542660692947e-02
4.896000000000000085e+01,2.786152256929574911e-02
4.900000000000000000e+01,1.717072677533495323e-02
4.903999999999999915e+01,2.630245447501100564e-02
4.907999999999999829e+01,3.596462309189391027e-02
4.911999999999999744e+01,2.456425948969758952e-02
4.915999999999999659e+01,2.059700810438613167e-02
4.920000000000000284e+01,2.689473405045266635e-02
4.924000000000000199e+01,3.726273178449380358e-02
4.928000000000000114e+01,2.232039858301839916e-02
4.932000000000000028e+01,2.897050336083872857e-02
4.935999999999999943e+01,3.473511507403178461e-02
4.939999999999999858e+01,2.952571338559157460e-02
4.943999999999999773e+01,3.670518686718802354e-02
4.947999999999999687e+01,1.945928637117984306e-02
4.952000000000000313e+01,2.734565453529016685e-02
4.956000000000000227e+01,2.638190751631580913e-02
4.960000000000000142e+01,2.541762420068107223e-02
4.964000000000000057e+01,1.737314113734557408e-02
4.967999999999999972e+01,2.348744791965052744e-02
4.971999999999999886e+01,2.588439462338507080e-02
4.975999999999999801e+01,2.633389687387799674e-02
4.979999999999999716e+01,4.430502844919670391e-02
4.984000000000000341e+01,3.165607898394731667e-02
4.988000000000000256e+01,2.343138143060717951e-02
4.992000000000000171e+01,2.140085141450521339e-02
4.996000000000000085e+01,2.290961502278558368e-02
5.000000000000000000e+01,2.636474783175675463e-02
5.003999999999999915e+01,4.008485398326096932e-02
5.007999999999999829e+01,2.991055805256769701e-02
5.011999999999999744e+01,2.858530243229833248e-02
5.015999999999999659e+01,3.363120479112446937e-02
5.020000000000000284e+01,3.248186265065665379e-02
5.024000000000000199e+01,3.451782964190146935e-02
5.028000000000000114e+01,3.920813083033163060e-02
5.032000000000000028e+01,3.257043108533871911e-02
5.035999999999999943e+01,2.221536822265528927e-02
5.039999999999999858e+01,2.708104127576662842e-02
5.043999999999999773e+01,1.955676333645555223e-02
5.047999999999999687e+01,2.566029669930280227e-02
5.052000000000000313e+01,3.317922204897370136e-02
5.056000000000000227e+01,2.193649890140129954e-02
5.060000000000000142e+01,3.706498035612392633e-02
5.064000000000000057e+01,3.183888869996682330e-02
5.067999999999999972e+01,3.032907883070936825e-02
5.071999999999999886e+01,3.607538218895431359e-02
5.075999999999999801e+01,2.359101084481312130e-02
5.079999999999999716e+01,2.066364290814027768e-02
5.084000000000000341e+01,2.623132869982658030e-02
5.088000000000000256e+01,3.675423639937921289e-02
5.092000000000000171e+01,4.373676990353869698e-02
5.096000000000000085e+01,3.567447622308000249e-02
5.100000000000000000e+01,3.911609239716586778e-02
5.103999999999999915e+01,2.910580524049000486e-02
5.107999999999999829e+01,2.900650332472230405e-02
5.111999999999999744e+01,2.625178417147335311e-02
5.115999999999999659e+01,4.013372997728324731e-02
5.120000000000000284e+01,3.950182220338702144e-02
5.124000000000000199e+01,2.913483336107912380e-02
5.128000000000000114e+01,3.664344997868678594e-02
5.132000000000000028e+01,3.795681677854044478e-02
5.135999999999999943e+01,3.555281571207856428e-02
5.139999999999999858e+01,3.350225296448593876e-02
5.143999999999999773e+01,2.525643982930434600e-02
5.147999999999999687e+01,4.037297023166225990e-02
5.152000000000000313e+01,2.982517589852872603e-02
5.156000000000000227e+01,3.927688467402434130e-02
5.160000000000000142e+01,2.748905787232316586e-02
5.164000000000000057e+01,2.632017997840966142e-02
5.167999999999999972e+01,4.001804875899610259e-02
5.171999999999999886e+01,3.424629720782463443e-02
5.175999999999999801e+01,4.511120776653690378e-02
5.179999999999999716e+01,2.517903639584858841e-02
5.184000000000000341e+01,3.303399639137936938e-02
5.188000000000000256e+01,4.053442610032986088e-02
5.192000000000000171e+01,3.953871258249532644e-02
5.196000000000000085e+01,3.482562834917017625e-02
5.200000000000000000e+01,3.843060075427173067e-02
5.203999999999999915e+01,4.362794950981420394e-02
5.207999999999999829e+01,3.519639841449745399e-02
5.211999999999999744e+01,3.118908859416989060e-02
5.215999999999999659e+01,3.603080939707106745e-02
5.220000000000000284e+01,3.166841931746267741e-02
5.224000000000000199e+01,4.075684060090515454e-02
5.228000000000000114e+01,2.612784093670236091e-02
5.232000000000000028e+01,2.848948388620810290e-02
5.235999999999999943e+01,2.430188891633502588e-02
5.239999999999999858e+01,3.710493618028052470e-02
5.243999999999999773e+01,3.450916606858785846e-02
5.247999999999999687e+01,4.129339980514614566e-02
5.252000000000000313e+01,3.444873160145021929e-02
5.256000000000000227e+01,4.105487324124505732e-02
5.260000000000000142e+01,4.058080107740890535e-02
5.264000000000000057e+01,3.798227920276366770e-02
5.267999999999999972e+01,3.803808012860359494e-02
5.271999999999999886e+01,3.242959933319665422e-02
5.275999999999999801e+01,3.549315473031608437e-02
5.279999999999999716e+01,3.147649537407957998e-02
5.284000000000000341e+01,2.409644428661713786e-02
5.288000000000000256e+01,1.476893393020291961e-02
5.292000000000000171e+01,3.110465083316411514e-02
5.296000000000000085e+01,3.257252263578431367e-02
5.300000000000000000e+01,3.669471571932972354e-02
5.303999999999999915e+01,2.842694546402762396e-02
5.307999999999999829e+01,3.095510886002047005e-02
5.311999999999999744e+01,3.932344143459647057e-02
5.315999999999999659e+01,2.839913842092186419e-02
5.320000000000000284e+01,3.428848226063833243e-02
5.324000000000000199e+01,3.168167660538470654e-02
5.328000000000000114e+01,3.066724141227699166e-02
5.332000000000000028e+01,3.832483975246563090e-02
5.335999999999999943e+01,3.376946481577405151e-02
5.339999999999999858e+01,2.585069548862653846e-02
5.343999999999999773e+01,3.155972340770717838e-02
5.347999999999999687e+01,3.248942390422278337e-02
5.352000000000000313e+01,3.271060316335825530e-02
5.356000000000000227e+01,2.850643778309355780e-02
5.360000000000000142e+01,2.695659083457901603e-02
5.364000000000000057e+01,2.222033993746588484e-02
5.367999999999999972e+01,2.987294407621921000e-02
5.371999999999999886e+01,3.026833751135414238e-02
5.375999999999999801e+01,3.101715805860323985e-02
5.379999999999999716e+01,3.672118664773347391e-02
5.384000000000000341e+01,4.401758303977965081e-02
5.388000000000000256e+01,2.865850037554477925e-02
5.392000000000000171e+01,2.621924635208845375e-02
5.396000000000000085e+01,3.156706491517154850e-02
5.400000000000000000e+01,3.408246098320579648e-02
5.403999999999999915e+01,3.606632492610226809e-02
5.407999999999999829e+01,3.380183334184086452e-02
5.411999999999999744e+01,3.649254827990069949e-02
5.415999999999999659e+01,3.812075577840556145e-02
5.420000000000000284e+01,3.001386815256856105e-02
5.424000000000000199e+01,2.987104336518334874e-02
5.428000000000000114e+01,4.158609601990729404e-02
5.432000000000000028e+01,3.170761701811952715e-02
5.435999999999999943e+01,4.643040894852280831e-02
5.439999999999999858e+01,3.318797190753845078e-02
5.443999999999999773e+01,4.861761179398493143e-02
5.447999999999999687e+01,3.130324962791442706e-02
5.452000000000000313e+01,3.292642702537854765e-02
5.456000000000000227e+01,2.215963386608500729e-02
5.460000000000000142e+01,3.227728728723733981e-02
5.464000000000000057e+01,4.009348991880304358e-02
5.467999999999999972e+01,3.286484770086526425e-02
5.471999999999999886e+01,2.138784691664958118e-02
5.475999999999999801e+01,3.575105623586657955e-02
5.479999999999999716e+01,4.108713390767618906e-02
5.484000000000000341e+01,4.093591137268120378e-02
5.488000000000000256e+01,4.485493384341544820e-02
5.492000000000000171e+01,4.275568098287285679e-02
5.496000000000000085e+01,2.773548092154045144e-02
5.500000000000000000e+01,4.032540563924452010e-02
5.503999999999999915e+01,2.335717411269454952e-02
5.507999999999999829e+01,2.656542056114085532e-02
5.511999999999999744e+01,2.198547491331147644e-02
5.515999999999999659e+01,4.289175430641002651e-02
5.520000000000000284e+01,3.052305348339932889e-02
5.524000000000000199e+01,3.142815819603687194e-02
5.528000000000000114e+01,2.454507005261877262e-02
5.532000000000000028e+01,3.164375339106843127e-02
5.535999999999999943e+01,3.113123507509980847e-02
5.539999999999999858e+01,3.999870674139690413e-02
5.543999999999999773e+01,5.010455544975508935e-02
5.547999999999999687e+01,4.410360602054538143e-02
5.552000000000000313e+01,3.491624371532207199e-02
5.556000000000000227e+01,2.732124104537950876e-02
5.560000000000000142e+01,3.813279806587436399e-02
5.564000000000000057e+01,4.593493322204792589e-02
5.567999999999999972e+01,3.568336189412750492e-02
5.571999999999999886e+01,3.799762749640567261e-02
5.575999999999999801e+01,3.517857168619895752e-02
5.579999999999999716e+01,4.138552079575315984e-02
5.584000000000000341e+01,3.998126597154914863e-02
5.588000000000000256e+01,4.176229349681225694e-02
5.592000000000000171e+01,3.787902410522830249e-02
5.596000000000000085e+01,3.293323872656436779e-02
5.600000000000000000e+01,1.913730758367035781e-02
5.603999999999999915e+01,4.127010061302992944e-02
5.607999999999999829e+01,4.057041255760603093e-02
5.611999999999999744e+01,3.633032561393863269e-02
5.615999999999999659e+01,3.793039341303425238e-02
5.620000000000000284e+01,4.236175887898235848e-02
5.624000000000000199e+01,4.219077539768759794e-02
5.628000000000000114e+01,3.777142594225983002e-02
5.632000000000000028e+01,4.467896949716398947e-02
5.635999999999999943e+01,3.742661813251162845e-02
5.639999999999999858e+01,3.194361399582227451e-02
5.643999999999999773e+01,4.309724974545146164e-02
5.647999999999999687e+01,3.071043618473759049e-02
5.652000000000000313e+01,3.726115269030821214e-02
5.656000000000000227e+01,3.903252714754864433e-02
5.660000000000000142e+01,4.664405425815708328e-02
5.664000000000000057e+01,3.549390399988183037e-02
5.667999999999999972e+01,3.708657769465259491e-02
5.671999999999999886e+01,3.159901802145712035e-02
5.675999999999999801e+01,3.000470284504839699e-02
5.679999999999999716e+01,2.681689294813237312e-02
5.684000000000000341e+01,3.778783889670146723e-02
5.688000000000000256e+01,4.061660122836004833e-02
5.692000000000000171e+01,3.884301138371076823e-02
5.696000000000000085e+01,5.459101686373188378e-02
5.700000000000000000e+01,3.317021878651626315e-02
5.703999999999999915e+01,5.245691283416852729e-02
5.707999999999999829e+01,4.006154197204291056e-02
5.711999999999999744e+01,3.757712766913014202e-02
5.715999999999999659e+01,3.898595596355410031e-02
5.720000000000000284e+01,3.419950651830868521e-02
5.724000000000000199e+01,3.826206357327677221e-02
5.728000000000000114e+01,4.586387949269180031e-02
5.732000000000000028e+01,4.319961072747260933e-02
5.735999999999999943e+01,4.159671830542691073e-02
5.739999999999999858e+01,3.556846300926078119e-02
5.743999999999999773e+01,2.865467627957687599e-02
5.747999999999999687e+01,3.359875179640200299e-02
5.752000000000000313e+01,4.031216922273022502e-02
5.756000000000000227e+01,3.764445873239111173e-02
5.760000000000000142e+01,3.568414028250070646e-02
5.764000000000000057e+01,4.363477592253811599e-02
5.767999999999999972e+01,3.707152721177907340e-02
5.771999999999999886e+01,3.776435848814697904e-02
5.775999999999999801e+01,4.217343793114915890e-02
5.779999999999999716e+01,5.755542019346344962e-02
5.784000000000000341e+01,3.771550230649706875e-02
5.788000000000000256e+01,4.513171235947227578e-02
5.792000000000000171e+01,3.626412110670720196e-02
5.796000000000000085e+01,3.748447400583718170e-02
5.800000000000000000e+01,3.268653694792522657e-02
5.803999999999999915e+01,3.248980463466943913e-02
5.807999999999999829e+01,4.468190646332988181e-02
5.811999999999999744e+01,3.988223971041537919e-02
5.815999999999999659e+01,2.977224856678842985e-02
5.820000000000000284e+01,3.488295629968082151e-02
5.824000000000000199e+01,2.707270125629317181e-02
5.828000000000000114e+01,4.138581638910285992e-02
5.832000000000000028e+01,3.976911147977700567e-02
5.835999999999999943e+01,3.549695495292445185e-02
5.839999999999999858e+01,2.449854024347038195e-02
5.843999999999999773e+01,4.093324239625519695e-02
5.847999999999999687e+01,3.382748574144688047e-02
5.852000000000000313e+01,3.043797364431775204e-02
5.856000000000000227e+01,3.979127657281952141e-02
5.860000000000000142e+01,4.401124460274129235e-02
5.864000000000000057e+01,2.504473622834453919e-02
5.867999999999999972e+01,3.563524255484534081e-02
5.871999999999999886e+01,3.666762387474645224e-02
5.875999999999999801e+01,2.318611571533599897e-02
5.879999999999999716e+01,3.395187424116651725e-02
5.884000000000000341e+01,3.392056611987059184e-02
5.888000000000000256e+01,4.273825671104310858e-02
5.892000000000000171e+01,3.421019175868583728e-02
5.896000000000000085e+01,4.107981365542026642e-02
5.900000000000000000e+01,3.591342707455655314e-02
5.903999999999999915e+01,3.410929941903225598e-02
5.907999999999999829e+01,2.947272514544386351e-02
5.911999999999999744e+01,3.103027472174310977e-02
5.915999999999999659e+01,3.984389744714918885e-02
5.920000000000000284e+01,4.140028344647156411e-02
5.924000000000000199e+01,2.879676085019717072e-02
5.928000000000000114e+01,3.318384781720083720e-02
5.932000000000000028e+01,4.252611661367537710e-02
5.935999999999999943e+01,4.319521527206710010e-02
5.939999999999999858e+01,4.439470584185508523e-02
5.943999999999999773e+01,5.214230190502538304e-02
5.947999999999999687e+01,3.369456068906662854e-02
5.952000000000000313e+01,4.126399855461268529e-02
5.956000000000000227e+01,3.024873676681726423e-02
5.960000000000000142e+01,4.171082205008892069e-02
5.964000000000000057e+01,4.060592107206024981e-02
5.967999999999999972e+01,3.206678950708038989e-02
5.971999999999999886e+01,4.051826541598359949e-02
5.975999999999999801e+01,2.755317541738220091e-02
5.979999999999999716e+01,4.078225475219798141e-02
5.984000000000000341e+01,3.489565835947508465e-02
5.988000000000000256e+01,3.502619062615737466e-02
5.992000000000000171e+01,3.197028912287571550e-02
5.996000000000000085e+01,4.448906130158804956e-02
