2.003999999999999915e+01,7.194008563875422049e-03
2.007999999999999829e+01,9.843410919260773759e-03
2.012000000000000099e+01,1.062039063772488544e-02
2.016000000000000014e+01,7.375773928934243294e-03
2.019999999999999929e+01,6.765070363712101867e-03
2.023999999999999844e+01,4.489931473011177926e-03
2.028000000000000114e+01,1.635719126603026735e-02
2.032000000000000028e+01,1.421959516159573313e-02
2.035999999999999943e+01,1.138816141298615303e-02
2.039999999999999858e+01,8.902814140205718776e-03
2.044000000000000128e+01,1.043794965006331413e-02
2.048000000000000043e+01,1.157330726293046789e-03
2.051999999999999957e+01,1.066410625109689460e-02
2.055999999999999872e+01,6.997969793978799091e-03
2.060000000000000142e+01,1.532506444883817952e-02
2.064000000000000057e+01,6.346423057209362372e-04
2.067999999999999972e+01,6.048854258063416332e-03
2.071999999999999886e+01,3.420445724692018456e-03
2.076000000000000156e+01,1.174534862514792395e-02
2.080000000000000071e+01,5.302795918735623074e-03
2.083999999999999986e+01,5.515207065474114247e-03
2.087999999999999901e+01,7.737592519105013049e-03
2.092000000000000171e+01,6.770337009832054845e-03
2.096000000000000085e+01,8.714324384942155263e-03
2.100000000000000000e+01,1.239097587028816470e-02
2.103999999999999915e+01,9.272921854846993481e-03
2.107999999999999829e+01,1.766281210373749772e-02
2.112000000000000099e+01,1.038398705197731212e-02
2.116000000000000014e+01,1.371184124054146414e-02
2.119999999999999929e+01,1.031432169724392882e-02
2.123999999999999844e+01,1.475035455332321041e-02
2.128000000000000114e+01,1.107445114543792637e-02
2.132000000000000028e+01,9.893829324619617463e-03
2.135999999999999943e+01,8.296704930665518840e-03
2.139999999999999858e+01,1.051209999392239448e-02
2.144000000000000128e+01,1.265763533799627895e-02
2.148000000000000043e+01,1.757576868438941869e-02
2.151999999999999957e+01,1.701644328384738919e-02
2.155999999999999872e+01,1.174227039460564934e-02
2.160000000000000142e+01,1.561889399348047845e-02
2.164000000000000057e+01,1.491932831128158637e-02
2.167999999999999972e+01,6.038507033384043175e-03
2.171999999999999886e+01,4.921920599870959097e-03
2.176000000000000156e+01,1.794291521759038043e-03
2.180000000000000071e+01,8.510745528040023281e-03
2.183999999999999986e+01,8.640496447276813791e-03
2.187999999999999901e+01,1.286009034594335319e-02
2.192000000000000171e+01,1.590058373880100240e-02
2.196000000000000085e+01,1.242370492516920930e-02
2.200000000000000000e+01,1.691905182084425460e-02
2.203999999999999915e+01,9.558755697719897859e-03
2.207999999999999829e+01,5.872337703225928920e-03
2.212000000000000099e+01,1.508045137954946296e-02
2.216000000000000014e+01,1.638463298239296526e-02
2.219999999999999929e+01,4.585267241960260497e-03
2.223999999999999844e+01,1.490108849127375068e-02
2.228000000000000114e+01,1.135075380418819335e-02
2.232000000000000028e+01,1.528735442528033998e-02
2.235999999999999943e+01,1.326121744712905823e-02
2.239999999999999858e+01,8.738754530216450225e-03
2.244000000000000128e+01,9.276742046116078985e-03
2.248000000000000043e+01,1.120078546476076069e-02
2.251999999999999957e+01,1.014320810166102239e-02
2.255999999999999872e+01,5.064087613554214481e-03
2.260000000000000142e+01,1.981233100093739846e-02
2.264000000000000057e+01,1.979315964650994741e-02
2.267999999999999972e+01,1.207805241374979022e-02
2.271999999999999886e+01,1.399906405158465005e-02
2.276000000000000156e+01,1.418636811586005374e-02
2.280000000000000071e+01,8.549600783855406880e-03
2.283999999999999986e+01,1.781789936116747949e-02
2.287999999999999901e+01,2.056884616451887596e-02
2.292000000000000171e+01,9.592307676288752000e-03
2.296000000000000085e+01,1.053972449847199663e-02
2.300000000000000000e+01,1.107067517072303151e-02
2.303999999999999915e+01,1.465157135352401947e-02
2.307999999999999829e+01,1.767734673224993780e-02
2.312000000000000099e+01,1.321518065104886758e-02
2.316000000000000014e+01,1.901309715150185237e-02
2.319999999999999929e+01,1.697643289155836149e-02
2.323999999999999844e+01,2.457589905103046285e-02
2.328000000000000114e+01,1.754662111350947795e-02
2.332000000000000028e+01,1.897489570962786545e-02
2.335999999999999943e+01,2.470103080122284037e-02
2.339999999999999858e+01,1.739297341610835171e-02
2.344000000000000128e+01,1.895844052239905805e-02
2.348000000000000043e+01,2.315789361866539553e-02
2.351999999999999957e+01,2.125597844755739915e-02
2.355999999999999872e+01,1.692709131588407412e-02
2.360000000000000142e+01,1.710405465623885540e-02
2.364000000000000057e+01,2.948230127107989013e-02
2.367999999999999972e+01,2.667718694909812505e-02
2.371999999999999886e+01,2.803128468704586471e-02
2.376000000000000156e+01,2.529453773566877478e-02
2.380000000000000071e+01,2.519178388123384515e-02
2.383999999999999986e+01,2.467258253265380494e-02
2.387999999999999901e+01,2.637140676510415019e-02
2.392000000000000171e+01,1.926507121164153583e-02
2.396000000000000085e+01,2.560793391759178320e-02
2.400000000000000000e+01,2.758264440267323842e-02
2.403999999999999915e+01,2.782367574206136979e-02
2.407999999999999829e+01,3.284788107569640292e-02
2.412000000000000099e+01,3.475184473153520442e-02
2.416000000000000014e+01,3.637802443107988892e-02
2.419999999999999929e+01,3.800373392447022741e-02
2.423999999999999844e+01,4.358068238028400126e-02
2.428000000000000114e+01,4.194702800069337323e-02
2.432000000000000028e+01,4.315536291319214957e-02
2.435999999999999943e+01,5.143470914812707517e-02
2.439999999999999858e+01,5.513792739957465439e-02
2.444000000000000128e+01,5.267046960073454298e-02
2.448000000000000043e+01,5.186642498494926923e-02
2.451999999999999957e+01,5.882667739950565855e-02
2.455999999999999872e+01,6.176543110759579597e-02
2.460000000000000142e+01,7.621220725664951123e-02
2.464000000000000057e+01,6.258059571752579153e-02
2.467999999999999972e+01,7.279743074482368514e-02
2.471999999999999886e+01,7.212927729035815971e-02
2.476000000000000156e+01,7.291655859121648486e-02
2.480000000000000071e+01,7.328741371882935285e-02
2.483999999999999986e+01,7.067669959020508874e-02
2.487999999999999901e+01,6.875881251215271162e-02
2.492000000000000171e+01,7.030688199073199807e-02
2.496000000000000085e+01,6.991330810982007704e-02
2.500000000000000000e+01,7.333233363949269445e-02
2.503999999999999915e+01,7.279919933859109460e-02
2.507999999999999829e+01,7.178031686759754615e-02
2.512000000000000099e+01,6.979038960678723980e-02
2.516000000000000014e+01,6.162980228636390917e-02
2.519999999999999929e+01,5.963897814341494186e-02
2.523999999999999844e+01,5.549853221324375918e-02
2.528000000000000114e+01,5.960769770055533712e-02
2.532000000000000028e+01,5.463442163316367672e-02
2.535999999999999943e+01,5.486031728053836903e-02
2.539999999999999858e+01,4.974749678383170309e-02
2.544000000000000128e+01,4.380229503515929712e-02
2.548000000000000043e+01,5.061304314956849987e-02
2.551999999999999957e+01,4.515225624078604560e-02
2.555999999999999872e+01,4.502930191950856031e-02
2.560000000000000142e+01,3.422936330695228180e-02
2.564000000000000057e+01,3.701731669626760757e-02
2.567999999999999972e+01,2.850433363206573978e-02
2.571999999999999886e+01,2.740903317211889831e-02
2.576000000000000156e+01,2.520404570540389633e-02
2.580000000000000071e+01,2.993144511158995699e-02
2.583999999999999986e+01,2.751760454427579217e-02
2.587999999999999901e+01,2.135960744850124576e-02
2.592000000000000171e+01,2.282728204516246834e-02
2.596000000000000085e+01,2.221467906071856319e-02
2.600000000000000000e+01,2.000709689163572211e-02
2.603999999999999915e+01,1.558058248730486393e-02
2.607999999999999829e+01,1.538266077222397166e-02
2.612000000000000099e+01,2.197847660612616341e-02
2.616000000000000014e+01,1.685739735430759334e-02
2.619999999999999929e+01,1.651953918038922067e-02
2.623999999999999844e+01,2.637250377723560774e-02
2.628000000000000114e+01,1.611986188496415673e-02
2.632000000000000028e+01,2.319885073074851034e-02
2.635999999999999943e+01,1.038021951048332531e-02
2.639999999999999858e+01,1.523986188222674690e-02
2.644000000000000128e+01,1.233432366705208318e-02
2.648000000000000043e+01,1.864901853667589801e-02
2.651999999999999957e+01,1.816912961231443441e-02
2.655999999999999872e+01,1.685688431037007939e-02
2.660000000000000142e+01,1.200848311696678557e-02
2.664000000000000057e+01,1.617233391551855734e-02
2.667999999999999972e+01,1.756264096921750922e-02
2.671999999999999886e+01,1.285165082520755772e-02
2.676000000000000156e+01,1.798485392357187379e-02
2.680000000000000071e+01,1.417430476783757345e-02
2.683999999999999986e+01,1.826676059883677872e-02
2.687999999999999901e+01,8.909131948734230755e-03
2.692000000000000171e+01,1.223815692762048567e-02
2.696000000000000085e+01,1.189237757950072083e-02
2.700000000000000000e+01,1.549789849139081299e-02
2.703999999999999915e+01,9.743703186753764622e-03
2.707999999999999829e+01,2.111317085289138654e-02
2.712000000000000099e+01,2.229098549393690107e-02
2.716000000000000014e+01,1.195991190485871936e-02
2.719999999999999929e+01,1.466213924057621978e-02
2.723999999999999844e+01,1.500680456128572308e-02
2.728000000000000114e+01,9.527497983246735122e-03
2.732000000000000028e+01,1.950798253559378123e-02
2.735999999999999943e+01,1.284929535694642744e-02
2.739999999999999858e+01,1.742137994345093963e-02
2.744000000000000128e+01,1.700143476999690581e-02
2.748000000000000043e+01,1.554116900516208828e-02
2.751999999999999957e+01,2.288519013011358280e-02
2.755999999999999872e+01,1.580854686007612461e-02
2.760000000000000142e+01,2.273580841473362563e-02
2.764000000000000057e+01,1.919411563135071247e-02
2.767999999999999972e+01,9.204505893947400458e-03
2.771999999999999886e+01,1.169358290662255925e-02
2.776000000000000156e+01,1.473689450168386497e-02
2.780000000000000071e+01,1.389743577919965410e-02
2.783999999999999986e+01,1.284960304597872020e-02
2.787999999999999901e+01,1.006817645066290789e-02
2.792000000000000171e+01,1.387254273469037957e-02
2.796000000000000085e+01,2.148957416874278104e-02
2.800000000000000000e+01,1.274476094750276803e-02
2.803999999999999915e+01,7.396645360375943799e-03
2.807999999999999829e+01,1.771632242900745766e-02
2.812000000000000099e+01,1.215945501555457456e-02
2.816000000000000014e+01,1.353502688888099000e-02
2.819999999999999929e+01,1.733670493361267120e-02
2.823999999999999844e+01,1.919681246526020249e-02
2.828000000000000114e+01,2.382966902226579808e-02
2.832000000000000028e+01,1.508180129496126433e-02
2.835999999999999943e+01,2.068449634860849290e-02
2.839999999999999858e+01,1.859138256094983871e-02
2.844000000000000128e+01,1.414073340940777065e-02
2.848000000000000043e+01,1.842506425310936474e-02
2.851999999999999957e+01,1.425097855075316104e-02
2.855999999999999872e+01,1.832657711228669051e-02
2.860000000000000142e+01,1.789546918471093123e-02
2.864000000000000057e+01,1.600809713585475344e-02
2.867999999999999972e+01,2.056787841450285342e-02
2.871999999999999886e+01,2.436467950303446844e-02
2.876000000000000156e+01,1.616733038817950302e-02
2.880000000000000071e+01,1.365452689607677371e-02
2.883999999999999986e+01,1.911410102469065023e-02
2.887999999999999901e+01,2.048294417544433907e-02
2.892000000000000171e+01,2.226739124045344978e-02
2.896000000000000085e+01,1.684133940944378474e-02
2.900000000000000000e+01,1.384141151725570666e-02
2.903999999999999915e+01,1.299029559049123816e-02
2.907999999999999829e+01,2.385528624854859128e-02
2.912000000000000099e+01,1.620928244698728940e-02
2.916000000000000014e+01,1.806088411283810966e-02
2.919999999999999929e+01,1.609907476956417421e-02
2.923999999999999844e+01,1.427556358574333731e-02
2.928000000000000114e+01,2.028578336383357258e-02
2.932000000000000028e+01,2.068006119641359677e-02
2.935999999999999943e+01,2.239121951607705302e-02
2.939999999999999858e+01,2.139822271554547850e-02
2.944000000000000128e+01,3.163604298707738821e-02
2.948000000000000043e+01,2.641331827378610997e-02
2.951999999999999957e+01,2.930164271439972962e-02
2.955999999999999872e+01,3.447744710014201408e-02
2.960000000000000142e+01,4.284199912013268025e-02
2.964000000000000057e+01,4.981963744355556029e-02
2.967999999999999972e+01,6.060997911694854939e-02
2.971999999999999886e+01,8.270047229644300613e-02
2.976000000000000156e+01,1.004229411804663241e-01
2.980000000000000071e+01,1.267417629450859340e-01
2.983999999999999986e+01,1.527135986866251793e-01
2.987999999999999901e+01,1.776451671390326947e-01
2.992000000000000171e+01,1.838577742529113601e-01
2.996000000000000085e+01,1.755111138431655060e-01
3.000000000000000000e+01,1.380462615552982553e-01
3.003999999999999915e+01,1.035621820274317123e-01
3.007999999999999829e+01,7.711983587521933914e-02
3.012000000000000099e+01,5.518348499947828972e-02
3.016000000000000014e+01,4.066491533715296119e-02
3.019999999999999929e+01,3.398009706926755080e-02
3.023999999999999844e+01,2.826553775541229552e-02
3.028000000000000114e+01,1.755901175592657071e-02
3.032000000000000028e+01,1.475556803143539264e-02
3.035999999999999943e+01,1.784468922248502384e-02
3.039999999999999858e+01,2.114146255118360199e-02
3.044000000000000128e+01,1.819836486977485790e-02
3.048000000000000043e+01,1.747343935058128309e-02
3.051999999999999957e+01,1.633221469516909011e-02
3.055999999999999872e+01,1.331879926762232630e-02
3.060000000000000142e+01,1.349415368359440856e-02
3.064000000000000057e+01,1.574902738438047067e-02
3.067999999999999972e+01,9.198891433921685748e-03
3.071999999999999886e+01,1.512750886135264330e-02
3.076000000000000156e+01,1.190447733706921814e-02
3.080000000000000071e+01,1.769379019530586267e-02
3.083999999999999986e+01,1.162765547632284811e-02
3.087999999999999901e+01,1.062215863639455297e-02
3.092000000000000171e+01,1.578655201096740290e-02
3.096000000000000085e+01,1.450310127792683174e-02
3.100000000000000000e+01,1.113948489850399674e-02
3.103999999999999915e+01,9.716740256718850791e-03
3.107999999999999829e+01,1.092815039536458067e-02
3.112000000000000099e+01,1.019805398362489714e-02
3.116000000000000014e+01,1.459792988497785743e-02
3.119999999999999929e+01,1.712562922812934166e-02
3.123999999999999844e+01,1.757316825512342945e-02
3.128000000000000114e+01,1.531659391535092340e-02
3.132000000000000028e+01,1.659544648698309602e-02
3.135999999999999943e+01,2.023114719587289223e-02
3.139999999999999858e+01,1.700304427657488640e-02
3.144000000000000128e+01,1.779566844188961577e-02
3.148000000000000043e+01,2.281700522651456536e-02
3.151999999999999957e+01,2.589684434446230810e-02
3.155999999999999872e+01,2.883772028560157089e-02
3.160000000000000142e+01,2.851986424340297033e-02
3.164000000000000057e+01,3.416392976005354354e-02
3.167999999999999972e+01,3.911440904147027442e-02
3.171999999999999886e+01,3.969690755758596007e-02
3.176000000000000156e+01,4.922244356167899265e-02
3.180000000000000071e+01,4.682322509400984462e-02
3.183999999999999986e+01,5.946792884997571110e-02
3.187999999999999901e+01,7.211233296698413286e-02
3.192000000000000171e+01,7.865555537448987167e-02
3.196000000000000085e+01,9.178466038679136685e-02
3.200000000000000000e+01,1.016550422994631636e-01
3.203999999999999915e+01,1.032057422735934565e-01
3.207999999999999829e+01,1.097477785624607211e-01
3.211999999999999744e+01,1.090100579211615434e-01
3.215999999999999659e+01,1.067468231197715584e-01
3.220000000000000284e+01,9.623323814876562354e-02
3.224000000000000199e+01,9.084964947686437198e-02
3.228000000000000114e+01,9.496373556529896787e-02
3.232000000000000028e+01,8.132950863364486749e-02
3.235999999999999943e+01,8.121399473471742347e-02
3.239999999999999858e+01,6.640061107190090017e-02
3.243999999999999773e+01,5.845043353609888359e-02
3.247999999999999687e+01,5.022265682513272350e-02
3.252000000000000313e+01,4.809547764805817416e-02
3.256000000000000227e+01,3.945116168276063123e-02
3.260000000000000142e+01,3.073723385373813843e-02
3.264000000000000057e+01,2.500413652881944976e-02
3.267999999999999972e+01,2.675820460012018343e-02
3.271999999999999886e+01,2.546155020879259379e-02
3.275999999999999801e+01,2.069820495055412629e-02
3.279999999999999716e+01,2.647246923310554723e-02
3.284000000000000341e+01,1.567701170690675300e-02
3.288000000000000256e+01,1.562715014456614662e-02
3.292000000000000171e+01,1.710223278063831287e-02
3.296000000000000085e+01,2.141949659689637575e-02
3.300000000000000000e+01,1.561456619401466357e-02
3.303999999999999915e+01,1.937665564595655865e-02
3.307999999999999829e+01,1.814684059822509188e-02
3.311999999999999744e+01,1.060788584578878195e-02
3.315999999999999659e+01,1.811288263322446968e-02
3.320000000000000284e+01,6.968319143980507800e-03
3.324000000000000199e+01,1.114502183311910817e-02
3.328000000000000114e+01,1.150840412695630297e-02
3.332000000000000028e+01,1.013831337712976614e-02
3.335999999999999943e+01,4.261621854321172992e-03
3.339999999999999858e+01,9.823819998613696203e-03
3.343999999999999773e+01,1.233531167095260062e-02
3.347999999999999687e+01,1.297467742222658225e-02
3.352000000000000313e+01,9.384758815770694040e-03
3.356000000000000227e+01,1.293538407248107959e-02
3.360000000000000142e+01,1.017688028493640880e-02
3.364000000000000057e+01,1.497489142995301649e-02
3.367999999999999972e+01,7.917518072078055455e-03
3.371999999999999886e+01,1.001121037867718812e-02
3.375999999999999801e+01,8.083608304098073918e-03
3.379999999999999716e+01,1.350454006923679402e-02
3.384000000000000341e+01,1.518149209170779890e-02
3.388000000000000256e+01,1.595692209301321357e-02
3.392000000000000171e+01,1.076987123424127599e-02
3.396000000000000085e+01,8.217039118598978495e-03
3.400000000000000000e+01,1.266610420731749745e-02
3.403999999999999915e+01,1.683760476733375810e-02
3.407999999999999829e+01,4.578067488979571144e-03
3.411999999999999744e+01,1.200749350602624971e-02
3.415999999999999659e+01,9.176094635802370045e-03
3.420000000000000284e+01,1.015749950145090723e-02
3.424000000000000199e+01,1.072268784936683192e-02
3.428000000000000114e+01,8.029203734789608013e-03
3.432000000000000028e+01,2.423689123301171928e-03
3.435999999999999943e+01,1.670905032801852470e-03
3.439999999999999858e+01,1.138643780248287107e-02
3.443999999999999773e+01,5.780192176206454778e-03
3.447999999999999687e+01,9.463685524334141536e-03
3.452000000000000313e+01,3.302331273181993883e-03
3.456000000000000227e+01,8.441236021000176823e-03
3.460000000000000142e+01,3.735294946280151573e-03
3.464000000000000057e+01,3.604777749376036466e-03
3.467999999999999972e+01,3.196710237702728337e-03
3.471999999999999886e+01,8.403991612220390248e-03
3.475999999999999801e+01,6.539559335372188698e-03
3.479999999999999716e+01,6.061456579480727080e-03
3.484000000000000341e+01,7.385653525570159278e-03
3.488000000000000256e+01,6.421786350919890009e-03
3.492000000000000171e+01,6.428282069685423671e-03
3.496000000000000085e+01,8.514393017313218875e-03
3.500000000000000000e+01,5.677970322509142721e-03
3.503999999999999915e+01,7.763621466440270152e-03
3.507999999999999829e+01,8.393151516792493952e-03
3.511999999999999744e+01,5.209402036900942501e-03
3.515999999999999659e+01,4.308768092876707448e-04
3.520000000000000284e+01,4.318152607773195935e-03
3.524000000000000199e+01,5.016105480107383406e-03
3.528000000000000114e+01,5.159208501465744126e-03
3.532000000000000028e+01,8.075216901446000822e-03
3.535999999999999943e+01,7.593920394060702135e-03
3.539999999999999858e+01,5.864494546389761170e-03
3.543999999999999773e+01,8.849166774835512048e-03
3.547999999999999687e+01,9.545788208103823599e-03
3.552000000000000313e+01,4.210636100685243369e-03
3.556000000000000227e+01,6.848010860280499476e-03
3.560000000000000142e+01,1.177299970899777122e-02
3.564000000000000057e+01,3.664067922475628888e-03
3.567999999999999972e+01,5.676840346788808445e-03
3.571999999999999886e+01,6.441490537782899178e-03
3.575999999999999801e+01,8.869804432402199346e-03
3.579999999999999716e+01,1.102059288663521756e-02
3.584000000000000341e+01,7.694240630685659707e-03
3.588000000000000256e+01,0.000000000000000000e+00
3.592000000000000171e+01,6.032536113370439573e-03
3.596000000000000085e+01,4.577415933846187487e-03
3.600000000000000000e+01,3.399400479327509880e-03
3.603999999999999915e+01,5.479603902201031322e-03
3.607999999999999829e+01,7.351616318726182653e-03
3.611999999999999744e+01,5.826340706931333081e-03
3.615999999999999659e+01,7.767271283967800734e-03
3.620000000000000284e+01,4.231069146159081862e-03
3.624000000000000199e+01,3.814433896712173585e-03
3.628000000000000114e+01,5.269458546037816826e-03
3.632000000000000028e+01,6.654953950124474667e-03
3.635999999999999943e+01,6.307043826729432333e-03
3.639999999999999858e+01,5.196324080414769890e-03
3.643999999999999773e+01,3.669436676762420288e-03
3.647999999999999687e+01,7.619280816732517531e-03
3.652000000000000313e+01,9.419753690050871806e-03
3.656000000000000227e+01,6.020414705630310233e-03
3.660000000000000142e+01,3.522147710757623541e-03
3.664000000000000057e+01,4.490097565166085991e-03
3.667999999999999972e+01,4.279274722597238567e-03
3.671999999999999886e+01,1.072376841639362949e-02
3.675999999999999801e+01,2.193176316951100154e-03
3.679999999999999716e+01,3.922969733611247380e-03
3.684000000000000341e+01,4.127352929566245957e-03
3.688000000000000256e+01,7.797958305027266265e-03
3.692000000000000171e+01,7.655324126931262185e-03
3.696000000000000085e+01,6.472579901338154293e-03
3.700000000000000000e+01,3.625772577638675370e-03
3.703999999999999915e+01,7.156976035502064619e-03
3.707999999999999829e+01,3.616517367506992802e-03
3.711999999999999744e+01,5.275491595298537235e-03
3.715999999999999659e+01,4.785108770371434769e-03
3.720000000000000284e+01,5.195811260554467591e-03
3.724000000000000199e+01,5.814317799796196555e-03
3.728000000000000114e+01,5.115408536738435055e-03
3.732000000000000028e+01,9.893249473090297633e-03
3.735999999999999943e+01,3.855710868299135324e-03
3.739999999999999858e+01,3.156267808774780147e-03
3.743999999999999773e+01,9.389470138059260659e-03
3.747999999999999687e+01,5.500577745735450372e-03
3.752000000000000313e+01,7.365752856444269386e-03
3.756000000000000227e+01,8.814785184198238588e-03
3.760000000000000142e+01,8.322454877639233820e-03
3.764000000000000057e+01,1.105115959624354636e-03
3.767999999999999972e+01,1.142764472330400939e-02
3.771999999999999886e+01,1.003353514042905001e-02
3.775999999999999801e+01,9.817836171624608546e-03
3.779999999999999716e+01,1.029525119716587223e-02
3.784000000000000341e+01,7.236759963447807371e-03
3.788000000000000256e+01,8.268467057486272517e-03
3.792000000000000171e+01,6.388223607987073178e-03
3.796000000000000085e+01,7.696913462237061666e-03
3.800000000000000000e+01,3.389854147444175229e-03
3.803999999999999915e+01,1.072977219709385366e-02
3.807999999999999829e+01,7.878280635255250838e-03
3.811999999999999744e+01,5.581253743844485568e-03
3.815999999999999659e+01,6.889133890690323989e-03
3.820000000000000284e+01,7.780885468514453333e-03
3.824000000000000199e+01,8.741806873783246681e-03
3.828000000000000114e+01,6.790785730851734738e-03
3.832000000000000028e+01,5.116920838433200967e-03
3.835999999999999943e+01,4.413495239320769717e-03
3.839999999999999858e+01,6.413715207940894059e-03
3.843999999999999773e+01,1.271213058783567974e-02
3.847999999999999687e+01,9.997724902468207303e-03
3.852000000000000313e+01,1.296808071396157030e-02
3.856000000000000227e+01,1.115463837891021194e-02
3.860000000000000142e+01,1.128223568358102669e-02
3.864000000000000057e+01,1.120169883763574500e-02
3.867999999999999972e+01,1.195295196107865054e-02
3.871999999999999886e+01,8.683020861324594608e-03
3.875999999999999801e+01,1.560419059240103663e-02
3.879999999999999716e+01,1.004613559307043075e-02
3.884000000000000341e+01,1.655104501825209809e-02
3.888000000000000256e+01,1.300321903024631402e-02
3.892000000000000171e+01,1.257501945144707048e-02
3.896000000000000085e+01,1.103742602824935026e-02
3.900000000000000000e+01,1.053961432773301704e-02
3.903999999999999915e+01,1.773709392072269839e-02
3.907999999999999829e+01,1.612975042033910553e-02
3.911999999999999744e+01,1.681009918570941855e-02
3.915999999999999659e+01,1.277599134553954012e-02
3.920000000000000284e+01,1.622919370603224595e-02
3.924000000000000199e+01,1.268011012813285467e-02
3.928000000000000114e+01,1.703430782029106971e-02
3.932000000000000028e+01,1.660472424495013088e-02
3.935999999999999943e+01,1.444180176993879391e-02
3.939999999999999858e+01,1.935022464479080676e-02
3.943999999999999773e+01,1.378995525099344435e-02
3.947999999999999687e+01,2.015400806475694737e-02
3.952000000000000313e+01,1.528676001674819998e-02
3.956000000000000227e+01,1.860011231916169211e-02
3.960000000000000142e+01,1.782297172709400995e-02
3.964000000000000057e+01,1.274735448258925742e-02
3.967999999999999972e+01,1.987337674926839201e-02
3.971999999999999886e+01,2.207697020127205589e-02
3.975999999999999801e+01,2.337917222262024183e-02
3.979999999999999716e+01,2.142282437664807040e-02
3.984000000000000341e+01,2.813238060778942493e-02
3.988000000000000256e+01,2.291736181807363035e-02
3.992000000000000171e+01,2.498168457336846782e-02
3.996000000000000085e+01,3.002700040462666364e-02
4.000000000000000000e+01,3.216041188762971265e-02
4.003999999999999915e+01,3.297646886591962950e-02
4.007999999999999829e+01,3.219785936609834837e-02
4.011999999999999744e+01,3.745068797518171649e-02
4.015999999999999659e+01,4.166347760643331760e-02
4.020000000000000284e+01,3.769542295767458473e-02
4.024000000000000199e+01,4.093738874545078260e-02
4.028000000000000114e+01,4.487252360656338035e-02
4.032000000000000028e+01,5.081806452278549852e-02
4.035999999999999943e+01,6.009124847589029234e-02
4.039999999999999858e+01,6.291679797689450626e-02
4.043999999999999773e+01,7.586415740486125714e-02
4.047999999999999687e+01,7.758023729195540064e-02
4.052000000000000313e+01,9.232991393132732039e-02
4.056000000000000227e+01,1.030584472125598838e-01
4.060000000000000142e+01,1.301483333640388040e-01
4.064000000000000057e+01,1.469082103288772423e-01
4.067999999999999972e+01,1.649852191897403231e-01
4.071999999999999886e+01,2.040685740205914200e-01
4.075999999999999801e+01,2.353177380858346990e-01
4.079999999999999716e+01,2.921489121169946745e-01
4.084000000000000341e+01,3.376794863871771524e-01
4.088000000000000256e+01,3.986701529454526050e-01
4.092000000000000171e+01,4.612552695917466195e-01
4.096000000000000085e+01,5.264054322306209732e-01
4.100000000000000000e+01,5.932887031651398191e-01
4.103999999999999915e+01,6.368082692935878031e-01
4.107999999999999829e+01,7.015421740336875711e-01
4.111999999999999744e+01,7.185781721242364695e-01
4.115999999999999659e+01,7.151622531224000046e-01
4.120000000000000284e+01,7.001684294931547203e-01
4.124000000000000199e+01,6.683277577512619638e-01
4.128000000000000114e+01,6.219280698946857422e-01
4.132000000000000028e+01,5.572949713933592619e-01
4.135999999999999943e+01,4.799747203710312826e-01
4.139999999999999858e+01,4.052888533288049322e-01
4.143999999999999773e+01,3.505694250156078939e-01
4.147999999999999687e+01,2.963352077805450624e-01
4.152000000000000313e+01,2.550652812915881751e-01
4.156000000000000227e+01,2.176083219987340889e-01
4.160000000000000142e+01,1.950568452611100012e-01
4.164000000000000057e+01,1.691775313057808650e-01
4.167999999999999972e+01,1.488443925977226412e-01
4.171999999999999886e+01,1.283725163590435092e-01
4.175999999999999801e+01,1.219048594283286685e-01
4.179999999999999716e+01,1.087816144921651407e-01
4.184000000000000341e+01,1.036310358972337559e-01
4.188000000000000256e+01,9.667784615455123076e-02
4.192000000000000171e+01,8.438630716493485118e-02
4.196000000000000085e+01,7.833423179560736194e-02
4.200000000000000000e+01,7.644177447167274653e-02
4.203999999999999915e+01,7.253872490714359522e-02
4.207999999999999829e+01,7.570708021332256399e-02
4.211999999999999744e+01,7.367574714530616964e-02
4.215999999999999659e+01,7.102038881065222964e-02
4.220000000000000284e+01,7.599106373535664816e-02
4.224000000000000199e+01,8.047637160104963161e-02
4.228000000000000114e+01,8.690280083657994648e-02
4.232000000000000028e+01,1.006779531348121481e-01
4.235999999999999943e+01,1.148690078398943298e-01
4.239999999999999858e+01,1.429256396359894488e-01
4.243999999999999773e+01,1.737553349407118530e-01
4.247999999999999687e+01,2.142909161866551615e-01
4.252000000000000313e+01,2.805472020293447444e-01
4.256000000000000227e+01,3.437529839486269667e-01
4.260000000000000142e+01,4.204083781081228710e-01
4.264000000000000057e+01,4.974103526776220696e-01
4.267999999999999972e+01,6.238432850785926576e-01
4.271999999999999886e+01,7.546438361619577373e-01
4.275999999999999801e+01,8.991713159007885814e-01
4.279999999999999716e+01,9.920492180214353084e-01
4.284000000000000341e+01,1.000000000000000000e+00
4.288000000000000256e+01,9.296791714073071589e-01
4.292000000000000171e+01,7.844838156883967573e-01
4.296000000000000085e+01,6.437254121975478638e-01
4.300000000000000000e+01,4.718385873012683196e-01
4.303999999999999915e+01,3.544436879590802114e-01
4.307999999999999829e+01,2.432189488961215562e-01
4.311999999999999744e+01,1.875260603956291905e-01
4.315999999999999659e+01,1.291293223745029473e-01
4.320000000000000284e+01,1.044953770437252322e-01
4.324000000000000199e+01,8.131727689558883310e-02
4.328000000000000114e+01,6.188285392805813884e-02
4.332000000000000028e+01,5.118374054134428724e-02
4.335999999999999943e+01,4.429763432742000323e-02
4.339999999999999858e+01,3.741148432533356050e-02
4.343999999999999773e+01,2.886141425284232190e-02
4.347999999999999687e+01,2.003398930716166620e-02
4.352000000000000313e+01,2.118978626211203906e-02
4.356000000000000227e+01,2.116696331986568647e-02
4.360000000000000142e+01,1.920291099892890152e-02
4.364000000000000057e+01,1.716949200461262426e-02
4.367999999999999972e+01,1.368014291644314116e-02
4.371999999999999886e+01,1.747021976851194716e-02
4.375999999999999801e+01,1.682325503945336295e-02
4.379999999999999716e+01,1.527498860519186687e-02
4.384000000000000341e+01,1.268676492321378982e-02
4.388000000000000256e+01,1.134641599148346509e-02
4.392000000000000171e+01,1.368043023884965396e-02
4.396000000000000085e+01,9.774873745444681572e-03
4.400000000000000000e+01,1.273278011822032325e-02
4.403999999999999915e+01,1.021372789683090872e-02
4.407999999999999829e+01,9.566508806523399758e-03
4.411999999999999744e+01,1.321761127614652295e-02
4.415999999999999659e+01,1.340227606454165270e-02
4.420000000000000284e+01,1.407221234028656516e-02
4.424000000000000199e+01,1.141436914242959302e-02
4.428000000000000114e+01,1.284686641165984182e-02
4.432000000000000028e+01,1.005031918328086124e-02
4.435999999999999943e+01,9.680237028117297943e-03
4.439999999999999858e+01,1.596564197651585346e-02
4.443999999999999773e+01,8.940008869485833315e-03
4.447999999999999687e+01,7.876582488337263016e-03
4.452000000000000313e+01,1.298334836776770217e-02
4.456000000000000227e+01,1.503965474233165921e-02
4.460000000000000142e+01,1.439214357761111479e-02
4.464000000000000057e+01,1.464588296497268578e-02
4.467999999999999972e+01,1.150252443536911931e-02
4.471999999999999886e+01,1.140959291329838102e-02
4.475999999999999801e+01,1.339649427094007778e-02
4.479999999999999716e+01,1.607666508782050821e-02
4.484000000000000341e+01,1.473578760223902447e-02
4.488000000000000256e+01,1.533608923059799276e-02
4.492000000000000171e+01,1.080609288616101241e-02
4.496000000000000085e+01,1.674464793180009681e-02
4.500000000000000000e+01,1.630499890342478053e-02
4.503999999999999915e+01,1.794518897335764529e-02
4.507999999999999829e+01,1.715888502622473985e-02
4.511999999999999744e+01,1.949234518577501463e-02
4.515999999999999659e+01,2.127117492194130141e-02
4.520000000000000284e+01,1.979157472084749902e-02
4.524000000000000199e+01,2.136241307610714860e-02
4.528000000000000114e+01,2.591436266064883059e-02
4.532000000000000028e+01,3.136757789957653197e-02
4.535999999999999943e+01,3.494893106357199741e-02
4.539999999999999858e+01,4.047147489032853346e-02
4.543999999999999773e+01,4.245828124828095879e-02
4.547999999999999687e+01,5.352708623628554818e-02
4.552000000000000313e+01,5.960426300794090942e-02
4.556000000000000227e+01,6.055115602073340986e-02
4.560000000000000142e+01,6.884684494263483556e-02
4.564000000000000057e+01,7.804380662588879247e-02
4.567999999999999972e+01,8.287309758525686354e-02
4.571999999999999886e+01,9.227805850115716746e-02
4.575999999999999801e+01,1.020989973354268915e-01
4.579999999999999716e+01,1.103947249440544870e-01
4.584000000000000341e+01,1.127975646425504602e-01
4.588000000000000256e+01,1.219945807452132436e-01
4.592000000000000171e+01,1.288344497020396107e-01
4.596000000000000085e+01,1.362982856654161301e-01
4.600000000000000000e+01,1.368986422559531624e-01
4.603999999999999915e+01,1.295955971303879850e-01
4.607999999999999829e+01,1.294333739280548456e-01
4.611999999999999744e+01,1.293404955622173558e-01
4.615999999999999659e+01,1.267518189498839376e-01
4.620000000000000284e+01,1.248564428897677853e-01
4.624000000000000199e+01,1.174148288804393314e-01
4.628000000000000114e+01,1.195405287766749536e-01
4.632000000000000028e+01,1.044728523061456277e-01
4.635999999999999943e+01,1.007750251194199642e-01
4.639999999999999858e+01,8.757925525675824829e-02
4.643999999999999773e+01,8.672393147083297393e-02
4.647999999999999687e+01,8.004506220415134876e-02
4.652000000000000313e+01,7.073174625542667793e-02
4.656000000000000227e+01,6.509285211827245399e-02
4.660000000000000142e+01,6.624815037595974121e-02
4.664000000000000057e+01,5.776685485705144313e-02
4.667999999999999972e+01,5.150409129053928198e-02
4.671999999999999886e+01,4.524135767064279418e-02
4.675999999999999801e+01,4.126648599532627831e-02
4.679999999999999716e+01,3.493448671833136732e-02
4.684000000000000341e+01,3.179161796340700813e-02
4.688000000000000256e+01,3.176855240348181592e-02
4.692000000000000171e+01,3.049761335406631080e-02
4.696000000000000085e+01,2.957335065870251439e-02
4.700000000000000000e+01,2.227092830786515237e-02
4.703999999999999915e+01,2.411986744898403714e-02
4.707999999999999829e+01,2.257176197538679832e-02
4.711999999999999744e+01,2.414346502701363376e-02
4.715999999999999659e+01,1.926768376120798973e-02
4.720000000000000284e+01,1.799701030546362740e-02
4.724000000000000199e+01,2.151002521066924453e-02
4.728000000000000114e+01,1.795160452457478240e-02
4.732000000000000028e+01,1.993948434603643252e-02
4.735999999999999943e+01,2.137278260450901218e-02
4.739999999999999858e+01,2.225150018836333579e-02
4.743999999999999773e+01,1.702938075059202971e-02
4.747999999999999687e+01,2.012669399154918409e-02
4.752000000000000313e+01,2.183749063769382590e-02
4.756000000000000227e+01,2.569751056495031549e-02
4.760000000000000142e+01,2.151550699168210817e-02
4.764000000000000057e+01,1.878944632184511090e-02
4.767999999999999972e+01,2.604669994320414281e-02
4.771999999999999886e+01,2.033962943275276561e-02
4.775999999999999801e+01,1.775238166145849672e-02
4.779999999999999716e+01,1.696772142428992075e-02
4.784000000000000341e+01,1.368730025219969115e-02
4.788000000000000256e+01,1.484394057778135739e-02
4.792000000000000171e+01,1.537668356212317476e-02
4.796000000000000085e+01,1.632545332522935058e-02
4.800000000000000000e+01,1.186668065832360841e-02
4.803999999999999915e+01,1.115169088815078438e-02
4.807999999999999829e+01,1.494309527294620382e-02
4.811999999999999744e+01,7.919359088348376305e-03
4.815999999999999659e+01,1.282013788777878333e-02
4.820000000000000284e+01,1.501717910129821837e-02
4.824000000000000199e+01,1.624368900333318308e-02
4.828000000000000114e+01,1.906481245361690488e-02
4.832000000000000028e+01,1.543847734922183280e-02
4.835999999999999943e+01,1.569458867941066899e-02
4.839999999999999858e+01,1.657472120676955346e-02
4.843999999999999773e+01,2.216924053076070253e-02
4.847999999999999687e+01,9.877149305588788647e-03
4.852000000000000313e+01,1.789829512829195501e-02
4.856000000000000227e+01,1.586692052354539764e-02
4.860000000000000142e+01,1.958985950054778838e-02
4.864000000000000057e+01,1.326027982684210502e-02
4.867999999999999972e+01,1.448754911312489374e-02
4.871999999999999886e+01,1.051527660639716040e-02
4.875999999999999801e+01,1.333724446653507083e-02
4.879999999999999716e+01,1.206892375747970619e-02
4.884000000000000341e+01,1.232590081842232024e-02
4.888000000000000256e+01,1.459347404582933203e-02
4.892000000000000171e+01,9.096365950717463442e-03
4.896000000000000085e+01,6.095153306907225184e-03
4.900000000000000000e+01,6.075134510865027627e-03
4.903999999999999915e+01,1.090817226790178653e-02
4.907999999999999829e+01,8.739142625767451836e-03
4.911999999999999744e+01,6.986165525151169856e-03
4.915999999999999659e+01,6.827821516941665232e-03
4.920000000000000284e+01,6.184265026242877217e-03
4.924000000000000199e+01,5.748779095847918012e-03
4.928000000000000114e+01,7.531882861952202482e-03
4.932000000000000028e+01,1.090962327394650287e-02
4.935999999999999943e+01,1.012775933849673418e-02
4.939999999999999858e+01,7.682107699893952341e-03
4.943999999999999773e+01,3.018043522971102389e-03
4.947999999999999687e+01,8.961287552911095453e-03
4.952000000000000313e+01,2.425544935823046623e-03
4.956000000000000227e+01,9.963523074450838027e-03
4.960000000000000142e+01,8.558255330345774028e-03
4.964000000000000057e+01,8.678303123655061943e-03
4.967999999999999972e+01,1.254217023690072999e-02
4.971999999999999886e+01,1.079054847375295750e-02
4.975999999999999801e+01,8.553726665307360630e-03
4.979999999999999716e+01,1.484437370742429894e-02
4.984000000000000341e+01,9.903949087439828380e-03
4.988000000000000256e+01,8.430035367476934952e-03
4.992000000000000171e+01,9.729351281484163033e-03
4.996000000000000085e+01,1.151406660823886194e-02
5.000000000000000000e+01,1.648798263835868361e-02
5.003999999999999915e+01,1.452918080564923921e-02
5.007999999999999829e+01,1.575958145304657068e-02
5.011999999999999744e+01,1.421695894088993890e-02
5.015999999999999659e+01,1.517025853115943311e-02
5.020000000000000284e+01,1.522239855555670464e-02
5.024000000000000199e+01,1.180823593109021040e-02
5.028000000000000114e+01,1.498036278525369941e-02
5.032000000000000028e+01,1.752864560042634648e-02
5.035999999999999943e+01,2.174091637457249357e-02
5.039999999999999858e+01,1.638600509442206601e-02
5.043999999999999773e+01,1.484425822869582696e-02
5.047999999999999687e+01,1.836358454372467863e-02
5.052000000000000313e+01,1.910989658290770596e-02
5.056000000000000227e+01,2.200549853101390826e-02
5.060000000000000142e+01,2.219741619545815767e-02
5.064000000000000057e+01,1.774446043222893329e-02
5.067999999999999972e+01,2.147235198650909380e-02
5.071999999999999886e+01,1.882216650380172038e-02
5.075999999999999801e+01,2.067843469690731559e-02
5.079999999999999716e+01,2.149490021881851620e-02
5.084000000000000341e+01,1.898373284831263511e-02
5.088000000000000256e+01,2.236558612757673717e-02
5.092000000000000171e+01,1.611094068592267350e-02
5.096000000000000085e+01,2.136490312160067850e-02
5.100000000000000000e+01,1.961684079990677967e-02
5.103999999999999915e+01,1.863151473874130951e-02
5.107999999999999829e+01,1.785430010293726985e-02
5.111999999999999744e+01,2.262347036991695440e-02
5.115999999999999659e+01,2.323307626613939011e-02
5.120000000000000284e+01,2.259490372854887699e-02
5.124000000000000199e+01,1.849045075136502431e-02
5.128000000000000114e+01,1.847649370616140721e-02
5.132000000000000028e+01,1.991856129450418275e-02
5.135999999999999943e+01,2.454985979081989941e-02
5.139999999999999858e+01,2.266443992156748355e-02
5.143999999999999773e+01,1.994721624138043672e-02
5.147999999999999687e+01,2.263772902843004531e-02
5.152000000000000313e+01,2.283256261067317591e-02
5.156000000000000227e+01,2.184895396988297336e-02
5.160000000000000142e+01,1.989488864075696778e-02
5.164000000000000057e+01,1.884222932860606103e-02
5.167999999999999972e+01,1.945358729166562009e-02
5.171999999999999886e+01,1.597472153660157296e-02
5.175999999999999801e+01,1.637837772764087416e-02
5.179999999999999716e+01,1.837672564356085739e-02
5.184000000000000341e+01,1.857268361606319307e-02
5.188000000000000256e+01,1.370782640773399695e-02
5.192000000000000171e+01,1.466668473137377679e-02
5.196000000000000085e+01,1.299121719140164041e-02
5.200000000000000000e+01,1.485163585054664372e-02
5.203999999999999915e+01,1.185922752867004173e-02
5.207999999999999829e+01,1.573046152387913219e-02
5.211999999999999744e+01,1.710602963984402328e-02
5.215999999999999659e+01,1.362877343989977313e-02
5.220000000000000284e+01,1.431136181990678470e-02
5.224000000000000199e+01,1.887648280646697652e-02
5.228000000000000114e+01,1.553834066277248738e-02
5.232000000000000028e+01,1.968780010536860456e-02
5.235999999999999943e+01,1.420079280839600146e-02
5.239999999999999858e+01,1.502280921193780046e-02
5.243999999999999773e+01,1.265588468877964015e-02
5.247999999999999687e+01,1.742992422818423134e-02
5.252000000000000313e+01,2.171882501987740244e-02
5.256000000000000227e+01,2.094692573304292663e-02
5.260000000000000142e+01,2.017518698333421734e-02
5.264000000000000057e+01,2.363263080109802641e-02
5.267999999999999972e+01,2.424778009959787511e-02
5.271999999999999886e+01,3.304382202251882061e-02
5.275999999999999801e+01,3.379795504475044399e-02
5.279999999999999716e+01,3.663209950922876462e-02
5.284000000000000341e+01,3.981305091826889409e-02
5.288000000000000256e+01,5.263079102950014160e-02
5.292000000000000171e+01,5.241499428168496649e-02
5.296000000000000085e+01,6.100404942749580728e-02
5.300000000000000000e+01,6.654283251468257054e-02
5.303999999999999915e+01,6.320777433446904403e-02
5.307999999999999829e+01,7.235196613143199396e-02
5.311999999999999744e+01,7.560343170175203020e-02
5.315999999999999659e+01,6.956508937713085095e-02
5.320000000000000284e+01,6.338826448431321425e-02
5.324000000000000199e+01,5.575572181826767698e-02
5.328000000000000114e+01,5.145110913287872373e-02
5.332000000000000028e+01,4.527481115835014364e-02
5.335999999999999943e+01,4.138652170958635745e-02
5.339999999999999858e+01,3.077357366746862402e-02
5.343999999999999773e+01,3.166928858167362276e-02
5.347999999999999687e+01,2.473109523219065367e-02
5.352000000000000313e+01,2.229941685610704535e-02
5.356000000000000227e+01,2.139314107777785454e-02
5.360000000000000142e+01,2.097234555394045241e-02
5.364000000000000057e+01,1.403488141330069654e-02
5.367999999999999972e+01,1.139595115321689715e-02
5.371999999999999886e+01,1.548204320253782247e-02
5.375999999999999801e+01,1.159557677588208061e-02
5.379999999999999716e+01,1.256227261843252674e-02
5.384000000000000341e+01,1.040938684270389242e-02
5.388000000000000256e+01,1.012855184890730509e-02
5.392000000000000171e+01,9.431937415820091514e-03
5.396000000000000085e+01,9.636780525215427745e-03
5.400000000000000000e+01,9.217861325735076869e-03
5.403999999999999915e+01,8.452493567518796005e-03
5.407999999999999829e+01,8.865898878666391911e-03
5.411999999999999744e+01,8.516888115166336773e-03
5.415999999999999659e+01,7.890759673485013212e-03
5.420000000000000284e+01,1.163250487662248131e-02
5.424000000000000199e+01,1.052147195913333624e-02
5.428000000000000114e+01,9.063995813133137250e-03
5.432000000000000028e+01,6.566795172570436510e-03
5.435999999999999943e+01,8.368143514867601440e-03
5.439999999999999858e+01,1.197222597247521447e-02
5.443999999999999773e+01,8.574360072601221530e-03
5.447999999999999687e+01,6.563260772125966910e-03
5.452000000000000313e+01,1.106921690214511880e-02
5.456000000000000227e+01,1.356485885163547650e-02
5.460000000000000142e+01,7.879976334609632010e-03
5.464000000000000057e+01,6.840290096250502098e-03
5.467999999999999972e+01,9.197893146968781283e-03
5.471999999999999886e+01,8.574590554450367552e-03
5.475999999999999801e+01,9.338060779926422514e-03
5.479999999999999716e+01,6.635329630811821755e-03
5.484000000000000341e+01,1.038033280371589498e-02
5.488000000000000256e+01,1.149107496407771392e-02
5.492000000000000171e+01,9.204946630403549115e-03
5.496000000000000085e+01,6.087092662426654005e-03
5.500000000000000000e+01,9.763617647162846358e-03
5.503999999999999915e+01,9.072679786784353106e-03
5.507999999999999829e+01,1.025381935946244154e-02
5.511999999999999744e+01,7.760780018189735417e-03
5.515999999999999659e+01,7.417132748484167766e-03
5.520000000000000284e+01,8.945565576947618960e-03
5.524000000000000199e+01,7.909073603648380385e-03
5.528000000000000114e+01,9.645930306008772617e-03
5.532000000000000028e+01,8.055253613483586914e-03
5.535999999999999943e+01,1.104046097485756987e-02
5.539999999999999858e+01,9.103587762916389575e-03
5.543999999999999773e+01,1.014805142644479956e-02
5.547999999999999687e+01,8.696923833877632376e-03
5.552000000000000313e+01,8.771242369234892935e-03
5.556000000000000227e+01,8.499146103947283898e-03
5.560000000000000142e+01,8.435261649923404478e-03
5.564000000000000057e+01,9.619513127167501898e-03
5.567999999999999972e+01,7.684223851190095413e-03
5.571999999999999886e+01,6.165133697915544525e-03
5.575999999999999801e+01,1.095514186830402747e-02
5.579999999999999716e+01,8.188606162280880757e-03
5.584000000000000341e+01,8.334087999993262247e-03
5.588000000000000256e+01,1.007435217640964900e-02
5.592000000000000171e+01,1.077492739309622062e-02
5.596000000000000085e+01,9.465219522232639487e-03
5.600000000000000000e+01,1.134484561035675049e-02
5.603999999999999915e+01,1.204612897297902344e-02
5.607999999999999829e+01,8.657285449896792370e-03
5.611999999999999744e+01,1.102292252227709754e-02
5.615999999999999659e+01,1.082365522542350599e-02
5.620000000000000284e+01,8.752766602129117765e-03
5.624000000000000199e+01,8.831294036413885745e-03
5.628000000000000114e+01,1.189117700195540563e-02
5.632000000000000028e+01,6.354604408272483337e-03
5.635999999999999943e+01,1.094019531313739774e-02
5.639999999999999858e+01,8.801194252459627887e-03
5.643999999999999773e+01,1.172339873978868290e-02
5.647999999999999687e+01,8.683623408181247172e-03
5.652000000000000313e+01,1.313154294180022066e-02
5.656000000000000227e+01,1.376665911193334160e-02
5.660000000000000142e+01,1.218352176212272354e-02
5.664000000000000057e+01,1.524562510951962303e-02
5.667999999999999972e+01,1.359366095779420899e-02
5.671999999999999886e+01,1.360582601600216976e-02
5.675999999999999801e+01,1.445018258720764601e-02
5.679999999999999716e+01,1.134308469426773339e-02
5.684000000000000341e+01,1.135601120066043711e-02
5.688000000000000256e+01,9.774644344685145744e-03
5.692000000000000171e+01,1.055069329491960944e-02
5.696000000000000085e+01,9.871107090412133134e-03
5.700000000000000000e+01,1.272751813137394834e-02
5.703999999999999915e+01,1.308837256270204211e-02
5.707999999999999829e+01,1.351881524412966093e-02
5.711999999999999744e+01,1.214698524708749013e-02
5.715999999999999659e+01,1.313257638648000249e-02
5.720000000000000284e+01,1.508902524183343245e-02
5.724000000000000199e+01,1.247007546614041333e-02
5.728000000000000114e+01,1.089131339859220927e-02
5.732000000000000028e+01,1.652295110191784669e-02
5.735999999999999943e+01,1.335017169733361715e-02
5.739999999999999858e+01,1.482264986900248133e-02
5.743999999999999773e+01,1.463151890005252691e-02
5.747999999999999687e+01,1.437132863402580500e-02
5.752000000000000313e+01,1.237820278867972010e-02
5.756000000000000227e+01,1.204922480905417162e-02
5.760000000000000142e+01,1.151253376657985876e-02
5.764000000000000057e+01,1.277864879745220505e-02
5.767999999999999972e+01,1.127190857085503400e-02
5.771999999999999886e+01,1.212260191788394267e-02
5.775999999999999801e+01,1.103238036949167646e-02
5.779999999999999716e+01,1.146765558616043117e-02
5.784000000000000341e+01,1.294313094816540791e-02
5.788000000000000256e+01,1.497350983578186155e-02
5.792000000000000171e+01,1.554827488955600259e-02
5.796000000000000085e+01,1.140900087207392770e-02
5.800000000000000000e+01,1.177634132552274511e-02
5.803999999999999915e+01,1.318388636616188436e-02
5.807999999999999829e+01,1.355179041909535496e-02
5.811999999999999744e+01,1.447460332786518374e-02
5.815999999999999659e+01,1.456576167199762073e-02
5.820000000000000284e+01,1.479586135605472780e-02
5.824000000000000199e+01,1.308505680514043465e-02
5.828000000000000114e+01,1.581154472831051636e-02
5.832000000000000028e+01,1.437862729909959378e-02
5.835999999999999943e+01,1.121279294635643339e-02
5.839999999999999858e+01,1.095903299308106406e-02
5.843999999999999773e+01,1.493458442104665142e-02
5.847999999999999687e+01,1.412678011113447339e-02
5.852000000000000313e+01,1.734030431287818252e-02
5.856000000000000227e+01,1.868225960205928057e-02
5.860000000000000142e+01,1.593414397289734732e-02
5.864000000000000057e+01,1.776198524404155876e-02
5.867999999999999972e+01,1.640102417433328408e-02
5.871999999999999886e+01,1.510968777792806930e-02
5.875999999999999801e+01,1.506655660571453934e-02
5.879999999999999716e+01,1.897543194831042071e-02
5.884000000000000341e+01,1.539715914611897857e-02
5.888000000000000256e+01,2.256505974881688886e-02
5.892000000000000171e+01,1.392642813040180678e-02
5.896000000000000085e+01,1.977769532749795722e-02
5.900000000000000000e+01,1.682458183988777209e-02
5.903999999999999915e+01,1.435706942520049295e-02
5.907999999999999829e+01,1.653485189834060648e-02
5.911999999999999744e+01,1.476123143284276996e-02
5.915999999999999659e+01,1.472112258334036528e-02
5.920000000000000284e+01,2.043556273385345110e-02
5.924000000000000199e+01,2.199061796451432654e-02
5.928000000000000114e+01,1.675181697688913479e-02
5.932000000000000028e+01,1.428645439037610869e-02
5.935999999999999943e+01,1.591176718674837051e-02
5.939999999999999858e+01,1.885462763668766320e-02
5.943999999999999773e+01,1.777676403951325423e-02
5.947999999999999687e+01,1.836309094985863130e-02
5.952000000000000313e+01,1.867241922371226312e-02
5.956000000000000227e+01,1.891273439577161389e-02
5.960000000000000142e+01,1.963866307794533833e-02
5.964000000000000057e+01,2.265273976010218418e-02
5.967999999999999972e+01,2.275534917244585037e-02
5.971999999999999886e+01,1.911455361804046543e-02
5.975999999999999801e+01,2.254555559424433961e-02
5.979999999999999716e+01,2.237181081132526630e-02
5.984000000000000341e+01,2.129712055990088879e-02
5.988000000000000256e+01,2.306520936222238374e-02
5.992000000000000171e+01,1.984198976168878928e-02
5.996000000000000085e+01,2.306661819463846214e-02
