2.003999999999999915e+01,3.178096546241374748e-02
2.007999999999999829e+01,2.615041353058341830e-02
2.012000000000000099e+01,2.545963434090048674e-02
2.016000000000000014e+01,2.332730480568421735e-02
2.019999999999999929e+01,2.119436875300606191e-02
2.023999999999999844e+01,3.861649339479841792e-02
2.028000000000000114e+01,3.462970191055166763e-02
2.032000000000000028e+01,2.961305802964668554e-02
2.035999999999999943e+01,2.253731602781114396e-02
2.039999999999999858e+01,2.348908316632346630e-02
2.044000000000000128e+01,3.514439804942835754e-02
2.048000000000000043e+01,1.633343472725408765e-02
2.051999999999999957e+01,1.604828591050622491e-02
2.055999999999999872e+01,4.334631321365305795e-02
2.060000000000000142e+01,3.091485125784228932e-02
2.064000000000000057e+01,1.930617844993574167e-02
2.067999999999999972e+01,2.190048812100481995e-02
2.071999999999999886e+01,2.696437981995040631e-02
2.076000000000000156e+01,1.802992312034677747e-02
2.080000000000000071e+01,1.321184132859222309e-02
2.083999999999999986e+01,2.465523299958562523e-02
2.087999999999999901e+01,3.897990464733182975e-02
2.092000000000000171e+01,1.954471116792408023e-02
2.096000000000000085e+01,2.522250348144651835e-02
2.100000000000000000e+01,2.328326994187125687e-02
2.103999999999999915e+01,1.640304915344291750e-02
2.107999999999999829e+01,1.631524141233641270e-02
2.112000000000000099e+01,2.363739402917571994e-02
2.116000000000000014e+01,3.651686476224076661e-02
2.119999999999999929e+01,3.745647753829495913e-02
2.123999999999999844e+01,3.345510267818621597e-02
2.128000000000000114e+01,1.957236099976323099e-02
2.132000000000000028e+01,2.730316921795763324e-02
2.135999999999999943e+01,4.511997601103278493e-02
2.139999999999999858e+01,2.753012371251366275e-02
2.144000000000000128e+01,2.249645938629579039e-02
2.148000000000000043e+01,1.087501392424643568e-02
2.151999999999999957e+01,3.157127269833129996e-02
2.155999999999999872e+01,2.818257418588661703e-02
2.160000000000000142e+01,1.244231868308712761e-02
2.164000000000000057e+01,2.613787937296717379e-02
2.167999999999999972e+01,3.303980941034367208e-02
2.171999999999999886e+01,1.647432923942913560e-02
2.176000000000000156e+01,2.255164375986011896e-02
2.180000000000000071e+01,2.327627130093617644e-02
2.183999999999999986e+01,2.688217695967730012e-02
2.187999999999999901e+01,3.769219237522460075e-02
2.192000000000000171e+01,3.573895192199696980e-02
2.196000000000000085e+01,1.731717119401582003e-02
2.200000000000000000e+01,3.162479203134901939e-02
2.203999999999999915e+01,2.678783375729787766e-02
2.207999999999999829e+01,2.421460574805375798e-02
2.212000000000000099e+01,3.563850829979139240e-02
2.216000000000000014e+01,3.409330538862038323e-02
2.219999999999999929e+01,3.151824644007748810e-02
2.223999999999999844e+01,2.461974530690789684e-02
2.228000000000000114e+01,2.780724096699332612e-02
2.232000000000000028e+01,4.190412986031978593e-02
2.235999999999999943e+01,1.771246999189539026e-02
2.239999999999999858e+01,2.522096526735521926e-02
2.244000000000000128e+01,1.996620366703446767e-02
2.248000000000000043e+01,3.303140364714050869e-02
2.251999999999999957e+01,3.415674311399034130e-02
2.255999999999999872e+01,2.498901502501807079e-02
2.260000000000000142e+01,2.940671830875958223e-02
2.264000000000000057e+01,9.121914826411800167e-03
2.267999999999999972e+01,1.353839554740425555e-02
2.271999999999999886e+01,3.709823390150020911e-02
2.276000000000000156e+01,4.089594436180977316e-02
2.280000000000000071e+01,4.428134501090385394e-02
2.283999999999999986e+01,1.061329074487551115e-02
2.287999999999999901e+01,4.014030748558092276e-02
2.292000000000000171e+01,1.285235273748345022e-02
2.296000000000000085e+01,3.393833152712811413e-02
2.300000000000000000e+01,4.905407362547199029e-02
2.303999999999999915e+01,2.979239910309019676e-02
2.307999999999999829e+01,1.217690552087932754e-02
2.312000000000000099e+01,3.099609566356407303e-02
2.316000000000000014e+01,2.573032542123959016e-02
2.319999999999999929e+01,2.334583066287243894e-02
2.323999999999999844e+01,1.149166354927770584e-02
2.328000000000000114e+01,3.730727462690271862e-02
2.332000000000000028e+01,4.150811456201524557e-02
2.335999999999999943e+01,3.973871710866899720e-02
2.339999999999999858e+01,2.500021179109230759e-02
2.344000000000000128e+01,3.022845922975125540e-02
2.348000000000000043e+01,3.360345163480649155e-02
2.351999999999999957e+01,3.018480982410670990e-02
2.355999999999999872e+01,5.620198048791080064e-02
2.360000000000000142e+01,4.084286304821182351e-02
2.364000000000000057e+01,4.833238578850700823e-02
2.367999999999999972e+01,3.297204191295938919e-02
2.371999999999999886e+01,5.137034191867090316e-02
2.376000000000000156e+01,2.942159915784127444e-02
2.380000000000000071e+01,2.970394887907187517e-02
2.383999999999999986e+01,3.657285717338498721e-02
2.387999999999999901e+01,1.544567023049402479e-02
2.392000000000000171e+01,2.807712678155215719e-02
2.396000000000000085e+01,3.597343955839391039e-02
2.400000000000000000e+01,2.904800114481695048e-02
2.403999999999999915e+01,2.582723310594380386e-02
2.407999999999999829e+01,3.289830750389797359e-02
2.412000000000000099e+01,3.358744478289161367e-02
2.416000000000000014e+01,4.271578217953003048e-02
2.419999999999999929e+01,2.281877807245844339e-02
2.423999999999999844e+01,3.256343425239879158e-02
2.428000000000000114e+01,3.016237738139326829e-02
2.432000000000000028e+01,3.228938686030570493e-02
2.435999999999999943e+01,4.120880303465675187e-02
2.439999999999999858e+01,3.386552333843480950e-02
2.444000000000000128e+01,3.454974495889981401e-02
2.448000000000000043e+01,4.490826085348596786e-02
2.451999999999999957e+01,3.447539979914832770e-02
2.455999999999999872e+01,3.062909592357705019e-02
2.460000000000000142e+01,2.204764703439772086e-02
2.464000000000000057e+01,4.701899111548958621e-02
2.467999999999999972e+01,3.802461365863814974e-02
2.471999999999999886e+01,4.879113734987651496e-02
2.476000000000000156e+01,4.453005924955633771e-02
2.480000000000000071e+01,2.565307753893967049e-02
2.483999999999999986e+01,4.979794836193841140e-02
2.487999999999999901e+01,3.400747250818465794e-02
2.492000000000000171e+01,3.530185873350403375e-02
2.496000000000000085e+01,5.573959825405518098e-02
2.500000000000000000e+01,4.529935255739781647e-02
2.503999999999999915e+01,5.091472306061770731e-02
2.507999999999999829e+01,3.512116814235932000e-02
2.512000000000000099e+01,3.785341882139859476e-02
2.516000000000000014e+01,6.425770325432472729e-02
2.519999999999999929e+01,5.278513168442285075e-02
2.523999999999999844e+01,4.604647381217522734e-02
2.528000000000000114e+01,5.577512993375675909e-02
2.532000000000000028e+01,3.586089499460634600e-02
2.535999999999999943e+01,3.426661605861959503e-02
2.539999999999999858e+01,4.852210349598980871e-02
2.544000000000000128e+01,3.889847526237944636e-02
2.548000000000000043e+01,3.400876026165137317e-02
2.551999999999999957e+01,2.891257931165457790e-02
2.555999999999999872e+01,3.987201355452892060e-02
2.560000000000000142e+01,6.297592945493334093e-02
2.564000000000000057e+01,3.214675641018796548e-02
2.567999999999999972e+01,5.339679596428649477e-02
2.571999999999999886e+01,4.500394368303316239e-02
2.576000000000000156e+01,4.978481839627219019e-02
2.580000000000000071e+01,3.912639104521686145e-02
2.583999999999999986e+01,6.469679302227965279e-02
2.587999999999999901e+01,5.609562200817724137e-02
2.592000000000000171e+01,3.370194173229102558e-02
2.596000000000000085e+01,3.930312537765482533e-02
2.600000000000000000e+01,4.222765259186127967e-02
2.603999999999999915e+01,4.082873026255216808e-02
2.607999999999999829e+01,4.869240085016065395e-02
2.612000000000000099e+01,3.082431228567608303e-02
2.616000000000000014e+01,2.365976038871964171e-02
2.619999999999999929e+01,6.116385142656727281e-02
2.623999999999999844e+01,3.670673631221548633e-02
2.628000000000000114e+01,4.724335489772737984e-02
2.632000000000000028e+01,5.098633384514515005e-02
2.635999999999999943e+01,3.537887618592165662e-02
2.639999999999999858e+01,3.047495472945406514e-02
2.644000000000000128e+01,2.865815161188480648e-02
2.648000000000000043e+01,3.281035456682043772e-02
2.651999999999999957e+01,4.025552483509232948e-02
2.655999999999999872e+01,2.937950375622314786e-02
2.660000000000000142e+01,3.332400108004109768e-02
2.664000000000000057e+01,4.632524110694676706e-02
2.667999999999999972e+01,3.668245783772240698e-02
2.671999999999999886e+01,5.050585617200520350e-02
2.676000000000000156e+01,4.703730841864739443e-02
2.680000000000000071e+01,3.842191313254793295e-02
2.683999999999999986e+01,4.833232011288032121e-02
2.687999999999999901e+01,4.424436684297895772e-02
2.692000000000000171e+01,2.554050585729567002e-02
2.696000000000000085e+01,5.644566543932796193e-02
2.700000000000000000e+01,2.888905259653767876e-02
2.703999999999999915e+01,4.476598628567741295e-02
2.707999999999999829e+01,5.158493844196246347e-02
2.712000000000000099e+01,6.457874456072276725e-02
2.716000000000000014e+01,5.060569473720617079e-02
2.719999999999999929e+01,4.136655481570625931e-02
2.723999999999999844e+01,6.135737111284506745e-02
2.728000000000000114e+01,4.347132737913243089e-02
2.732000000000000028e+01,4.328768846485970406e-02
2.735999999999999943e+01,5.545437692915153316e-02
2.739999999999999858e+01,7.194327664942622158e-02
2.744000000000000128e+01,4.437984214813987111e-02
2.748000000000000043e+01,5.551542335137445855e-02
2.751999999999999957e+01,6.047490998074148139e-02
2.755999999999999872e+01,8.622453790520713535e-02
2.760000000000000142e+01,4.960125878504140218e-02
2.764000000000000057e+01,7.514379580682239990e-02
2.767999999999999972e+01,7.186683371506216722e-02
2.771999999999999886e+01,8.361623698641544589e-02
2.776000000000000156e+01,7.519180442250952834e-02
2.780000000000000071e+01,5.071051853312349283e-02
2.783999999999999986e+01,6.348730374556617317e-02
2.787999999999999901e+01,5.464930898482948940e-02
2.792000000000000171e+01,8.739221688760061280e-02
2.796000000000000085e+01,8.514015125373522452e-02
2.800000000000000000e+01,8.268161486795745641e-02
2.803999999999999915e+01,9.257340454389052786e-02
2.807999999999999829e+01,1.008177794074531369e-01
2.812000000000000099e+01,1.039153041820282952e-01
2.816000000000000014e+01,9.198522058077553132e-02
2.819999999999999929e+01,9.528735054245449088e-02
2.823999999999999844e+01,1.092930131436378738e-01
2.828000000000000114e+01,7.348256427442098615e-02
2.832000000000000028e+01,9.901453371284894833e-02
2.835999999999999943e+01,9.037492535746856348e-02
2.839999999999999858e+01,1.253747100296725148e-01
2.844000000000000128e+01,1.212625376484549877e-01
2.848000000000000043e+01,1.015052088836276845e-01
2.851999999999999957e+01,1.284750098544296115e-01
2.855999999999999872e+01,1.118041726934588809e-01
2.860000000000000142e+01,1.151000782961269231e-01
2.864000000000000057e+01,1.126315854147155321e-01
2.867999999999999972e+01,1.307473825301051218e-01
2.871999999999999886e+01,1.167500924481490038e-01
2.876000000000000156e+01,8.422575762928037613e-02
2.880000000000000071e+01,1.050157241433925803e-01
2.883999999999999986e+01,9.678034016820387386e-02
2.887999999999999901e+01,9.019112590119754413e-02
2.892000000000000171e+01,9.801072728535877021e-02
2.896000000000000085e+01,8.503894312231492780e-02
2.900000000000000000e+01,1.064433400036334937e-01
2.903999999999999915e+01,8.708898563470426901e-02
2.907999999999999829e+01,8.111420096028440496e-02
2.912000000000000099e+01,7.472709423565454534e-02
2.916000000000000014e+01,6.751596712462842875e-02
2.919999999999999929e+01,8.130082726212160826e-02
2.923999999999999844e+01,6.729543091186623860e-02
2.928000000000000114e+01,7.490356904329210919e-02
2.932000000000000028e+01,5.616239443757983785e-02
2.935999999999999943e+01,8.147230925908836852e-02
2.939999999999999858e+01,5.902460173488138090e-02
2.944000000000000128e+01,6.148401445230065182e-02
2.948000000000000043e+01,6.188431138745554422e-02
2.951999999999999957e+01,6.310738027395283722e-02
2.955999999999999872e+01,6.371227712879616589e-02
2.960000000000000142e+01,5.752352799366219210e-02
2.964000000000000057e+01,4.927566276641575510e-02
2.967999999999999972e+01,5.996529256452423629e-02
2.971999999999999886e+01,3.174881195978945109e-02
2.976000000000000156e+01,6.816833294386057118e-02
2.980000000000000071e+01,6.588759249952660935e-02
2.983999999999999986e+01,6.463547251620108125e-02
2.987999999999999901e+01,4.979668473171663945e-02
2.992000000000000171e+01,4.504387894524684854e-02
2.996000000000000085e+01,4.831856378570923566e-02
3.000000000000000000e+01,3.738903320454062262e-02
3.003999999999999915e+01,4.704378998646515514e-02
3.007999999999999829e+01,5.566867547100587399e-02
3.012000000000000099e+01,4.020858709215097831e-02
3.016000000000000014e+01,3.606957502271124910e-02
3.019999999999999929e+01,4.366333744394864519e-02
3.023999999999999844e+01,3.643533659069681657e-02
3.028000000000000114e+01,3.291199402807830354e-02
3.032000000000000028e+01,5.429577000292212796e-02
3.035999999999999943e+01,4.644834341554725937e-02
3.039999999999999858e+01,4.786350137919504616e-02
3.044000000000000128e+01,3.075161135252680450e-02
3.048000000000000043e+01,3.875268868283499729e-02
3.051999999999999957e+01,3.193200219641999238e-02
3.055999999999999872e+01,3.313880517500741169e-02
3.060000000000000142e+01,3.393328323729121604e-02
3.064000000000000057e+01,2.711071677813753703e-02
3.067999999999999972e+01,4.519526815928839869e-02
3.071999999999999886e+01,4.598786578406151293e-02
3.076000000000000156e+01,3.978096604309738771e-02
3.080000000000000071e+01,3.275004273979569003e-02
3.083999999999999986e+01,3.580509965288280333e-02
3.087999999999999901e+01,2.856707289805393915e-02
3.092000000000000171e+01,2.421030667701833117e-02
3.096000000000000085e+01,3.385065389786462431e-02
3.100000000000000000e+01,1.672998686944495925e-02
3.103999999999999915e+01,2.081115265565499847e-02
3.107999999999999829e+01,1.871621697388010583e-02
3.112000000000000099e+01,3.082424355350120090e-02
3.116000000000000014e+01,2.255257858423196510e-02
3.119999999999999929e+01,2.992481962696903058e-02
3.123999999999999844e+01,3.564963973783832202e-02
3.128000000000000114e+01,3.313986669979227667e-02
3.132000000000000028e+01,3.556984471453999985e-02
3.135999999999999943e+01,4.170447892844722504e-02
3.139999999999999858e+01,3.260564936274348152e-02
3.144000000000000128e+01,3.112260929915410326e-02
3.148000000000000043e+01,2.675705306275273990e-02
3.151999999999999957e+01,2.259671751650810939e-02
3.155999999999999872e+01,1.678896041869973321e-02
3.160000000000000142e+01,1.777359599570967064e-02
3.164000000000000057e+01,3.254949456838562155e-02
3.167999999999999972e+01,2.735739884388946330e-02
3.171999999999999886e+01,4.048524680610043891e-02
3.176000000000000156e+01,2.170585081321644086e-02
3.180000000000000071e+01,2.618677745680476204e-02
3.183999999999999986e+01,4.528236322619738630e-02
3.187999999999999901e+01,3.741108391279825141e-02
3.192000000000000171e+01,2.748068409195329048e-02
3.196000000000000085e+01,2.146078843770009986e-02
3.200000000000000000e+01,2.346837945981766760e-02
3.203999999999999915e+01,2.712213407062037673e-02
3.207999999999999829e+01,3.191475823235200970e-03
3.211999999999999744e+01,2.290020339946939251e-02
3.215999999999999659e+01,2.387603052515985952e-02
3.220000000000000284e+01,2.464537876542918435e-02
3.224000000000000199e+01,2.150296371429832182e-02
3.228000000000000114e+01,1.918331526963248240e-02
3.232000000000000028e+01,1.501039467226312346e-02
3.235999999999999943e+01,5.262421726948265238e-02
3.239999999999999858e+01,3.095286046706276217e-02
3.243999999999999773e+01,5.250919060984220871e-02
3.247999999999999687e+01,1.704468162104074910e-02
3.252000000000000313e+01,2.069087683527369784e-02
3.256000000000000227e+01,2.660078201927198668e-02
3.260000000000000142e+01,9.454954184041752113e-03
3.264000000000000057e+01,2.853794250839111063e-02
3.267999999999999972e+01,2.785878372838068717e-02
3.271999999999999886e+01,2.944333460828774812e-02
3.275999999999999801e+01,2.094064730892733830e-02
3.279999999999999716e+01,1.387827299711224226e-02
3.284000000000000341e+01,4.078037403458430882e-02
3.288000000000000256e+01,3.021730245525030070e-02
3.292000000000000171e+01,2.212378927788598987e-02
3.296000000000000085e+01,3.070342435101061987e-02
3.300000000000000000e+01,1.334543781921803361e-02
3.303999999999999915e+01,1.842437500512785972e-02
3.307999999999999829e+01,1.506286642697064054e-02
3.311999999999999744e+01,6.760347206439370690e-03
3.315999999999999659e+01,2.274739363548296256e-02
3.320000000000000284e+01,1.773719717698863871e-02
3.324000000000000199e+01,2.219542889907760372e-02
3.328000000000000114e+01,1.656642143489321303e-02
3.332000000000000028e+01,2.287603154871283365e-02
3.335999999999999943e+01,2.877331140135141324e-02
3.339999999999999858e+01,1.676108491957285090e-02
3.343999999999999773e+01,2.039276011192908342e-02
3.347999999999999687e+01,2.422965219880460555e-02
3.352000000000000313e+01,2.106704157506554195e-02
3.356000000000000227e+01,3.251908674626520501e-02
3.360000000000000142e+01,1.885690566806581814e-02
3.364000000000000057e+01,1.239881157284747695e-02
3.367999999999999972e+01,1.787933435847516642e-02
3.371999999999999886e+01,3.262243526578029185e-02
3.375999999999999801e+01,2.369225351937289531e-02
3.379999999999999716e+01,1.414389153034052021e-02
3.384000000000000341e+01,4.020679598894200818e-02
3.388000000000000256e+01,1.089565163968933027e-02
3.392000000000000171e+01,1.678407532442239766e-02
3.396000000000000085e+01,2.802394320818197421e-02
3.400000000000000000e+01,2.505958792411141361e-02
3.403999999999999915e+01,2.559403451988496309e-02
3.407999999999999829e+01,3.271501985847138222e-02
3.411999999999999744e+01,2.727857483173804290e-02
3.415999999999999659e+01,1.957715583032543227e-02
3.420000000000000284e+01,2.525529660828739267e-02
3.424000000000000199e+01,1.775845940045748042e-02
3.428000000000000114e+01,2.405288007580226595e-02
3.432000000000000028e+01,2.334779649129262169e-02
3.435999999999999943e+01,1.976019115670763285e-02
3.439999999999999858e+01,9.790628795430503586e-03
3.443999999999999773e+01,2.575742263984096697e-02
3.447999999999999687e+01,2.834338890432557684e-02
3.452000000000000313e+01,3.504570350719660166e-02
3.456000000000000227e+01,1.704548826030497649e-02
3.460000000000000142e+01,2.456993065052895039e-02
3.464000000000000057e+01,2.653581206673702800e-02
3.467999999999999972e+01,2.109049026720868220e-02
3.471999999999999886e+01,0.000000000000000000e+00
3.475999999999999801e+01,2.993223154524597696e-03
3.479999999999999716e+01,3.459884049928556998e-02
3.484000000000000341e+01,9.389463271570218372e-03
3.488000000000000256e+01,1.896795396002881606e-02
3.492000000000000171e+01,1.084278449987653541e-02
3.496000000000000085e+01,2.165509984009640274e-02
3.500000000000000000e+01,1.332281097124704550e-02
3.503999999999999915e+01,1.610573983208796536e-02
3.507999999999999829e+01,2.300501594684731949e-02
3.511999999999999744e+01,1.281817891377210784e-02
3.515999999999999659e+01,2.177467542312107665e-02
3.520000000000000284e+01,3.073053636676158912e-02
3.524000000000000199e+01,3.145179649274968542e-02
3.528000000000000114e+01,1.714543445467568011e-02
3.532000000000000028e+01,2.095316000236759763e-02
3.535999999999999943e+01,2.084911621662418821e-02
3.539999999999999858e+01,2.856670339362027411e-02
3.543999999999999773e+01,2.702044371884372229e-02
3.547999999999999687e+01,3.267826746379651898e-02
3.552000000000000313e+01,3.360092504801776014e-02
3.556000000000000227e+01,2.896501987659737265e-02
3.560000000000000142e+01,2.844546095208953795e-02
3.564000000000000057e+01,1.948545130594731348e-02
3.567999999999999972e+01,1.587688252796606164e-02
3.571999999999999886e+01,1.494371585897719470e-02
3.575999999999999801e+01,2.697840768962106797e-02
3.579999999999999716e+01,2.988865154267952417e-03
3.584000000000000341e+01,2.263870123856907834e-02
3.588000000000000256e+01,2.232053489218905826e-02
3.592000000000000171e+01,1.953154203344019749e-02
3.596000000000000085e+01,3.362154074489314554e-02
3.600000000000000000e+01,3.206636850988203724e-02
3.603999999999999915e+01,7.867154852635163328e-03
3.607999999999999829e+01,1.454467332982356705e-02
3.611999999999999744e+01,1.648702448435056256e-02
3.615999999999999659e+01,2.028138037833983331e-02
3.620000000000000284e+01,2.613359006369131085e-02
3.624000000000000199e+01,2.086930918377196201e-02
3.628000000000000114e+01,2.939628231392767826e-02
3.632000000000000028e+01,3.257054034602595294e-02
3.635999999999999943e+01,3.471491491920780659e-02
3.639999999999999858e+01,2.656619513471900756e-02
3.643999999999999773e+01,3.776665554323274665e-02
3.647999999999999687e+01,3.517458623999698136e-02
3.652000000000000313e+01,2.352451712287693258e-02
3.656000000000000227e+01,2.813589102594257763e-02
3.660000000000000142e+01,3.789285488618147901e-02
3.664000000000000057e+01,2.932860787885775006e-02
3.667999999999999972e+01,4.134863537593694294e-02
3.671999999999999886e+01,3.216556403946088660e-02
3.675999999999999801e+01,2.462864715115517522e-02
3.679999999999999716e+01,2.429581112633313889e-02
3.684000000000000341e+01,3.672498238030814238e-02
3.688000000000000256e+01,3.350898098365526906e-02
3.692000000000000171e+01,2.905724591425606212e-02
3.696000000000000085e+01,3.283883704530286135e-02
3.700000000000000000e+01,2.138695355205990842e-02
3.703999999999999915e+01,3.834161078181980153e-02
3.707999999999999829e+01,3.285807370469433220e-02
3.711999999999999744e+01,4.013654336413188806e-02
3.715999999999999659e+01,2.621191333793232436e-02
3.720000000000000284e+01,2.649023379890627986e-02
3.724000000000000199e+01,4.797037506790135380e-02
3.728000000000000114e+01,3.610231778651239870e-02
3.732000000000000028e+01,4.070155118289351531e-02
3.735999999999999943e+01,4.385920092508435730e-02
3.739999999999999858e+01,4.804545648796752777e-02
3.743999999999999773e+01,3.246955572851398242e-02
3.747999999999999687e+01,5.003472481530853860e-02
3.752000000000000313e+01,6.018868518656541461e-02
3.756000000000000227e+01,4.934539422692729715e-02
3.760000000000000142e+01,4.899976865132585346e-02
3.764000000000000057e+01,6.141614880528165066e-02
3.767999999999999972e+01,6.003999692362824159e-02
3.771999999999999886e+01,6.360358370085016089e-02
3.775999999999999801e+01,7.272445644757159766e-02
3.779999999999999716e+01,9.028450289739922696e-02
3.784000000000000341e+01,1.047561717285963589e-01
3.788000000000000256e+01,1.377536214467160736e-01
3.792000000000000171e+01,1.931879854321754686e-01
3.796000000000000085e+01,2.568556736815310604e-01
3.800000000000000000e+01,3.485182025360776814e-01
3.803999999999999915e+01,5.533971114742418651e-01
3.807999999999999829e+01,8.290874797699794296e-01
3.811999999999999744e+01,1.000000000000000000e+00
3.815999999999999659e+01,9.609457669828337378e-01
3.820000000000000284e+01,8.175253840037508546e-01
3.824000000000000199e+01,6.728692647956756590e-01
3.828000000000000114e+01,4.551360631337910134e-01
3.832000000000000028e+01,3.327103667587918978e-01
3.835999999999999943e+01,2.327215837990505298e-01
3.839999999999999858e+01,1.761663253720339439e-01
3.843999999999999773e+01,1.220806146572322726e-01
3.847999999999999687e+01,1.085465405091627505e-01
3.852000000000000313e+01,9.542352262476365421e-02
3.856000000000000227e+01,7.468344488145313431e-02
3.860000000000000142e+01,6.197084103328483889e-02
3.864000000000000057e+01,5.522721970917640610e-02
3.867999999999999972e+01,7.359654986233640783e-02
3.871999999999999886e+01,5.861767867648076669e-02
3.875999999999999801e+01,4.219722112526511776e-02
3.879999999999999716e+01,5.212480959510431416e-02
3.884000000000000341e+01,5.011250594719500462e-02
3.888000000000000256e+01,4.439427527855722283e-02
3.892000000000000171e+01,4.238068616876280309e-02
3.896000000000000085e+01,3.501437684841950115e-02
3.900000000000000000e+01,2.311874375751363925e-02
3.903999999999999915e+01,2.295586803818500110e-02
3.907999999999999829e+01,3.287895657807531069e-02
3.911999999999999744e+01,3.971366502055132669e-02
3.915999999999999659e+01,3.996055808899628969e-02
3.920000000000000284e+01,2.867925660125899764e-02
3.924000000000000199e+01,1.924995388841062652e-02
3.928000000000000114e+01,2.422944676407423614e-02
3.932000000000000028e+01,2.817905044863414088e-02
3.935999999999999943e+01,2.945197182973197797e-02
3.939999999999999858e+01,2.948915473544006308e-02
3.943999999999999773e+01,2.520286214786566364e-02
3.947999999999999687e+01,1.741649050699497006e-02
3.952000000000000313e+01,2.074532792007159274e-02
3.956000000000000227e+01,2.160333177173818023e-02
3.960000000000000142e+01,2.719522151220449269e-02
3.964000000000000057e+01,2.681684233718201193e-02
3.967999999999999972e+01,4.558178795137874523e-02
3.971999999999999886e+01,2.070607382190759252e-02
3.975999999999999801e+01,2.526614079483417707e-02
3.979999999999999716e+01,2.097405073135528292e-02
3.984000000000000341e+01,1.915150566892163259e-02
3.988000000000000256e+01,2.350378985858815953e-02
3.992000000000000171e+01,2.806127847139343323e-02
3.996000000000000085e+01,3.488246272349589117e-02
4.000000000000000000e+01,2.461752437740092822e-02
4.003999999999999915e+01,3.205496621783299888e-02
4.007999999999999829e+01,2.487647485748822884e-02
4.011999999999999744e+01,2.572545444873010345e-02
4.015999999999999659e+01,2.019246585875316552e-02
4.020000000000000284e+01,2.639223239395584869e-02
4.024000000000000199e+01,2.147550061768857543e-02
4.028000000000000114e+01,2.787982555295285408e-02
4.032000000000000028e+01,3.819463846525283229e-02
4.035999999999999943e+01,2.668879810687026927e-02
4.039999999999999858e+01,3.226778984977063391e-02
4.043999999999999773e+01,3.002386896368393690e-02
4.047999999999999687e+01,2.469156534647534013e-02
4.052000000000000313e+01,3.520899882199134828e-02
4.056000000000000227e+01,2.287653299270464222e-02
4.060000000000000142e+01,2.474701106632230460e-02
4.064000000000000057e+01,3.670345037814119055e-02
4.067999999999999972e+01,3.322055880980522707e-02
4.071999999999999886e+01,2.582588752812715882e-02
4.075999999999999801e+01,2.069491033650653136e-02
4.079999999999999716e+01,3.388385924772127633e-02
4.084000000000000341e+01,3.122177871020899095e-02
4.088000000000000256e+01,2.505961640823081010e-02
4.092000000000000171e+01,3.165945348392664588e-02
4.096000000000000085e+01,2.590769607766444521e-02
4.100000000000000000e+01,2.221378316732569580e-02
4.103999999999999915e+01,1.831337425246576736e-02
4.107999999999999829e+01,2.779251179351809042e-02
4.111999999999999744e+01,3.150722668234998136e-02
4.115999999999999659e+01,2.595808364234461485e-02
4.120000000000000284e+01,2.555452165138342654e-02
4.124000000000000199e+01,2.597370891540147497e-02
4.128000000000000114e+01,2.412790841650598248e-02
4.132000000000000028e+01,2.331070614702773422e-02
4.135999999999999943e+01,2.352210202950477322e-02
4.139999999999999858e+01,3.628964723074984411e-02
4.143999999999999773e+01,3.752899353794120207e-02
4.147999999999999687e+01,3.279806736639221537e-02
4.152000000000000313e+01,3.136007945993305596e-02
4.156000000000000227e+01,2.333427153172335303e-02
4.160000000000000142e+01,3.280499163966097559e-02
4.164000000000000057e+01,2.601298249090776976e-02
4.167999999999999972e+01,2.045542000377594330e-02
4.171999999999999886e+01,2.189607972294094207e-02
4.175999999999999801e+01,4.536194801437033047e-02
4.179999999999999716e+01,3.630300551965901651e-02
4.184000000000000341e+01,2.786096198863502113e-02
4.188000000000000256e+01,3.588620030471415673e-02
4.192000000000000171e+01,3.155984227974745898e-02
4.196000000000000085e+01,1.879302129415185568e-02
4.200000000000000000e+01,3.134499448584158326e-02
4.203999999999999915e+01,1.816517769556626888e-02
4.207999999999999829e+01,3.195094796254866615e-02
4.211999999999999744e+01,3.420851801862353353e-02
4.215999999999999659e+01,3.028996514974202289e-02
4.220000000000000284e+01,4.819077087168106149e-02
4.224000000000000199e+01,3.768374754263848631e-02
4.228000000000000114e+01,4.282060876863094667e-02
4.232000000000000028e+01,4.095795024237097737e-02
4.235999999999999943e+01,3.847709489662010096e-02
4.239999999999999858e+01,2.982011616114097277e-02
4.243999999999999773e+01,3.413098298914231388e-02
4.247999999999999687e+01,4.152893709378366327e-02
4.252000000000000313e+01,3.225246197884631266e-02
4.256000000000000227e+01,3.903156913543412432e-02
4.260000000000000142e+01,3.860530686817355978e-02
4.264000000000000057e+01,4.291292460260141828e-02
4.267999999999999972e+01,3.610403930037800468e-02
4.271999999999999886e+01,4.205714989003892651e-02
4.275999999999999801e+01,3.730545554684869952e-02
4.279999999999999716e+01,4.243386912955022378e-02
4.284000000000000341e+01,5.867748533685375467e-02
4.288000000000000256e+01,5.742327510997248530e-02
4.292000000000000171e+01,5.534501784977043787e-02
4.296000000000000085e+01,7.261592815626650987e-02
4.300000000000000000e+01,9.956109687198226588e-02
4.303999999999999915e+01,1.236237270283707945e-01
4.307999999999999829e+01,1.392458920551946921e-01
4.311999999999999744e+01,1.787459051848338254e-01
4.315999999999999659e+01,2.830877430828740993e-01
4.320000000000000284e+01,4.113074289288056185e-01
4.324000000000000199e+01,5.909887459796812070e-01
4.328000000000000114e+01,6.959461778591020664e-01
4.332000000000000028e+01,6.603080030937502620e-01
4.335999999999999943e+01,5.641495329280015181e-01
4.339999999999999858e+01,4.821940012428176381e-01
4.343999999999999773e+01,3.555685569631905074e-01
4.347999999999999687e+01,2.390290684219633088e-01
4.352000000000000313e+01,1.710693227323774601e-01
4.356000000000000227e+01,1.243113856118183008e-01
4.360000000000000142e+01,1.170758294960462104e-01
4.364000000000000057e+01,9.872376848453505438e-02
4.367999999999999972e+01,7.131369379344323911e-02
4.371999999999999886e+01,7.807392251133934979e-02
4.375999999999999801e+01,7.742293042962722360e-02
4.379999999999999716e+01,7.244845441127567565e-02
4.384000000000000341e+01,7.735408430480411601e-02
4.388000000000000256e+01,7.896547575357940052e-02
4.392000000000000171e+01,7.069545654055395256e-02
4.396000000000000085e+01,7.374648691255689115e-02
4.400000000000000000e+01,8.400158420488516853e-02
4.403999999999999915e+01,1.043426361511456679e-01
4.407999999999999829e+01,1.055390663044651622e-01
4.411999999999999744e+01,1.454344799381177000e-01
4.415999999999999659e+01,1.668028190119914267e-01
4.420000000000000284e+01,2.007273019822939097e-01
4.424000000000000199e+01,2.572945361103036177e-01
4.428000000000000114e+01,3.083031905959576768e-01
4.432000000000000028e+01,3.183472151115215310e-01
4.435999999999999943e+01,3.102758629387207812e-01
4.439999999999999858e+01,2.797663022834903646e-01
4.443999999999999773e+01,2.387577825713672053e-01
4.447999999999999687e+01,1.893087950185097235e-01
4.452000000000000313e+01,1.573563298470742888e-01
4.456000000000000227e+01,1.299318918297897585e-01
4.460000000000000142e+01,1.099173687002627797e-01
4.464000000000000057e+01,7.796294222099872662e-02
4.467999999999999972e+01,7.420919254013536026e-02
4.471999999999999886e+01,7.086648711633387887e-02
4.475999999999999801e+01,5.640727462785755097e-02
4.479999999999999716e+01,5.944458397856935278e-02
4.484000000000000341e+01,4.745425265180332197e-02
4.488000000000000256e+01,3.752175830714767762e-02
4.492000000000000171e+01,4.385069079312184370e-02
4.496000000000000085e+01,5.409010227054086156e-02
4.500000000000000000e+01,5.197791144234079064e-02
4.503999999999999915e+01,2.845675653912941444e-02
4.507999999999999829e+01,3.725326024693984689e-02
4.511999999999999744e+01,3.369816141674516347e-02
4.515999999999999659e+01,3.240674815578898499e-02
4.520000000000000284e+01,3.276147299852312511e-02
4.524000000000000199e+01,3.435063760876155142e-02
4.528000000000000114e+01,4.005612972011091816e-02
4.532000000000000028e+01,4.555511753850623180e-02
4.535999999999999943e+01,3.376212324943531767e-02
4.539999999999999858e+01,3.493696879165757857e-02
4.543999999999999773e+01,3.878719761960843643e-02
4.547999999999999687e+01,2.143431064982820669e-02
4.552000000000000313e+01,2.445983193598893005e-02
4.556000000000000227e+01,2.686715020569952275e-02
4.560000000000000142e+01,3.318494622746313849e-02
4.564000000000000057e+01,2.612189305740555620e-02
4.567999999999999972e+01,3.943724783344095680e-02
4.571999999999999886e+01,3.566646893421428904e-02
4.575999999999999801e+01,3.086578837250346027e-02
4.579999999999999716e+01,3.697445557384536341e-02
4.584000000000000341e+01,3.567189794755554200e-02
4.588000000000000256e+01,2.263528369956907191e-02
4.592000000000000171e+01,2.297820653459391183e-02
4.596000000000000085e+01,2.352632209599691757e-02
4.600000000000000000e+01,2.798491463483302952e-02
4.603999999999999915e+01,6.917558574867063541e-03
4.607999999999999829e+01,1.508012224894238369e-02
4.611999999999999744e+01,3.044674873785763181e-02
4.615999999999999659e+01,2.399271072410169917e-02
4.620000000000000284e+01,3.668198487326064516e-02
4.624000000000000199e+01,2.281606438949733764e-02
4.628000000000000114e+01,1.533080989327779455e-02
4.632000000000000028e+01,2.122509170544972443e-02
4.635999999999999943e+01,3.041230240981062857e-02
4.639999999999999858e+01,3.115904155526178290e-02
4.643999999999999773e+01,3.478701117925381975e-02
4.647999999999999687e+01,2.915111257196388583e-02
4.652000000000000313e+01,2.721984080573913029e-02
4.656000000000000227e+01,2.467036408651449020e-02
4.660000000000000142e+01,2.767815621768946258e-02
4.664000000000000057e+01,2.512736413625138096e-02
4.667999999999999972e+01,2.833968987965103728e-02
4.671999999999999886e+01,1.961210824529009342e-02
4.675999999999999801e+01,3.002783768937607178e-02
4.679999999999999716e+01,3.426743522291492844e-02
4.684000000000000341e+01,2.986071121610003529e-02
4.688000000000000256e+01,3.306974681107132524e-02
4.692000000000000171e+01,3.072019765119560208e-02
4.696000000000000085e+01,1.951847758921811810e-02
4.700000000000000000e+01,2.519572771793311336e-02
4.703999999999999915e+01,2.943137544665615918e-02
4.707999999999999829e+01,1.596333947832329417e-02
4.711999999999999744e+01,2.575559647852047884e-02
4.715999999999999659e+01,2.896002261228846145e-02
4.720000000000000284e+01,2.969360038940629942e-02
4.724000000000000199e+01,4.113067401158318481e-02
4.728000000000000114e+01,2.127802101149886549e-02
4.732000000000000028e+01,2.242132016965216537e-02
4.735999999999999943e+01,3.241547277622004036e-02
4.739999999999999858e+01,2.779367800646686745e-02
4.743999999999999773e+01,3.593386998808324739e-02
4.747999999999999687e+01,3.501604093122993866e-02
4.752000000000000313e+01,3.409755245037511540e-02
4.756000000000000227e+01,1.712217237781694934e-02
4.760000000000000142e+01,2.752406693148589864e-02
4.764000000000000057e+01,1.878133279809679132e-02
4.767999999999999972e+01,1.786020584661610414e-02
4.771999999999999886e+01,2.105540167106494456e-02
4.775999999999999801e+01,3.845352753272177765e-02
4.779999999999999716e+01,2.291513273021526798e-02
4.784000000000000341e+01,3.393061557171570680e-02
4.788000000000000256e+01,2.950675358990299119e-02
4.792000000000000171e+01,2.837581747926172515e-02
4.796000000000000085e+01,2.456818241083037757e-02
4.800000000000000000e+01,2.590611522290491367e-02
4.803999999999999915e+01,3.259546496738537774e-02
4.807999999999999829e+01,2.219867646634635094e-02
4.811999999999999744e+01,2.291708036492665426e-02
4.815999999999999659e+01,2.960444835161300803e-02
4.820000000000000284e+01,2.496945348253138547e-02
4.824000000000000199e+01,3.309644381557944742e-02
4.828000000000000114e+01,2.784257984431501645e-02
4.832000000000000028e+01,3.246881310918762337e-02
4.835999999999999943e+01,3.174230795994364279e-02
4.839999999999999858e+01,2.381042215486269334e-02
4.843999999999999773e+01,2.431768944799847509e-02
4.847999999999999687e+01,2.708863588102749728e-02
4.852000000000000313e+01,2.985892095350532044e-02
4.856000000000000227e+01,3.262854458796989043e-02
4.860000000000000142e+01,3.477995931887304520e-02
4.864000000000000057e+01,2.334466991894372165e-02
4.867999999999999972e+01,2.858249832694116643e-02
4.871999999999999886e+01,2.414475590706108982e-02
4.875999999999999801e+01,2.423503250782290883e-02
4.879999999999999716e+01,2.905917718112668857e-02
4.884000000000000341e+01,2.914812989885614061e-02
4.888000000000000256e+01,2.676623100653181125e-02
4.892000000000000171e+01,2.356027346158813540e-02
4.896000000000000085e+01,3.373384711254453355e-02
4.900000000000000000e+01,2.496863857209723203e-02
4.903999999999999915e+01,3.699352972965981590e-02
4.907999999999999829e+01,1.937548381406810696e-02
4.911999999999999744e+01,2.851716219306178052e-02
4.915999999999999659e+01,3.292364799678520332e-02
4.920000000000000284e+01,2.971305333670763715e-02
4.924000000000000199e+01,2.876613634474561171e-02
4.928000000000000114e+01,3.543497430685026844e-02
4.932000000000000028e+01,4.066220545362957128e-02
4.935999999999999943e+01,3.415537323951899074e-02
4.939999999999999858e+01,3.011806751303792301e-02
4.943999999999999773e+01,4.069538682908536292e-02
4.947999999999999687e+01,3.192222476546111021e-02
4.952000000000000313e+01,3.426425239028654118e-02
4.956000000000000227e+01,2.837165146606696747e-02
4.960000000000000142e+01,2.577197315961517882e-02
4.964000000000000057e+01,4.849107423520854915e-02
4.967999999999999972e+01,3.353912103059782102e-02
4.971999999999999886e+01,3.237839580883348362e-02
4.975999999999999801e+01,3.492229115371304343e-02
4.979999999999999716e+01,3.437778571882690870e-02
4.984000000000000341e+01,4.309582718843608246e-02
4.988000000000000256e+01,4.007980429014949136e-02
4.992000000000000171e+01,4.612047901207218248e-02
4.996000000000000085e+01,4.804350699757096999e-02
5.000000000000000000e+01,4.770153033344227272e-02
5.003999999999999915e+01,5.147587195244772429e-02
5.007999999999999829e+01,5.813143700095296101e-02
5.011999999999999744e+01,6.005180761510019172e-02
5.015999999999999659e+01,6.650019453871966468e-02
5.020000000000000284e+01,8.879829980926207122e-02
5.024000000000000199e+01,1.108898912590256525e-01
5.028000000000000114e+01,1.321574214224621735e-01
5.032000000000000028e+01,1.668044801480910999e-01
5.035999999999999943e+01,1.899233227056424389e-01
5.039999999999999858e+01,2.011022507589300679e-01
5.043999999999999773e+01,2.176325910969042210e-01
5.047999999999999687e+01,1.925807421475554948e-01
5.052000000000000313e+01,1.852312530896922937e-01
5.056000000000000227e+01,1.618248666304764050e-01
5.060000000000000142e+01,1.266844144090489566e-01
5.064000000000000057e+01,1.012182058016010966e-01
5.067999999999999972e+01,1.035409641145312171e-01
5.071999999999999886e+01,8.095531215369260181e-02
5.075999999999999801e+01,6.310352446975840690e-02
5.079999999999999716e+01,5.821956615974861748e-02
5.084000000000000341e+01,5.580513154873677911e-02
5.088000000000000256e+01,5.339003100691618736e-02
5.092000000000000171e+01,5.303275575044544971e-02
5.096000000000000085e+01,4.794028443291490499e-02
5.100000000000000000e+01,4.284714695218967695e-02
5.103999999999999915e+01,4.516391188784159988e-02
5.107999999999999829e+01,3.945189446025494651e-02
5.111999999999999744e+01,4.217902494093169613e-02
5.115999999999999659e+01,3.296623944556693886e-02
5.120000000000000284e+01,4.598449337079892757e-02
5.124000000000000199e+01,3.697622382632499011e-02
5.128000000000000114e+01,4.134748098495572705e-02
5.132000000000000028e+01,4.201278703217894289e-02
5.135999999999999943e+01,2.682704325817177396e-02
5.139999999999999858e+01,2.954950680084837342e-02
5.143999999999999773e+01,3.865262633847193346e-02
5.147999999999999687e+01,2.222978674246282177e-02
5.152000000000000313e+01,3.483100721630215391e-02
5.156000000000000227e+01,3.302212138713545714e-02
5.160000000000000142e+01,2.915407693922381777e-02
5.164000000000000057e+01,3.660706720363836320e-02
5.167999999999999972e+01,3.808976523650495216e-02
5.171999999999999886e+01,2.557405491524174235e-02
5.175999999999999801e+01,1.943899996922951109e-02
5.179999999999999716e+01,3.347649198826371797e-02
5.184000000000000341e+01,2.692840328119652446e-02
5.188000000000000256e+01,3.355399098594202822e-02
5.192000000000000171e+01,2.968060514840254252e-02
5.196000000000000085e+01,3.136447778135596082e-02
5.200000000000000000e+01,4.148749661840907960e-02
5.203999999999999915e+01,2.896644304843020920e-02
5.207999999999999829e+01,3.744133241871207968e-02
5.211999999999999744e+01,2.677158442619295350e-02
5.215999999999999659e+01,3.009890882070076143e-02
5.220000000000000284e+01,2.169216435451738062e-02
5.224000000000000199e+01,3.325211687193650040e-02
5.228000000000000114e+01,3.575403905544706495e-02
5.232000000000000028e+01,2.775698692205271281e-02
5.235999999999999943e+01,3.478625243518566196e-02
5.239999999999999858e+01,3.419843128755849920e-02
5.243999999999999773e+01,4.081466071577669746e-02
5.247999999999999687e+01,3.487342422362157968e-02
5.252000000000000313e+01,3.078416078897464742e-02
5.256000000000000227e+01,3.184045640416661993e-02
5.260000000000000142e+01,3.557212143939098015e-02
5.264000000000000057e+01,3.065745370227301175e-02
5.267999999999999972e+01,3.665212040474537247e-02
5.271999999999999886e+01,2.206120467695253662e-02
5.275999999999999801e+01,3.196566577172137852e-02
5.279999999999999716e+01,2.972435858514512960e-02
5.284000000000000341e+01,3.304030816489789135e-02
5.288000000000000256e+01,2.935671754243279752e-02
5.292000000000000171e+01,3.884680131776870743e-02
5.296000000000000085e+01,1.807639311805109630e-02
5.300000000000000000e+01,4.012193378934562904e-02
5.303999999999999915e+01,3.190698233066275452e-02
5.307999999999999829e+01,3.336626976077798623e-02
5.311999999999999744e+01,3.626583082774740424e-02
5.315999999999999659e+01,3.504773896133373673e-02
5.320000000000000284e+01,2.950614495471286583e-02
5.324000000000000199e+01,3.240369475086989776e-02
5.328000000000000114e+01,2.253792794805175095e-02
5.332000000000000028e+01,3.469734733098286256e-02
5.335999999999999943e+01,2.606533391489479837e-02
5.339999999999999858e+01,2.443152008620232823e-02
5.343999999999999773e+01,2.650231969765073567e-02
5.347999999999999687e+01,3.577716787093278977e-02
5.352000000000000313e+01,2.570152684088207809e-02
5.356000000000000227e+01,3.291654155648159052e-02
5.360000000000000142e+01,2.777993731213399681e-02
5.364000000000000057e+01,3.108247609594443073e-02
5.367999999999999972e+01,3.500189091469298880e-02
5.371999999999999886e+01,2.986327261090140212e-02
5.375999999999999801e+01,3.192870232670954461e-02
5.379999999999999716e+01,3.399346045698365543e-02
5.384000000000000341e+01,1.897206918721170907e-02
5.388000000000000256e+01,3.359228080511691972e-02
5.392000000000000171e+01,3.153804112677616178e-02
5.396000000000000085e+01,3.112992258794985978e-02
5.400000000000000000e+01,4.019019202693387138e-02
5.403999999999999915e+01,3.566374687771668717e-02
5.407999999999999829e+01,3.278342263562795261e-02
5.411999999999999744e+01,2.722638750660269849e-02
5.415999999999999659e+01,3.443132611533262361e-02
5.420000000000000284e+01,2.846124808473744078e-02
5.424000000000000199e+01,3.195955756718073248e-02
5.428000000000000114e+01,3.134021194730510218e-02
5.432000000000000028e+01,3.319038328723420556e-02
5.435999999999999943e+01,2.577667113586925782e-02
5.439999999999999858e+01,2.350851447109163217e-02
5.443999999999999773e+01,3.338478361374916381e-02
5.447999999999999687e+01,2.205791952972771183e-02
5.452000000000000313e+01,1.731755460544209119e-02
5.456000000000000227e+01,2.616255916173988380e-02
5.460000000000000142e+01,3.294839928964341663e-02
5.464000000000000057e+01,3.252884667763946552e-02
5.467999999999999972e+01,3.375541381083405068e-02
5.471999999999999886e+01,2.633564414366284384e-02
5.475999999999999801e+01,3.970596309743690960e-02
5.479999999999999716e+01,3.475503601590472502e-02
5.484000000000000341e+01,1.724663844374181923e-02
5.488000000000000256e+01,2.649795401163765676e-02
5.492000000000000171e+01,3.389595366080531275e-02
5.496000000000000085e+01,2.606044390524952029e-02
5.500000000000000000e+01,2.913426409648871632e-02
5.503999999999999915e+01,3.467759985321686861e-02
5.507999999999999829e+01,3.198629637114529245e-02
5.511999999999999744e+01,2.867677135920785811e-02
5.515999999999999659e+01,3.030695123271804139e-02
5.520000000000000284e+01,3.275985332697274599e-02
5.524000000000000199e+01,3.788811972876843931e-02
5.528000000000000114e+01,3.169400956402379510e-02
5.532000000000000028e+01,2.488167748210332042e-02
5.535999999999999943e+01,2.712603248556144653e-02
5.539999999999999858e+01,3.513348842714336673e-02
5.543999999999999773e+01,3.819989050256053509e-02
5.547999999999999687e+01,2.788542433050679101e-02
5.552000000000000313e+01,3.300896794420725422e-02
5.556000000000000227e+01,2.145805708572015927e-02
5.560000000000000142e+01,2.884459105721804209e-02
5.564000000000000057e+01,3.376026032758575740e-02
5.567999999999999972e+01,4.299808608830911483e-02
5.571999999999999886e+01,2.918013405677321453e-02
5.575999999999999801e+01,2.359547181854784043e-02
5.579999999999999716e+01,2.892013797787758647e-02
5.584000000000000341e+01,3.753771467090468578e-02
5.588000000000000256e+01,2.639309933161743810e-02
5.592000000000000171e+01,2.059988566472402763e-02
5.596000000000000085e+01,4.094883565832951877e-02
5.600000000000000000e+01,2.630275781444302990e-02
5.603999999999999915e+01,2.606544310249457250e-02
5.607999999999999829e+01,2.912103845947153560e-02
5.611999999999999744e+01,3.155841035003284500e-02
5.615999999999999659e+01,3.090736914437202526e-02
5.620000000000000284e+01,3.581357819823317162e-02
5.624000000000000199e+01,3.392608967243122831e-02
5.628000000000000114e+01,3.697830386314106266e-02
5.632000000000000028e+01,3.261927293117773685e-02
5.635999999999999943e+01,2.476013025695823072e-02
5.639999999999999858e+01,2.801616394772600202e-02
5.643999999999999773e+01,2.900718051748588100e-02
5.647999999999999687e+01,2.361619730153492400e-02
5.652000000000000313e+01,2.357661459604786305e-02
5.656000000000000227e+01,3.444635881633811153e-02
5.660000000000000142e+01,3.872825388916951994e-02
5.664000000000000057e+01,3.827494190133839264e-02
5.667999999999999972e+01,2.999868583495213237e-02
5.671999999999999886e+01,3.180835986704699109e-02
5.675999999999999801e+01,3.279396006397242158e-02
5.679999999999999716e+01,2.780925811421510602e-02
5.684000000000000341e+01,2.302972782117456915e-02
5.688000000000000256e+01,2.627763602314677968e-02
5.692000000000000171e+01,3.261260353798041411e-02
5.696000000000000085e+01,4.121123377076539585e-02
5.700000000000000000e+01,2.593068721505943988e-02
5.703999999999999915e+01,3.308701789986162600e-02
5.707999999999999829e+01,3.818417935362614091e-02
5.711999999999999744e+01,3.051801677206434152e-02
5.715999999999999659e+01,2.840910259093681195e-02
5.720000000000000284e+01,3.000479456852293489e-02
5.724000000000000199e+01,2.418923964181011674e-02
5.728000000000000114e+01,2.166659246016294435e-02
5.732000000000000028e+01,3.067081812060137164e-02
5.735999999999999943e+01,2.382398234051086999e-02
5.739999999999999858e+01,3.200345444673691198e-02
5.743999999999999773e+01,3.853545488349137405e-02
5.747999999999999687e+01,3.415677275202010088e-02
5.752000000000000313e+01,2.586627837317086523e-02
5.756000000000000227e+01,3.116114766525572219e-02
5.760000000000000142e+01,3.419099758993499050e-02
5.764000000000000057e+01,2.898620331824726393e-02
5.767999999999999972e+01,3.098544947488419271e-02
5.771999999999999886e+01,2.639684431512643800e-02
5.775999999999999801e+01,2.263095641854586185e-02
5.779999999999999716e+01,3.533231953919625801e-02
5.784000000000000341e+01,3.135922377232556318e-02
5.788000000000000256e+01,3.973639628052089146e-02
5.792000000000000171e+01,3.329175191052965999e-02
5.796000000000000085e+01,2.293529444107843610e-02
5.800000000000000000e+01,3.089872976580665745e-02
5.803999999999999915e+01,3.453865357742688658e-02
5.807999999999999829e+01,2.459185497718491611e-02
5.811999999999999744e+01,3.296494893873636728e-02
5.815999999999999659e+01,3.083905727393234167e-02
5.820000000000000284e+01,2.850663637341338541e-02
5.824000000000000199e+01,3.111391439376864562e-02
5.828000000000000114e+01,2.836843478943370384e-02
5.832000000000000028e+01,3.220944698594547378e-02
5.835999999999999943e+01,3.625562789561836280e-02
5.839999999999999858e+01,3.659584398311148401e-02
5.843999999999999773e+01,3.446518994713512751e-02
5.847999999999999687e+01,1.874781272467665807e-02
5.852000000000000313e+01,2.505561161790863939e-02
5.856000000000000227e+01,2.271706627442365151e-02
5.860000000000000142e+01,3.437558084658532548e-02
5.864000000000000057e+01,2.627189804155531661e-02
5.867999999999999972e+01,3.134187847979966191e-02
5.871999999999999886e+01,3.291174260553039049e-02
5.875999999999999801e+01,2.892299904766493235e-02
5.879999999999999716e+01,3.440263417217097330e-02
5.884000000000000341e+01,3.411781232879487064e-02
5.888000000000000256e+01,2.992117560433308829e-02
5.892000000000000171e+01,3.292857690687420874e-02
5.896000000000000085e+01,2.831887884488880347e-02
5.900000000000000000e+01,2.782548171455166697e-02
5.903999999999999915e+01,2.424366591072897592e-02
5.907999999999999829e+01,3.465890909300896328e-02
5.911999999999999744e+01,2.428270832174332303e-02
5.915999999999999659e+01,3.263809635698342732e-02
5.920000000000000284e+01,3.872846192633825485e-02
5.924000000000000199e+01,2.032209898124454073e-02
5.928000000000000114e+01,2.414675980942548178e-02
5.932000000000000028e+01,2.838243662104188852e-02
5.935999999999999943e+01,2.582440981095997581e-02
5.939999999999999858e+01,2.655928664045828155e-02
5.943999999999999773e+01,2.502914053929932922e-02
5.947999999999999687e+01,3.296737180365805903e-02
5.952000000000000313e+01,2.649548135007474131e-02
5.956000000000000227e+01,1.961120989770664264e-02
5.960000000000000142e+01,3.516381072827941268e-02
5.964000000000000057e+01,2.827817356340419155e-02
5.967999999999999972e+01,2.530298688396132381e-02
5.971999999999999886e+01,2.541485409504060447e-02
5.975999999999999801e+01,3.170151205961083823e-02
5.979999999999999716e+01,2.110785821166046711e-02
5.984000000000000341e+01,2.698145143037950985e-02
5.988000000000000256e+01,2.935492609018724997e-02
5.992000000000000171e+01,3.625639815874151517e-02
5.996000000000000085e+01,2.607170897556508951e-02
