2.003999999999999915e+01,1.327011447333519868e-02
2.007999999999999829e+01,8.574098518193361967e-03
2.012000000000000099e+01,1.163317583884904485e-02
2.016000000000000014e+01,1.205663971800529158e-02
2.019999999999999929e+01,7.660936000955045205e-03
2.023999999999999844e+01,2.963763542815498614e-03
2.028000000000000114e+01,8.431124432142998379e-03
2.032000000000000028e+01,1.706058594536906739e-02
2.035999999999999943e+01,1.010369884732434387e-02
2.039999999999999858e+01,1.135367626857394438e-02
2.044000000000000128e+01,1.636811472525742661e-02
2.048000000000000043e+01,7.151514758589954182e-03
2.051999999999999957e+01,1.126183838106016750e-02
2.055999999999999872e+01,9.649456446944766619e-03
2.060000000000000142e+01,1.436156557520775097e-02
2.064000000000000057e+01,1.402862433924964396e-02
2.067999999999999972e+01,1.203890692961064740e-02
2.071999999999999886e+01,1.644897615041606212e-02
2.076000000000000156e+01,9.790397386350405823e-03
2.080000000000000071e+01,8.477475959408911632e-03
2.083999999999999986e+01,9.347823005585014985e-03
2.087999999999999901e+01,1.164848894530326300e-02
2.092000000000000171e+01,8.075861144441438128e-03
2.096000000000000085e+01,5.782962675463159362e-03
2.100000000000000000e+01,5.598038489200693468e-03
2.103999999999999915e+01,1.783650071893329997e-02
2.107999999999999829e+01,2.179223071089153238e-02
2.112000000000000099e+01,7.149816725414421051e-03
2.116000000000000014e+01,1.020143818105262792e-02
2.119999999999999929e+01,2.862068615466819600e-03
2.123999999999999844e+01,1.118377048837607135e-02
2.128000000000000114e+01,5.425027829394704626e-03
2.132000000000000028e+01,8.776693947979989988e-03
2.135999999999999943e+01,1.544105576277903999e-02
2.139999999999999858e+01,6.744959016261020332e-03
2.144000000000000128e+01,1.536642420033012754e-02
2.148000000000000043e+01,1.209100018807006752e-02
2.151999999999999957e+01,1.928129553491485584e-02
2.155999999999999872e+01,6.292254538817225809e-03
2.160000000000000142e+01,1.679496442689786331e-02
2.164000000000000057e+01,8.699532896062194334e-03
2.167999999999999972e+01,9.187447070606423113e-03
2.171999999999999886e+01,1.471984319833168423e-02
2.176000000000000156e+01,1.242128029986911027e-02
2.180000000000000071e+01,7.261227096166719859e-03
2.183999999999999986e+01,1.700929850671218518e-02
2.187999999999999901e+01,1.305340322569678926e-02
2.192000000000000171e+01,9.398407290684784518e-03
2.196000000000000085e+01,1.395028355052445324e-02
2.200000000000000000e+01,7.659402859492559640e-03
2.203999999999999915e+01,1.906256193937758484e-02
2.207999999999999829e+01,1.570762562480906843e-02
2.212000000000000099e+01,9.792380490027922588e-03
2.216000000000000014e+01,1.140635373539806638e-02
2.219999999999999929e+01,1.467653730192815080e-02
2.223999999999999844e+01,1.267579344368825744e-02
2.228000000000000114e+01,1.300891509897286226e-02
2.232000000000000028e+01,1.627826228569878922e-02
2.235999999999999943e+01,1.216842326420519704e-02
2.239999999999999858e+01,5.046506934332363296e-03
2.244000000000000128e+01,1.132681861807538319e-02
2.248000000000000043e+01,1.000205975111090502e-02
2.251999999999999957e+01,1.063469269033362474e-02
2.255999999999999872e+01,1.924831584363002890e-02
2.260000000000000142e+01,1.009204705545323905e-02
2.264000000000000057e+01,9.142653807883933947e-03
2.267999999999999972e+01,1.399069701330024791e-02
2.271999999999999886e+01,1.597725444008752521e-02
2.276000000000000156e+01,7.422238565931214491e-03
2.280000000000000071e+01,1.648597122442749946e-02
2.283999999999999986e+01,1.463165608740621751e-02
2.287999999999999901e+01,1.202411533286964693e-02
2.292000000000000171e+01,1.446106243578899539e-02
2.296000000000000085e+01,9.217646372072348104e-03
2.300000000000000000e+01,1.353641721773805526e-02
2.303999999999999915e+01,1.137954493260161064e-02
2.307999999999999829e+01,1.381539142632693361e-02
2.312000000000000099e+01,1.067913491453000886e-02
2.316000000000000014e+01,2.648430392766249874e-03
2.319999999999999929e+01,1.381767090215454442e-02
2.323999999999999844e+01,1.489711033814004014e-02
2.328000000000000114e+01,1.838571518551749065e-02
2.332000000000000028e+01,1.833518240765722590e-02
2.335999999999999943e+01,8.194849146821626615e-03
2.339999999999999858e+01,1.853447652103784940e-02
2.344000000000000128e+01,1.682663438729690639e-02
2.348000000000000043e+01,1.444086456581662389e-02
2.351999999999999957e+01,1.228070698506772938e-02
2.355999999999999872e+01,1.531563036599837765e-02
2.360000000000000142e+01,1.232668323728598053e-02
2.364000000000000057e+01,8.509219252793865859e-03
2.367999999999999972e+01,6.573857804316198504e-03
2.371999999999999886e+01,8.930038373093064641e-03
2.376000000000000156e+01,1.798720044036455218e-02
2.380000000000000071e+01,1.725574410011542978e-02
2.383999999999999986e+01,1.441575726827852739e-02
2.387999999999999901e+01,1.744850777134058714e-02
2.392000000000000171e+01,1.543622404853303189e-02
2.396000000000000085e+01,1.492956935121159644e-02
2.400000000000000000e+01,1.555206898799319469e-02
2.403999999999999915e+01,1.323779436320974418e-02
2.407999999999999829e+01,1.084795482393209436e-02
2.412000000000000099e+01,1.252377433708527082e-02
2.416000000000000014e+01,1.736171336781670155e-02
2.419999999999999929e+01,1.203456107092676190e-02
2.423999999999999844e+01,1.084836339453357397e-02
2.428000000000000114e+01,1.207133604976144171e-02
2.432000000000000028e+01,1.005635591053453091e-02
2.435999999999999943e+01,1.240821591514724986e-02
2.439999999999999858e+01,1.332920298224667816e-02
2.444000000000000128e+01,1.153930268878800881e-02
2.448000000000000043e+01,2.044102125122781999e-02
2.451999999999999957e+01,1.262698700597284819e-02
2.455999999999999872e+01,5.490339984318333769e-03
2.460000000000000142e+01,1.213240649216694445e-02
2.464000000000000057e+01,1.711771631044188210e-02
2.467999999999999972e+01,1.991920479248300568e-02
2.471999999999999886e+01,1.677212325317607375e-02
2.476000000000000156e+01,1.550714956373097295e-02
2.480000000000000071e+01,2.131963737801110398e-02
2.483999999999999986e+01,1.598820230431641926e-02
2.487999999999999901e+01,1.389418526840344344e-02
2.492000000000000171e+01,1.797409059498161418e-02
2.496000000000000085e+01,1.520188734940510628e-02
2.500000000000000000e+01,1.709770730716863793e-02
2.503999999999999915e+01,1.364731863916527656e-02
2.507999999999999829e+01,1.200374441785853966e-02
2.512000000000000099e+01,7.724581159387947614e-03
2.516000000000000014e+01,1.669706934227954340e-02
2.519999999999999929e+01,1.505270125194797630e-02
2.523999999999999844e+01,1.416101870861117239e-02
2.528000000000000114e+01,2.305741922569444491e-02
2.532000000000000028e+01,1.621690558056628623e-02
2.535999999999999943e+01,1.607738130629934176e-02
2.539999999999999858e+01,1.059165017754786810e-02
2.544000000000000128e+01,1.165631885799904219e-02
2.548000000000000043e+01,6.546536323560815662e-03
2.551999999999999957e+01,1.393545722538254428e-02
2.555999999999999872e+01,2.109823053937224732e-02
2.560000000000000142e+01,1.252409106881462696e-02
2.564000000000000057e+01,1.042505741386695085e-02
2.567999999999999972e+01,1.487642474897688666e-02
2.571999999999999886e+01,1.992989003751455962e-02
2.576000000000000156e+01,1.798066073480391810e-02
2.580000000000000071e+01,1.309466583013136308e-02
2.583999999999999986e+01,1.152138866429896005e-02
2.587999999999999901e+01,8.291360909976879662e-03
2.592000000000000171e+01,1.266586501350594647e-02
2.596000000000000085e+01,1.764246825131778051e-02
2.600000000000000000e+01,1.704698265386709807e-02
2.603999999999999915e+01,1.788184133834069475e-02
2.607999999999999829e+01,1.103635220729302403e-02
2.612000000000000099e+01,1.940018865962754926e-02
2.616000000000000014e+01,1.315653974732009998e-02
2.619999999999999929e+01,1.451742407052793692e-02
2.623999999999999844e+01,1.632981895040569800e-02
2.628000000000000114e+01,2.153022871166285560e-02
2.632000000000000028e+01,1.332787353773016818e-02
2.635999999999999943e+01,1.875365059762685443e-02
2.639999999999999858e+01,1.808027594688344647e-02
2.644000000000000128e+01,1.657839821700183083e-02
2.648000000000000043e+01,8.375009348990698418e-03
2.651999999999999957e+01,1.146560919525309655e-02
2.655999999999999872e+01,1.967600978624370334e-02
2.660000000000000142e+01,1.184832260236228646e-02
2.664000000000000057e+01,1.230282561764317606e-02
2.667999999999999972e+01,1.034763220423300448e-02
2.671999999999999886e+01,1.674992436124188647e-02
2.676000000000000156e+01,1.577305195903918808e-02
2.680000000000000071e+01,6.212295552218592525e-03
2.683999999999999986e+01,7.041989702483164755e-03
2.687999999999999901e+01,1.532563047874185153e-02
2.692000000000000171e+01,1.344419331040228732e-02
2.696000000000000085e+01,1.404723463753625168e-02
2.700000000000000000e+01,1.035820666949081176e-02
2.703999999999999915e+01,1.118662198677583194e-02
2.707999999999999829e+01,8.400623201246008864e-03
2.712000000000000099e+01,1.608037132810401920e-02
2.716000000000000014e+01,1.487505731107265604e-02
2.719999999999999929e+01,1.788600745605459230e-02
2.723999999999999844e+01,9.301276655780696054e-03
2.728000000000000114e+01,1.276348808553909656e-02
2.732000000000000028e+01,1.471954596721465440e-02
2.735999999999999943e+01,1.426591076595503174e-02
2.739999999999999858e+01,1.162846761148471526e-02
2.744000000000000128e+01,1.448730441973657655e-02
2.748000000000000043e+01,1.576469348950387817e-02
2.751999999999999957e+01,1.493357017412641312e-02
2.755999999999999872e+01,1.681281323927541135e-02
2.760000000000000142e+01,1.236702556514372199e-02
2.764000000000000057e+01,1.793521749608821200e-02
2.767999999999999972e+01,2.019017818690912319e-02
2.771999999999999886e+01,1.581892881832306849e-02
2.776000000000000156e+01,1.235096735098596514e-02
2.780000000000000071e+01,1.972523102998480909e-02
2.783999999999999986e+01,1.919327062015020735e-02
2.787999999999999901e+01,1.873635394796889508e-02
2.792000000000000171e+01,1.579445197054219277e-02
2.796000000000000085e+01,1.465937861007186177e-02
2.800000000000000000e+01,1.871940805709820105e-02
2.803999999999999915e+01,1.540027924280616516e-02
2.807999999999999829e+01,1.915862807059081144e-02
2.812000000000000099e+01,1.312837974624444376e-02
2.816000000000000014e+01,2.509338121517092415e-02
2.819999999999999929e+01,2.109559775923035979e-02
2.823999999999999844e+01,1.860346438735647340e-02
2.828000000000000114e+01,2.559824892603606433e-02
2.832000000000000028e+01,2.483740169286907662e-02
2.835999999999999943e+01,1.888095212437264359e-02
2.839999999999999858e+01,2.519733522948044979e-02
2.844000000000000128e+01,2.029451818179967351e-02
2.848000000000000043e+01,2.480332505107969016e-02
2.851999999999999957e+01,2.539654499212087163e-02
2.855999999999999872e+01,2.493538735199411424e-02
2.860000000000000142e+01,2.341985232750861193e-02
2.864000000000000057e+01,2.039817024964270253e-02
2.867999999999999972e+01,2.595986831876028259e-02
2.871999999999999886e+01,2.738009551076939913e-02
2.876000000000000156e+01,2.044233327472502054e-02
2.880000000000000071e+01,2.028087231276837904e-02
2.883999999999999986e+01,2.042034474480039843e-02
2.887999999999999901e+01,2.289371516386883715e-02
2.892000000000000171e+01,1.843970151725135564e-02
2.896000000000000085e+01,2.226788948472761473e-02
2.900000000000000000e+01,1.826515404847462928e-02
2.903999999999999915e+01,1.900575667092571294e-02
2.907999999999999829e+01,1.613195503102013081e-02
2.912000000000000099e+01,1.258025345346722862e-02
2.916000000000000014e+01,1.934371887029249712e-02
2.919999999999999929e+01,1.541505271717261844e-02
2.923999999999999844e+01,1.366969636709471775e-02
2.928000000000000114e+01,1.666767925657586941e-02
2.932000000000000028e+01,1.748186363968616888e-02
2.935999999999999943e+01,1.438046522755005892e-02
2.939999999999999858e+01,1.798007606400068431e-02
2.944000000000000128e+01,1.585702503549991926e-02
2.948000000000000043e+01,1.395961557229599345e-02
2.951999999999999957e+01,1.605259675312141823e-02
2.955999999999999872e+01,1.694061531773108364e-02
2.960000000000000142e+01,7.814159079233395228e-03
2.964000000000000057e+01,1.638178000539370835e-02
2.967999999999999972e+01,1.342902696929564911e-02
2.971999999999999886e+01,1.702669480098065874e-02
2.976000000000000156e+01,1.196519821428741401e-02
2.980000000000000071e+01,1.014114387290299818e-02
2.983999999999999986e+01,9.822747487951798487e-03
2.987999999999999901e+01,1.063353436805065944e-02
2.992000000000000171e+01,1.302527457583951657e-02
2.996000000000000085e+01,1.232967969454256026e-02
3.000000000000000000e+01,1.344092346746935188e-02
3.003999999999999915e+01,7.398903752451360845e-03
3.007999999999999829e+01,8.584961475245154322e-03
3.012000000000000099e+01,6.909569829105173359e-03
3.016000000000000014e+01,1.434463045535699054e-02
3.019999999999999929e+01,8.753420125100176349e-03
3.023999999999999844e+01,6.851424070883783274e-03
3.028000000000000114e+01,1.044572195284025444e-02
3.032000000000000028e+01,1.712687468334770508e-02
3.035999999999999943e+01,1.364296639484500161e-02
3.039999999999999858e+01,1.520358276711180311e-02
3.044000000000000128e+01,1.081565726174093384e-02
3.048000000000000043e+01,8.611047660496119749e-03
3.051999999999999957e+01,1.333333775141001820e-02
3.055999999999999872e+01,6.987028075697934194e-03
3.060000000000000142e+01,1.163354727824014202e-02
3.064000000000000057e+01,4.684402264305401187e-03
3.067999999999999972e+01,1.301990024763596300e-02
3.071999999999999886e+01,9.157374587000187416e-03
3.076000000000000156e+01,1.146880002299340701e-02
3.080000000000000071e+01,1.031641961470090504e-02
3.083999999999999986e+01,5.624938581293348859e-03
3.087999999999999901e+01,1.102274807214261021e-02
3.092000000000000171e+01,1.099908289053347886e-02
3.096000000000000085e+01,7.511612651875251671e-03
3.100000000000000000e+01,7.487475495716150800e-03
3.103999999999999915e+01,1.100196659650382915e-02
3.107999999999999829e+01,8.643213946238932979e-03
3.112000000000000099e+01,7.940715505577428113e-03
3.116000000000000014e+01,1.009919111354396458e-02
3.119999999999999929e+01,1.293508661543213596e-02
3.123999999999999844e+01,9.295379332396665195e-03
3.128000000000000114e+01,1.694968418392513859e-02
3.132000000000000028e+01,1.150242861196310203e-02
3.135999999999999943e+01,1.042204762544428516e-02
3.139999999999999858e+01,8.964957829954371682e-03
3.144000000000000128e+01,1.127238319241825881e-02
3.148000000000000043e+01,9.664236190521377848e-03
3.151999999999999957e+01,9.862935321596481841e-03
3.155999999999999872e+01,5.393112705544426087e-03
3.160000000000000142e+01,8.527849894244723949e-03
3.164000000000000057e+01,5.412871199028380237e-03
3.167999999999999972e+01,8.547143104690303403e-03
3.171999999999999886e+01,1.303649226153918810e-02
3.176000000000000156e+01,9.393751683937237237e-03
3.180000000000000071e+01,4.244879600878798988e-03
3.183999999999999986e+01,1.151944707228961737e-02
3.187999999999999901e+01,8.704255981076944662e-03
3.192000000000000171e+01,7.168848147458594181e-03
3.196000000000000085e+01,5.106144304920475982e-03
3.200000000000000000e+01,7.786793084964565084e-03
3.203999999999999915e+01,9.714261316791827222e-03
3.207999999999999829e+01,7.048505337649547259e-03
3.211999999999999744e+01,7.620203018747577148e-03
3.215999999999999659e+01,1.105287966870276313e-02
3.220000000000000284e+01,5.449929017446296202e-03
3.224000000000000199e+01,4.740922124903903037e-03
3.228000000000000114e+01,6.591714881092275782e-03
3.232000000000000028e+01,5.355184159935463123e-03
3.235999999999999943e+01,1.859574912265781052e-03
3.239999999999999858e+01,5.064989673870081907e-03
3.243999999999999773e+01,5.785441369664422878e-03
3.247999999999999687e+01,4.820662474499912858e-04
3.252000000000000313e+01,9.936278332253080728e-03
3.256000000000000227e+01,8.848965334357652979e-03
3.260000000000000142e+01,1.182735311243566893e-02
3.264000000000000057e+01,1.096546921125710408e-02
3.267999999999999972e+01,5.359774095969519099e-03
3.271999999999999886e+01,1.089750824509884072e-02
3.275999999999999801e+01,9.959647088052721656e-03
3.279999999999999716e+01,4.353270284963558188e-03
3.284000000000000341e+01,8.007948895757073526e-03
3.288000000000000256e+01,2.099938707625466014e-03
3.292000000000000171e+01,7.846957134098395256e-04
3.296000000000000085e+01,9.709343432804468099e-03
3.300000000000000000e+01,8.167763212039871532e-03
3.303999999999999915e+01,5.948302340925974881e-03
3.307999999999999829e+01,5.987465144172234022e-03
3.311999999999999744e+01,5.800517556518372010e-03
3.315999999999999659e+01,1.035692829891242568e-02
3.320000000000000284e+01,7.609501146008681126e-03
3.324000000000000199e+01,3.280654595139856702e-03
3.328000000000000114e+01,7.761095757223736812e-03
3.332000000000000028e+01,6.594189122483616432e-03
3.335999999999999943e+01,7.836497495044695769e-03
3.339999999999999858e+01,7.045617391046561998e-03
3.343999999999999773e+01,3.242714297998298620e-03
3.347999999999999687e+01,5.689070662240629586e-03
3.352000000000000313e+01,7.758728648397526968e-03
3.356000000000000227e+01,5.837529526631683729e-03
3.360000000000000142e+01,7.304381302322146899e-03
3.364000000000000057e+01,4.328606497877366538e-03
3.367999999999999972e+01,1.196920083780016360e-02
3.371999999999999886e+01,5.454116875843700689e-03
3.375999999999999801e+01,1.060953213881167360e-02
3.379999999999999716e+01,5.675198285995964112e-03
3.384000000000000341e+01,3.903031578576130096e-03
3.388000000000000256e+01,6.271866922661424766e-03
3.392000000000000171e+01,9.769905409522269130e-03
3.396000000000000085e+01,6.867649472121050563e-03
3.400000000000000000e+01,6.675791601521541274e-03
3.403999999999999915e+01,6.860187687740416061e-03
3.407999999999999829e+01,3.354909135109561662e-03
3.411999999999999744e+01,0.000000000000000000e+00
3.415999999999999659e+01,4.324958243067680841e-03
3.420000000000000284e+01,3.002573019112961348e-03
3.424000000000000199e+01,6.272961483776640784e-03
3.428000000000000114e+01,5.477201405444077735e-03
3.432000000000000028e+01,7.994200789494252876e-03
3.435999999999999943e+01,7.649771666382011726e-03
3.439999999999999858e+01,1.137105217565552787e-02
3.443999999999999773e+01,1.223090457138495055e-02
3.447999999999999687e+01,6.012810302625193511e-03
3.452000000000000313e+01,6.345160518748164079e-03
3.456000000000000227e+01,9.387911557001107216e-03
3.460000000000000142e+01,6.482141185769433982e-03
3.464000000000000057e+01,1.994958304893401559e-03
3.467999999999999972e+01,7.672379622783220832e-03
3.471999999999999886e+01,6.573035367592698110e-03
3.475999999999999801e+01,1.006646735953972867e-02
3.479999999999999716e+01,3.545450133570654441e-03
3.484000000000000341e+01,2.144274391826688983e-03
3.488000000000000256e+01,1.482304267009471738e-02
3.492000000000000171e+01,5.063691010526900904e-03
3.496000000000000085e+01,7.953679189458532153e-03
3.500000000000000000e+01,8.509306853643584106e-03
3.503999999999999915e+01,9.742373305429959454e-03
3.507999999999999829e+01,1.150228878634993075e-02
3.511999999999999744e+01,4.753656176596443399e-03
3.515999999999999659e+01,9.073169858980368457e-03
3.520000000000000284e+01,7.820639972209435242e-03
3.524000000000000199e+01,5.513765371400901685e-03
3.528000000000000114e+01,7.799669576248994228e-03
3.532000000000000028e+01,6.395905243331418723e-03
3.535999999999999943e+01,9.810805042604252291e-03
3.539999999999999858e+01,7.051302435660284501e-03
3.543999999999999773e+01,2.785686232893713754e-03
3.547999999999999687e+01,1.101882247186874129e-02
3.552000000000000313e+01,1.014105276715423880e-02
3.556000000000000227e+01,1.107014907313720771e-02
3.560000000000000142e+01,8.234283241380192103e-03
3.564000000000000057e+01,8.334708478515997360e-03
3.567999999999999972e+01,3.766632239868505927e-03
3.571999999999999886e+01,9.137280384109729495e-03
3.575999999999999801e+01,5.472318743154812315e-03
3.579999999999999716e+01,7.077793265121911162e-03
3.584000000000000341e+01,8.607760734488932239e-03
3.588000000000000256e+01,8.631616772934131571e-03
3.592000000000000171e+01,7.074066599628228529e-03
3.596000000000000085e+01,6.570434628726773765e-03
3.600000000000000000e+01,1.306902429047787986e-02
3.603999999999999915e+01,1.286614985148951985e-02
3.607999999999999829e+01,8.747725681194216951e-03
3.611999999999999744e+01,9.598559337740324854e-03
3.615999999999999659e+01,1.376216150989074440e-02
3.620000000000000284e+01,7.836026374807302658e-03
3.624000000000000199e+01,5.147365171308014749e-03
3.628000000000000114e+01,1.043976168742550593e-02
3.632000000000000028e+01,9.858940234490862556e-03
3.635999999999999943e+01,8.901434376921387934e-03
3.639999999999999858e+01,7.793129244441658089e-03
3.643999999999999773e+01,1.451529266353846111e-02
3.647999999999999687e+01,8.135921047526806227e-03
3.652000000000000313e+01,6.123449405340493368e-03
3.656000000000000227e+01,5.466078828249926191e-03
3.660000000000000142e+01,9.100313640964528480e-03
3.664000000000000057e+01,1.258375035962385445e-02
3.667999999999999972e+01,1.132339554509053867e-02
3.671999999999999886e+01,1.171932249344348302e-02
3.675999999999999801e+01,1.459977615551503842e-02
3.679999999999999716e+01,1.198348909843673787e-02
3.684000000000000341e+01,9.366994886625915062e-03
3.688000000000000256e+01,9.385617934238123239e-03
3.692000000000000171e+01,3.079256099104814900e-03
3.696000000000000085e+01,1.665056179622203397e-02
3.700000000000000000e+01,1.440971582176510044e-02
3.703999999999999915e+01,1.721342717839883379e-02
3.707999999999999829e+01,1.361685946188523171e-02
3.711999999999999744e+01,1.514014444771907830e-02
3.715999999999999659e+01,1.508202932288586935e-02
3.720000000000000284e+01,2.059553715984925246e-02
3.724000000000000199e+01,2.046171648728664291e-02
3.728000000000000114e+01,2.477009450556195286e-02
3.732000000000000028e+01,2.508763391597587308e-02
3.735999999999999943e+01,2.133903993769911689e-02
3.739999999999999858e+01,2.534562425678033720e-02
3.743999999999999773e+01,2.099426185539655237e-02
3.747999999999999687e+01,2.515102792137374754e-02
3.752000000000000313e+01,2.320869698965828329e-02
3.756000000000000227e+01,2.179322728924450864e-02
3.760000000000000142e+01,2.052814412874926289e-02
3.764000000000000057e+01,2.581352080425149131e-02
3.767999999999999972e+01,3.192693921203676455e-02
3.771999999999999886e+01,2.862828259008261267e-02
3.775999999999999801e+01,3.210597132746882687e-02
3.779999999999999716e+01,2.421391601013377429e-02
3.784000000000000341e+01,3.567246771138155026e-02
3.788000000000000256e+01,3.124357709321832696e-02
3.792000000000000171e+01,4.224995505005591651e-02
3.796000000000000085e+01,4.158540982885503695e-02
3.800000000000000000e+01,4.363128235537221816e-02
3.803999999999999915e+01,5.004406233446293678e-02
3.807999999999999829e+01,5.660723121518213691e-02
3.811999999999999744e+01,6.904320749486253517e-02
3.815999999999999659e+01,6.913060678180406315e-02
3.820000000000000284e+01,8.518034086487984158e-02
3.824000000000000199e+01,9.452862167172018659e-02
3.828000000000000114e+01,1.057590768499195727e-01
3.832000000000000028e+01,1.035868261356781839e-01
3.835999999999999943e+01,1.207651849985387632e-01
3.839999999999999858e+01,1.383951142480550345e-01
3.843999999999999773e+01,1.549707145282667176e-01
3.847999999999999687e+01,1.722237705216678461e-01
3.852000000000000313e+01,1.853354038562055883e-01
3.856000000000000227e+01,1.985974284540817092e-01
3.860000000000000142e+01,2.197652272088676806e-01
3.864000000000000057e+01,2.648766305543663324e-01
3.867999999999999972e+01,3.036630576767226364e-01
3.871999999999999886e+01,3.497528997253084304e-01
3.875999999999999801e+01,4.100732948396721422e-01
3.879999999999999716e+01,4.855277829482843033e-01
3.884000000000000341e+01,5.555608353526525489e-01
3.888000000000000256e+01,6.417068158541876510e-01
3.892000000000000171e+01,7.624129941711235148e-01
3.896000000000000085e+01,8.426855727723553402e-01
3.900000000000000000e+01,9.329721868724655254e-01
3.903999999999999915e+01,9.828252016504901434e-01
3.907999999999999829e+01,1.000000000000000000e+00
3.911999999999999744e+01,9.482796978737015881e-01
3.915999999999999659e+01,8.970109698734328729e-01
3.920000000000000284e+01,8.007909446800069997e-01
3.924000000000000199e+01,7.045707241403983412e-01
3.928000000000000114e+01,6.146750865730473690e-01
3.932000000000000028e+01,5.212403901041241516e-01
3.935999999999999943e+01,4.397774003239621754e-01
3.939999999999999858e+01,3.798485795894558925e-01
3.943999999999999773e+01,3.169830603649124168e-01
3.947999999999999687e+01,2.630774493140189962e-01
3.952000000000000313e+01,2.290495183911625265e-01
3.956000000000000227e+01,1.893742703737115451e-01
3.960000000000000142e+01,1.759767759771856399e-01
3.964000000000000057e+01,1.609225986945223563e-01
3.967999999999999972e+01,1.399952199747767079e-01
3.971999999999999886e+01,1.299101250504976213e-01
3.975999999999999801e+01,1.057446765201615069e-01
3.979999999999999716e+01,1.025863341601035011e-01
3.984000000000000341e+01,9.046769706702251224e-02
3.988000000000000256e+01,7.804768786615161325e-02
3.992000000000000171e+01,7.247932962995433381e-02
3.996000000000000085e+01,7.263319789066287335e-02
4.000000000000000000e+01,6.811858593097779024e-02
4.003999999999999915e+01,5.968844372409292526e-02
4.007999999999999829e+01,5.374284456608722366e-02
4.011999999999999744e+01,5.359476766986244478e-02
4.015999999999999659e+01,4.569111725730352208e-02
4.020000000000000284e+01,5.073801237579828038e-02
4.024000000000000199e+01,4.750226952810795988e-02
4.028000000000000114e+01,4.569694102640405736e-02
4.032000000000000028e+01,3.719016948254120353e-02
4.035999999999999943e+01,3.711624559866062018e-02
4.039999999999999858e+01,3.327738319413969803e-02
4.043999999999999773e+01,3.034187107937257044e-02
4.047999999999999687e+01,3.636627205848447925e-02
4.052000000000000313e+01,2.642794872995171684e-02
4.056000000000000227e+01,2.996723754722437766e-02
4.060000000000000142e+01,2.349210568390967119e-02
4.064000000000000057e+01,2.981693156127252289e-02
4.067999999999999972e+01,2.477202755417387200e-02
4.071999999999999886e+01,2.537405880571667882e-02
4.075999999999999801e+01,2.507236245816335182e-02
4.079999999999999716e+01,2.717991772441568504e-02
4.084000000000000341e+01,2.740491107589011419e-02
4.088000000000000256e+01,2.145552898400318251e-02
4.092000000000000171e+01,2.115308313480350824e-02
4.096000000000000085e+01,2.371165955247692483e-02
4.100000000000000000e+01,2.468885475316300385e-02
4.103999999999999915e+01,2.626822328518647540e-02
4.107999999999999829e+01,2.069438264859429014e-02
4.111999999999999744e+01,1.926157968596582323e-02
4.115999999999999659e+01,1.496738167373269646e-02
4.120000000000000284e+01,1.609423634893557276e-02
4.124000000000000199e+01,1.639266076439075542e-02
4.128000000000000114e+01,1.827209440133839916e-02
4.132000000000000028e+01,1.804308355230273969e-02
4.135999999999999943e+01,2.180452160280882748e-02
4.139999999999999858e+01,1.909040685791878189e-02
4.143999999999999773e+01,1.464432310566526375e-02
4.147999999999999687e+01,1.599576830670422153e-02
4.152000000000000313e+01,2.156354812743696212e-02
4.156000000000000227e+01,1.666514212517146779e-02
4.160000000000000142e+01,1.733838073371053376e-02
4.164000000000000057e+01,1.349373714630858548e-02
4.167999999999999972e+01,1.281129927889857779e-02
4.171999999999999886e+01,1.355928284260489620e-02
4.175999999999999801e+01,1.762006247519837601e-02
4.179999999999999716e+01,1.543117621340276378e-02
4.184000000000000341e+01,1.565154668245106670e-02
4.188000000000000256e+01,1.549525990652908872e-02
4.192000000000000171e+01,1.518820101536141887e-02
4.196000000000000085e+01,1.578449989269577192e-02
4.200000000000000000e+01,1.457353754035645502e-02
4.203999999999999915e+01,1.456711326069137086e-02
4.207999999999999829e+01,1.651817702689436021e-02
4.211999999999999744e+01,1.410195091414324919e-02
4.215999999999999659e+01,1.484793288309402097e-02
4.220000000000000284e+01,1.770199344361728447e-02
4.224000000000000199e+01,1.310167063243674636e-02
4.228000000000000114e+01,1.565419030822440619e-02
4.232000000000000028e+01,1.429119095493460931e-02
4.235999999999999943e+01,1.420802622643080673e-02
4.239999999999999858e+01,2.022357488838411391e-02
4.243999999999999773e+01,1.848356125212558335e-02
4.247999999999999687e+01,1.455981385971099988e-02
4.252000000000000313e+01,2.170424897231993180e-02
4.256000000000000227e+01,1.740366847285956461e-02
4.260000000000000142e+01,1.619000324236342242e-02
4.264000000000000057e+01,1.836443338819453500e-02
4.267999999999999972e+01,1.474097183526894631e-02
4.271999999999999886e+01,1.540914578395053552e-02
4.275999999999999801e+01,1.555007686218654039e-02
4.279999999999999716e+01,1.877792419343256997e-02
4.284000000000000341e+01,1.492786599330461067e-02
4.288000000000000256e+01,1.589650892548977179e-02
4.292000000000000171e+01,1.385317551239651813e-02
4.296000000000000085e+01,1.632736371468087103e-02
4.300000000000000000e+01,1.473544627836659293e-02
4.303999999999999915e+01,1.479984170078644037e-02
4.307999999999999829e+01,1.328286614029543407e-02
4.311999999999999744e+01,1.620811800478018025e-02
4.315999999999999659e+01,1.996143856440341091e-02
4.320000000000000284e+01,2.138043895515860313e-02
4.324000000000000199e+01,1.361327640875432260e-02
4.328000000000000114e+01,1.954962432409401707e-02
4.332000000000000028e+01,1.697746449463881022e-02
4.335999999999999943e+01,2.276287210821465942e-02
4.339999999999999858e+01,1.695267828743673294e-02
4.343999999999999773e+01,2.266244136412387533e-02
4.347999999999999687e+01,2.317667649934533614e-02
4.352000000000000313e+01,1.872126882282569571e-02
4.356000000000000227e+01,2.435521405906771603e-02
4.360000000000000142e+01,2.554658172065623831e-02
4.364000000000000057e+01,2.259655191495429580e-02
4.367999999999999972e+01,2.371227740136403611e-02
4.371999999999999886e+01,2.633372913698674503e-02
4.375999999999999801e+01,2.451260408519262760e-02
4.379999999999999716e+01,2.412191069859130621e-02
4.384000000000000341e+01,2.260161993428405972e-02
4.388000000000000256e+01,2.522238042377281109e-02
4.392000000000000171e+01,2.769237863847405501e-02
4.396000000000000085e+01,2.647275082618893993e-02
4.400000000000000000e+01,2.721062050661172266e-02
4.403999999999999915e+01,2.621653397226665627e-02
4.407999999999999829e+01,3.312824855768681243e-02
4.411999999999999744e+01,3.296206390962620053e-02
4.415999999999999659e+01,3.972284606564905479e-02
4.420000000000000284e+01,3.195152659560112490e-02
4.424000000000000199e+01,3.298954876421670429e-02
4.428000000000000114e+01,3.922275384165845036e-02
4.432000000000000028e+01,4.266987439505794122e-02
4.435999999999999943e+01,4.551446497273988617e-02
4.439999999999999858e+01,4.843418057025968698e-02
4.443999999999999773e+01,5.270903600428043789e-02
4.447999999999999687e+01,5.495075747788028681e-02
4.452000000000000313e+01,6.193589317533047811e-02
4.456000000000000227e+01,6.221960669239304936e-02
4.460000000000000142e+01,6.656908002817808756e-02
4.464000000000000057e+01,7.039131974354820298e-02
4.467999999999999972e+01,7.827931967125914547e-02
4.471999999999999886e+01,8.564008637217349063e-02
4.475999999999999801e+01,8.404058254759198821e-02
4.479999999999999716e+01,9.087394822880988376e-02
4.484000000000000341e+01,1.036554493505669611e-01
4.488000000000000256e+01,1.109402495086252299e-01
4.492000000000000171e+01,1.211613863953022174e-01
4.496000000000000085e+01,1.371047743800304641e-01
4.500000000000000000e+01,1.496597213653644842e-01
4.503999999999999915e+01,1.680122148200065280e-01
4.507999999999999829e+01,1.746938201286412085e-01
4.511999999999999744e+01,1.953048298851567666e-01
4.515999999999999659e+01,2.069555710842681528e-01
4.520000000000000284e+01,2.315568824155786187e-01
4.524000000000000199e+01,2.452402561645030676e-01
4.528000000000000114e+01,2.733800999920143471e-01
4.532000000000000028e+01,2.909031865413118090e-01
4.535999999999999943e+01,2.945718319707504862e-01
4.539999999999999858e+01,2.965085278769328259e-01
4.543999999999999773e+01,2.936261803734908638e-01
4.547999999999999687e+01,2.869036243665337715e-01
4.552000000000000313e+01,2.791267742254940898e-01
4.556000000000000227e+01,2.598296282554339309e-01
4.560000000000000142e+01,2.430170524939175847e-01
4.564000000000000057e+01,2.213101393291841690e-01
4.567999999999999972e+01,1.950853638462353434e-01
4.571999999999999886e+01,1.828652907409433481e-01
4.575999999999999801e+01,1.649979310464771143e-01
4.579999999999999716e+01,1.484104229023850141e-01
4.584000000000000341e+01,1.296391975341065761e-01
4.588000000000000256e+01,1.111689894005204737e-01
4.592000000000000171e+01,1.094893988012602959e-01
4.596000000000000085e+01,8.793177182320130458e-02
4.600000000000000000e+01,8.632715183390227143e-02
4.603999999999999915e+01,7.568697263936215169e-02
4.607999999999999829e+01,6.835961076909888301e-02
4.611999999999999744e+01,6.532390112922170644e-02
4.615999999999999659e+01,5.837269135394675124e-02
4.620000000000000284e+01,5.330369491824522160e-02
4.624000000000000199e+01,5.079456681767253318e-02
4.628000000000000114e+01,4.308992455227559498e-02
4.632000000000000028e+01,3.967693550131058677e-02
4.635999999999999943e+01,3.935088021937113018e-02
4.639999999999999858e+01,3.367872140775801659e-02
4.643999999999999773e+01,2.928641729546556036e-02
4.647999999999999687e+01,3.310110602204201224e-02
4.652000000000000313e+01,2.840730274855662874e-02
4.656000000000000227e+01,3.169460777464303686e-02
4.660000000000000142e+01,3.053934998676323051e-02
4.664000000000000057e+01,2.840509855309585052e-02
4.667999999999999972e+01,1.881648559354185193e-02
4.671999999999999886e+01,2.669614890324328860e-02
4.675999999999999801e+01,2.531437161735321240e-02
4.679999999999999716e+01,2.415832111512768859e-02
4.684000000000000341e+01,2.322799759337594236e-02
4.688000000000000256e+01,2.154456653960702683e-02
4.692000000000000171e+01,1.587034411217600263e-02
4.696000000000000085e+01,1.343364836118492688e-02
4.700000000000000000e+01,1.393329957288911430e-02
4.703999999999999915e+01,1.450808879383594895e-02
4.707999999999999829e+01,2.276280896231984083e-02
4.711999999999999744e+01,1.565719711777876361e-02
4.715999999999999659e+01,1.894213580937792116e-02
4.720000000000000284e+01,1.522448539944039683e-02
4.724000000000000199e+01,1.165726896042979834e-02
4.728000000000000114e+01,1.087581090650165117e-02
4.732000000000000028e+01,1.077185206058804343e-02
4.735999999999999943e+01,1.285129217226747486e-02
4.739999999999999858e+01,1.297290766823338409e-02
4.743999999999999773e+01,1.369672798500283853e-02
4.747999999999999687e+01,1.186036425856935861e-02
4.752000000000000313e+01,1.378859480737339507e-02
4.756000000000000227e+01,1.278016681840049400e-02
4.760000000000000142e+01,1.237394443746779940e-02
4.764000000000000057e+01,1.113932328625356558e-02
4.767999999999999972e+01,7.043339165328321369e-03
4.771999999999999886e+01,7.239015147155730863e-03
4.775999999999999801e+01,7.359242725513767333e-03
4.779999999999999716e+01,8.533446761788635732e-03
4.784000000000000341e+01,1.038515256459716755e-02
4.788000000000000256e+01,1.065551100159446186e-02
4.792000000000000171e+01,1.303397617387463264e-02
4.796000000000000085e+01,1.375579939632343672e-02
4.800000000000000000e+01,1.071272149187293792e-02
4.803999999999999915e+01,1.519898930310248884e-02
4.807999999999999829e+01,9.821463192335160713e-03
4.811999999999999744e+01,1.106974345920460484e-02
4.815999999999999659e+01,1.066138276028849412e-02
4.820000000000000284e+01,1.311407995070408040e-02
4.824000000000000199e+01,9.543027865921302477e-03
4.828000000000000114e+01,6.047119891465241141e-03
4.832000000000000028e+01,8.875839368137874302e-03
4.835999999999999943e+01,1.125263850528627693e-02
4.839999999999999858e+01,1.167161794695024089e-02
4.843999999999999773e+01,7.949223538423354565e-03
4.847999999999999687e+01,1.348796149616209028e-02
4.852000000000000313e+01,1.044292231665869090e-02
4.856000000000000227e+01,1.048482773068487063e-02
4.860000000000000142e+01,1.195718842700347652e-02
4.864000000000000057e+01,6.652852039830686390e-03
4.867999999999999972e+01,6.016655367022779449e-03
4.871999999999999886e+01,8.015634209150279341e-03
4.875999999999999801e+01,8.056795127075827567e-03
4.879999999999999716e+01,1.201314657340906041e-02
4.884000000000000341e+01,1.054811151778914033e-02
4.888000000000000256e+01,9.685288368102640613e-03
4.892000000000000171e+01,1.138234673975892404e-02
4.896000000000000085e+01,1.014275346195897543e-02
4.900000000000000000e+01,1.161363205439704116e-02
4.903999999999999915e+01,1.225611876487430786e-02
4.907999999999999829e+01,9.961954416322834141e-03
4.911999999999999744e+01,8.495888087475188602e-03
4.915999999999999659e+01,8.535574773886727903e-03
4.920000000000000284e+01,8.801000052512674560e-03
4.924000000000000199e+01,6.430954969900401323e-03
4.928000000000000114e+01,1.083731192766756654e-02
4.932000000000000028e+01,8.617565102976053673e-03
4.935999999999999943e+01,4.364708328581554456e-03
4.939999999999999858e+01,6.737664229717040508e-03
4.943999999999999773e+01,7.755165373514100353e-03
4.947999999999999687e+01,6.890147113312585121e-03
4.952000000000000313e+01,8.585013326591320673e-03
4.956000000000000227e+01,8.171475596574398481e-03
4.960000000000000142e+01,1.174842730878690629e-02
4.964000000000000057e+01,9.602816544675677954e-03
4.967999999999999972e+01,3.842902874926920880e-03
4.971999999999999886e+01,7.344127672527865636e-03
4.975999999999999801e+01,8.134589689771244692e-03
4.979999999999999716e+01,9.000203296089534857e-03
4.984000000000000341e+01,6.552694694560853676e-03
4.988000000000000256e+01,8.396856823479624185e-03
4.992000000000000171e+01,1.249972548341637263e-02
4.996000000000000085e+01,7.190579337217757952e-03
5.000000000000000000e+01,7.302529176471074177e-03
5.003999999999999915e+01,7.489631785654300364e-03
5.007999999999999829e+01,7.526002428661184192e-03
5.011999999999999744e+01,8.842245877431787263e-03
5.015999999999999659e+01,6.619483759913323030e-03
5.020000000000000284e+01,1.004370354480803827e-02
5.024000000000000199e+01,9.627738246478145454e-03
5.028000000000000114e+01,9.588106809486988610e-03
5.032000000000000028e+01,6.310650503997295400e-03
5.035999999999999943e+01,7.776637156495833092e-03
5.039999999999999858e+01,1.074838292533761980e-02
5.043999999999999773e+01,9.955239572639083129e-03
5.047999999999999687e+01,5.623092228124782627e-03
5.052000000000000313e+01,6.260273561750758116e-03
5.056000000000000227e+01,1.118912897157998444e-02
5.060000000000000142e+01,9.793066807397592805e-03
5.064000000000000057e+01,1.148395947082130053e-02
5.067999999999999972e+01,9.711144104113512629e-03
5.071999999999999886e+01,7.938189875452939318e-03
5.075999999999999801e+01,1.203810523744925677e-02
5.079999999999999716e+01,9.963693964756719854e-03
5.084000000000000341e+01,1.044917366024681639e-02
5.088000000000000256e+01,8.600370974228253168e-03
5.092000000000000171e+01,8.633804851264430605e-03
5.096000000000000085e+01,6.709431628602634430e-03
5.100000000000000000e+01,9.829684423429534482e-03
5.103999999999999915e+01,9.034461093576636598e-03
5.107999999999999829e+01,1.057324497984593256e-02
5.111999999999999744e+01,6.841243537561301352e-03
5.115999999999999659e+01,7.927983967086648168e-03
5.120000000000000284e+01,9.616947717476896293e-03
5.124000000000000199e+01,9.423400723471794804e-03
5.128000000000000114e+01,7.422638159518954101e-03
5.132000000000000028e+01,4.894674842281503124e-03
5.135999999999999943e+01,6.056029716322828410e-03
5.139999999999999858e+01,9.400803425682696668e-03
5.143999999999999773e+01,8.453628090262040387e-03
5.147999999999999687e+01,1.059341171543991440e-02
5.152000000000000313e+01,1.024832615277880901e-02
5.156000000000000227e+01,9.074861107134192181e-03
5.160000000000000142e+01,9.256571126830832191e-03
5.164000000000000057e+01,9.362851833546969454e-03
5.167999999999999972e+01,9.920768267561040979e-03
5.171999999999999886e+01,1.138209049151304303e-02
5.175999999999999801e+01,8.476170267519345103e-03
5.179999999999999716e+01,1.204548457232854260e-02
5.184000000000000341e+01,6.127498343394566574e-03
5.188000000000000256e+01,7.588286768543381355e-03
5.192000000000000171e+01,1.191015138627609868e-02
5.196000000000000085e+01,1.081064485317040878e-02
5.200000000000000000e+01,1.023807059947444767e-02
5.203999999999999915e+01,8.611234291589530895e-03
5.207999999999999829e+01,9.167820164778963180e-03
5.211999999999999744e+01,1.040192886308255113e-02
5.215999999999999659e+01,8.473516723747560528e-03
5.220000000000000284e+01,9.255592199383683161e-03
5.224000000000000199e+01,1.199520571041542798e-02
5.228000000000000114e+01,1.262642866117463444e-02
5.232000000000000028e+01,1.024572151680886584e-02
5.235999999999999943e+01,9.521373087712311015e-03
5.239999999999999858e+01,1.075456348124802577e-02
5.243999999999999773e+01,1.093349378868639990e-02
5.247999999999999687e+01,1.254289846890608955e-02
5.252000000000000313e+01,6.999150267930897076e-03
5.256000000000000227e+01,1.094243944067138131e-02
5.260000000000000142e+01,1.074437523137402629e-02
5.264000000000000057e+01,1.016970671877140582e-02
5.267999999999999972e+01,1.170316836174210666e-02
5.271999999999999886e+01,9.095277213102459860e-03
5.275999999999999801e+01,9.423761367677589013e-03
5.279999999999999716e+01,9.902706849653419505e-03
5.284000000000000341e+01,1.053211385583902038e-02
5.288000000000000256e+01,7.095463835289399918e-03
5.292000000000000171e+01,1.035993878711465033e-02
5.296000000000000085e+01,8.730112351799844406e-03
5.300000000000000000e+01,1.063902222166254047e-02
5.303999999999999915e+01,8.406580874388228791e-03
5.307999999999999829e+01,1.084230089048676161e-02
5.311999999999999744e+01,1.260023905443610585e-02
5.315999999999999659e+01,1.157213618916834441e-02
5.320000000000000284e+01,1.069449661939284209e-02
5.324000000000000199e+01,1.267793973690364839e-02
5.328000000000000114e+01,1.300476708020183517e-02
5.332000000000000028e+01,7.985524941811650290e-03
5.335999999999999943e+01,8.537985276120076128e-03
5.339999999999999858e+01,8.412665135943455871e-03
5.343999999999999773e+01,9.190759248498802866e-03
5.347999999999999687e+01,1.207698745281072031e-02
5.352000000000000313e+01,9.240672271287737188e-03
5.356000000000000227e+01,9.265441351524383515e-03
5.360000000000000142e+01,8.838315874237175074e-03
5.364000000000000057e+01,1.074521020885862294e-02
5.367999999999999972e+01,8.510756475289635303e-03
5.371999999999999886e+01,9.287977745993871923e-03
5.375999999999999801e+01,7.655635827810759221e-03
5.379999999999999716e+01,1.069145881556544768e-02
5.384000000000000341e+01,9.435344567089448339e-03
5.388000000000000256e+01,1.179326593123102528e-02
5.392000000000000171e+01,1.008513538567562540e-02
5.396000000000000085e+01,1.417459519787172065e-02
5.400000000000000000e+01,9.906189768596480871e-03
5.403999999999999915e+01,1.120949015777565616e-02
5.407999999999999829e+01,1.040440884309467955e-02
5.411999999999999744e+01,9.599205395239810909e-03
5.415999999999999659e+01,9.622124765043361255e-03
5.420000000000000284e+01,1.258142652319159220e-02
5.424000000000000199e+01,1.170056287903159346e-02
5.428000000000000114e+01,9.690153224357298326e-03
5.432000000000000028e+01,9.185521973324284328e-03
5.435999999999999943e+01,1.109020905440337781e-02
5.439999999999999858e+01,1.231712058122647405e-02
5.443999999999999773e+01,1.120976724255648600e-02
5.447999999999999687e+01,7.090494436456363375e-03
5.452000000000000313e+01,1.035000927384385760e-02
5.456000000000000227e+01,7.886985842434687116e-03
5.460000000000000142e+01,1.137214587300055223e-02
5.464000000000000057e+01,1.026419269296512983e-02
5.467999999999999972e+01,1.066201968785343221e-02
5.471999999999999886e+01,1.090913754642838275e-02
5.475999999999999801e+01,1.748091454240737960e-02
5.479999999999999716e+01,1.027359184312859851e-02
5.484000000000000341e+01,9.466223652510652453e-03
5.488000000000000256e+01,1.091758639724698353e-02
5.492000000000000171e+01,5.742872912807477602e-03
5.496000000000000085e+01,1.020579856591043166e-02
5.500000000000000000e+01,7.741468472902031384e-03
5.503999999999999915e+01,9.418244543446261177e-03
5.507999999999999829e+01,1.275139271228280767e-02
5.511999999999999744e+01,1.239496976388961003e-02
5.515999999999999659e+01,1.030664531367602929e-02
5.520000000000000284e+01,1.107941319439775633e-02
5.524000000000000199e+01,9.517920145809644766e-03
5.528000000000000114e+01,8.408080537344198718e-03
5.532000000000000028e+01,1.038521878315695236e-02
5.535999999999999943e+01,9.576326824256567102e-03
5.539999999999999858e+01,1.298383777782973099e-02
5.543999999999999773e+01,9.539390127830827543e-03
5.547999999999999687e+01,1.226901520252394844e-02
5.552000000000000313e+01,1.371851041250994954e-02
5.556000000000000227e+01,1.411376088751341469e-02
5.560000000000000142e+01,1.187357229393562995e-02
5.564000000000000057e+01,1.226859326327855645e-02
5.567999999999999972e+01,1.175996004334338603e-02
5.571999999999999886e+01,6.357039016100410160e-03
5.575999999999999801e+01,1.194707066007557120e-02
5.579999999999999716e+01,1.339576466674597538e-02
5.584000000000000341e+01,1.153136598694394152e-02
5.588000000000000256e+01,1.282924289438684175e-02
5.592000000000000171e+01,1.344935172632201470e-02
5.596000000000000085e+01,1.098225339512762591e-02
5.600000000000000000e+01,1.604453994463683406e-02
5.603999999999999915e+01,1.049012196078799586e-02
5.607999999999999829e+01,9.829765033914727654e-03
5.611999999999999744e+01,9.771655635433458206e-03
5.615999999999999659e+01,1.204757844783815521e-02
5.620000000000000284e+01,1.469986424933782815e-02
5.624000000000000199e+01,1.562025386286448186e-02
5.628000000000000114e+01,1.044163878219617030e-02
5.632000000000000028e+01,1.136180558157386458e-02
5.635999999999999943e+01,8.215932476613592786e-03
5.639999999999999858e+01,1.056648182420986092e-02
5.643999999999999773e+01,9.980416325663481192e-03
5.647999999999999687e+01,9.168355372768473635e-03
5.652000000000000313e+01,1.023855853621107211e-02
5.656000000000000227e+01,1.401927076682359975e-02
5.660000000000000142e+01,1.207745476590681329e-02
5.664000000000000057e+01,1.216849342703206494e-02
5.667999999999999972e+01,1.323825726006998965e-02
5.671999999999999886e+01,1.204906242337558733e-02
5.675999999999999801e+01,8.375024180842672444e-03
5.679999999999999716e+01,1.095036013534263393e-02
5.684000000000000341e+01,1.209498276456093084e-02
5.688000000000000256e+01,1.241125208641449644e-02
5.692000000000000171e+01,1.340506785048181659e-02
5.696000000000000085e+01,9.881076796517763994e-03
5.700000000000000000e+01,1.290764083418632219e-02
5.703999999999999915e+01,1.375054275423434787e-02
5.707999999999999829e+01,1.316273252985569048e-02
5.711999999999999744e+01,1.874900309934477566e-02
5.715999999999999659e+01,1.710684863986349294e-02
5.720000000000000284e+01,1.034452872209806751e-02
5.724000000000000199e+01,1.088571485320488641e-02
5.728000000000000114e+01,1.135149942142328269e-02
5.732000000000000028e+01,1.302189724341634366e-02
5.735999999999999943e+01,1.514395873960857133e-02
5.739999999999999858e+01,1.327528042613952165e-02
5.743999999999999773e+01,1.208415111340334705e-02
5.747999999999999687e+01,1.036585135599374548e-02
5.752000000000000313e+01,1.354161974068958038e-02
5.756000000000000227e+01,1.302782901351463157e-02
5.760000000000000142e+01,1.017978896877052425e-02
5.764000000000000057e+01,9.289313528659077016e-03
5.767999999999999972e+01,1.397056181663593535e-02
5.771999999999999886e+01,1.511284173525560826e-02
5.775999999999999801e+01,1.271615348132727405e-02
5.779999999999999716e+01,1.634295941174554109e-02
5.784000000000000341e+01,1.063308428507207630e-02
5.788000000000000256e+01,1.192553844566362001e-02
5.792000000000000171e+01,1.449790378980577235e-02
5.796000000000000085e+01,1.676898598389984368e-02
5.800000000000000000e+01,1.376931670061611566e-02
5.803999999999999915e+01,1.317898385588750325e-02
5.807999999999999829e+01,1.319090818319994599e-02
5.811999999999999744e+01,1.357920494644718201e-02
5.815999999999999659e+01,1.449446429771530757e-02
5.820000000000000284e+01,1.382842705993641078e-02
5.824000000000000199e+01,1.143050347464269305e-02
5.828000000000000114e+01,1.377606181555154907e-02
5.832000000000000028e+01,1.386266935909467694e-02
5.835999999999999943e+01,1.741274460260474471e-02
5.839999999999999858e+01,1.561677535919019089e-02
5.843999999999999773e+01,1.171244586411431150e-02
5.847999999999999687e+01,1.511162851899475711e-02
5.852000000000000313e+01,1.489655176306281872e-02
5.856000000000000227e+01,1.550961947379729186e-02
5.860000000000000142e+01,1.484257247413026289e-02
5.864000000000000057e+01,1.319659087142470606e-02
5.867999999999999972e+01,1.621879818537490595e-02
5.871999999999999886e+01,1.472320734089695680e-02
5.875999999999999801e+01,1.126984777450790350e-02
5.879999999999999716e+01,1.466823206671766765e-02
5.884000000000000341e+01,1.452765350022684580e-02
5.888000000000000256e+01,1.205283191406010881e-02
5.892000000000000171e+01,8.448487147242042528e-03
5.896000000000000085e+01,1.199706693681334979e-02
5.900000000000000000e+01,1.479259882754402171e-02
5.903999999999999915e+01,1.367269395542759433e-02
5.907999999999999829e+01,1.330564113085820448e-02
5.911999999999999744e+01,1.391732548356049148e-02
5.915999999999999659e+01,1.407714263521264199e-02
5.920000000000000284e+01,1.506510740247780575e-02
5.924000000000000199e+01,1.432119074245728069e-02
5.928000000000000114e+01,9.586543522806124235e-03
5.932000000000000028e+01,1.305895231776534049e-02
5.935999999999999943e+01,1.351946565601236730e-02
5.939999999999999858e+01,1.488342257155672067e-02
5.943999999999999773e+01,1.368725428983800542e-02
5.947999999999999687e+01,1.587926424110434886e-02
5.952000000000000313e+01,1.468290463470285460e-02
5.956000000000000227e+01,1.612177387852005081e-02
5.960000000000000142e+01,1.304284929371069685e-02
5.964000000000000057e+01,1.124384435524597783e-02
5.967999999999999972e+01,1.253183872325825884e-02
5.971999999999999886e+01,1.253972389152557647e-02
5.975999999999999801e+01,1.736639324557302105e-02
5.979999999999999716e+01,1.406111082839326711e-02
5.984000000000000341e+01,1.406871343784257301e-02
5.988000000000000256e+01,1.113971812673730452e-02
5.992000000000000171e+01,1.453540734141815782e-02
5.996000000000000085e+01,1.499449902916271359e-02
