2.003999999999999915e+01,7.779317733528190448e-03
2.007999999999999829e+01,2.063182660978377710e-03
2.012000000000000099e+01,8.124338931536721070e-03
2.016000000000000014e+01,1.263937892557936288e-02
2.019999999999999929e+01,8.514611144572940479e-03
2.023999999999999844e+01,7.163602931472849190e-03
2.028000000000000114e+01,7.949740811066138141e-03
2.032000000000000028e+01,9.736215123234769064e-03
2.035999999999999943e+01,4.292524858297380036e-03
2.039999999999999858e+01,7.534003023355392327e-03
2.044000000000000128e+01,2.635868704448815665e-03
2.048000000000000043e+01,8.332742496325991344e-03
2.051999999999999957e+01,8.390984430823967416e-03
2.055999999999999872e+01,9.131255240955253594e-03
2.060000000000000142e+01,7.961629092332457233e-03
2.064000000000000057e+01,8.110644847645682998e-03
2.067999999999999972e+01,1.026038806461361530e-02
2.071999999999999886e+01,1.004551007145797203e-02
2.076000000000000156e+01,1.019435354596380690e-02
2.080000000000000071e+01,9.069912643107911829e-03
2.083999999999999986e+01,8.309192909973277252e-03
2.087999999999999901e+01,0.000000000000000000e+00
2.092000000000000171e+01,4.786794486664990890e-03
2.096000000000000085e+01,6.936132586710367157e-03
2.100000000000000000e+01,8.585216032124169325e-03
2.103999999999999915e+01,8.597235162788357393e-03
2.107999999999999829e+01,1.261076500502677881e-02
2.112000000000000099e+01,1.053093695087535531e-02
2.116000000000000014e+01,1.172506122322324908e-02
2.119999999999999929e+01,1.000889393245545100e-02
2.123999999999999844e+01,1.120289962667942070e-02
2.128000000000000114e+01,7.986024905132173626e-03
2.132000000000000028e+01,1.359073232860596482e-02
2.135999999999999943e+01,8.463898156385690069e-03
2.139999999999999858e+01,1.188581154857071276e-02
2.144000000000000128e+01,8.441335385024584595e-03
2.148000000000000043e+01,7.543252269082323554e-03
2.151999999999999957e+01,5.462826855208492184e-03
2.155999999999999872e+01,4.928401821188169336e-03
2.160000000000000142e+01,9.486822692832895879e-03
2.164000000000000057e+01,9.770778949313330131e-03
2.167999999999999972e+01,1.614797318332881343e-02
2.171999999999999886e+01,7.246386436327558779e-03
2.176000000000000156e+01,8.803385891729359133e-03
2.180000000000000071e+01,1.377075243144674881e-02
2.183999999999999986e+01,9.279802240314662456e-03
2.187999999999999901e+01,7.880912172436591381e-03
2.192000000000000171e+01,9.119358274383180391e-03
2.196000000000000085e+01,1.349533658208948092e-02
2.200000000000000000e+01,6.957881388796551339e-03
2.203999999999999915e+01,6.741024734537446467e-03
2.207999999999999829e+01,3.431983718036931991e-03
2.212000000000000099e+01,1.221853325926170949e-02
2.216000000000000014e+01,1.013712108405281573e-02
2.219999999999999929e+01,1.360327638441673551e-02
2.223999999999999844e+01,1.174910008480888578e-02
2.228000000000000114e+01,1.125903196180916103e-02
2.232000000000000028e+01,7.676778582747470492e-03
2.235999999999999943e+01,5.958829267258838880e-03
2.239999999999999858e+01,9.151833356249717069e-03
2.244000000000000128e+01,1.493669929800817142e-02
2.248000000000000043e+01,4.669750960737488986e-03
2.251999999999999957e+01,9.044844996462587591e-03
2.255999999999999872e+01,1.119172811077764375e-02
2.260000000000000142e+01,7.063358295025789872e-03
2.264000000000000057e+01,3.662481988908338013e-03
2.267999999999999972e+01,1.135680178512470974e-02
2.271999999999999886e+01,7.546544453083249386e-03
2.276000000000000156e+01,1.460412102320576659e-02
2.280000000000000071e+01,5.655354502984345604e-03
2.283999999999999986e+01,1.093937773998472987e-02
2.287999999999999901e+01,6.901497514250976364e-03
2.292000000000000171e+01,8.684016365303933935e-03
2.296000000000000085e+01,8.920408511934662527e-03
2.300000000000000000e+01,8.520121414091431575e-03
2.303999999999999915e+01,3.481585443563327276e-03
2.307999999999999829e+01,3.172110823239510536e-03
2.312000000000000099e+01,9.956261187337609939e-03
2.316000000000000014e+01,1.037421177489564021e-02
2.319999999999999929e+01,1.170154330829053894e-02
2.323999999999999844e+01,1.157369185536435974e-02
2.328000000000000114e+01,2.396769732678651239e-03
2.332000000000000028e+01,1.250006980907062554e-02
2.335999999999999943e+01,9.143478014508755330e-03
2.339999999999999858e+01,1.092519780240368277e-02
2.344000000000000128e+01,6.340716770967904682e-03
2.348000000000000043e+01,1.353351456915284981e-02
2.351999999999999957e+01,9.903817966366862055e-03
2.355999999999999872e+01,8.183893338497087375e-03
2.360000000000000142e+01,5.827287231602006241e-03
2.364000000000000057e+01,6.790096595506380991e-03
2.367999999999999972e+01,1.029929081365954339e-02
2.371999999999999886e+01,1.503617070415973721e-02
2.376000000000000156e+01,1.122417432216442183e-02
2.380000000000000071e+01,9.640255684386160942e-03
2.383999999999999986e+01,1.101197272898959099e-02
2.387999999999999901e+01,9.155081566359664705e-03
2.392000000000000171e+01,2.114269688351837120e-03
2.396000000000000085e+01,6.850734852323581321e-03
2.400000000000000000e+01,1.158713037381191649e-02
2.403999999999999915e+01,7.865593340905915193e-03
2.407999999999999829e+01,1.410243768523250334e-02
2.412000000000000099e+01,1.365477201461538607e-02
2.416000000000000014e+01,5.749565712503833595e-03
2.419999999999999929e+01,3.073612774339058891e-03
2.423999999999999844e+01,7.764114932109142386e-03
2.428000000000000114e+01,1.218171212192965987e-02
2.432000000000000028e+01,1.182463853068458672e-02
2.435999999999999943e+01,7.193090194308934468e-03
2.439999999999999858e+01,9.064021129515284145e-03
2.444000000000000128e+01,9.070513185284574675e-03
2.448000000000000043e+01,7.621817636659970752e-03
2.451999999999999957e+01,7.810056204993817176e-03
2.455999999999999872e+01,1.300018489431402011e-02
2.460000000000000142e+01,4.775889475053435133e-03
2.464000000000000057e+01,7.464893336808435531e-03
2.467999999999999972e+01,5.242807935429250922e-03
2.471999999999999886e+01,1.347929771266623798e-02
2.476000000000000156e+01,8.164945644104379049e-03
2.480000000000000071e+01,1.122570496712328855e-03
2.483999999999999986e+01,4.720659602809886522e-03
2.487999999999999901e+01,1.095607385494526062e-02
2.492000000000000171e+01,7.642215144642247777e-03
2.496000000000000085e+01,1.537807166493178682e-02
2.500000000000000000e+01,6.061712151266158803e-03
2.503999999999999915e+01,2.793105721201908243e-03
2.507999999999999829e+01,1.439389403227707420e-02
2.512000000000000099e+01,3.622197350314363632e-03
2.516000000000000014e+01,1.335847028684481776e-02
2.519999999999999929e+01,4.087214085395121134e-03
2.523999999999999844e+01,9.867241550988198329e-03
2.528000000000000114e+01,6.689135659208953616e-03
2.532000000000000028e+01,1.051370179760469786e-02
2.535999999999999943e+01,7.744698063875706320e-03
2.539999999999999858e+01,9.750219420531539352e-03
2.544000000000000128e+01,5.525949650689788127e-03
2.548000000000000043e+01,1.107816652234367913e-02
2.551999999999999957e+01,7.808666284142450585e-03
2.555999999999999872e+01,1.126900289962017541e-02
2.560000000000000142e+01,6.635180194437280583e-03
2.564000000000000057e+01,5.866434076900243350e-03
2.567999999999999972e+01,1.041788057230839774e-02
2.571999999999999886e+01,2.282456875107883709e-03
2.576000000000000156e+01,1.129004440885117769e-02
2.580000000000000071e+01,8.292847158734429139e-03
2.583999999999999986e+01,1.011564574077736429e-02
2.587999999999999901e+01,8.527939145298667201e-03
2.592000000000000171e+01,5.621456723840462764e-03
2.596000000000000085e+01,1.249145915623680811e-02
2.600000000000000000e+01,5.537780842085889693e-03
2.603999999999999915e+01,1.245310132398200730e-02
2.607999999999999829e+01,1.186540164337332968e-02
2.612000000000000099e+01,8.458336837219401771e-03
2.616000000000000014e+01,2.277379136996034257e-03
2.619999999999999929e+01,5.827433016360728663e-03
2.623999999999999844e+01,5.557728953459693637e-03
2.628000000000000114e+01,6.060977224360563492e-03
2.632000000000000028e+01,1.338500427940046700e-02
2.635999999999999943e+01,5.475705453338771019e-03
2.639999999999999858e+01,8.388754592716726396e-03
2.644000000000000128e+01,8.755271697464196007e-03
2.648000000000000043e+01,1.089513276097335559e-02
2.651999999999999957e+01,9.760903404777131545e-03
2.655999999999999872e+01,7.762619643539130088e-03
2.660000000000000142e+01,8.128820339949454146e-03
2.664000000000000057e+01,5.584709213311467649e-03
2.667999999999999972e+01,6.450946996637782656e-03
2.671999999999999886e+01,1.463815825930726844e-02
2.676000000000000156e+01,9.501882129902832971e-03
2.680000000000000071e+01,1.009504586629425375e-02
2.683999999999999986e+01,1.423497505810731797e-02
2.687999999999999901e+01,6.415587824313753046e-03
2.692000000000000171e+01,6.690203792593512992e-03
2.696000000000000085e+01,1.133008761741120460e-02
2.700000000000000000e+01,1.110434591927526686e-02
2.703999999999999915e+01,6.376757592782912425e-03
2.707999999999999829e+01,1.238056993834681443e-02
2.712000000000000099e+01,7.561874475631490469e-03
2.716000000000000014e+01,8.290728016197493680e-03
2.719999999999999929e+01,7.246077159281879426e-03
2.723999999999999844e+01,2.699971298969588464e-03
2.728000000000000114e+01,1.102246724682129711e-02
2.732000000000000028e+01,8.431509880651435682e-03
2.735999999999999943e+01,4.294409423349146437e-03
2.739999999999999858e+01,8.615089424046439709e-03
2.744000000000000128e+01,8.297504165348683347e-03
2.748000000000000043e+01,7.252278216634763103e-03
2.751999999999999957e+01,9.344563766837657784e-03
2.755999999999999872e+01,8.844840730801556070e-03
2.760000000000000142e+01,5.934998481340011608e-03
2.764000000000000057e+01,1.184671483962484312e-02
2.767999999999999972e+01,7.754424152075683856e-03
2.771999999999999886e+01,9.891766088915307162e-03
2.776000000000000156e+01,5.481001595870594288e-03
2.780000000000000071e+01,1.171069033252858382e-02
2.783999999999999986e+01,9.527904743079362165e-03
2.787999999999999901e+01,7.345035061047762090e-03
2.792000000000000171e+01,1.152821439989225143e-02
2.796000000000000085e+01,9.527065607569254815e-03
2.800000000000000000e+01,7.071108471294389360e-03
2.803999999999999915e+01,8.434746604013951612e-03
2.807999999999999829e+01,7.615625637896528133e-03
2.812000000000000099e+01,6.296223500471083943e-03
2.816000000000000014e+01,1.188853805545221458e-02
2.819999999999999929e+01,1.379750450997083329e-02
2.823999999999999844e+01,1.584280267251396077e-02
2.828000000000000114e+01,1.274963626238498696e-02
2.832000000000000028e+01,1.261208884998728588e-02
2.835999999999999943e+01,1.120122890488039688e-02
2.839999999999999858e+01,1.652019523657583325e-02
2.844000000000000128e+01,1.269912692047795062e-02
2.848000000000000043e+01,1.142442558221774471e-02
2.851999999999999957e+01,9.149245398043473476e-03
2.855999999999999872e+01,9.920628078671750449e-03
2.860000000000000142e+01,1.369310109468660150e-02
2.864000000000000057e+01,1.205427391462299096e-02
2.867999999999999972e+01,1.059724918435881423e-02
2.871999999999999886e+01,1.095903245097706001e-02
2.876000000000000156e+01,1.268489976104841474e-02
2.880000000000000071e+01,8.999466279160950669e-03
2.883999999999999986e+01,9.179097467311944994e-03
2.887999999999999901e+01,6.493880870535353490e-03
2.892000000000000171e+01,7.992035308978495331e-03
2.896000000000000085e+01,8.353292121498752040e-03
2.900000000000000000e+01,8.214264485368943589e-03
2.903999999999999915e+01,8.029676056078125998e-03
2.907999999999999829e+01,7.663109543318479162e-03
2.912000000000000099e+01,7.887595265700516126e-03
2.916000000000000014e+01,7.611795943552061329e-03
2.919999999999999929e+01,8.154410460834718433e-03
2.923999999999999844e+01,7.787488211633443805e-03
2.928000000000000114e+01,4.601189068249605073e-03
2.932000000000000028e+01,6.826013742424343923e-03
2.935999999999999943e+01,6.913546931165085591e-03
2.939999999999999858e+01,8.365161779837485684e-03
2.944000000000000128e+01,1.027141053055305626e-02
2.948000000000000043e+01,8.903557837776410189e-03
2.951999999999999957e+01,1.185549108700580979e-02
2.955999999999999872e+01,1.066934736633036625e-02
2.960000000000000142e+01,4.253789396077895316e-03
2.964000000000000057e+01,6.119559857599997420e-04
2.967999999999999972e+01,4.109195509214755813e-03
2.971999999999999886e+01,2.604382238411824275e-03
2.976000000000000156e+01,1.542327771389647405e-02
2.980000000000000071e+01,5.915143147288297321e-03
2.983999999999999986e+01,7.820484680488742554e-03
2.987999999999999901e+01,1.013498609661542087e-02
2.992000000000000171e+01,8.129519680322730424e-03
2.996000000000000085e+01,4.896207152963023834e-03
3.000000000000000000e+01,6.437402584427478688e-03
3.003999999999999915e+01,6.386972563317380898e-03
3.007999999999999829e+01,1.111105020309123559e-02
3.012000000000000099e+01,1.019646023266362889e-02
3.016000000000000014e+01,5.643987242684850997e-03
3.019999999999999929e+01,6.411690032030780209e-03
3.023999999999999844e+01,9.452918961854786181e-03
3.028000000000000114e+01,1.131177296929695812e-02
3.032000000000000028e+01,1.039671858978006951e-02
3.035999999999999943e+01,7.207951859239089369e-03
3.039999999999999858e+01,7.793299228011139543e-03
3.044000000000000128e+01,4.240566349536273490e-03
3.048000000000000043e+01,8.696292172066833219e-04
3.051999999999999957e+01,5.319847596966564666e-03
3.055999999999999872e+01,4.131396727853963585e-03
3.060000000000000142e+01,7.490089680784515688e-03
3.064000000000000057e+01,6.437867358942174489e-03
3.067999999999999972e+01,1.138790473547222383e-02
3.071999999999999886e+01,9.744352277885098140e-03
3.076000000000000156e+01,9.055624991233203122e-03
3.080000000000000071e+01,7.821134171831134810e-03
3.083999999999999986e+01,6.222769192492476342e-03
3.087999999999999901e+01,6.670566067880809649e-03
3.092000000000000171e+01,1.155209402882482155e-04
3.096000000000000085e+01,6.565481056948866377e-03
3.100000000000000000e+01,7.786021710079242542e-03
3.103999999999999915e+01,6.914737001477645924e-03
3.107999999999999829e+01,5.770522000010740692e-03
3.112000000000000099e+01,3.398456567344142806e-03
3.116000000000000014e+01,7.710734752097578130e-03
3.119999999999999929e+01,5.565838456430507140e-03
3.123999999999999844e+01,5.148796011638150268e-03
3.128000000000000114e+01,5.868466322953499147e-03
3.132000000000000028e+01,8.315990187203402620e-03
3.135999999999999943e+01,6.079761812543234452e-03
3.139999999999999858e+01,1.115093409177399155e-03
3.144000000000000128e+01,8.882594179748140584e-03
3.148000000000000043e+01,6.782490893663812616e-03
3.151999999999999957e+01,6.228350893879897737e-03
3.155999999999999872e+01,3.355021693523222489e-03
3.160000000000000142e+01,3.710133558025764926e-03
3.164000000000000057e+01,6.748017773066372453e-03
3.167999999999999972e+01,5.556872361895400826e-03
3.171999999999999886e+01,2.592205719622293816e-03
3.176000000000000156e+01,2.082949078747416746e-03
3.180000000000000071e+01,9.076536519797640326e-03
3.183999999999999986e+01,8.294248063974204999e-03
3.187999999999999901e+01,2.600843530399929958e-03
3.192000000000000171e+01,7.729766404392509824e-03
3.196000000000000085e+01,8.083990044031810415e-03
3.200000000000000000e+01,7.574139018696714881e-03
3.203999999999999915e+01,1.001989313687430376e-02
3.207999999999999829e+01,6.235831399518920390e-03
3.211999999999999744e+01,6.771545921113602401e-03
3.215999999999999659e+01,7.398105171217804997e-03
3.220000000000000284e+01,5.250749032768591527e-03
3.224000000000000199e+01,1.242513055541017049e-02
3.228000000000000114e+01,3.411244160012174859e-03
3.232000000000000028e+01,5.447045584709719196e-03
3.235999999999999943e+01,8.073887177971427603e-03
3.239999999999999858e+01,1.074610022547619649e-02
3.243999999999999773e+01,1.078081413194472739e-02
3.247999999999999687e+01,7.541415422164076364e-03
3.252000000000000313e+01,8.167067677173362600e-03
3.256000000000000227e+01,1.374910787870455009e-02
3.260000000000000142e+01,1.191904839649768517e-02
3.264000000000000057e+01,1.677332701981743002e-02
3.267999999999999972e+01,1.180546949782525917e-02
3.271999999999999886e+01,1.906958019782158120e-02
3.275999999999999801e+01,2.515130673929031474e-02
3.279999999999999716e+01,2.632191377669604315e-02
3.284000000000000341e+01,3.399496865299428405e-02
3.288000000000000256e+01,4.444173602264955142e-02
3.292000000000000171e+01,5.088683105024992964e-02
3.296000000000000085e+01,5.455800785886513737e-02
3.300000000000000000e+01,5.813813674583423463e-02
3.303999999999999915e+01,5.717092427848714103e-02
3.307999999999999829e+01,4.656346369791085349e-02
3.311999999999999744e+01,4.050313755426190182e-02
3.315999999999999659e+01,3.116869626187222450e-02
3.320000000000000284e+01,2.583572054311864333e-02
3.324000000000000199e+01,2.350381787922088336e-02
3.328000000000000114e+01,1.735213105432105440e-02
3.332000000000000028e+01,1.160959130091950529e-02
3.335999999999999943e+01,1.196024602578595226e-02
3.339999999999999858e+01,1.021906659968498110e-02
3.343999999999999773e+01,9.887426167982207512e-03
3.347999999999999687e+01,8.964539842087134933e-03
3.352000000000000313e+01,7.359462712137828516e-03
3.356000000000000227e+01,5.526918433623372040e-03
3.360000000000000142e+01,7.286586815030840839e-03
3.364000000000000057e+01,6.363279205853388486e-03
3.367999999999999972e+01,6.804037316807664930e-03
3.371999999999999886e+01,8.336026716248071122e-03
3.375999999999999801e+01,1.068641297252899414e-02
3.379999999999999716e+01,9.262485511642572916e-03
3.384000000000000341e+01,2.745545151687074203e-03
3.388000000000000256e+01,6.778090617088394776e-03
3.392000000000000171e+01,4.899120037453924374e-03
3.396000000000000085e+01,6.976139820577883545e-03
3.400000000000000000e+01,7.143212739966688964e-03
3.403999999999999915e+01,2.762940580786993339e-03
3.407999999999999829e+01,6.249283055804458718e-03
3.411999999999999744e+01,8.371346785527516293e-03
3.415999999999999659e+01,7.219291642257496394e-03
3.420000000000000284e+01,5.612405064671250991e-03
3.424000000000000199e+01,7.415839241701788383e-03
3.428000000000000114e+01,5.945154098828968683e-03
3.432000000000000028e+01,1.882435193771478041e-03
3.435999999999999943e+01,4.594992749418457846e-03
3.439999999999999858e+01,7.398386691249779490e-03
3.443999999999999773e+01,7.109550239081052769e-03
3.447999999999999687e+01,4.410568950630952556e-03
3.452000000000000313e+01,6.713440689614134232e-03
3.456000000000000227e+01,1.015301296915740482e-02
3.460000000000000142e+01,4.543472420404918131e-03
3.464000000000000057e+01,4.026729213067273619e-03
3.467999999999999972e+01,4.737630860271286985e-03
3.471999999999999886e+01,5.221061038777474218e-03
3.475999999999999801e+01,6.250050067196344893e-03
3.479999999999999716e+01,6.142119720058829106e-03
3.484000000000000341e+01,3.805932717692800740e-03
3.488000000000000256e+01,3.652309814382248554e-03
3.492000000000000171e+01,5.499361339373419477e-03
3.496000000000000085e+01,6.573271936495195082e-03
3.500000000000000000e+01,4.600422434481526122e-03
3.503999999999999915e+01,7.902258305965441029e-03
3.507999999999999829e+01,5.929187138523727037e-03
3.511999999999999744e+01,5.865844893641431954e-03
3.515999999999999659e+01,6.302587628524976109e-03
3.520000000000000284e+01,1.042248182541859192e-02
3.524000000000000199e+01,7.039321745656205477e-03
3.528000000000000114e+01,5.656834753464678144e-03
3.532000000000000028e+01,7.002578787008668926e-03
3.535999999999999943e+01,9.121241338143543098e-03
3.539999999999999858e+01,5.737633756362457704e-03
3.543999999999999773e+01,7.173986253918847138e-03
3.547999999999999687e+01,5.881883527820106275e-03
3.552000000000000313e+01,9.455212963564576384e-03
3.556000000000000227e+01,7.526271670512727982e-03
3.560000000000000142e+01,7.416112751487330575e-03
3.564000000000000057e+01,1.176213412338159361e-02
3.567999999999999972e+01,4.603530100707996404e-03
3.571999999999999886e+01,4.811338419552661783e-03
3.575999999999999801e+01,7.656431364569955822e-03
3.579999999999999716e+01,6.090589817672402428e-03
3.584000000000000341e+01,1.079982303468079823e-02
3.588000000000000256e+01,5.323129145202500426e-03
3.592000000000000171e+01,3.847890699394011967e-03
3.596000000000000085e+01,6.737886591852603607e-03
3.600000000000000000e+01,6.717535802261220303e-03
3.603999999999999915e+01,1.138072571611814347e-02
3.607999999999999829e+01,9.905029638324666652e-03
3.611999999999999744e+01,6.610323562272983795e-03
3.615999999999999659e+01,1.027277676505526822e-02
3.620000000000000284e+01,8.751263518641163447e-03
3.624000000000000199e+01,1.027628453477184671e-02
3.628000000000000114e+01,1.412028157734252463e-02
3.632000000000000028e+01,8.414963200998368253e-03
3.635999999999999943e+01,9.030190032394854599e-03
3.639999999999999858e+01,1.532934859631903193e-02
3.643999999999999773e+01,1.539867506697015047e-02
3.647999999999999687e+01,9.692893099837295717e-03
3.652000000000000313e+01,1.044407288590246639e-02
3.656000000000000227e+01,9.694547698159833304e-03
3.660000000000000142e+01,1.458348111764851303e-02
3.664000000000000057e+01,1.456128073194529020e-02
3.667999999999999972e+01,1.440254633890154616e-02
3.671999999999999886e+01,1.242479971304819540e-02
3.675999999999999801e+01,1.799535107727434982e-02
3.679999999999999716e+01,1.942779850800887761e-02
3.684000000000000341e+01,1.990520848749596436e-02
3.688000000000000256e+01,2.301989892199307608e-02
3.692000000000000171e+01,2.395179733526276930e-02
3.696000000000000085e+01,2.306468262190229310e-02
3.700000000000000000e+01,2.190461556810279625e-02
3.703999999999999915e+01,3.270366636484624973e-02
3.707999999999999829e+01,3.399887129268906044e-02
3.711999999999999744e+01,5.029984326301115832e-02
3.715999999999999659e+01,6.710089276459449414e-02
3.720000000000000284e+01,8.976776054108732972e-02
3.724000000000000199e+01,1.337610557951319223e-01
3.728000000000000114e+01,1.922599213108703020e-01
3.732000000000000028e+01,3.407485084795573438e-01
3.735999999999999943e+01,5.252965739433633763e-01
3.739999999999999858e+01,7.654117687646174728e-01
3.743999999999999773e+01,9.511873492565642296e-01
3.747999999999999687e+01,1.000000000000000000e+00
3.752000000000000313e+01,9.624604802822613880e-01
3.756000000000000227e+01,8.199251139715522108e-01
3.760000000000000142e+01,6.425123115665084539e-01
3.764000000000000057e+01,4.987034778697134740e-01
3.767999999999999972e+01,3.658988396505757357e-01
3.771999999999999886e+01,2.643790784390048776e-01
3.775999999999999801e+01,1.912339617374918532e-01
3.779999999999999716e+01,1.494191941260513412e-01
3.784000000000000341e+01,1.151527204824978751e-01
3.788000000000000256e+01,9.252705489799396832e-02
3.792000000000000171e+01,7.872290963592262769e-02
3.796000000000000085e+01,7.060269029654535344e-02
3.800000000000000000e+01,6.843923101356759464e-02
3.803999999999999915e+01,5.945479273271610937e-02
3.807999999999999829e+01,5.879167799351170398e-02
3.811999999999999744e+01,5.781013436225976299e-02
3.815999999999999659e+01,5.687394073355752505e-02
3.820000000000000284e+01,5.580120743665124144e-02
3.824000000000000199e+01,6.118542948722901359e-02
3.828000000000000114e+01,6.288626589688087187e-02
3.832000000000000028e+01,5.608364418936941098e-02
3.835999999999999943e+01,4.987204030490819534e-02
3.839999999999999858e+01,4.666149025816086759e-02
3.843999999999999773e+01,3.913094064836440678e-02
3.847999999999999687e+01,2.905381416393957791e-02
3.852000000000000313e+01,2.766178862605813901e-02
3.856000000000000227e+01,2.586038779656629760e-02
3.860000000000000142e+01,1.910237348190212819e-02
3.864000000000000057e+01,2.330307868916700262e-02
3.867999999999999972e+01,1.636292637267441896e-02
3.871999999999999886e+01,1.265118860436456431e-02
3.875999999999999801e+01,1.435053949667140609e-02
3.879999999999999716e+01,1.232103043099524141e-02
3.884000000000000341e+01,1.588449924977927349e-02
3.888000000000000256e+01,1.203584499652072225e-02
3.892000000000000171e+01,1.159749406837808951e-02
3.896000000000000085e+01,8.385202575736366154e-03
3.900000000000000000e+01,1.053852646944488866e-02
3.903999999999999915e+01,1.137302567498351888e-02
3.907999999999999829e+01,1.388987715281281461e-02
3.911999999999999744e+01,1.249597795911466455e-02
3.915999999999999659e+01,1.051081171747106011e-02
3.920000000000000284e+01,1.161764109503130721e-02
3.924000000000000199e+01,9.632222202180384593e-03
3.928000000000000114e+01,1.255769384842985587e-02
3.932000000000000028e+01,1.352772643747596031e-02
3.935999999999999943e+01,1.276968172257814463e-02
3.939999999999999858e+01,9.646946228523512606e-03
3.943999999999999773e+01,1.202624162348584283e-02
3.947999999999999687e+01,8.448527886123583311e-03
3.952000000000000313e+01,8.372060000217691061e-03
3.956000000000000227e+01,1.357026065418889642e-02
3.960000000000000142e+01,6.763625129618075493e-03
3.964000000000000057e+01,3.458235009593354798e-03
3.967999999999999972e+01,1.020211292935689108e-02
3.971999999999999886e+01,8.578944659341601955e-03
3.975999999999999801e+01,6.137145204599862326e-03
3.979999999999999716e+01,6.514504851835072052e-03
3.984000000000000341e+01,1.039310915876592509e-02
3.988000000000000256e+01,1.013359806150798854e-02
3.992000000000000171e+01,8.146007574724863434e-03
3.996000000000000085e+01,1.747467103137268201e-03
4.000000000000000000e+01,7.853702023656801076e-03
4.003999999999999915e+01,5.047220997285751208e-03
4.007999999999999829e+01,7.469934193734664718e-03
4.011999999999999744e+01,8.846652962496717731e-03
4.015999999999999659e+01,7.267537175873209354e-03
4.020000000000000284e+01,6.370377120567579342e-03
4.024000000000000199e+01,7.291982158757636182e-03
4.028000000000000114e+01,7.622315977839652298e-03
4.032000000000000028e+01,5.906262254574121129e-03
4.035999999999999943e+01,1.037432170070220691e-02
4.039999999999999858e+01,7.930448598829280965e-03
4.043999999999999773e+01,1.003368267235672448e-02
4.047999999999999687e+01,9.453915281413394558e-03
4.052000000000000313e+01,4.645085341867968148e-03
4.056000000000000227e+01,7.657373522918751139e-03
4.060000000000000142e+01,5.303789346279310507e-03
4.064000000000000057e+01,8.315814448216296909e-03
4.067999999999999972e+01,3.870237394010604421e-03
4.071999999999999886e+01,8.837311180127909588e-03
4.075999999999999801e+01,5.028083479230705498e-03
4.079999999999999716e+01,5.720489232557121606e-03
4.084000000000000341e+01,8.822798790624803225e-03
4.088000000000000256e+01,9.378522535858540080e-03
4.092000000000000171e+01,6.478212710369880660e-03
4.096000000000000085e+01,4.941941492456066419e-03
4.100000000000000000e+01,8.907695353725625376e-03
4.103999999999999915e+01,7.098323794620637651e-03
4.107999999999999829e+01,7.244131341977193966e-03
4.111999999999999744e+01,4.388628378220052820e-03
4.115999999999999659e+01,6.171174669293460688e-03
4.120000000000000284e+01,8.772090108770145417e-03
4.124000000000000199e+01,9.190197438249390546e-03
4.128000000000000114e+01,1.320048882539278171e-02
4.132000000000000028e+01,7.252194748346481139e-03
4.135999999999999943e+01,8.079151062238420708e-03
4.139999999999999858e+01,5.904795822226029459e-03
4.143999999999999773e+01,1.009643925119843751e-02
4.147999999999999687e+01,7.376146109977327683e-03
4.152000000000000313e+01,2.927767620427318418e-03
4.156000000000000227e+01,6.255031146775302288e-03
4.160000000000000142e+01,4.352835732518473173e-03
4.164000000000000057e+01,7.043215405005156388e-03
4.167999999999999972e+01,1.100668624271319146e-02
4.171999999999999886e+01,3.692871093598987849e-03
4.175999999999999801e+01,6.928512422733330497e-03
4.179999999999999716e+01,1.057326924170630920e-02
4.184000000000000341e+01,1.180785381390087041e-02
4.188000000000000256e+01,1.195096502327856053e-02
4.192000000000000171e+01,7.637646567871323421e-03
4.196000000000000085e+01,6.416313452731537033e-03
4.200000000000000000e+01,1.324345499749423477e-02
4.203999999999999915e+01,1.065767696195659558e-02
4.207999999999999829e+01,1.266447237449144780e-02
4.211999999999999744e+01,5.758544093690875360e-03
4.215999999999999659e+01,9.811322225451219251e-03
4.220000000000000284e+01,7.543302051353303547e-03
4.224000000000000199e+01,1.150486042550058138e-02
4.228000000000000114e+01,8.554479250052485911e-03
4.232000000000000028e+01,1.215198298803082076e-02
4.235999999999999943e+01,1.065644209631034720e-02
4.239999999999999858e+01,1.116154777548424709e-02
4.243999999999999773e+01,1.225765608275897721e-02
4.247999999999999687e+01,9.079222161451155904e-03
4.252000000000000313e+01,1.390378858298868536e-02
4.256000000000000227e+01,9.542795389844274667e-03
4.260000000000000142e+01,9.819846088607059320e-03
4.264000000000000057e+01,1.196112532310593043e-02
4.267999999999999972e+01,1.810383482532895716e-02
4.271999999999999886e+01,1.155961082265392209e-02
4.275999999999999801e+01,1.001720915957308305e-02
4.279999999999999716e+01,1.484080110049387953e-02
4.284000000000000341e+01,1.761799611395129667e-02
4.288000000000000256e+01,1.680273311581400447e-02
4.292000000000000171e+01,1.557807858832621281e-02
4.296000000000000085e+01,2.003733136227091663e-02
4.300000000000000000e+01,2.495116753739740068e-02
4.303999999999999915e+01,3.168375837811309575e-02
4.307999999999999829e+01,2.913984290664382512e-02
4.311999999999999744e+01,3.314380936919910509e-02
4.315999999999999659e+01,3.751141387616396122e-02
4.320000000000000284e+01,3.974167535404276447e-02
4.324000000000000199e+01,5.374914207031649543e-02
4.328000000000000114e+01,6.952989017791298687e-02
4.332000000000000028e+01,9.317721850761521984e-02
4.335999999999999943e+01,1.252367954758041302e-01
4.339999999999999858e+01,1.786227769801505549e-01
4.343999999999999773e+01,2.297349974202525513e-01
4.347999999999999687e+01,2.905326927044167284e-01
4.352000000000000313e+01,3.199088307605624792e-01
4.356000000000000227e+01,3.297317027361045816e-01
4.360000000000000142e+01,3.279135026796627383e-01
4.364000000000000057e+01,2.917180402193075839e-01
4.367999999999999972e+01,2.501566939305649440e-01
4.371999999999999886e+01,2.053666655454230439e-01
4.375999999999999801e+01,1.663514862432037000e-01
4.379999999999999716e+01,1.241076245466448125e-01
4.384000000000000341e+01,9.732422867004886236e-02
4.388000000000000256e+01,8.213614612654270009e-02
4.392000000000000171e+01,5.703494081623673023e-02
4.396000000000000085e+01,5.385127890230390069e-02
4.400000000000000000e+01,4.521078720733106432e-02
4.403999999999999915e+01,3.620637219229107945e-02
4.407999999999999829e+01,3.506853456892506521e-02
4.411999999999999744e+01,3.020181717455373838e-02
4.415999999999999659e+01,2.310680841492228355e-02
4.420000000000000284e+01,2.119550615374534569e-02
4.424000000000000199e+01,2.260354264377018030e-02
4.428000000000000114e+01,1.882758259263991527e-02
4.432000000000000028e+01,1.555167340712429111e-02
4.435999999999999943e+01,1.277581493825317646e-02
4.439999999999999858e+01,1.522913460343204572e-02
4.443999999999999773e+01,1.777325326330199753e-02
4.447999999999999687e+01,1.422392702824801930e-02
4.452000000000000313e+01,1.635850228479292234e-02
4.456000000000000227e+01,1.103546093509615370e-02
4.460000000000000142e+01,7.531168441154983614e-03
4.464000000000000057e+01,7.800937013173848272e-03
4.467999999999999972e+01,1.020776080612958991e-02
4.471999999999999886e+01,8.703813071744908106e-03
4.475999999999999801e+01,1.224715260889570542e-02
4.479999999999999716e+01,1.033365938560468905e-02
4.484000000000000341e+01,9.420411276222192751e-03
4.488000000000000256e+01,6.960954826806696125e-03
4.492000000000000171e+01,3.137179410171792287e-03
4.496000000000000085e+01,7.634701912328008093e-03
4.500000000000000000e+01,6.038777582949091290e-03
4.503999999999999915e+01,5.988766187979249755e-03
4.507999999999999829e+01,7.348250437110669456e-03
4.511999999999999744e+01,1.084478826850791312e-02
4.515999999999999659e+01,7.793154868030474809e-03
4.520000000000000284e+01,6.924047132324601811e-03
4.524000000000000199e+01,6.100263031462054182e-03
4.528000000000000114e+01,7.822783340998231208e-03
4.532000000000000028e+01,4.497720377494663323e-03
4.535999999999999943e+01,7.993365288365994817e-03
4.539999999999999858e+01,8.942407552782905694e-03
4.543999999999999773e+01,8.663546054706950175e-03
4.547999999999999687e+01,6.656584460262919903e-03
4.552000000000000313e+01,7.332343523734839198e-03
4.556000000000000227e+01,7.007560280033194033e-03
4.560000000000000142e+01,7.364712656686891318e-03
4.564000000000000057e+01,7.903604319820718357e-03
4.567999999999999972e+01,7.396480848424797847e-03
4.571999999999999886e+01,9.799439192323953704e-03
4.575999999999999801e+01,6.018003113364363103e-03
4.579999999999999716e+01,6.647237106474974955e-03
4.584000000000000341e+01,9.504466761281591194e-03
4.588000000000000256e+01,7.041276774791650934e-03
4.592000000000000171e+01,5.760217401801409620e-03
4.596000000000000085e+01,1.052683320105405815e-02
4.600000000000000000e+01,5.971459432859044757e-03
4.603999999999999915e+01,5.781282462467750294e-03
4.607999999999999829e+01,9.819884999572328632e-03
4.611999999999999744e+01,9.311097469140400956e-03
4.615999999999999659e+01,5.073422570228412407e-03
4.620000000000000284e+01,1.011196096139897749e-02
4.624000000000000199e+01,1.010291265321766087e-02
4.628000000000000114e+01,6.865172714551111104e-03
4.632000000000000028e+01,9.766051368288463513e-03
4.635999999999999943e+01,1.212110853990958602e-02
4.639999999999999858e+01,7.473266057123954982e-03
4.643999999999999773e+01,4.644165577469677557e-03
4.647999999999999687e+01,7.817265953001174827e-03
4.652000000000000313e+01,5.351637640593197645e-03
4.656000000000000227e+01,5.705143254216501342e-03
4.660000000000000142e+01,6.740580763942831226e-03
4.664000000000000057e+01,6.729999563857176625e-03
4.667999999999999972e+01,5.491509983205790542e-03
4.671999999999999886e+01,7.526877537164492968e-03
4.675999999999999801e+01,5.836317146008934833e-05
4.679999999999999716e+01,5.640267438298094890e-03
4.684000000000000341e+01,6.220055151678747195e-03
4.688000000000000256e+01,6.708743250791149651e-03
4.692000000000000171e+01,6.651607782206039009e-03
4.696000000000000085e+01,8.595101901924740578e-03
4.700000000000000000e+01,8.765017883965942058e-03
4.703999999999999915e+01,6.342852731333011029e-03
4.707999999999999829e+01,6.876236709457914272e-03
4.711999999999999744e+01,5.636042102995025664e-03
4.715999999999999659e+01,6.578365861769172596e-03
4.720000000000000284e+01,5.246914553110253870e-03
4.724000000000000199e+01,6.552705116207368195e-03
4.728000000000000114e+01,5.584720313931208768e-03
4.732000000000000028e+01,5.344137106742338598e-03
4.735999999999999943e+01,7.286071519940027531e-03
4.739999999999999858e+01,7.590843447097045046e-03
4.743999999999999773e+01,7.668096533066767924e-03
4.747999999999999687e+01,9.018419183594401575e-03
4.752000000000000313e+01,6.821738922442509463e-03
4.756000000000000227e+01,7.125882199948155304e-03
4.760000000000000142e+01,8.566677453763688055e-03
4.764000000000000057e+01,8.870505512623088826e-03
4.767999999999999972e+01,5.854691966152174298e-03
4.771999999999999886e+01,6.658400395390071461e-03
4.775999999999999801e+01,5.961362139194204338e-03
4.779999999999999716e+01,5.082276081526132354e-03
4.784000000000000341e+01,7.795349650426996145e-03
4.788000000000000256e+01,5.278940890418493473e-03
4.792000000000000171e+01,8.070610446366832148e-04
4.796000000000000085e+01,5.611387934253344624e-03
4.800000000000000000e+01,6.459458700536103472e-03
4.803999999999999915e+01,2.305408444258720199e-03
4.807999999999999829e+01,4.608276888822578597e-03
4.811999999999999744e+01,7.865905851301459306e-03
4.815999999999999659e+01,3.847794322013990860e-03
4.820000000000000284e+01,5.286208676847281920e-03
4.824000000000000199e+01,7.270131678672044767e-03
4.828000000000000114e+01,9.663146037180429804e-03
4.832000000000000028e+01,9.964270678876813170e-03
4.835999999999999943e+01,1.021976257485743972e-02
4.839999999999999858e+01,4.199905455061386447e-03
4.843999999999999773e+01,5.864719967415538311e-03
4.847999999999999687e+01,6.392564156441613021e-03
4.852000000000000313e+01,8.238946417249135012e-03
4.856000000000000227e+01,8.857413295896544858e-03
4.860000000000000142e+01,7.247572273603554611e-03
4.864000000000000057e+01,7.820244104654178185e-03
4.867999999999999972e+01,6.391969639053799411e-03
4.871999999999999886e+01,6.100342978600717739e-03
4.875999999999999801e+01,6.490640169865658643e-03
4.879999999999999716e+01,7.835695346554028690e-03
4.884000000000000341e+01,6.133938880454913208e-03
4.888000000000000256e+01,8.433589591715584532e-03
4.892000000000000171e+01,5.230919818168986227e-03
4.896000000000000085e+01,9.803864501053236036e-03
4.900000000000000000e+01,7.192010324691024484e-03
4.903999999999999915e+01,8.899869392929677867e-03
4.907999999999999829e+01,1.001642446863987984e-02
4.911999999999999744e+01,4.857627847111729499e-03
4.915999999999999659e+01,8.292947785190494386e-03
4.920000000000000284e+01,1.109149090338461610e-02
4.924000000000000199e+01,5.750314279147456312e-03
4.928000000000000114e+01,8.594002343593651685e-03
4.932000000000000028e+01,4.025528454803074113e-03
4.935999999999999943e+01,3.958656140636276563e-03
4.939999999999999858e+01,5.983349088489495898e-03
4.943999999999999773e+01,5.734258626584445677e-03
4.947999999999999687e+01,8.759015020353096148e-03
4.952000000000000313e+01,8.327705814829420433e-03
4.956000000000000227e+01,5.213361328623936780e-03
4.960000000000000142e+01,6.418728001438002775e-03
4.964000000000000057e+01,5.759561943656616237e-03
4.967999999999999972e+01,1.005672007319744626e-02
4.971999999999999886e+01,5.350181444193426693e-03
4.975999999999999801e+01,5.281660041450014949e-03
4.979999999999999716e+01,7.395647171917524472e-03
4.984000000000000341e+01,5.598843706872777375e-03
4.988000000000000256e+01,6.075493237990594632e-03
4.992000000000000171e+01,5.733473745978436356e-03
4.996000000000000085e+01,9.711164072255000154e-03
5.000000000000000000e+01,8.595781315545043474e-03
5.003999999999999915e+01,8.980820491536672945e-03
5.007999999999999829e+01,8.501717668072030637e-03
5.011999999999999744e+01,6.749221272167768050e-03
5.015999999999999659e+01,4.723723524663977179e-03
5.020000000000000284e+01,5.835652810034469389e-03
5.024000000000000199e+01,7.538555674337719080e-03
5.028000000000000114e+01,9.786959588157694012e-03
5.032000000000000028e+01,7.260595890351864180e-03
5.035999999999999943e+01,7.098628161959318408e-03
5.039999999999999858e+01,7.072909612159968169e-03
5.043999999999999773e+01,6.228520102619432459e-03
5.047999999999999687e+01,4.429042343029856478e-03
5.052000000000000313e+01,9.404780860227312730e-03
5.056000000000000227e+01,8.787248023951848425e-03
5.060000000000000142e+01,3.031167489692564686e-03
5.064000000000000057e+01,5.550891340025344324e-03
5.067999999999999972e+01,7.251943336796373187e-03
5.071999999999999886e+01,6.633734776320263787e-03
5.075999999999999801e+01,5.287798825234057108e-03
5.079999999999999716e+01,5.942478161322779957e-03
5.084000000000000341e+01,9.552692624980624325e-03
5.088000000000000256e+01,8.297192630539514807e-03
5.092000000000000171e+01,1.167970554222632837e-02
5.096000000000000085e+01,8.013829436469917591e-03
5.100000000000000000e+01,4.893451698768559559e-03
5.103999999999999915e+01,7.411478790095068353e-03
5.107999999999999829e+01,5.382097341593594306e-03
5.111999999999999744e+01,6.217305216978749431e-03
5.115999999999999659e+01,5.688170885810028832e-03
5.120000000000000284e+01,9.160435091735729882e-03
5.124000000000000199e+01,7.175842553034687474e-03
5.128000000000000114e+01,7.919421601002172781e-03
5.132000000000000028e+01,6.298265476725185309e-03
5.135999999999999943e+01,8.314728250094908721e-03
5.139999999999999858e+01,5.874726052767721002e-03
5.143999999999999773e+01,8.163679585849107148e-03
5.147999999999999687e+01,8.906400198832199050e-03
5.152000000000000313e+01,4.237735404843822815e-03
5.156000000000000227e+01,4.616332557475151012e-03
5.160000000000000142e+01,7.541210583230591874e-03
5.164000000000000057e+01,6.418874168481835014e-03
5.167999999999999972e+01,5.978450730634329684e-03
5.171999999999999886e+01,7.447694392757799736e-03
5.175999999999999801e+01,9.371488831612734272e-03
5.179999999999999716e+01,8.293932984339235509e-03
5.184000000000000341e+01,5.397308593561105615e-03
5.188000000000000256e+01,8.320975425222556371e-03
5.192000000000000171e+01,7.515733436710599243e-03
5.196000000000000085e+01,1.002980144817252825e-02
5.200000000000000000e+01,3.767526112023906852e-03
5.203999999999999915e+01,5.735577566068175356e-03
5.207999999999999829e+01,1.047727000782502915e-02
5.211999999999999744e+01,1.103532908009883205e-02
5.215999999999999659e+01,5.363497513853155395e-03
5.220000000000000284e+01,7.603685478798570888e-03
5.224000000000000199e+01,6.660631997160868824e-03
5.228000000000000114e+01,9.537083508641417198e-03
5.232000000000000028e+01,5.728919981262905851e-03
5.235999999999999943e+01,6.831598279764509660e-03
5.239999999999999858e+01,1.066244399377203923e-02
5.243999999999999773e+01,8.854538972266366714e-03
5.247999999999999687e+01,6.137010632652943089e-03
5.252000000000000313e+01,3.510251195771900683e-03
5.256000000000000227e+01,5.612443318136811111e-03
5.260000000000000142e+01,8.078238327969411783e-03
5.264000000000000057e+01,8.588544673557772097e-03
5.267999999999999972e+01,1.059926311982159301e-02
5.271999999999999886e+01,9.335793570969341468e-03
5.275999999999999801e+01,9.163484400839104482e-03
5.279999999999999716e+01,9.263832612434278260e-03
5.284000000000000341e+01,8.590973306528604594e-03
5.288000000000000256e+01,4.871287311856085413e-03
5.292000000000000171e+01,6.244330579266050250e-03
5.296000000000000085e+01,8.526643958763882938e-03
5.300000000000000000e+01,6.898154974112134796e-03
5.303999999999999915e+01,7.952358640998916789e-03
5.307999999999999829e+01,1.014319387529288678e-02
5.311999999999999744e+01,9.514563429229037916e-03
5.315999999999999659e+01,7.066859523647507288e-03
5.320000000000000284e+01,8.347712423980236524e-03
5.324000000000000199e+01,7.900436327746921880e-03
5.328000000000000114e+01,7.498453923368298031e-03
5.332000000000000028e+01,7.960267909900805780e-03
5.335999999999999943e+01,7.012259116078406289e-03
5.339999999999999858e+01,8.519579730834095713e-03
5.343999999999999773e+01,7.934991560605945959e-03
5.347999999999999687e+01,7.304751576490168055e-03
5.352000000000000313e+01,7.765669140664649417e-03
5.356000000000000227e+01,7.726210788552143570e-03
5.360000000000000142e+01,7.777517316979503693e-03
5.364000000000000057e+01,1.019320759927255446e-02
5.367999999999999972e+01,1.042604344186935823e-02
5.371999999999999886e+01,9.612834206947785953e-03
5.375999999999999801e+01,1.048192257229285662e-02
5.379999999999999716e+01,5.712255137141585698e-03
5.384000000000000341e+01,8.854601125407616721e-03
5.388000000000000256e+01,7.722362428614674978e-03
5.392000000000000171e+01,9.272813106018209378e-03
5.396000000000000085e+01,4.820728343477694890e-03
5.400000000000000000e+01,6.871012614650629999e-03
5.403999999999999915e+01,1.146756867177199830e-02
5.407999999999999829e+01,1.078914692917373741e-02
5.411999999999999744e+01,1.174754906566537367e-02
5.415999999999999659e+01,6.657942636916556849e-03
5.420000000000000284e+01,1.002601685620522869e-02
5.424000000000000199e+01,9.119505049704112326e-03
5.428000000000000114e+01,8.622062254372704973e-03
5.432000000000000028e+01,7.078572146971521747e-03
5.435999999999999943e+01,8.854383101338668752e-03
5.439999999999999858e+01,1.113020738085708332e-02
5.443999999999999773e+01,5.721016356291345160e-03
5.447999999999999687e+01,6.996082099581620549e-03
5.452000000000000313e+01,1.104477974340882171e-02
5.456000000000000227e+01,9.954914941213026391e-03
5.460000000000000142e+01,9.092228436642533704e-03
5.464000000000000057e+01,1.127600766837420776e-02
5.467999999999999972e+01,1.068578779036036264e-02
5.471999999999999886e+01,8.549322925670729129e-03
5.475999999999999801e+01,1.414297853630258790e-02
5.479999999999999716e+01,1.046008418651229316e-02
5.484000000000000341e+01,9.096096741038998956e-03
5.488000000000000256e+01,1.259746935588406704e-02
5.492000000000000171e+01,1.082386104263753646e-02
5.496000000000000085e+01,1.077801824100078042e-02
5.500000000000000000e+01,1.382411221538127483e-02
5.503999999999999915e+01,1.618793523979768570e-02
5.507999999999999829e+01,1.527756147986255274e-02
5.511999999999999744e+01,1.914160212553336904e-02
5.515999999999999659e+01,2.073183805872268193e-02
5.520000000000000284e+01,2.145791292428385691e-02
5.524000000000000199e+01,2.754954269433763578e-02
5.528000000000000114e+01,2.450103785766593115e-02
5.532000000000000028e+01,2.299840767008949280e-02
5.535999999999999943e+01,2.426940625467803245e-02
5.539999999999999858e+01,1.976522593862877278e-02
5.543999999999999773e+01,1.867128742304717537e-02
5.547999999999999687e+01,1.580373918812840589e-02
5.552000000000000313e+01,1.248128011783403851e-02
5.556000000000000227e+01,1.247811764020522081e-02
5.560000000000000142e+01,1.388441162754326143e-02
5.564000000000000057e+01,1.106158675558416814e-02
5.567999999999999972e+01,1.301317420364975219e-02
5.571999999999999886e+01,1.300926151677393380e-02
5.575999999999999801e+01,1.023134569796010918e-02
5.579999999999999716e+01,1.222784175226065626e-02
5.584000000000000341e+01,1.072277628954832439e-02
5.588000000000000256e+01,1.180944814060608077e-02
5.592000000000000171e+01,1.071325720964239753e-02
5.596000000000000085e+01,6.888534782336172384e-03
5.600000000000000000e+01,8.611253950874468710e-03
5.603999999999999915e+01,9.424336542966767205e-03
5.607999999999999829e+01,1.123762238837155460e-02
5.611999999999999744e+01,9.367456152189120380e-03
5.615999999999999659e+01,8.497492871378993853e-03
5.620000000000000284e+01,1.021926571257823248e-02
5.624000000000000199e+01,9.712702199549368490e-03
5.628000000000000114e+01,8.251028835808022280e-03
5.632000000000000028e+01,9.017312103598422793e-03
5.635999999999999943e+01,1.064738044057290077e-02
5.639999999999999858e+01,1.114044895814095097e-02
5.643999999999999773e+01,9.632542278860033169e-03
5.647999999999999687e+01,8.124444993380473129e-03
5.652000000000000313e+01,7.252770278975026637e-03
5.656000000000000227e+01,7.563186552024632990e-03
5.660000000000000142e+01,8.009828913303079084e-03
5.664000000000000057e+01,6.910219137341268129e-03
5.667999999999999972e+01,7.674785608613016695e-03
5.671999999999999886e+01,7.757074873176772294e-03
5.675999999999999801e+01,6.975197260278792263e-03
5.679999999999999716e+01,5.374625001394876464e-03
5.684000000000000341e+01,6.411258861444767490e-03
5.688000000000000256e+01,8.129786332283867045e-03
5.692000000000000171e+01,4.800687328756329114e-03
5.696000000000000085e+01,8.428670139614572593e-03
5.700000000000000000e+01,7.418277602179281296e-03
5.703999999999999915e+01,7.135250460098740456e-03
5.707999999999999829e+01,7.261281901281419794e-03
5.711999999999999744e+01,8.978653668351124079e-03
5.715999999999999659e+01,1.019563611182552551e-02
5.720000000000000284e+01,1.041203289782937670e-02
5.724000000000000199e+01,8.763868648920163443e-03
5.728000000000000114e+01,5.296615596573723758e-03
5.732000000000000028e+01,4.693928777749542709e-03
5.735999999999999943e+01,6.410139478126524945e-03
5.739999999999999858e+01,8.990131374465193392e-03
5.743999999999999773e+01,1.075142624129644953e-02
5.747999999999999687e+01,6.464700178369566820e-03
5.752000000000000313e+01,9.862611931381890309e-03
5.756000000000000227e+01,7.485336739371377911e-03
5.760000000000000142e+01,8.700184825227203975e-03
5.764000000000000057e+01,9.096335136725168177e-03
5.767999999999999972e+01,6.991309448396179800e-03
5.771999999999999886e+01,8.933130395482422048e-03
5.775999999999999801e+01,9.374167414611738261e-03
5.779999999999999716e+01,7.950641313246702493e-03
5.784000000000000341e+01,8.300342378090675571e-03
5.788000000000000256e+01,7.240203828959289843e-03
5.792000000000000171e+01,8.953684517906963791e-03
5.796000000000000085e+01,1.171283383901867460e-02
5.800000000000000000e+01,7.696402206626350335e-03
5.803999999999999915e+01,7.726816017888522327e-03
5.807999999999999829e+01,7.393254220581004128e-03
5.811999999999999744e+01,6.240992861274497795e-03
5.815999999999999659e+01,6.407233671957085486e-03
5.820000000000000284e+01,9.756344101941359995e-03
5.824000000000000199e+01,9.603884076707166692e-03
5.828000000000000114e+01,5.222295360149724341e-03
5.832000000000000028e+01,8.161562436562273121e-03
5.835999999999999943e+01,5.280167208104240111e-03
5.839999999999999858e+01,7.673370354609661617e-03
5.843999999999999773e+01,9.293345127801286645e-03
5.847999999999999687e+01,8.048361878196763977e-03
5.852000000000000313e+01,6.985069946702531472e-03
5.856000000000000227e+01,8.331615826198525074e-03
5.860000000000000142e+01,5.630921344394227215e-03
5.864000000000000057e+01,6.476873886787906306e-03
5.867999999999999972e+01,9.732663793261519744e-03
5.871999999999999886e+01,6.576649108336800852e-03
5.875999999999999801e+01,9.559206686117137711e-03
5.879999999999999716e+01,7.721492690166092618e-03
5.884000000000000341e+01,6.838499288145219977e-03
5.888000000000000256e+01,7.228532994205875799e-03
5.892000000000000171e+01,9.846513648742229521e-03
5.896000000000000085e+01,7.780639275004583126e-03
5.900000000000000000e+01,6.442122997087157410e-03
5.903999999999999915e+01,7.649859883856579244e-03
5.907999999999999829e+01,8.766451720479493531e-03
5.911999999999999744e+01,6.654304107217456042e-03
5.915999999999999659e+01,9.771279658041167465e-03
5.920000000000000284e+01,7.886092623648893740e-03
5.924000000000000199e+01,7.683182780620580535e-03
5.928000000000000114e+01,6.570624294568750204e-03
5.932000000000000028e+01,4.639361777415159857e-03
5.935999999999999943e+01,5.481713135417285929e-03
5.939999999999999858e+01,8.097285849794829196e-03
5.943999999999999773e+01,6.620142694054190723e-03
5.947999999999999687e+01,6.779803455411025775e-03
5.952000000000000313e+01,8.576267984895243751e-03
5.956000000000000227e+01,4.915844783973451204e-03
5.960000000000000142e+01,3.346948857698039091e-03
5.964000000000000057e+01,9.189848569271389170e-03
5.967999999999999972e+01,7.211296320340673978e-03
5.971999999999999886e+01,5.368958539971570992e-03
5.975999999999999801e+01,8.301017884677670475e-03
5.979999999999999716e+01,8.868310475479666832e-03
5.984000000000000341e+01,6.115916174043175592e-03
5.988000000000000256e+01,6.955636659177729178e-03
5.992000000000000171e+01,8.522711813820357113e-03
5.996000000000000085e+01,9.271080553839747621e-03
