2.003999999999999915e+01,1.299397508126103745e-02
2.007999999999999829e+01,6.730521961226198190e-03
2.012000000000000099e+01,0.000000000000000000e+00
2.016000000000000014e+01,8.029121015281328461e-03
2.019999999999999929e+01,4.248830177877646087e-03
2.023999999999999844e+01,8.547077221490053875e-03
2.028000000000000114e+01,1.408738116136695750e-02
2.032000000000000028e+01,9.061273902346855119e-03
2.035999999999999943e+01,9.316965650922886741e-03
2.039999999999999858e+01,5.687356464338779415e-03
2.044000000000000128e+01,3.610558536667001026e-03
2.048000000000000043e+01,8.835433256380739730e-03
2.051999999999999957e+01,1.048576011152050486e-02
2.055999999999999872e+01,1.244590532415570765e-02
2.060000000000000142e+01,9.743883075938319926e-03
2.064000000000000057e+01,1.278979267135071235e-02
2.067999999999999972e+01,1.101816279283397704e-02
2.071999999999999886e+01,7.847235870856551082e-03
2.076000000000000156e+01,5.918381349885529739e-03
2.080000000000000071e+01,4.920851327582178789e-03
2.083999999999999986e+01,5.041583743995914010e-04
2.087999999999999901e+01,6.185893738826367741e-03
2.092000000000000171e+01,1.248820828370561867e-02
2.096000000000000085e+01,1.552673837109154638e-02
2.100000000000000000e+01,6.911257044229423586e-03
2.103999999999999915e+01,3.577596690014413390e-03
2.107999999999999829e+01,1.593585661292888991e-02
2.112000000000000099e+01,1.213424567897190311e-02
2.116000000000000014e+01,1.097309144144243201e-02
2.119999999999999929e+01,1.338464277560391137e-02
2.123999999999999844e+01,1.035717433590063047e-02
2.128000000000000114e+01,6.551925330403477257e-03
2.132000000000000028e+01,1.377736643839756227e-02
2.135999999999999943e+01,1.385467107950891924e-02
2.139999999999999858e+01,1.905843372462359686e-02
2.144000000000000128e+01,1.556031651497609240e-02
2.148000000000000043e+01,1.252742197744640372e-02
2.151999999999999957e+01,1.726235747251057134e-02
2.155999999999999872e+01,1.236316940579634642e-02
2.160000000000000142e+01,1.694093452500308045e-02
2.164000000000000057e+01,1.188457866655492912e-02
2.167999999999999972e+01,1.723742616135321912e-02
2.171999999999999886e+01,1.140240929061738309e-02
2.176000000000000156e+01,1.721959513485401411e-02
2.180000000000000071e+01,1.651015711368928121e-02
2.183999999999999986e+01,1.036171869958708684e-02
2.187999999999999901e+01,2.316809294505728714e-02
2.192000000000000171e+01,1.608563184208534891e-02
2.196000000000000085e+01,2.003388152559375246e-02
2.200000000000000000e+01,1.465877105440448191e-02
2.203999999999999915e+01,2.186811992582233036e-02
2.207999999999999829e+01,1.664661928265995933e-02
2.212000000000000099e+01,1.313335876220702615e-02
2.216000000000000014e+01,1.987394250254222172e-02
2.219999999999999929e+01,1.666967415968741498e-02
2.223999999999999844e+01,1.859189095413436854e-02
2.228000000000000114e+01,1.429824858232238254e-02
2.232000000000000028e+01,1.715096369553966230e-02
2.235999999999999943e+01,1.673993957342758895e-02
2.239999999999999858e+01,1.415279968844998515e-02
2.244000000000000128e+01,1.638140220668262911e-02
2.248000000000000043e+01,1.317102500496701405e-02
2.251999999999999957e+01,1.446564359618461235e-02
2.255999999999999872e+01,8.612164482374279686e-03
2.260000000000000142e+01,1.068192488402750981e-02
2.264000000000000057e+01,1.523681519119554281e-02
2.267999999999999972e+01,1.217748787792012795e-02
2.271999999999999886e+01,2.791762576031519422e-02
2.276000000000000156e+01,1.879696831715662805e-02
2.280000000000000071e+01,1.697805846096953064e-02
2.283999999999999986e+01,1.935340553980961775e-02
2.287999999999999901e+01,1.162854790331059769e-02
2.292000000000000171e+01,1.633280343757868847e-02
2.296000000000000085e+01,2.072545646425055094e-02
2.300000000000000000e+01,1.765927680417394771e-02
2.303999999999999915e+01,1.909810973383437721e-02
2.307999999999999829e+01,1.447648393567272339e-02
2.312000000000000099e+01,2.197322857418666786e-02
2.316000000000000014e+01,1.626228559778812241e-02
2.319999999999999929e+01,1.365798900457113225e-02
2.323999999999999844e+01,1.462646387819836920e-02
2.328000000000000114e+01,2.211982885753750738e-02
2.332000000000000028e+01,1.951300333421760944e-02
2.335999999999999943e+01,1.752683580712162403e-02
2.339999999999999858e+01,1.849194652631593397e-02
2.344000000000000128e+01,1.883472104825542268e-02
2.348000000000000043e+01,2.259490019220977003e-02
2.351999999999999957e+01,1.672101908541513346e-02
2.355999999999999872e+01,1.193392622675447726e-02
2.360000000000000142e+01,1.740072414310769519e-02
2.364000000000000057e+01,1.525333544850135739e-02
2.367999999999999972e+01,2.537970987663649980e-02
2.371999999999999886e+01,1.390818652990826777e-02
2.376000000000000156e+01,1.688567325084943185e-02
2.380000000000000071e+01,1.861933701429090496e-02
2.383999999999999986e+01,2.050755048709733755e-02
2.387999999999999901e+01,1.307246453211182401e-02
2.392000000000000171e+01,2.226163817384733609e-02
2.396000000000000085e+01,1.591253108390233706e-02
2.400000000000000000e+01,1.826358171758637669e-02
2.403999999999999915e+01,2.092456311814474765e-02
2.407999999999999829e+01,2.234173060563627786e-02
2.412000000000000099e+01,2.002909191691785648e-02
2.416000000000000014e+01,1.787101327405898193e-02
2.419999999999999929e+01,1.913036251032788557e-02
2.423999999999999844e+01,1.541691266896987739e-02
2.428000000000000114e+01,2.257887395647795864e-02
2.432000000000000028e+01,1.466868993246292149e-02
2.435999999999999943e+01,1.996453857944224808e-02
2.439999999999999858e+01,2.401658364984932126e-02
2.444000000000000128e+01,2.029909335333308570e-02
2.448000000000000043e+01,1.860066860557465368e-02
2.451999999999999957e+01,2.249492643424294211e-02
2.455999999999999872e+01,1.644440841136914078e-02
2.460000000000000142e+01,1.536507716024441451e-02
2.464000000000000057e+01,1.226507709891691035e-02
2.467999999999999972e+01,1.460239018506302895e-02
2.471999999999999886e+01,1.849265278073703930e-02
2.476000000000000156e+01,2.238212020599768953e-02
2.480000000000000071e+01,1.632681953208718964e-02
2.483999999999999986e+01,1.928245290950471313e-02
2.487999999999999901e+01,1.167182238307354000e-02
2.492000000000000171e+01,1.959786157450691887e-02
2.496000000000000085e+01,1.369477290500881531e-02
2.500000000000000000e+01,1.307363312227870049e-02
2.503999999999999915e+01,1.711294512957717284e-02
2.507999999999999829e+01,1.431499002614344818e-02
2.512000000000000099e+01,2.270322237927478032e-02
2.516000000000000014e+01,1.803920631778534872e-02
2.519999999999999929e+01,2.254151053338067714e-02
2.523999999999999844e+01,1.849743223728769759e-02
2.528000000000000114e+01,2.035681026119674428e-02
2.532000000000000028e+01,1.833104627355038735e-02
2.535999999999999943e+01,1.304163995521154772e-02
2.539999999999999858e+01,1.893843013787065155e-02
2.544000000000000128e+01,6.810993839931938666e-03
2.548000000000000043e+01,1.892122279194046255e-02
2.551999999999999957e+01,1.300722784747481917e-02
2.555999999999999872e+01,2.231917409946235220e-02
2.560000000000000142e+01,2.199712728791587690e-02
2.564000000000000057e+01,2.198506292571681536e-02
2.567999999999999972e+01,1.933086495812125563e-02
2.571999999999999886e+01,1.854039799599978278e-02
2.576000000000000156e+01,1.712766977620939005e-02
2.580000000000000071e+01,1.524805618801220591e-02
2.583999999999999986e+01,1.740742184227895076e-02
2.587999999999999901e+01,1.630316196265702011e-02
2.592000000000000171e+01,1.939325850682297250e-02
2.596000000000000085e+01,8.032761102801903516e-03
2.600000000000000000e+01,1.345196507991712823e-02
2.603999999999999915e+01,1.529679949699041218e-02
2.607999999999999829e+01,1.139202128527927287e-02
2.612000000000000099e+01,2.022720880368197166e-02
2.616000000000000014e+01,1.803004997261348566e-02
2.619999999999999929e+01,1.552139329095679650e-02
2.623999999999999844e+01,1.394423682837617716e-02
2.628000000000000114e+01,1.438620405733558039e-02
2.632000000000000028e+01,1.249680754828823639e-02
2.635999999999999943e+01,6.722302621292974845e-03
2.639999999999999858e+01,1.042490592763788311e-02
2.644000000000000128e+01,1.568051430216920589e-02
2.648000000000000043e+01,1.301127860773011735e-02
2.651999999999999957e+01,1.997452962001701124e-02
2.655999999999999872e+01,1.497319962024914498e-02
2.660000000000000142e+01,1.214637824571624530e-02
2.664000000000000057e+01,1.335856195488380541e-02
2.667999999999999972e+01,1.317164113780288325e-02
2.671999999999999886e+01,1.624685500254453505e-02
2.676000000000000156e+01,1.264023062035104540e-02
2.680000000000000071e+01,1.182961971250279069e-02
2.683999999999999986e+01,1.474727115426353527e-02
2.687999999999999901e+01,1.207071040567673018e-02
2.692000000000000171e+01,1.529765895162678996e-02
2.696000000000000085e+01,1.044440433614806513e-02
2.700000000000000000e+01,1.366990596013418699e-02
2.703999999999999915e+01,1.347644492282428982e-02
2.707999999999999829e+01,1.203926687708454894e-02
2.712000000000000099e+01,1.106749368418014079e-02
2.716000000000000014e+01,1.149337421937474124e-02
2.719999999999999929e+01,9.898668636323385700e-03
2.723999999999999844e+01,7.837124199091011906e-03
2.728000000000000114e+01,9.659230921348033877e-03
2.732000000000000028e+01,1.303437113715162979e-02
2.735999999999999943e+01,1.283518443095355184e-02
2.739999999999999858e+01,1.512128138562756664e-02
2.744000000000000128e+01,1.181318423881962641e-02
2.748000000000000043e+01,1.083499873980708211e-02
2.751999999999999957e+01,9.545358028246624105e-03
2.755999999999999872e+01,1.011950775700434270e-02
2.760000000000000142e+01,1.178057623214051261e-02
2.764000000000000057e+01,1.188719659331178603e-02
2.767999999999999972e+01,1.137161771578180935e-02
2.771999999999999886e+01,1.303058364121796424e-02
2.776000000000000156e+01,1.577647348127988319e-02
2.780000000000000071e+01,1.075293648761195021e-02
2.783999999999999986e+01,1.132218931150234115e-02
2.787999999999999901e+01,1.157999855140122436e-02
2.792000000000000171e+01,9.817244930167088462e-03
2.796000000000000085e+01,1.162741523907278446e-02
2.800000000000000000e+01,1.032940309056689515e-02
2.803999999999999915e+01,7.010831957113492982e-03
2.807999999999999829e+01,1.006193137959088442e-02
2.812000000000000099e+01,8.917230040440086991e-03
2.816000000000000014e+01,1.693894459094927307e-02
2.819999999999999929e+01,1.408375328434073592e-02
2.823999999999999844e+01,4.080647745483678875e-03
2.828000000000000114e+01,3.710085764072995097e-03
2.832000000000000028e+01,1.110757346576683388e-02
2.835999999999999943e+01,9.958779436594884446e-03
2.839999999999999858e+01,7.721685634233649807e-03
2.844000000000000128e+01,1.247577240516089224e-02
2.848000000000000043e+01,1.769530795902554340e-02
2.851999999999999957e+01,1.250407178386805755e-02
2.855999999999999872e+01,3.427798254163086540e-03
2.860000000000000142e+01,1.237430686721562555e-02
2.864000000000000057e+01,1.137617141903239995e-02
2.867999999999999972e+01,1.270798638049940726e-02
2.871999999999999886e+01,8.134899392062274262e-03
2.876000000000000156e+01,7.134762175001501359e-03
2.880000000000000071e+01,9.396826826978267599e-03
2.883999999999999986e+01,3.423374447231805704e-03
2.887999999999999901e+01,1.050072614426580085e-02
2.892000000000000171e+01,9.653312588100825681e-03
2.896000000000000085e+01,5.853122181208469769e-03
2.900000000000000000e+01,9.821003422471680927e-03
2.903999999999999915e+01,1.192373257753333304e-02
2.907999999999999829e+01,1.200593634125490979e-02
2.912000000000000099e+01,8.047746242094269697e-03
2.916000000000000014e+01,1.216838215373713776e-02
2.919999999999999929e+01,1.162712839782021126e-02
2.923999999999999844e+01,6.890110058006250482e-03
2.928000000000000114e+01,1.038729620238158964e-02
2.932000000000000028e+01,3.162987264570696865e-03
2.935999999999999943e+01,7.746501130679758935e-03
2.939999999999999858e+01,8.755753969940320569e-03
2.944000000000000128e+01,1.147348337922459750e-02
2.948000000000000043e+01,1.481206847019230638e-02
2.951999999999999957e+01,1.721776456290218665e-02
2.955999999999999872e+01,1.247558906140383735e-02
2.960000000000000142e+01,1.519075539458785741e-02
2.964000000000000057e+01,1.153492570368878922e-02
2.967999999999999972e+01,1.176282469598874912e-02
2.971999999999999886e+01,1.680670124675131064e-02
2.976000000000000156e+01,1.532421105241599593e-02
2.980000000000000071e+01,2.067757076427097912e-02
2.983999999999999986e+01,2.727329617516702914e-02
2.987999999999999901e+01,3.946187729877455308e-02
2.992000000000000171e+01,5.724331542715538346e-02
2.996000000000000085e+01,8.015148806077043719e-02
3.000000000000000000e+01,1.137798819908925341e-01
3.003999999999999915e+01,1.314040677911308408e-01
3.007999999999999829e+01,1.241676947131298003e-01
3.012000000000000099e+01,1.066759761857799804e-01
3.016000000000000014e+01,8.716376715275943321e-02
3.019999999999999929e+01,5.894996122651680048e-02
3.023999999999999844e+01,4.751599363996412972e-02
3.028000000000000114e+01,3.281854264632376450e-02
3.032000000000000028e+01,2.138334262007037315e-02
3.035999999999999943e+01,1.383189324206700321e-02
3.039999999999999858e+01,2.104041760839694963e-02
3.044000000000000128e+01,1.675061008427023226e-02
3.048000000000000043e+01,1.214944296017080733e-02
3.051999999999999957e+01,1.407339980497386914e-02
3.055999999999999872e+01,2.019186295273676934e-02
3.060000000000000142e+01,1.123838364268330697e-02
3.064000000000000057e+01,1.471426687132945318e-02
3.067999999999999972e+01,9.333194114295204763e-03
3.071999999999999886e+01,1.016650259207199647e-02
3.076000000000000156e+01,4.628851223496866646e-03
3.080000000000000071e+01,1.400656111707364142e-02
3.083999999999999986e+01,3.806472986396098462e-03
3.087999999999999901e+01,1.489210718720665981e-02
3.092000000000000171e+01,1.137193305829639796e-02
3.096000000000000085e+01,1.049253218096109393e-02
3.100000000000000000e+01,4.485175987247307441e-03
3.103999999999999915e+01,4.847585962039506827e-03
3.107999999999999829e+01,8.316896856193118845e-03
3.112000000000000099e+01,1.178561801776378988e-02
3.116000000000000014e+01,1.385537936401062299e-02
3.119999999999999929e+01,4.737582563376166629e-03
3.123999999999999844e+01,7.427669293567529252e-03
3.128000000000000114e+01,1.431228558383157955e-02
3.132000000000000028e+01,8.766350825797344579e-03
3.135999999999999943e+01,9.900941767164326765e-03
3.139999999999999858e+01,1.414244396438730719e-02
3.144000000000000128e+01,9.060890933503628827e-03
3.148000000000000043e+01,9.106121506203575591e-03
3.151999999999999957e+01,1.163676882214378233e-02
3.155999999999999872e+01,9.350228104971681012e-03
3.160000000000000142e+01,8.150735340360730150e-03
3.164000000000000057e+01,9.125914000774911980e-03
3.167999999999999972e+01,1.429563514188001566e-02
3.171999999999999886e+01,6.724068960904504982e-03
3.176000000000000156e+01,1.173727609356011239e-02
3.180000000000000071e+01,1.208867754267469244e-02
3.183999999999999986e+01,1.383788389112197356e-02
3.187999999999999901e+01,1.170216012615342069e-02
3.192000000000000171e+01,1.049812005304033395e-02
3.196000000000000085e+01,9.604266575043290954e-03
3.200000000000000000e+01,1.135121994222874214e-02
3.203999999999999915e+01,1.387448628025482293e-02
3.207999999999999829e+01,1.095908299317112367e-02
3.211999999999999744e+01,8.975369858252039285e-03
3.215999999999999659e+01,1.009859252836362714e-02
3.220000000000000284e+01,6.715397032752775872e-03
3.224000000000000199e+01,7.837511301099034725e-03
3.228000000000000114e+01,8.648324112254751270e-03
3.232000000000000028e+01,9.458585952682360340e-03
3.235999999999999943e+01,3.276441240429907916e-03
3.239999999999999858e+01,7.503846153993510432e-03
3.243999999999999773e+01,1.095383098701297950e-02
3.247999999999999687e+01,9.431282907141819161e-03
3.252000000000000313e+01,1.117105685805813188e-02
3.256000000000000227e+01,7.006052897005659447e-03
3.260000000000000142e+01,1.169685905007532972e-02
3.264000000000000057e+01,8.618394708896186251e-03
3.267999999999999972e+01,1.175437491355762858e-02
3.271999999999999886e+01,8.674833180096999663e-03
3.275999999999999801e+01,1.010061800739721523e-02
3.279999999999999716e+01,9.661372202307580079e-03
3.284000000000000341e+01,8.755468431692673553e-03
3.288000000000000256e+01,9.713526945618892322e-03
3.292000000000000171e+01,1.206942524454717759e-02
3.296000000000000085e+01,1.411404405133596766e-02
3.300000000000000000e+01,7.612531006430872833e-03
3.303999999999999915e+01,8.413096316324948989e-03
3.307999999999999829e+01,1.232062714867171796e-02
3.311999999999999744e+01,8.148153797111042096e-03
3.315999999999999659e+01,1.112238807933466599e-02
3.320000000000000284e+01,1.052248408058335458e-02
3.324000000000000199e+01,9.766684231325631696e-03
3.328000000000000114e+01,7.456618448820601271e-03
3.332000000000000028e+01,1.260401466274780995e-02
3.335999999999999943e+01,1.060366202834033336e-02
3.339999999999999858e+01,6.893672739670728307e-03
3.343999999999999773e+01,7.222908185212096634e-03
3.347999999999999687e+01,1.096987126822506972e-02
3.352000000000000313e+01,9.588960434754649487e-03
3.356000000000000227e+01,9.916659253676112645e-03
3.360000000000000142e+01,5.427235934638455911e-03
3.364000000000000057e+01,1.088127850373254123e-02
3.367999999999999972e+01,1.120745232459054337e-02
3.371999999999999886e+01,5.784260300473074642e-03
3.375999999999999801e+01,7.352420693867016063e-03
3.379999999999999716e+01,1.047382389482347589e-02
3.384000000000000341e+01,7.379741335389032944e-03
3.388000000000000256e+01,1.143238966685181275e-02
3.392000000000000171e+01,1.004642780804885019e-02
3.396000000000000085e+01,1.518570103546551357e-02
3.400000000000000000e+01,9.914379546330299650e-03
3.403999999999999915e+01,1.163441951913927845e-02
3.407999999999999829e+01,8.071229067130182566e-03
3.411999999999999744e+01,5.750542564777594463e-03
3.415999999999999659e+01,9.022850025751944641e-03
3.420000000000000284e+01,1.617903217291170523e-02
3.424000000000000199e+01,7.641891051080154477e-03
3.428000000000000114e+01,9.514360281970501987e-03
3.432000000000000028e+01,1.200784153402528406e-02
3.435999999999999943e+01,1.061647278049751043e-02
3.439999999999999858e+01,9.379994840656914745e-03
3.443999999999999773e+01,1.125052635337115380e-02
3.447999999999999687e+01,7.682465764685213021e-03
3.452000000000000313e+01,9.396661573482057578e-03
3.456000000000000227e+01,7.847512225806653821e-03
3.460000000000000142e+01,1.251286944293953859e-02
3.464000000000000057e+01,1.282726190732169300e-02
3.467999999999999972e+01,7.703068730612799841e-03
3.471999999999999886e+01,1.003638277250009508e-02
3.475999999999999801e+01,9.261732715424599721e-03
3.479999999999999716e+01,1.376934810026467053e-02
3.484000000000000341e+01,1.050776405425644239e-02
3.488000000000000256e+01,7.867210118278207889e-03
3.492000000000000171e+01,1.113042388920226777e-02
3.496000000000000085e+01,8.022813480266221056e-03
3.500000000000000000e+01,7.556106821149686376e-03
3.503999999999999915e+01,1.454691771712394305e-02
3.507999999999999829e+01,6.465930866206467606e-03
3.511999999999999744e+01,1.050370207051261676e-02
3.515999999999999659e+01,1.205502048527548262e-02
3.520000000000000284e+01,6.614024083747990779e-03
3.524000000000000199e+01,1.298104041922901533e-02
3.528000000000000114e+01,6.917633620532610828e-03
3.532000000000000028e+01,1.110849617096532418e-02
3.535999999999999943e+01,1.327903618376478911e-02
3.539999999999999858e+01,1.109863599298825318e-02
3.543999999999999773e+01,1.109302997311036390e-02
3.547999999999999687e+01,1.310684481899267347e-02
3.552000000000000313e+01,1.076972333748445199e-02
3.556000000000000227e+01,1.278264426386466722e-02
3.560000000000000142e+01,1.463974557138626557e-02
3.564000000000000057e+01,9.659920872497920058e-03
3.567999999999999972e+01,1.089463762408713829e-02
3.571999999999999886e+01,9.798294272198956878e-03
3.575999999999999801e+01,1.180900301090589619e-02
3.579999999999999716e+01,5.273670342246817092e-03
3.584000000000000341e+01,8.992623819520607562e-03
3.588000000000000256e+01,7.117655820357842930e-03
3.592000000000000171e+01,1.472010356525006551e-02
3.596000000000000085e+01,7.250781988610716274e-03
3.600000000000000000e+01,1.096799930935336842e-02
3.603999999999999915e+01,1.515090961271873399e-02
3.607999999999999829e+01,1.187540973355300303e-02
3.611999999999999744e+01,1.124084978193793521e-02
3.615999999999999659e+01,9.362866119927683306e-03
3.620000000000000284e+01,9.659701177990788479e-03
3.624000000000000199e+01,1.088835947058667403e-02
3.628000000000000114e+01,1.025209954017162160e-02
3.632000000000000028e+01,9.615417845211141762e-03
3.635999999999999943e+01,8.046068094565223677e-03
3.639999999999999858e+01,1.471115281511377153e-02
3.643999999999999773e+01,8.013604288076030605e-03
3.647999999999999687e+01,1.281335935756283163e-02
3.652000000000000313e+01,1.310683580400446267e-02
3.656000000000000227e+01,1.091390468306672329e-02
3.660000000000000142e+01,1.120655439722123732e-02
3.664000000000000057e+01,1.196491647492588239e-02
3.667999999999999972e+01,1.225674462504060952e-02
3.671999999999999886e+01,1.270353852842846451e-02
3.675999999999999801e+01,1.128542971354734581e-02
3.679999999999999716e+01,1.235290819406761192e-02
3.684000000000000341e+01,1.279848331804496475e-02
3.688000000000000256e+01,1.370977855794340214e-02
3.692000000000000171e+01,1.306692544222073579e-02
3.696000000000000085e+01,1.180217284614065894e-02
3.700000000000000000e+01,1.379988699177265091e-02
3.703999999999999915e+01,1.253433608876565464e-02
3.707999999999999829e+01,1.080226417878700669e-02
3.711999999999999744e+01,1.310953587270744479e-02
3.715999999999999659e+01,1.417341615777838008e-02
3.720000000000000284e+01,1.383853172886131445e-02
3.724000000000000199e+01,1.132801089201655384e-02
3.728000000000000114e+01,8.972473897310510524e-03
3.732000000000000028e+01,1.904651521562920197e-02
3.735999999999999943e+01,1.202896267097629257e-02
3.739999999999999858e+01,1.044913414945800381e-02
3.743999999999999773e+01,1.446240554033643988e-02
3.747999999999999687e+01,1.552317528965662524e-02
3.752000000000000313e+01,1.223307331467761959e-02
3.756000000000000227e+01,1.344845294787868316e-02
3.760000000000000142e+01,1.404195377371154907e-02
3.764000000000000057e+01,1.121683433463255622e-02
3.767999999999999972e+01,1.662619071272646715e-02
3.771999999999999886e+01,1.131432334161776472e-02
3.775999999999999801e+01,1.159556621940042477e-02
3.779999999999999716e+01,8.458194000518517996e-03
3.784000000000000341e+01,1.169080760065314278e-02
3.788000000000000256e+01,1.694291959025757272e-02
3.792000000000000171e+01,9.298569930164236885e-03
3.796000000000000085e+01,1.113170190927905215e-02
3.800000000000000000e+01,1.078922202964087418e-02
3.803999999999999915e+01,1.013562674971522741e-02
3.807999999999999829e+01,9.637041153164820073e-03
3.811999999999999744e+01,1.317783146205916446e-02
3.815999999999999659e+01,1.081402474764047057e-02
3.820000000000000284e+01,1.000360296758528306e-02
3.824000000000000199e+01,1.416480855236214483e-02
3.828000000000000114e+01,1.459666535081574103e-02
3.832000000000000028e+01,1.207604764100944292e-02
3.835999999999999943e+01,8.933575673009666249e-03
3.839999999999999858e+01,9.830488654887422142e-03
3.843999999999999773e+01,1.414528948990328126e-02
3.847999999999999687e+01,1.022488468009616173e-02
3.852000000000000313e+01,1.671422718156458098e-02
3.856000000000000227e+01,1.217162387272813749e-02
3.860000000000000142e+01,1.275603415448051288e-02
3.864000000000000057e+01,1.318472301407309921e-02
3.867999999999999972e+01,1.672055828477417641e-02
3.871999999999999886e+01,7.981456135815252761e-03
3.875999999999999801e+01,1.586709293851506358e-02
3.879999999999999716e+01,1.318691547488192242e-02
3.884000000000000341e+01,1.609988314580945712e-02
3.888000000000000256e+01,1.559427060574173664e-02
3.892000000000000171e+01,1.664206625715040216e-02
3.896000000000000085e+01,1.675727783689237582e-02
3.900000000000000000e+01,1.500765905382765199e-02
3.903999999999999915e+01,1.030558901961589613e-02
3.907999999999999829e+01,1.632403357994588466e-02
3.911999999999999744e+01,1.985615326485342183e-02
3.915999999999999659e+01,1.701758443639269161e-02
3.920000000000000284e+01,1.355718848303684616e-02
3.924000000000000199e+01,1.817594414006484457e-02
3.928000000000000114e+01,1.720088814591157200e-02
3.932000000000000028e+01,1.420563752824590374e-02
3.935999999999999943e+01,1.089931414833304399e-02
3.939999999999999858e+01,1.442915076944889345e-02
3.943999999999999773e+01,1.454042526843506329e-02
3.947999999999999687e+01,1.931261799176931318e-02
3.952000000000000313e+01,1.973400359389569300e-02
3.956000000000000227e+01,1.953357369968341736e-02
3.960000000000000142e+01,1.529308846278754422e-02
3.964000000000000057e+01,1.866564396529286560e-02
3.967999999999999972e+01,2.374700680564958977e-02
3.971999999999999886e+01,2.168082623550206603e-02
3.975999999999999801e+01,1.806058904612317662e-02
3.979999999999999716e+01,2.547163890279953088e-02
3.984000000000000341e+01,2.511365083635588857e-02
3.988000000000000256e+01,3.050421609528073535e-02
3.992000000000000171e+01,2.424138108520163329e-02
3.996000000000000085e+01,2.543622255381802061e-02
4.000000000000000000e+01,3.082587525198530326e-02
4.003999999999999915e+01,3.481685497255430917e-02
4.007999999999999829e+01,3.476779485518164542e-02
4.011999999999999744e+01,4.575003212035884392e-02
4.015999999999999659e+01,4.103913734169507832e-02
4.020000000000000284e+01,5.046703447371093249e-02
4.024000000000000199e+01,5.989463646324037077e-02
4.028000000000000114e+01,6.403920829753484423e-02
4.032000000000000028e+01,8.278869971029534369e-02
4.035999999999999943e+01,9.050630345553317690e-02
4.039999999999999858e+01,9.216400793571999372e-02
4.043999999999999773e+01,1.085820104677586301e-01
4.047999999999999687e+01,1.318362078864952769e-01
4.052000000000000313e+01,1.387757865011461644e-01
4.056000000000000227e+01,1.621847876130377564e-01
4.060000000000000142e+01,1.773586515593831570e-01
4.064000000000000057e+01,1.900462397286555027e-01
4.067999999999999972e+01,2.179602574937515025e-01
4.071999999999999886e+01,2.441648750518997379e-01
4.075999999999999801e+01,2.607359892379463306e-01
4.079999999999999716e+01,2.911351655211993350e-01
4.084000000000000341e+01,3.198249454736899478e-01
4.088000000000000256e+01,3.488252001510839806e-01
4.092000000000000171e+01,3.908766478158684499e-01
4.096000000000000085e+01,4.250037191380637291e-01
4.100000000000000000e+01,4.507402916181308394e-01
4.103999999999999915e+01,4.881296895869710051e-01
4.107999999999999829e+01,5.202360832418126968e-01
4.111999999999999744e+01,5.336972585154915460e-01
4.115999999999999659e+01,4.983705448432098062e-01
4.120000000000000284e+01,4.599360750939194831e-01
4.124000000000000199e+01,4.157524824072770242e-01
4.128000000000000114e+01,3.331911026632801143e-01
4.132000000000000028e+01,2.781307663669203012e-01
4.135999999999999943e+01,2.148353174541890176e-01
4.139999999999999858e+01,1.782640415872169259e-01
4.143999999999999773e+01,1.444892520892187837e-01
4.147999999999999687e+01,1.246979212506783841e-01
4.152000000000000313e+01,9.806985433881659775e-02
4.156000000000000227e+01,8.760049303134054277e-02
4.160000000000000142e+01,7.666475671987924012e-02
4.164000000000000057e+01,7.505124632011386798e-02
4.167999999999999972e+01,6.535800823767194678e-02
4.171999999999999886e+01,5.644139580503271941e-02
4.175999999999999801e+01,5.234114984146603922e-02
4.179999999999999716e+01,4.513316718181805548e-02
4.184000000000000341e+01,4.538292172777143307e-02
4.188000000000000256e+01,4.501093571697210166e-02
4.192000000000000171e+01,4.774620077428921167e-02
4.196000000000000085e+01,4.209099799896193206e-02
4.200000000000000000e+01,3.907692508427385025e-02
4.203999999999999915e+01,3.948085630828830628e-02
4.207999999999999829e+01,4.019530101906101938e-02
4.211999999999999744e+01,3.391765444023941284e-02
4.215999999999999659e+01,3.556387919511470874e-02
4.220000000000000284e+01,3.922974188213707025e-02
4.224000000000000199e+01,3.636964094735153225e-02
4.228000000000000114e+01,3.677217730643920351e-02
4.232000000000000028e+01,3.903898087665911426e-02
4.235999999999999943e+01,3.540132309005785544e-02
4.239999999999999858e+01,4.450415690273391150e-02
4.243999999999999773e+01,4.350741781830415322e-02
4.247999999999999687e+01,5.167755718166835988e-02
4.252000000000000313e+01,5.487548793966050276e-02
4.256000000000000227e+01,5.714095091155033113e-02
4.260000000000000142e+01,5.738632520899760586e-02
4.264000000000000057e+01,6.975070046929195133e-02
4.267999999999999972e+01,9.407870338729490411e-02
4.271999999999999886e+01,1.139006279518358228e-01
4.275999999999999801e+01,1.593591473118359247e-01
4.279999999999999716e+01,2.289005167873539859e-01
4.284000000000000341e+01,3.484722954029030317e-01
4.288000000000000256e+01,5.393608042669865155e-01
4.292000000000000171e+01,7.822995946188286975e-01
4.296000000000000085e+01,9.363639080898136235e-01
4.300000000000000000e+01,1.000000000000000000e+00
4.303999999999999915e+01,9.657498909758351902e-01
4.307999999999999829e+01,8.516370355846163420e-01
4.311999999999999744e+01,7.081581792085045457e-01
4.315999999999999659e+01,5.457234211519825795e-01
4.320000000000000284e+01,3.877943268843581093e-01
4.324000000000000199e+01,2.783419087053799479e-01
4.328000000000000114e+01,2.029163303674811070e-01
4.332000000000000028e+01,1.472231302202954284e-01
4.335999999999999943e+01,1.076886938202776811e-01
4.339999999999999858e+01,8.167165430708447915e-02
4.343999999999999773e+01,6.388927666796724580e-02
4.347999999999999687e+01,5.434156219498781359e-02
4.352000000000000313e+01,3.795717625177830179e-02
4.356000000000000227e+01,3.695468753004431395e-02
4.360000000000000142e+01,2.787253314460147111e-02
4.364000000000000057e+01,3.230778339835412710e-02
4.367999999999999972e+01,3.518910365493442549e-02
4.371999999999999886e+01,3.154450809599441269e-02
4.375999999999999801e+01,3.162872142881609228e-02
4.379999999999999716e+01,2.316715176663712572e-02
4.384000000000000341e+01,2.433862827395515474e-02
4.388000000000000256e+01,2.162556228640536912e-02
4.392000000000000171e+01,1.922306922045784877e-02
4.396000000000000085e+01,2.194776288138394066e-02
4.400000000000000000e+01,1.752505138242126809e-02
4.403999999999999915e+01,1.869565298605675718e-02
4.407999999999999829e+01,2.033220727674214107e-02
4.411999999999999744e+01,2.088096957453618868e-02
4.415999999999999659e+01,1.692370003309398227e-02
4.420000000000000284e+01,1.638450440169296127e-02
4.424000000000000199e+01,1.879726018079403219e-02
4.428000000000000114e+01,1.483949283044067209e-02
4.432000000000000028e+01,1.631967302991796376e-02
4.435999999999999943e+01,1.764431657207669174e-02
4.439999999999999858e+01,1.555055820777228280e-02
4.443999999999999773e+01,1.594263392267818852e-02
4.447999999999999687e+01,1.555767846764979923e-02
4.452000000000000313e+01,1.392956934314804052e-02
4.456000000000000227e+01,1.478729817404207322e-02
4.460000000000000142e+01,1.517874890558789519e-02
4.464000000000000057e+01,1.619154501024949039e-02
4.467999999999999972e+01,1.518431962768350928e-02
4.471999999999999886e+01,1.464306760515662366e-02
4.475999999999999801e+01,1.814140597033771923e-02
4.479999999999999716e+01,1.340474283646446614e-02
4.484000000000000341e+01,1.053242831361857028e-02
4.488000000000000256e+01,1.403032701267072427e-02
4.492000000000000171e+01,1.317759301886164969e-02
4.496000000000000085e+01,1.154784335986020274e-02
4.500000000000000000e+01,1.597756160454168878e-02
4.503999999999999915e+01,1.372603207454282243e-02
4.507999999999999829e+01,1.131898914433831366e-02
4.511999999999999744e+01,1.466066879960157762e-02
4.515999999999999659e+01,1.411784730597549602e-02
4.520000000000000284e+01,1.668238282953565452e-02
4.524000000000000199e+01,1.443017220512829261e-02
4.528000000000000114e+01,8.448838905217354381e-03
4.532000000000000028e+01,1.551884071949772084e-02
4.535999999999999943e+01,1.746135106759541880e-02
4.539999999999999858e+01,1.163500308916708657e-02
4.543999999999999773e+01,1.046976585229899767e-02
4.547999999999999687e+01,1.023665031624567540e-02
4.552000000000000313e+01,1.404314971707504994e-02
4.556000000000000227e+01,1.303291330643148969e-02
4.560000000000000142e+01,1.621766901399459768e-02
4.564000000000000057e+01,1.396419310540720181e-02
4.567999999999999972e+01,1.015685180273879010e-02
4.571999999999999886e+01,1.365199843846864707e-02
4.575999999999999801e+01,1.248579032023500873e-02
4.579999999999999716e+01,1.333933641971288449e-02
4.584000000000000341e+01,1.263902229335705542e-02
4.588000000000000256e+01,1.426921416323699565e-02
4.592000000000000171e+01,1.294717701660412154e-02
4.596000000000000085e+01,1.317877546432913438e-02
4.600000000000000000e+01,1.574088378447542277e-02
4.603999999999999915e+01,1.286477340908946491e-02
4.607999999999999829e+01,1.884490857266128347e-02
4.611999999999999744e+01,1.161809776480920813e-02
4.615999999999999659e+01,1.604427782964406440e-02
4.620000000000000284e+01,1.798436171399982186e-02
4.624000000000000199e+01,1.246636359952849570e-02
4.628000000000000114e+01,1.720298885912683803e-02
4.632000000000000028e+01,1.712290285642695947e-02
4.635999999999999943e+01,1.719809399390047691e-02
4.639999999999999858e+01,1.975918252161383559e-02
4.643999999999999773e+01,2.107717939882147382e-02
4.647999999999999687e+01,2.286120648678863568e-02
4.652000000000000313e+01,2.107152555036917105e-02
4.656000000000000227e+01,2.471986451924263264e-02
4.660000000000000142e+01,2.665899321425680910e-02
4.664000000000000057e+01,2.751041131627472019e-02
4.667999999999999972e+01,2.478812656215331756e-02
4.671999999999999886e+01,2.703774308997124870e-02
4.675999999999999801e+01,2.851040209537900744e-02
4.679999999999999716e+01,3.324584439764640548e-02
4.684000000000000341e+01,3.549521119242391581e-02
4.688000000000000256e+01,3.976436709058227270e-02
4.692000000000000171e+01,4.077057707937287168e-02
4.696000000000000085e+01,4.535032472767101808e-02
4.700000000000000000e+01,4.806550042552780455e-02
4.703999999999999915e+01,4.984835304820692259e-02
4.707999999999999829e+01,5.520474720657905787e-02
4.711999999999999744e+01,6.568843016470911345e-02
4.715999999999999659e+01,6.529581970302739125e-02
4.720000000000000284e+01,7.500248773563701621e-02
4.724000000000000199e+01,7.740648066816553652e-02
4.728000000000000114e+01,7.623679012548213729e-02
4.732000000000000028e+01,8.345726138407223715e-02
4.735999999999999943e+01,8.865779772357706978e-02
4.739999999999999858e+01,9.447976858846378334e-02
4.743999999999999773e+01,9.968017849319169010e-02
4.747999999999999687e+01,1.112508856038363775e-01
4.752000000000000313e+01,1.148974282700315208e-01
4.756000000000000227e+01,1.252250199206677572e-01
4.760000000000000142e+01,1.326004368213879459e-01
4.764000000000000057e+01,1.404419214026605411e-01
4.767999999999999972e+01,1.436221132489373664e-01
4.771999999999999886e+01,1.468022515682894102e-01
4.775999999999999801e+01,1.621015562344023941e-01
4.779999999999999716e+01,1.668353373480934154e-01
4.784000000000000341e+01,1.608482216042239621e-01
4.788000000000000256e+01,1.575024256540822898e-01
4.792000000000000171e+01,1.496507193185160622e-01
4.796000000000000085e+01,1.385361006671895767e-01
4.800000000000000000e+01,1.263338153529689756e-01
4.803999999999999915e+01,1.128884900707157329e-01
4.807999999999999829e+01,9.820012611249170909e-02
4.811999999999999744e+01,8.320097235356055387e-02
4.815999999999999659e+01,7.301839179359416454e-02
4.820000000000000284e+01,6.687551273865291468e-02
4.824000000000000199e+01,5.436223846837805185e-02
4.828000000000000114e+01,4.837466184245680506e-02
4.832000000000000028e+01,4.005643211253362423e-02
4.835999999999999943e+01,3.748702962508619618e-02
4.839999999999999858e+01,3.289772581216105635e-02
4.843999999999999773e+01,3.405725182583533434e-02
4.847999999999999687e+01,2.931251416814789970e-02
4.852000000000000313e+01,2.099413308916518728e-02
4.856000000000000227e+01,2.619331557298268040e-02
4.860000000000000142e+01,2.812960641402912840e-02
4.864000000000000057e+01,2.509388633516301814e-02
4.867999999999999972e+01,2.034902316965259486e-02
4.871999999999999886e+01,1.964387830597101939e-02
4.875999999999999801e+01,1.893871350897217282e-02
4.879999999999999716e+01,1.574753651551293737e-02
4.884000000000000341e+01,1.908207525527293516e-02
4.888000000000000256e+01,1.573549025828794093e-02
4.892000000000000171e+01,1.984687116184767966e-02
4.896000000000000085e+01,1.448038816318058912e-02
4.900000000000000000e+01,1.253213412197388965e-02
4.903999999999999915e+01,1.415748492748973575e-02
4.907999999999999829e+01,1.422908016417983104e-02
4.911999999999999744e+01,1.057167676330174506e-02
4.915999999999999659e+01,1.452762161253963631e-02
4.920000000000000284e+01,1.102558007552562579e-02
4.924000000000000199e+01,1.311701960914728529e-02
4.928000000000000114e+01,1.443158302025385545e-02
4.932000000000000028e+01,7.822040129693102334e-03
4.935999999999999943e+01,1.348708986556666246e-02
4.939999999999999858e+01,8.120543939890395579e-03
4.943999999999999773e+01,1.285334886396781971e-02
4.947999999999999687e+01,1.510016355663591943e-02
4.952000000000000313e+01,1.066587518554828855e-02
4.956000000000000227e+01,1.058208144398846938e-02
4.960000000000000142e+01,8.323050541605425678e-03
4.964000000000000057e+01,1.290051040807878649e-02
4.967999999999999972e+01,8.000129629438159501e-03
4.971999999999999886e+01,8.693245426175132129e-03
4.975999999999999801e+01,9.541748188340784878e-03
4.979999999999999716e+01,8.991893235993876285e-03
4.984000000000000341e+01,7.665180249997483389e-03
4.988000000000000256e+01,6.493858105615255179e-03
4.992000000000000171e+01,7.497797858512989487e-03
4.996000000000000085e+01,8.812505634348875502e-03
5.000000000000000000e+01,9.505735141982841682e-03
5.003999999999999915e+01,9.577487673476769992e-03
5.007999999999999829e+01,9.649262909693681958e-03
5.011999999999999744e+01,9.876436739895742487e-03
5.015999999999999659e+01,4.976274151334347112e-03
5.020000000000000284e+01,1.048623615610191212e-02
5.024000000000000199e+01,8.382870771024801895e-03
5.028000000000000114e+01,9.542401092186222900e-03
5.032000000000000028e+01,7.283720732034899316e-03
5.035999999999999943e+01,7.511065676244239354e-03
5.039999999999999858e+01,8.826065842073309645e-03
5.043999999999999773e+01,5.790611619573277427e-03
5.047999999999999687e+01,5.085811980419072294e-03
5.052000000000000313e+01,6.867042813872882567e-03
5.056000000000000227e+01,7.249940481988842791e-03
5.060000000000000142e+01,5.302258693626922190e-03
5.064000000000000057e+01,3.976116087654830468e-03
5.067999999999999972e+01,8.554250260944749537e-03
5.071999999999999886e+01,8.315815298737417455e-03
5.075999999999999801e+01,6.057555242700162108e-03
5.079999999999999716e+01,8.771328258908557898e-03
5.084000000000000341e+01,8.843780376609468308e-03
5.088000000000000256e+01,1.047002701227294982e-02
5.092000000000000171e+01,7.901209361549537888e-03
5.096000000000000085e+01,7.041563410112684079e-03
5.100000000000000000e+01,9.134087227626644032e-03
5.103999999999999915e+01,9.362169592943772253e-03
5.107999999999999829e+01,5.239818242921004746e-03
5.111999999999999744e+01,1.028462442604676820e-02
5.115999999999999659e+01,9.425253505953251273e-03
5.120000000000000284e+01,7.478319287911695118e-03
5.124000000000000199e+01,4.754572258384603088e-03
5.128000000000000114e+01,1.042111494425184554e-02
5.132000000000000028e+01,9.251238111945231032e-03
5.135999999999999943e+01,7.149177747138244117e-03
5.139999999999999858e+01,8.931547655102173647e-03
5.143999999999999773e+01,1.273385396149516804e-02
5.147999999999999687e+01,5.349257196353112212e-03
5.152000000000000313e+01,6.510332496176609966e-03
5.156000000000000227e+01,1.015747186221559704e-02
5.160000000000000142e+01,5.725203976911098780e-03
5.164000000000000057e+01,6.109621699950310361e-03
5.167999999999999972e+01,8.980107365390481086e-03
5.171999999999999886e+01,7.810929182880614607e-03
5.175999999999999801e+01,1.549818001210787229e-02
5.179999999999999716e+01,8.269547773487331832e-03
5.184000000000000341e+01,9.275848741926396787e-03
5.188000000000000256e+01,8.728484585867566162e-03
5.192000000000000171e+01,7.559704180574534048e-03
5.196000000000000085e+01,7.478629387312509848e-03
5.200000000000000000e+01,1.143737884494914168e-02
5.203999999999999915e+01,8.870481235925415861e-03
5.207999999999999829e+01,6.614420129116618634e-03
5.211999999999999744e+01,9.019685538193206523e-03
5.215999999999999659e+01,6.763802923198562918e-03
5.220000000000000284e+01,8.081627227810783340e-03
5.224000000000000199e+01,8.933420216883735873e-03
5.228000000000000114e+01,8.853059390878317489e-03
5.232000000000000028e+01,6.131425472652976896e-03
5.235999999999999943e+01,8.847998808685465094e-03
5.239999999999999858e+01,6.748057275817449623e-03
5.243999999999999773e+01,6.046586054122940999e-03
5.247999999999999687e+01,4.257592880458893440e-03
5.252000000000000313e+01,9.460558101303064016e-03
5.256000000000000227e+01,8.293267649490915910e-03
5.260000000000000142e+01,9.456700260301454178e-03
5.264000000000000057e+01,1.201860964259467666e-02
5.267999999999999972e+01,6.190397464813071106e-03
5.271999999999999886e+01,8.441772322250951782e-03
5.275999999999999801e+01,4.789021758942599814e-03
5.279999999999999716e+01,8.594362426176182373e-03
5.284000000000000341e+01,9.447697603592958293e-03
5.288000000000000256e+01,1.061189512446122397e-02
5.292000000000000171e+01,6.648845378832116300e-03
5.296000000000000085e+01,1.061001582359310386e-02
5.300000000000000000e+01,8.511694002778510265e-03
5.303999999999999915e+01,1.107472841527129721e-02
5.307999999999999829e+01,1.317175864552315619e-02
5.311999999999999744e+01,1.402591299959437925e-02
5.315999999999999659e+01,1.425869115834808333e-02
5.320000000000000284e+01,2.226032266266254889e-02
5.324000000000000199e+01,3.026207894458430789e-02
5.328000000000000114e+01,2.894148546415686515e-02
5.332000000000000028e+01,2.435815280425396995e-02
5.335999999999999943e+01,2.288244074214997037e-02
5.339999999999999858e+01,2.560197275030884692e-02
5.343999999999999773e+01,2.474802026077715239e-02
5.347999999999999687e+01,2.156358134321912853e-02
5.352000000000000313e+01,1.760240326169965758e-02
5.356000000000000227e+01,1.503973166908490269e-02
5.360000000000000142e+01,1.418631705183725361e-02
5.364000000000000057e+01,1.146854496641147927e-02
5.367999999999999972e+01,1.108153082927773245e-02
5.371999999999999886e+01,1.333602512689843755e-02
5.375999999999999801e+01,1.077404848572068898e-02
5.379999999999999716e+01,1.256270343262439089e-02
5.384000000000000341e+01,9.379515427653046383e-03
5.388000000000000256e+01,7.750218845281278690e-03
5.392000000000000171e+01,8.917811755173378138e-03
5.396000000000000085e+01,1.334841924099213796e-02
5.400000000000000000e+01,9.699696999176960627e-03
5.403999999999999915e+01,1.211073466701758326e-02
5.407999999999999829e+01,8.773064149352543042e-03
5.411999999999999744e+01,9.475286361862995596e-03
5.415999999999999659e+01,1.002228847220244627e-02
5.420000000000000284e+01,5.597459259223262588e-03
5.424000000000000199e+01,1.127213594341697385e-02
5.428000000000000114e+01,1.181960929121536781e-02
5.432000000000000028e+01,8.949001163883663415e-03
5.435999999999999943e+01,9.652169727497489707e-03
5.439999999999999858e+01,1.004475134411096475e-02
5.443999999999999773e+01,1.074824569458716732e-02
5.447999999999999687e+01,7.567539946579661739e-03
5.452000000000000313e+01,8.737489043766522717e-03
5.456000000000000227e+01,9.130732570599417453e-03
5.460000000000000142e+01,1.123326537434510448e-02
5.464000000000000057e+01,8.674730261852902496e-03
5.467999999999999972e+01,1.046685516280229655e-02
5.471999999999999886e+01,8.219413120438650439e-03
5.475999999999999801e+01,1.141025585604246891e-02
5.479999999999999716e+01,7.298667691250439703e-03
5.484000000000000341e+01,1.002373826335224878e-02
5.488000000000000256e+01,1.119524061559324171e-02
5.492000000000000171e+01,9.725553859633041462e-03
5.496000000000000085e+01,1.058666639794329616e-02
5.500000000000000000e+01,1.408932871698644236e-02
5.503999999999999915e+01,8.580447318801392997e-03
5.507999999999999829e+01,1.161735297908448108e-02
5.511999999999999744e+01,1.092545381107339585e-02
5.515999999999999659e+01,9.922992245236733969e-03
5.520000000000000284e+01,1.156208692044207592e-02
5.524000000000000199e+01,9.938504435139640381e-03
5.528000000000000114e+01,1.080110617780260206e-02
5.532000000000000028e+01,7.158036566478962262e-03
5.535999999999999943e+01,7.865648933648038479e-03
5.539999999999999858e+01,8.573455849763055719e-03
5.543999999999999773e+01,1.052445538448835115e-02
5.547999999999999687e+01,1.076653148307985669e-02
5.552000000000000313e+01,1.194105359000462684e-02
5.556000000000000227e+01,8.765286692514143857e-03
5.560000000000000142e+01,9.629460331486669120e-03
5.564000000000000057e+01,1.173683304937857275e-02
5.567999999999999972e+01,9.338546041840369363e-03
5.571999999999999886e+01,1.160170183575189896e-02
5.575999999999999801e+01,8.582327502355428794e-03
5.579999999999999716e+01,9.758274762931432381e-03
5.584000000000000341e+01,1.264355135433689083e-02
5.588000000000000256e+01,1.148929847222225284e-02
5.592000000000000171e+01,1.251050129666159832e-02
5.596000000000000085e+01,1.337654216171219393e-02
5.600000000000000000e+01,1.470892074823706118e-02
5.603999999999999915e+01,1.060340365468638059e-02
5.607999999999999829e+01,8.517972838736733235e-03
5.611999999999999744e+01,1.000637556445294063e-02
5.615999999999999659e+01,9.164378430285224919e-03
5.620000000000000284e+01,1.205159201910738567e-02
5.624000000000000199e+01,8.568668804961283164e-03
5.628000000000000114e+01,1.456381899434000017e-02
5.632000000000000028e+01,9.838346243265579105e-03
5.635999999999999943e+01,1.350332729943751198e-02
5.639999999999999858e+01,1.421641785929522381e-02
5.643999999999999773e+01,1.104537163169874193e-02
5.647999999999999687e+01,9.428300810720642230e-03
5.652000000000000313e+01,9.054457494022069911e-03
5.656000000000000227e+01,9.923842973664876582e-03
5.660000000000000142e+01,1.188108394451062658e-02
5.664000000000000057e+01,1.244018814341616916e-02
5.667999999999999972e+01,1.113503307084248717e-02
5.671999999999999886e+01,1.122848656005777206e-02
5.675999999999999801e+01,1.178830231992208759e-02
5.679999999999999716e+01,1.157148486489472869e-02
5.684000000000000341e+01,1.197640686184031113e-02
5.688000000000000256e+01,1.346919339442163681e-02
5.692000000000000171e+01,1.092248404709034518e-02
5.696000000000000085e+01,1.365875594392667626e-02
5.700000000000000000e+01,1.530765189177991058e-02
5.703999999999999915e+01,1.322780503030663614e-02
5.707999999999999829e+01,1.518794651158399470e-02
5.711999999999999744e+01,1.326397317045822748e-02
5.715999999999999659e+01,1.134025122899882596e-02
5.720000000000000284e+01,1.299039771487460124e-02
5.724000000000000199e+01,1.339780140693792518e-02
5.728000000000000114e+01,1.302858738885154938e-02
5.732000000000000028e+01,1.607787107708553292e-02
5.735999999999999943e+01,1.182480655688060434e-02
5.739999999999999858e+01,1.285473749352340767e-02
5.743999999999999773e+01,1.139893531906041070e-02
5.747999999999999687e+01,1.522613118556876907e-02
5.752000000000000313e+01,1.190635860908586564e-02
5.756000000000000227e+01,1.107284390809242999e-02
5.760000000000000142e+01,1.241483918024972183e-02
5.764000000000000057e+01,1.313560296801405403e-02
5.767999999999999972e+01,1.401200954944880825e-02
5.771999999999999886e+01,1.193656827260960486e-02
5.775999999999999801e+01,1.421188649797274460e-02
5.779999999999999716e+01,1.648747679599146462e-02
5.784000000000000341e+01,1.208223277911438069e-02
5.788000000000000256e+01,1.249387593222602531e-02
5.792000000000000171e+01,1.585791238098455819e-02
5.796000000000000085e+01,1.223036919663214595e-02
5.800000000000000000e+01,1.497346303045700606e-02
5.803999999999999915e+01,1.507546853690317455e-02
5.807999999999999829e+01,1.424550757723590418e-02
5.811999999999999744e+01,1.263895604071726443e-02
5.815999999999999659e+01,1.584930071862010112e-02
5.820000000000000284e+01,1.455406707098794161e-02
5.824000000000000199e+01,1.558973866669598890e-02
5.828000000000000114e+01,1.305208210419449982e-02
5.832000000000000028e+01,1.191308578595510863e-02
5.835999999999999943e+01,1.714473811444937323e-02
5.839999999999999858e+01,1.383107905050977304e-02
5.843999999999999773e+01,1.828644259223026827e-02
5.847999999999999687e+01,1.450724652004120249e-02
5.852000000000000313e+01,1.336971393002575441e-02
5.856000000000000227e+01,1.533996990584671725e-02
5.860000000000000142e+01,1.435840644875400335e-02
5.864000000000000057e+01,1.508626276681853881e-02
5.867999999999999972e+01,1.503754659689731515e-02
5.871999999999999886e+01,1.359076084225093427e-02
5.875999999999999801e+01,1.431952253054823154e-02
5.879999999999999716e+01,1.473783939864615512e-02
5.884000000000000341e+01,1.764245548821203463e-02
5.888000000000000256e+01,1.557539142569304598e-02
5.892000000000000171e+01,1.615000376596592915e-02
5.896000000000000085e+01,1.548192887108493405e-02
5.900000000000000000e+01,1.730015836591923886e-02
5.903999999999999915e+01,1.647733183492049169e-02
5.907999999999999829e+01,1.720856469455883664e-02
5.911999999999999744e+01,1.856161065369429236e-02
5.915999999999999659e+01,1.634135687998035727e-02
5.920000000000000284e+01,1.505366798428776215e-02
5.924000000000000199e+01,1.811678639708508981e-02
5.928000000000000114e+01,1.589748838401514736e-02
5.932000000000000028e+01,1.663062888875601122e-02
5.935999999999999943e+01,1.534422209295970355e-02
5.939999999999999858e+01,1.903012616270186377e-02
5.943999999999999773e+01,1.448150162801822502e-02
5.947999999999999687e+01,1.630356191779943828e-02
5.952000000000000313e+01,1.734907685289327484e-02
5.956000000000000227e+01,2.025941587776670591e-02
5.960000000000000142e+01,1.897497099366964035e-02
5.964000000000000057e+01,1.893385439467466097e-02
5.967999999999999972e+01,1.811619760923952396e-02
5.971999999999999886e+01,1.667737652662643413e-02
5.975999999999999801e+01,2.067700172970913727e-02
5.979999999999999716e+01,1.830660512332622433e-02
5.984000000000000341e+01,1.764566705395538906e-02
5.988000000000000256e+01,1.527594767525181085e-02
5.992000000000000171e+01,1.865542894489189557e-02
5.996000000000000085e+01,1.986000769772188965e-02
