2.003999999999999915e+01,4.816356211814376738e-03
2.007999999999999829e+01,7.797761320239793292e-03
2.012000000000000099e+01,7.289588134444360649e-03
2.016000000000000014e+01,8.145603076147065608e-03
2.019999999999999929e+01,6.573803478223037150e-03
2.023999999999999844e+01,5.607793848945520458e-03
2.028000000000000114e+01,2.213972318457946460e-03
2.032000000000000028e+01,9.588514078400311655e-03
2.035999999999999943e+01,3.614275094915959767e-03
2.039999999999999858e+01,5.071438532306888833e-03
2.044000000000000128e+01,5.465916780399879618e-03
2.048000000000000043e+01,7.831314347468041129e-03
2.051999999999999957e+01,1.368443414725198544e-02
2.055999999999999872e+01,7.705581394182842159e-03
2.060000000000000142e+01,7.034615425684795711e-03
2.064000000000000057e+01,1.182321772041938952e-02
2.067999999999999972e+01,2.504649028127114638e-03
2.071999999999999886e+01,1.199350526936898524e-02
2.076000000000000156e+01,1.283567890231697949e-02
2.080000000000000071e+01,7.306373637978022528e-03
2.083999999999999986e+01,8.601764667992077909e-03
2.087999999999999901e+01,1.550841203594151979e-02
2.092000000000000171e+01,7.094455056487631792e-03
2.096000000000000085e+01,6.566959445184244321e-03
2.100000000000000000e+01,1.195408444834744621e-02
2.103999999999999915e+01,1.066637815056664142e-02
2.107999999999999829e+01,9.681129205899162427e-03
2.112000000000000099e+01,1.597562626840220643e-02
2.116000000000000014e+01,1.104489120398882175e-02
2.119999999999999929e+01,6.113257131406978594e-03
2.123999999999999844e+01,7.096251588541247456e-03
2.128000000000000114e+01,9.595151270455990616e-03
2.132000000000000028e+01,5.722589204791015891e-03
2.135999999999999943e+01,1.140498345334465917e-02
2.139999999999999858e+01,1.086759875218824486e-02
2.144000000000000128e+01,1.063268327701940609e-02
2.148000000000000043e+01,1.267208041993842307e-02
2.151999999999999957e+01,6.823220816786560762e-03
2.155999999999999872e+01,9.619243167175182962e-03
2.160000000000000142e+01,8.470695555693625103e-03
2.164000000000000057e+01,1.460191110108981921e-02
2.167999999999999972e+01,1.527175772849998121e-02
2.171999999999999886e+01,1.336215978674389245e-02
2.176000000000000156e+01,1.721552736495795752e-02
2.180000000000000071e+01,1.151216567757323839e-02
2.183999999999999986e+01,1.460537533763996663e-02
2.187999999999999901e+01,1.466410522701372572e-02
2.192000000000000171e+01,1.684548208631291011e-02
2.196000000000000085e+01,1.144197702973841560e-02
2.200000000000000000e+01,1.377328748127569155e-02
2.203999999999999915e+01,8.216358336449354483e-03
2.207999999999999829e+01,1.297281004885634734e-02
2.212000000000000099e+01,1.439142958691341442e-02
2.216000000000000014e+01,1.778102385069216945e-02
2.219999999999999929e+01,1.540590602728557704e-02
2.223999999999999844e+01,6.811036957542287128e-03
2.228000000000000114e+01,1.747868474881473719e-02
2.232000000000000028e+01,2.192658393216692994e-02
2.235999999999999943e+01,1.954801518899416252e-02
2.239999999999999858e+01,1.595514573827456345e-02
2.244000000000000128e+01,1.327149913156173457e-02
2.248000000000000043e+01,1.817100370400639639e-02
2.251999999999999957e+01,1.290708211878788259e-02
2.255999999999999872e+01,1.204103100262535544e-02
2.260000000000000142e+01,1.754469374761926867e-02
2.264000000000000057e+01,1.682861843835895335e-02
2.267999999999999972e+01,1.732513420726130779e-02
2.271999999999999886e+01,1.706240030064256133e-02
2.276000000000000156e+01,1.073161245684757167e-02
2.280000000000000071e+01,1.896127368072518179e-02
2.283999999999999986e+01,1.824096057623149011e-02
2.287999999999999901e+01,2.389037056735187486e-02
2.292000000000000171e+01,1.497764296874769599e-02
2.296000000000000085e+01,1.926024827956987484e-02
2.300000000000000000e+01,1.004247975525658469e-02
2.303999999999999915e+01,1.735701028675749533e-02
2.307999999999999829e+01,1.420477281060421315e-02
2.312000000000000099e+01,1.681554570750159322e-02
2.316000000000000014e+01,1.897044375907512223e-02
2.319999999999999929e+01,1.854594605218768538e-02
2.323999999999999844e+01,1.599709438440719000e-02
2.328000000000000114e+01,1.450917342345996522e-02
2.332000000000000028e+01,1.150362177784924715e-02
2.335999999999999943e+01,1.426108842053867669e-02
2.339999999999999858e+01,1.944461116276525667e-02
2.344000000000000128e+01,1.370633729185224796e-02
2.348000000000000043e+01,1.585460789920946703e-02
2.351999999999999957e+01,1.815373617193007452e-02
2.355999999999999872e+01,8.620990832416313213e-03
2.360000000000000142e+01,1.744072493107115887e-02
2.364000000000000057e+01,1.124330470739011607e-02
2.367999999999999972e+01,1.475259747145950956e-02
2.371999999999999886e+01,1.340730923497661028e-02
2.376000000000000156e+01,1.721833184106342368e-02
2.380000000000000071e+01,1.890501895517272476e-02
2.383999999999999986e+01,1.588880918580773752e-02
2.387999999999999901e+01,1.560203166538538973e-02
2.392000000000000171e+01,1.971316946709957343e-02
2.396000000000000085e+01,1.699789211061888961e-02
2.400000000000000000e+01,1.382676761218756475e-02
2.403999999999999915e+01,1.793548542312907793e-02
2.407999999999999829e+01,2.022323729545731988e-02
2.412000000000000099e+01,9.769053067747357835e-03
2.416000000000000014e+01,1.129680005008538123e-02
2.419999999999999929e+01,2.708168195347821980e-02
2.423999999999999844e+01,1.981038087163735154e-02
2.428000000000000114e+01,1.815044826043317808e-02
2.432000000000000028e+01,1.330443619078606858e-02
2.435999999999999943e+01,1.998532144886856071e-02
2.439999999999999858e+01,1.635116239262233637e-02
2.444000000000000128e+01,1.241285086516953629e-02
2.448000000000000043e+01,1.909135966635156292e-02
2.451999999999999957e+01,1.727499002426859109e-02
2.455999999999999872e+01,2.076663776837360878e-02
2.460000000000000142e+01,2.562262007209059611e-02
2.464000000000000057e+01,8.332513539375868347e-03
2.467999999999999972e+01,1.440036732540927664e-02
2.471999999999999886e+01,1.470359213437721392e-02
2.476000000000000156e+01,1.364091390963191076e-02
2.480000000000000071e+01,2.547026895898601984e-02
2.483999999999999986e+01,2.031066718935972334e-02
2.487999999999999901e+01,1.681876953270966535e-02
2.492000000000000171e+01,2.364034639707877916e-02
2.496000000000000085e+01,1.680993390806347770e-02
2.500000000000000000e+01,1.756275570832549829e-02
2.503999999999999915e+01,1.801144482550471118e-02
2.507999999999999829e+01,1.830768273826251236e-02
2.512000000000000099e+01,1.678298901182156619e-02
2.516000000000000014e+01,8.280239543980024222e-03
2.519999999999999929e+01,1.661322068810465458e-02
2.523999999999999844e+01,1.736142809143218987e-02
2.528000000000000114e+01,1.295174562442273115e-02
2.532000000000000028e+01,1.764210959488902997e-02
2.535999999999999943e+01,1.429266330382324146e-02
2.539999999999999858e+01,1.791974385630436956e-02
2.544000000000000128e+01,1.017005327769868357e-02
2.548000000000000043e+01,1.273385568902763755e-02
2.551999999999999957e+01,1.908890555301020683e-02
2.555999999999999872e+01,1.952767398384737743e-02
2.560000000000000142e+01,9.803117836056595563e-03
2.564000000000000057e+01,1.843110840605517026e-02
2.567999999999999972e+01,1.568233576021647521e-02
2.571999999999999886e+01,1.338785365510134460e-02
2.576000000000000156e+01,1.458126659898285535e-02
2.580000000000000071e+01,1.274032905457997064e-02
2.583999999999999986e+01,9.988564573446342618e-03
2.587999999999999901e+01,8.752857026041956090e-03
2.592000000000000171e+01,1.585881490697086879e-02
2.596000000000000085e+01,1.264977992269294277e-02
2.600000000000000000e+01,8.833283597423666894e-03
2.603999999999999915e+01,1.866726223897584649e-02
2.607999999999999829e+01,1.181568527590984297e-02
2.612000000000000099e+01,1.269905969940543500e-02
2.616000000000000014e+01,1.509850029108807459e-02
2.619999999999999929e+01,2.037912980524514070e-02
2.623999999999999844e+01,1.246285265904157648e-02
2.628000000000000114e+01,1.561849568420385463e-02
2.632000000000000028e+01,1.543644505188251914e-02
2.635999999999999943e+01,1.146166160292612542e-02
2.639999999999999858e+01,1.097479431029836291e-02
2.644000000000000128e+01,1.761616832008526881e-02
2.648000000000000043e+01,1.834129123851650431e-02
2.651999999999999957e+01,9.509840557922564358e-03
2.655999999999999872e+01,1.675576454510911001e-02
2.660000000000000142e+01,1.232159533934166704e-02
2.664000000000000057e+01,8.645107334994104470e-03
2.667999999999999972e+01,1.331030982393656067e-02
2.671999999999999886e+01,1.478951200693118077e-02
2.676000000000000156e+01,1.869488110295603953e-02
2.680000000000000071e+01,1.243696519660050966e-02
2.683999999999999986e+01,1.816106888724580704e-02
2.687999999999999901e+01,1.372189021392725312e-02
2.692000000000000171e+01,1.155720357101869961e-02
2.696000000000000085e+01,5.448123740145567259e-03
2.700000000000000000e+01,1.116938862365305513e-02
2.703999999999999915e+01,1.582818598722395345e-02
2.707999999999999829e+01,1.335731077193707227e-02
2.712000000000000099e+01,1.528445641544679337e-02
2.716000000000000014e+01,1.129537339414114251e-02
2.719999999999999929e+01,1.049087259442263442e-02
2.723999999999999844e+01,1.544951804620462756e-02
2.728000000000000114e+01,5.087768904695183676e-03
2.732000000000000028e+01,1.034837901756325597e-02
2.735999999999999943e+01,7.872605148218303484e-03
2.739999999999999858e+01,8.457319643866199974e-04
2.744000000000000128e+01,1.323322597888823213e-02
2.748000000000000043e+01,1.136209311231226905e-02
2.751999999999999957e+01,5.243225207780781959e-03
2.755999999999999872e+01,3.067352194976951871e-03
2.760000000000000142e+01,6.351276987641409078e-03
2.764000000000000057e+01,8.269393729586618433e-03
2.767999999999999972e+01,7.304902145488473969e-03
2.771999999999999886e+01,9.373329773231563536e-03
2.776000000000000156e+01,1.523307872929033878e-02
2.780000000000000071e+01,6.682531198484261380e-03
2.783999999999999986e+01,5.411951301834848696e-03
2.787999999999999901e+01,1.126966019909714928e-02
2.792000000000000171e+01,8.177562307436006539e-03
2.796000000000000085e+01,1.691584079115347403e-02
2.800000000000000000e+01,9.120307151702002763e-03
2.803999999999999915e+01,1.012154933698089336e-02
2.807999999999999829e+01,1.066707893955072713e-02
2.812000000000000099e+01,5.751452016662895669e-03
2.816000000000000014e+01,7.660762803238005403e-03
2.819999999999999929e+01,5.625721297304349736e-03
2.823999999999999844e+01,9.050498704170987715e-03
2.828000000000000114e+01,1.095780900819718143e-02
2.832000000000000028e+01,4.825406672101889734e-03
2.835999999999999943e+01,1.082675422237418771e-02
2.839999999999999858e+01,1.076023384383358386e-02
2.844000000000000128e+01,1.592243666623598250e-03
2.848000000000000043e+01,6.833209725204485684e-03
2.851999999999999957e+01,4.489510218064907653e-03
2.855999999999999872e+01,7.605640177391637287e-03
2.860000000000000142e+01,1.481647948731375578e-02
2.864000000000000057e+01,7.768730173197588816e-03
2.867999999999999972e+01,8.456016674971063643e-03
2.871999999999999886e+01,1.247961568769850871e-02
2.876000000000000156e+01,1.331728167409890196e-02
2.880000000000000071e+01,1.036229531556747373e-02
2.883999999999999986e+01,8.923463512175936613e-03
2.887999999999999901e+01,1.324783204782316488e-02
2.892000000000000171e+01,2.706900556076924456e-03
2.896000000000000085e+01,8.698463362965935114e-03
2.900000000000000000e+01,8.470497869712594052e-03
2.903999999999999915e+01,7.180130816935311779e-03
2.907999999999999829e+01,1.028784926415892559e-02
2.912000000000000099e+01,9.299565601210249208e-03
2.916000000000000014e+01,7.855604974175332822e-03
2.919999999999999929e+01,1.096141396421929613e-02
2.923999999999999844e+01,8.757783526089866002e-03
2.928000000000000114e+01,1.110392534345582168e-02
2.932000000000000028e+01,9.657431965597252504e-03
2.935999999999999943e+01,5.176705508988625748e-03
2.939999999999999858e+01,1.025120052745701234e-02
2.944000000000000128e+01,8.347780959807640441e-03
2.948000000000000043e+01,4.775253706112074330e-03
2.951999999999999957e+01,9.392830450039128809e-03
2.955999999999999872e+01,7.790897362739400769e-03
2.960000000000000142e+01,8.311864533349189871e-03
2.964000000000000057e+01,1.247253487560919666e-02
2.967999999999999972e+01,5.559934241763469370e-03
2.971999999999999886e+01,1.062944818791258100e-02
2.976000000000000156e+01,9.782819217782640769e-03
2.980000000000000071e+01,8.328854231445194725e-03
2.983999999999999986e+01,8.391076780453830819e-03
2.987999999999999901e+01,1.634005488105290740e-02
2.992000000000000171e+01,6.845203223759703699e-03
2.996000000000000085e+01,7.057271669912269264e-03
3.000000000000000000e+01,8.785532928243966477e-03
3.003999999999999915e+01,8.541344650538525152e-03
3.007999999999999829e+01,8.448230388349549716e-03
3.012000000000000099e+01,8.657871620338519411e-03
3.016000000000000014e+01,3.103063287584127607e-03
3.019999999999999929e+01,3.159818668287581091e-03
3.023999999999999844e+01,6.401256530405287533e-03
3.028000000000000114e+01,7.973613090641856055e-03
3.032000000000000028e+01,7.876889668205490705e-03
3.035999999999999943e+01,6.869488379570709916e-03
3.039999999999999858e+01,1.359717963278032557e-02
3.044000000000000128e+01,3.942819393977617208e-03
3.048000000000000043e+01,6.573959119033028105e-03
3.051999999999999957e+01,5.564183384564661689e-03
3.055999999999999872e+01,5.767258612284465250e-03
3.060000000000000142e+01,9.913428991558967049e-03
3.064000000000000057e+01,7.233404520416424933e-03
3.067999999999999972e+01,4.401113534007660040e-03
3.071999999999999886e+01,1.082072723764171580e-02
3.076000000000000156e+01,8.290627816138153652e-03
3.080000000000000071e+01,5.304905518086633007e-03
3.083999999999999986e+01,1.384629425950125239e-02
3.087999999999999901e+01,7.067407136366977115e-03
3.092000000000000171e+01,6.051787631892285337e-03
3.096000000000000085e+01,8.372554514033583861e-03
3.100000000000000000e+01,8.720903521135782432e-03
3.103999999999999915e+01,7.855236769673297134e-03
3.107999999999999829e+01,9.870919884091895746e-03
3.112000000000000099e+01,1.704315657539835424e-02
3.116000000000000014e+01,4.799762331376163441e-03
3.119999999999999929e+01,5.448612434773582834e-03
3.123999999999999844e+01,1.019225895651096510e-02
3.128000000000000114e+01,8.261411894616568080e-03
3.132000000000000028e+01,3.903117032989348451e-03
3.135999999999999943e+01,5.611464620218946549e-03
3.139999999999999858e+01,9.746132148635889419e-03
3.144000000000000128e+01,3.869347862282783348e-03
3.148000000000000043e+01,7.851213968742241922e-03
3.151999999999999957e+01,1.168084126330871941e-02
3.155999999999999872e+01,1.004942548432707396e-02
3.160000000000000142e+01,9.630894966948124955e-03
3.164000000000000057e+01,6.178206565689375006e-03
3.167999999999999972e+01,1.212913467492473911e-02
3.171999999999999886e+01,3.518215420250631921e-03
3.176000000000000156e+01,1.417012567894768843e-02
3.180000000000000071e+01,9.046749936525868771e-03
3.183999999999999986e+01,9.231631676193662386e-03
3.187999999999999901e+01,6.837403925590927398e-03
3.192000000000000171e+01,1.050983709276052946e-02
3.196000000000000085e+01,1.114812292971634200e-02
3.200000000000000000e+01,1.011738419074580467e-02
3.203999999999999915e+01,9.541144427402508885e-03
3.207999999999999829e+01,8.509324002175237822e-03
3.211999999999999744e+01,1.142064885841623592e-02
3.215999999999999659e+01,7.354148834700470656e-03
3.220000000000000284e+01,8.292557847042142036e-03
3.224000000000000199e+01,7.258589879800458368e-03
3.228000000000000114e+01,1.229129470320539444e-02
3.232000000000000028e+01,7.919297372234734844e-03
3.235999999999999943e+01,9.310615151420705352e-03
3.239999999999999858e+01,1.388668664926649178e-02
3.243999999999999773e+01,6.934537718016093796e-03
3.247999999999999687e+01,9.386031681424815420e-03
3.252000000000000313e+01,1.062355869697415370e-02
3.256000000000000227e+01,1.170888120004502306e-02
3.260000000000000142e+01,3.541190942651344618e-03
3.264000000000000057e+01,9.327553640346932309e-03
3.267999999999999972e+01,1.298987371029669893e-02
3.271999999999999886e+01,1.787019077636822686e-03
3.275999999999999801e+01,1.181886901144644716e-02
3.279999999999999716e+01,4.255304010904626712e-03
3.284000000000000341e+01,3.516831067191107055e-03
3.288000000000000256e+01,7.783289586075234009e-03
3.292000000000000171e+01,1.068411418972925811e-02
3.296000000000000085e+01,6.607140297591560830e-03
3.300000000000000000e+01,6.018300231143927648e-03
3.303999999999999915e+01,7.855834193421885187e-03
3.307999999999999829e+01,1.060294190910131447e-02
3.311999999999999744e+01,9.557539754340059479e-03
3.315999999999999659e+01,1.442715925335366633e-02
3.320000000000000284e+01,7.920263547681128183e-03
3.324000000000000199e+01,1.127207627998419795e-02
3.328000000000000114e+01,1.037634394031983209e-02
3.332000000000000028e+01,7.204909920788463498e-03
3.335999999999999943e+01,9.341783513260197569e-03
3.339999999999999858e+01,9.506318383187915139e-03
3.343999999999999773e+01,6.181714255247426106e-03
3.347999999999999687e+01,5.435178826776525425e-03
3.352000000000000313e+01,1.151375788167420186e-02
3.356000000000000227e+01,4.850712169680831097e-03
3.360000000000000142e+01,6.832945492911384443e-03
3.364000000000000057e+01,6.236127371034434243e-03
3.367999999999999972e+01,3.211939282711442391e-03
3.371999999999999886e+01,3.524228606373773585e-03
3.375999999999999801e+01,1.293684272045276216e-02
3.379999999999999716e+01,7.180957431638376916e-03
3.384000000000000341e+01,1.022203925275064380e-02
3.388000000000000256e+01,9.773996587285510226e-03
3.392000000000000171e+01,9.173794262422414400e-03
3.396000000000000085e+01,1.099999630807470957e-02
3.400000000000000000e+01,1.146060005711965063e-02
3.403999999999999915e+01,7.673683799153974486e-03
3.407999999999999829e+01,5.251414753155742889e-03
3.411999999999999744e+01,1.162612205154192266e-02
3.415999999999999659e+01,1.360163314108900692e-02
3.420000000000000284e+01,1.117794934100521664e-02
3.424000000000000199e+01,1.239412042152046069e-02
3.428000000000000114e+01,6.329176221209788927e-03
3.432000000000000028e+01,8.302814164058614291e-03
3.435999999999999943e+01,1.103438791551970485e-02
3.439999999999999858e+01,1.133861544628328270e-02
3.443999999999999773e+01,9.367178235010825346e-03
3.447999999999999687e+01,7.698640311615655672e-03
3.452000000000000313e+01,9.063245865464355719e-03
3.456000000000000227e+01,7.545469997088822059e-03
3.460000000000000142e+01,1.103268231726575906e-02
3.464000000000000057e+01,3.750147562066508036e-03
3.467999999999999972e+01,7.994850490325543582e-03
3.471999999999999886e+01,1.542438365132288783e-02
3.475999999999999801e+01,7.078728432611938737e-03
3.479999999999999716e+01,9.350233898264566357e-03
3.484000000000000341e+01,7.677606059978047716e-03
3.488000000000000256e+01,7.217971658370754724e-03
3.492000000000000171e+01,1.237005663679490233e-02
3.496000000000000085e+01,1.403305274726436395e-02
3.500000000000000000e+01,1.038679939554853701e-02
3.503999999999999915e+01,2.341378857575078954e-03
3.507999999999999829e+01,1.340721716780437882e-02
3.511999999999999744e+01,8.849559130652840874e-03
3.515999999999999659e+01,7.325065678077161656e-03
3.520000000000000284e+01,6.861896056393515866e-03
3.524000000000000199e+01,9.280213498248980966e-03
3.528000000000000114e+01,9.271213741988446749e-03
3.532000000000000028e+01,8.655060020259040116e-03
3.535999999999999943e+01,3.791429825391272063e-03
3.539999999999999858e+01,6.966417392305783267e-03
3.543999999999999773e+01,1.347793909716037304e-02
3.547999999999999687e+01,6.944539038213477095e-03
3.552000000000000313e+01,1.148336388773839312e-02
3.556000000000000227e+01,8.741115671101409509e-03
3.560000000000000142e+01,1.631269420408654885e-02
3.564000000000000057e+01,1.099103640955641920e-02
3.567999999999999972e+01,1.279792465454687722e-02
3.571999999999999886e+01,1.323927132888477048e-02
3.575999999999999801e+01,1.003987535997977534e-02
3.579999999999999716e+01,1.230054763423447939e-02
3.584000000000000341e+01,9.707038628036870204e-03
3.588000000000000256e+01,7.264794922552088308e-03
3.592000000000000171e+01,9.675902780038839190e-03
3.596000000000000085e+01,9.052995228136880360e-03
3.600000000000000000e+01,9.643118050745181496e-03
3.603999999999999915e+01,8.260989218553973362e-03
3.607999999999999829e+01,8.546933877649218539e-03
3.611999999999999744e+01,1.034927318778598379e-02
3.615999999999999659e+01,8.662563206215603481e-03
3.620000000000000284e+01,7.430489397930541140e-03
3.624000000000000199e+01,1.044505706847001676e-02
3.628000000000000114e+01,7.847057172581739862e-03
3.632000000000000028e+01,6.007057726510038435e-03
3.635999999999999943e+01,7.958663238527882711e-03
3.639999999999999858e+01,6.724587692994584212e-03
3.643999999999999773e+01,1.186068245467244292e-02
3.647999999999999687e+01,1.017077497033788865e-02
3.652000000000000313e+01,7.115352299515771695e-03
3.656000000000000227e+01,1.225026580696844669e-02
3.660000000000000142e+01,1.010414054767375114e-02
3.664000000000000057e+01,1.099122868366019662e-02
3.667999999999999972e+01,1.354641009905688427e-02
3.671999999999999886e+01,1.200584005384896374e-02
3.675999999999999801e+01,1.046488417248217506e-02
3.679999999999999716e+01,9.681944571430919563e-03
3.684000000000000341e+01,1.132550432388912572e-02
3.688000000000000256e+01,1.145188060328080834e-02
3.692000000000000171e+01,1.354971839623870730e-02
3.696000000000000085e+01,1.276525391946742478e-02
3.700000000000000000e+01,1.213209168124001168e-02
3.703999999999999915e+01,9.071670290059626052e-03
3.707999999999999829e+01,1.116799903779649994e-02
3.711999999999999744e+01,8.865229198104788294e-03
3.715999999999999659e+01,1.278097325191952793e-02
3.720000000000000284e+01,5.168653862419955378e-03
3.724000000000000199e+01,1.060045818023907724e-02
3.728000000000000114e+01,8.447885838944603487e-03
3.732000000000000028e+01,1.281719298689603867e-02
3.735999999999999943e+01,1.157396818704250520e-02
3.739999999999999858e+01,1.488078344195927633e-02
3.743999999999999773e+01,8.631385241703327590e-03
3.747999999999999687e+01,7.083709894087455647e-03
3.752000000000000313e+01,1.706336589371562629e-02
3.756000000000000227e+01,1.020616474204035992e-02
3.760000000000000142e+01,8.809091197896100345e-03
3.764000000000000057e+01,1.438894817502347351e-02
3.767999999999999972e+01,5.407154350270758532e-03
3.771999999999999886e+01,7.345977830990405889e-03
3.775999999999999801e+01,9.436128615210665621e-03
3.779999999999999716e+01,1.182928818159304819e-02
3.784000000000000341e+01,1.088513402246804422e-02
3.788000000000000256e+01,1.039567144337489452e-02
3.792000000000000171e+01,1.036090176352184866e-02
3.796000000000000085e+01,4.865300083440835324e-03
3.800000000000000000e+01,1.044200510274315846e-02
3.803999999999999915e+01,1.222636251421965400e-02
3.807999999999999829e+01,1.234189586942389429e-02
3.811999999999999744e+01,1.124364696592386643e-02
3.815999999999999659e+01,1.014505839855373188e-02
3.820000000000000284e+01,1.890534185098228723e-02
3.824000000000000199e+01,1.446911440552541527e-02
3.828000000000000114e+01,1.109431236999586408e-02
3.832000000000000028e+01,9.842698179774563710e-03
3.835999999999999943e+01,1.344451602422805196e-02
3.839999999999999858e+01,1.537752036607532152e-02
3.843999999999999773e+01,1.518667204616487403e-02
3.847999999999999687e+01,1.332701286206469833e-02
3.852000000000000313e+01,1.753423226509823185e-02
3.856000000000000227e+01,1.703904025329375585e-02
3.860000000000000142e+01,1.259983894312569942e-02
3.864000000000000057e+01,1.559264161279527543e-02
3.867999999999999972e+01,2.010192336283439865e-02
3.871999999999999886e+01,1.763359658306991665e-02
3.875999999999999801e+01,1.546831024646554142e-02
3.879999999999999716e+01,1.633630854238788885e-02
3.884000000000000341e+01,2.084431342785811672e-02
3.888000000000000256e+01,2.262175952504844739e-02
3.892000000000000171e+01,1.484304097777134658e-02
3.896000000000000085e+01,2.147362429884690574e-02
3.900000000000000000e+01,1.854804561387154299e-02
3.903999999999999915e+01,1.835239915776588557e-02
3.907999999999999829e+01,2.012828545247201048e-02
3.911999999999999744e+01,2.326898517938518277e-02
3.915999999999999659e+01,2.731945917935395957e-02
3.920000000000000284e+01,2.530242143673758215e-02
3.924000000000000199e+01,2.191995821379470744e-02
3.928000000000000114e+01,2.384599784567612360e-02
3.932000000000000028e+01,2.531669559236698550e-02
3.935999999999999943e+01,3.224757899175186709e-02
3.939999999999999858e+01,2.734711118536977889e-02
3.943999999999999773e+01,2.153626497306214763e-02
3.947999999999999687e+01,3.013473777881440357e-02
3.952000000000000313e+01,3.478923162799286983e-02
3.956000000000000227e+01,3.307286528855395841e-02
3.960000000000000142e+01,3.332804884963408432e-02
3.964000000000000057e+01,3.782998602224006690e-02
3.967999999999999972e+01,3.429258520986779718e-02
3.971999999999999886e+01,3.818722399595591427e-02
3.975999999999999801e+01,4.208157588650397740e-02
3.979999999999999716e+01,4.612732236017344500e-02
3.984000000000000341e+01,5.396478856305030047e-02
3.988000000000000256e+01,5.361124321753691496e-02
3.992000000000000171e+01,6.463342821230941282e-02
3.996000000000000085e+01,7.171164876179884906e-02
4.000000000000000000e+01,7.803118953373154587e-02
4.003999999999999915e+01,9.178278045779061922e-02
4.007999999999999829e+01,1.044723339238029791e-01
4.011999999999999744e+01,1.270208227316100280e-01
4.015999999999999659e+01,1.600349688382330382e-01
4.020000000000000284e+01,1.932005227200599973e-01
4.024000000000000199e+01,2.391069389309179449e-01
4.028000000000000114e+01,3.097369513868210578e-01
4.032000000000000028e+01,3.903775859400134274e-01
4.035999999999999943e+01,4.860342891716601388e-01
4.039999999999999858e+01,6.117233981868401838e-01
4.043999999999999773e+01,7.179971823230058003e-01
4.047999999999999687e+01,8.119846103936674275e-01
4.052000000000000313e+01,8.909554408478751464e-01
4.056000000000000227e+01,9.367080558704483639e-01
4.060000000000000142e+01,9.827637720197611726e-01
4.064000000000000057e+01,1.000000000000000000e+00
4.067999999999999972e+01,9.721869640688765024e-01
4.071999999999999886e+01,9.351211831765633420e-01
4.075999999999999801e+01,8.636237521730311117e-01
4.079999999999999716e+01,7.786265343820349960e-01
4.084000000000000341e+01,6.781576890498912658e-01
4.088000000000000256e+01,5.840591604570744000e-01
4.092000000000000171e+01,5.039149578954547071e-01
4.096000000000000085e+01,4.158831397229741378e-01
4.100000000000000000e+01,3.566703058465247045e-01
4.103999999999999915e+01,3.117151622778036035e-01
4.107999999999999829e+01,2.697933785364796111e-01
4.111999999999999744e+01,2.208940654178469798e-01
4.115999999999999659e+01,1.788201187513588641e-01
4.120000000000000284e+01,1.564643534097487909e-01
4.124000000000000199e+01,1.339566698238506826e-01
4.128000000000000114e+01,1.147857129802972720e-01
4.132000000000000028e+01,9.895148419829687125e-02
4.135999999999999943e+01,8.872918718885623723e-02
4.139999999999999858e+01,8.275370183610451791e-02
4.143999999999999773e+01,6.980069765971025353e-02
4.147999999999999687e+01,6.245962921350056013e-02
4.152000000000000313e+01,5.648345335199295852e-02
4.156000000000000227e+01,5.020368964041010268e-02
4.160000000000000142e+01,5.014258625444951295e-02
4.164000000000000057e+01,4.644093414885890059e-02
4.167999999999999972e+01,4.486258070206957521e-02
4.171999999999999886e+01,3.858192005789404938e-02
4.175999999999999801e+01,4.003672661070620947e-02
4.179999999999999716e+01,3.436234605329682029e-02
4.184000000000000341e+01,3.384487262058655244e-02
4.188000000000000256e+01,3.074861949966841909e-02
4.192000000000000171e+01,2.977567295280110146e-02
4.196000000000000085e+01,2.501050808051651780e-02
4.200000000000000000e+01,2.691905720429643364e-02
4.203999999999999915e+01,2.685555255451445300e-02
4.207999999999999829e+01,2.709519784217742991e-02
4.211999999999999744e+01,2.885143566211951366e-02
4.215999999999999659e+01,2.969738478229713707e-02
4.220000000000000284e+01,2.402088062214868119e-02
4.224000000000000199e+01,1.864753167627819508e-02
4.228000000000000114e+01,2.556007186069980328e-02
4.232000000000000028e+01,2.048967698210348715e-02
4.235999999999999943e+01,1.193043728907889657e-02
4.239999999999999858e+01,2.324109865663311764e-02
4.243999999999999773e+01,2.378227019442007845e-02
4.247999999999999687e+01,1.916611912141789886e-02
4.252000000000000313e+01,1.712833488894999548e-02
4.256000000000000227e+01,2.039916168638294947e-02
4.260000000000000142e+01,1.684418807666588150e-02
4.264000000000000057e+01,1.935622893253234611e-02
4.267999999999999972e+01,1.731767441146387504e-02
4.271999999999999886e+01,1.998101555931630288e-02
4.275999999999999801e+01,1.945888540372944092e-02
4.279999999999999716e+01,1.453784398828562342e-02
4.284000000000000341e+01,1.947582762079759153e-02
4.288000000000000256e+01,1.789138039952375275e-02
4.292000000000000171e+01,1.827859257305377433e-02
4.296000000000000085e+01,1.684546147426490767e-02
4.300000000000000000e+01,1.859743368432230370e-02
4.303999999999999915e+01,2.171434860899533470e-02
4.307999999999999829e+01,1.861219959483029207e-02
4.311999999999999744e+01,1.414475306353909535e-02
4.315999999999999659e+01,1.968802229332294179e-02
4.320000000000000284e+01,1.734374978790783131e-02
4.324000000000000199e+01,1.772954802822876777e-02
4.328000000000000114e+01,1.599165323099034294e-02
4.332000000000000028e+01,1.470862942610588579e-02
4.335999999999999943e+01,1.524559936786280823e-02
4.339999999999999858e+01,1.365888022968513027e-02
4.343999999999999773e+01,1.343711699820556923e-02
4.347999999999999687e+01,7.906383976689903767e-03
4.352000000000000313e+01,1.344813970529620817e-02
4.356000000000000227e+01,1.049564493376485552e-02
4.360000000000000142e+01,1.527867804280070609e-02
4.364000000000000057e+01,1.611786807371258859e-02
4.367999999999999972e+01,1.513673857805409098e-02
4.371999999999999886e+01,1.263865119393997941e-02
4.375999999999999801e+01,1.408409298089508335e-02
4.379999999999999716e+01,1.264745808273188415e-02
4.384000000000000341e+01,1.090731052936371251e-02
4.388000000000000256e+01,1.326237626414276602e-02
4.392000000000000171e+01,1.501057166322685224e-02
4.396000000000000085e+01,1.463509645129187908e-02
4.400000000000000000e+01,1.001242971520068317e-02
4.403999999999999915e+01,9.181621225183247970e-03
4.407999999999999829e+01,1.032251038700891972e-02
4.411999999999999744e+01,1.358677867933921757e-02
4.415999999999999659e+01,1.290722104325280235e-02
4.420000000000000284e+01,1.450272533554072645e-02
4.424000000000000199e+01,1.245776665673492371e-02
4.428000000000000114e+01,1.071603047182788024e-02
4.432000000000000028e+01,1.822664750776893314e-02
4.435999999999999943e+01,1.481615787648553513e-02
4.439999999999999858e+01,8.826971667114068276e-03
4.443999999999999773e+01,1.178678231730900458e-02
4.447999999999999687e+01,1.216789902783238508e-02
4.452000000000000313e+01,1.315560646641049207e-02
4.456000000000000227e+01,1.080622180646735597e-02
4.460000000000000142e+01,1.604071784784444690e-02
4.464000000000000057e+01,1.247763868880017758e-02
4.467999999999999972e+01,1.270643888316169180e-02
4.471999999999999886e+01,1.096327369091408890e-02
4.475999999999999801e+01,1.665231431736648171e-02
4.479999999999999716e+01,1.536394693366940553e-02
4.484000000000000341e+01,1.544058162895926671e-02
4.488000000000000256e+01,1.430365701173923025e-02
4.492000000000000171e+01,1.180149424176431955e-02
4.496000000000000085e+01,1.324290021910615005e-02
4.500000000000000000e+01,1.316739052265637235e-02
4.503999999999999915e+01,1.612537125522040676e-02
4.507999999999999829e+01,1.513955640115752233e-02
4.511999999999999744e+01,1.779395525233787995e-02
4.515999999999999659e+01,1.604952067694809942e-02
4.520000000000000284e+01,1.218145638599498620e-02
4.524000000000000199e+01,1.786913597658624717e-02
4.528000000000000114e+01,1.460758131463492544e-02
4.532000000000000028e+01,1.437952631615517160e-02
4.535999999999999943e+01,1.748833261926171362e-02
4.539999999999999858e+01,1.726007452722028504e-02
4.543999999999999773e+01,1.081283032962756380e-02
4.547999999999999687e+01,1.589318000172083856e-02
4.552000000000000313e+01,1.475454620667934411e-02
4.556000000000000227e+01,1.801454142543804440e-02
4.560000000000000142e+01,1.414547485875907937e-02
4.564000000000000057e+01,1.057967563905936118e-02
4.567999999999999972e+01,1.611459433383506321e-02
4.571999999999999886e+01,1.679565759259638372e-02
4.575999999999999801e+01,2.035855486666679134e-02
4.579999999999999716e+01,2.073608109712497469e-02
4.584000000000000341e+01,1.914167887880508998e-02
4.588000000000000256e+01,1.800223208216724172e-02
4.592000000000000171e+01,2.368830872345568592e-02
4.596000000000000085e+01,2.224533545218069022e-02
4.600000000000000000e+01,2.474596522763696654e-02
4.603999999999999915e+01,2.451627235309022587e-02
4.607999999999999829e+01,2.201129862610845533e-02
4.611999999999999744e+01,2.618017477364101286e-02
4.615999999999999659e+01,3.034897509895361292e-02
4.620000000000000284e+01,2.951225565929763497e-02
4.624000000000000199e+01,2.897882335474467885e-02
4.628000000000000114e+01,3.284404380974047244e-02
4.632000000000000028e+01,2.988358654395356293e-02
4.635999999999999943e+01,4.072595456223272042e-02
4.639999999999999858e+01,3.928216175782906633e-02
4.643999999999999773e+01,4.390550874379275242e-02
4.647999999999999687e+01,5.034895237464140361e-02
4.652000000000000313e+01,5.330368838871986370e-02
4.656000000000000227e+01,5.959532528063213319e-02
4.660000000000000142e+01,5.875793336731299082e-02
4.664000000000000057e+01,7.187505613197088528e-02
4.667999999999999972e+01,7.983499480270599136e-02
4.671999999999999886e+01,8.764319596068340101e-02
4.675999999999999801e+01,1.062206324057446138e-01
4.679999999999999716e+01,1.125119212202055213e-01
4.684000000000000341e+01,1.423135813542388273e-01
4.688000000000000256e+01,1.652895822364049416e-01
4.692000000000000171e+01,1.878104918829481551e-01
4.696000000000000085e+01,2.144267163966738499e-01
4.700000000000000000e+01,2.475651396480421929e-01
4.703999999999999915e+01,2.705409454164050542e-01
4.707999999999999829e+01,3.012523938364529696e-01
4.711999999999999744e+01,3.268066726738688144e-01
4.715999999999999659e+01,3.356760911294147109e-01
4.720000000000000284e+01,3.389333021623852082e-01
4.724000000000000199e+01,3.573584889370825524e-01
4.728000000000000114e+01,3.518181716337791531e-01
4.732000000000000028e+01,3.335366833712229417e-01
4.735999999999999943e+01,3.193505231679317768e-01
4.739999999999999858e+01,3.065294494729556285e-01
4.743999999999999773e+01,2.768718444711140148e-01
4.747999999999999687e+01,2.660225469531263265e-01
4.752000000000000313e+01,2.369715993316105496e-01
4.756000000000000227e+01,2.039769379143793748e-01
4.760000000000000142e+01,1.819032196470585228e-01
4.764000000000000057e+01,1.684752434570576107e-01
4.767999999999999972e+01,1.415477073834119914e-01
4.771999999999999886e+01,1.273612803307403452e-01
4.775999999999999801e+01,1.125681095863657749e-01
4.779999999999999716e+01,1.014152409341873284e-01
4.784000000000000341e+01,8.768378915583037447e-02
4.788000000000000256e+01,7.941280402152488260e-02
4.792000000000000171e+01,6.992835983453654647e-02
4.796000000000000085e+01,6.256742142204491097e-02
4.800000000000000000e+01,6.066695361122947244e-02
4.803999999999999915e+01,4.830054097870836033e-02
4.807999999999999829e+01,4.685508732659657283e-02
4.811999999999999744e+01,4.010081691260576620e-02
4.815999999999999659e+01,3.455997791243343997e-02
4.820000000000000284e+01,3.660313834232393343e-02
4.824000000000000199e+01,3.106228357616156247e-02
4.828000000000000114e+01,3.158862928394609582e-02
4.832000000000000028e+01,2.635112434753314123e-02
4.835999999999999943e+01,2.566402092895120682e-02
4.839999999999999858e+01,2.694875763670348187e-02
4.843999999999999773e+01,2.125620638225711803e-02
4.847999999999999687e+01,2.072078124107945216e-02
4.852000000000000313e+01,2.155047954604782587e-02
4.856000000000000227e+01,1.858817719496028836e-02
4.860000000000000142e+01,1.881116284187414264e-02
4.864000000000000057e+01,1.751735286294719973e-02
4.867999999999999972e+01,1.531346921520066254e-02
4.871999999999999886e+01,1.356463465292197419e-02
4.875999999999999801e+01,1.606285448165033214e-02
4.879999999999999716e+01,1.628588316410469958e-02
4.884000000000000341e+01,1.165515930878827447e-02
4.888000000000000256e+01,1.400173667226194824e-02
4.892000000000000171e+01,1.270800541200725435e-02
4.896000000000000085e+01,9.594128760671290224e-03
4.900000000000000000e+01,9.817233458872452051e-03
4.903999999999999915e+01,1.216387955019306716e-02
4.907999999999999829e+01,1.299374452696365478e-02
4.911999999999999744e+01,9.728266997687388604e-03
4.915999999999999659e+01,1.055817689204745918e-02
4.920000000000000284e+01,1.305659297800026292e-02
4.924000000000000199e+01,1.267311179115689947e-02
4.928000000000000114e+01,8.345973534552901529e-03
4.932000000000000028e+01,1.054111052967008494e-02
4.935999999999999943e+01,1.212955660141443529e-02
4.939999999999999858e+01,1.022939003938262356e-02
4.943999999999999773e+01,9.239336786926880332e-03
4.947999999999999687e+01,6.125794974190634790e-03
4.952000000000000313e+01,9.079494530857112194e-03
4.956000000000000227e+01,8.392906571127211821e-03
4.960000000000000142e+01,1.043659911124522437e-02
4.964000000000000057e+01,9.598407570649596793e-03
4.967999999999999972e+01,7.546815022534138738e-03
4.971999999999999886e+01,7.012065656265465199e-03
4.975999999999999801e+01,1.466808780699434440e-02
4.979999999999999716e+01,5.942696962504242890e-03
4.984000000000000341e+01,6.621521549054108606e-03
4.988000000000000256e+01,5.480231086312472265e-03
4.992000000000000171e+01,1.055787534450928350e-02
4.996000000000000085e+01,6.231399219169149288e-03
5.000000000000000000e+01,1.009570252607603844e-02
5.003999999999999915e+01,1.198821590107121936e-02
5.007999999999999829e+01,1.160558034445643115e-02
5.011999999999999744e+01,5.155793189108959923e-03
5.015999999999999659e+01,1.099215504807899910e-02
5.020000000000000284e+01,8.941206033293975369e-03
5.024000000000000199e+01,8.862157828422707884e-03
5.028000000000000114e+01,6.356287128529485193e-03
5.032000000000000028e+01,4.760558760793850465e-03
5.035999999999999943e+01,7.260257392942059962e-03
5.039999999999999858e+01,4.451214458081526049e-03
5.043999999999999773e+01,9.074564669492602223e-03
5.047999999999999687e+01,7.934135473951723500e-03
5.052000000000000313e+01,4.973612336451375959e-03
5.056000000000000227e+01,5.653482316516414245e-03
5.060000000000000142e+01,7.395184022649989482e-03
5.064000000000000057e+01,7.771836222808575258e-03
5.067999999999999972e+01,4.811598163308288163e-03
5.071999999999999886e+01,5.795118817112880107e-03
5.075999999999999801e+01,5.413593922567210524e-03
5.079999999999999716e+01,4.273745436692471915e-03
5.084000000000000341e+01,6.925979462294127101e-03
5.088000000000000256e+01,3.966127432479560691e-03
5.092000000000000171e+01,6.921882784903237752e-03
5.096000000000000085e+01,6.389076952672568914e-03
5.100000000000000000e+01,2.671071573902253967e-03
5.103999999999999915e+01,6.385479129527328428e-03
5.107999999999999829e+01,3.274365950151543383e-03
5.111999999999999744e+01,6.230546908508466375e-03
5.115999999999999659e+01,4.181371683719902442e-03
5.120000000000000284e+01,4.559169408202808429e-03
5.124000000000000199e+01,5.392099328273352102e-03
5.128000000000000114e+01,5.770081806420341783e-03
5.132000000000000028e+01,5.238077683492279972e-03
5.135999999999999943e+01,6.374650989402531193e-03
5.139999999999999858e+01,7.207960970467186881e-03
5.143999999999999773e+01,8.648089902613970842e-03
5.147999999999999687e+01,7.358075597079871168e-03
5.152000000000000313e+01,6.371522562137885842e-03
5.156000000000000227e+01,6.598513073715738669e-03
5.160000000000000142e+01,0.000000000000000000e+00
5.164000000000000057e+01,4.929283954040825956e-03
5.167999999999999972e+01,8.038512223161459191e-03
5.171999999999999886e+01,6.142402778052131335e-03
5.175999999999999801e+01,5.308163316050611320e-03
5.179999999999999716e+01,9.327799142696178991e-03
5.184000000000000341e+01,4.398417066952306498e-03
5.188000000000000256e+01,5.991394672257628617e-03
5.192000000000000171e+01,5.005923710626045652e-03
5.196000000000000085e+01,5.689049965956504730e-03
5.200000000000000000e+01,8.495815235817036348e-03
5.203999999999999915e+01,4.780451750581149982e-03
5.207999999999999829e+01,4.857211672277417930e-03
5.211999999999999744e+01,5.540812971596092637e-03
5.215999999999999659e+01,5.921176011025949468e-03
5.220000000000000284e+01,5.694941790868762212e-03
5.224000000000000199e+01,5.317152108692537946e-03
5.228000000000000114e+01,7.669731313317026782e-03
5.232000000000000028e+01,6.533794186367685927e-03
5.235999999999999943e+01,7.824868265729102365e-03
5.239999999999999858e+01,5.779108811386453499e-03
5.243999999999999773e+01,5.098602085598361554e-03
5.247999999999999687e+01,9.271993074997609760e-03
5.252000000000000313e+01,7.378311618159228043e-03
5.256000000000000227e+01,9.125089239298762520e-03
5.260000000000000142e+01,7.231679603868976930e-03
5.264000000000000057e+01,7.006889611941546567e-03
5.267999999999999972e+01,3.445275320767752884e-03
5.271999999999999886e+01,6.102688095109943568e-03
5.275999999999999801e+01,7.091760962607945515e-03
5.279999999999999716e+01,7.474256358642708716e-03
5.284000000000000341e+01,7.553535921328898700e-03
5.288000000000000256e+01,8.088001767140999207e-03
5.292000000000000171e+01,1.104949728817938501e-02
5.296000000000000085e+01,9.005695990443537274e-03
5.300000000000000000e+01,8.023805571271301271e-03
5.303999999999999915e+01,6.283665436432094367e-03
5.307999999999999829e+01,6.515519775292417069e-03
5.311999999999999744e+01,9.174410385420267780e-03
5.315999999999999659e+01,8.193132207894325558e-03
5.320000000000000284e+01,9.942253258958869827e-03
5.324000000000000199e+01,8.202888320239352590e-03
5.328000000000000114e+01,3.885119667663472932e-03
5.332000000000000028e+01,3.207835158022291893e-03
5.335999999999999943e+01,6.626076588883755836e-03
5.339999999999999858e+01,9.589440495858945340e-03
5.343999999999999773e+01,6.637442457839526182e-03
5.347999999999999687e+01,8.387694955760457982e-03
5.352000000000000313e+01,8.772992930700419800e-03
5.356000000000000227e+01,4.759734512802939708e-03
5.360000000000000142e+01,6.358811545189985842e-03
5.364000000000000057e+01,8.716460244566169926e-03
5.367999999999999972e+01,8.040677943808777206e-03
5.371999999999999886e+01,9.033550905176495824e-03
5.375999999999999801e+01,8.509797099359516642e-03
5.379999999999999716e+01,7.227818642832275695e-03
5.384000000000000341e+01,8.827940681680829238e-03
5.388000000000000256e+01,6.029516881357878562e-03
5.392000000000000171e+01,9.146799403891958669e-03
5.396000000000000085e+01,6.197056971685452852e-03
5.400000000000000000e+01,6.887821108953866463e-03
5.403999999999999915e+01,6.972048670214802714e-03
5.407999999999999829e+01,1.009006480155423199e-02
5.411999999999999744e+01,3.349057268655082891e-03
5.415999999999999659e+01,8.894330670898514465e-03
5.420000000000000284e+01,6.400744960758729396e-03
5.424000000000000199e+01,9.519515808235543691e-03
5.428000000000000114e+01,6.267911935731246970e-03
5.432000000000000028e+01,8.932027578166492482e-03
5.435999999999999943e+01,8.866094965914918941e-03
5.439999999999999858e+01,8.041957491076856882e-03
5.443999999999999773e+01,4.487774399968449783e-03
5.447999999999999687e+01,8.821158173524698901e-03
5.452000000000000313e+01,9.969458490867425318e-03
5.456000000000000227e+01,6.719235395578915596e-03
5.460000000000000142e+01,1.059818232531361398e-02
5.464000000000000057e+01,5.528203697236458436e-03
5.467999999999999972e+01,1.062100092166377158e-02
5.471999999999999886e+01,7.523276023961892114e-03
5.475999999999999801e+01,7.004321644519083054e-03
5.479999999999999716e+01,8.457418464730585145e-03
5.484000000000000341e+01,7.938883658020454842e-03
5.488000000000000256e+01,8.178961413755269846e-03
5.492000000000000171e+01,7.205810978251120727e-03
5.496000000000000085e+01,7.446316221968127605e-03
5.500000000000000000e+01,6.321915753409447676e-03
5.503999999999999915e+01,7.927975197020847853e-03
5.507999999999999829e+01,9.534253001852198428e-03
5.511999999999999744e+01,7.652106819687272583e-03
5.515999999999999659e+01,8.803784826223650523e-03
5.520000000000000284e+01,1.132080658668387953e-02
5.524000000000000199e+01,8.832606723240208832e-03
5.528000000000000114e+01,6.951352454870759166e-03
5.532000000000000028e+01,9.620729246567937681e-03
5.535999999999999943e+01,1.183529315558314379e-02
5.539999999999999858e+01,7.831199441901524547e-03
5.543999999999999773e+01,8.984461383724304945e-03
5.547999999999999687e+01,9.076193762676879745e-03
5.552000000000000313e+01,1.007823997085962285e-02
5.556000000000000227e+01,8.198597341149853335e-03
5.560000000000000142e+01,1.026287436815150403e-02
5.564000000000000057e+01,9.293785036223876916e-03
5.567999999999999972e+01,7.414852896920585967e-03
5.571999999999999886e+01,9.328164212500236058e-03
5.575999999999999801e+01,9.421554402401275882e-03
5.579999999999999716e+01,8.301745423644882327e-03
5.584000000000000341e+01,1.006410290067680756e-02
5.588000000000000256e+01,6.972940020590064764e-03
5.592000000000000171e+01,9.190828785959927194e-03
5.596000000000000085e+01,1.019552365950540836e-02
5.600000000000000000e+01,1.029038627934118766e-02
5.603999999999999915e+01,1.114389971866114847e-02
5.607999999999999829e+01,1.336278593448654399e-02
5.611999999999999744e+01,1.345840257860107803e-02
5.615999999999999659e+01,1.173411128911950110e-02
5.620000000000000284e+01,1.061679593650190385e-02
5.624000000000000199e+01,8.893016564330570237e-03
5.628000000000000114e+01,7.472855448533228390e-03
5.632000000000000028e+01,9.996637735195865182e-03
5.635999999999999943e+01,9.032036930318041584e-03
5.639999999999999858e+01,1.231474248522313950e-02
5.643999999999999773e+01,1.165402710864451956e-02
5.647999999999999687e+01,1.402717945463947957e-02
5.652000000000000313e+01,1.245691350756721050e-02
5.656000000000000227e+01,8.915072659528077564e-03
5.660000000000000142e+01,9.468864607859962465e-03
5.664000000000000057e+01,1.366325019341131132e-02
5.667999999999999972e+01,1.315582196546228634e-02
5.671999999999999886e+01,1.128354475119233528e-02
5.675999999999999801e+01,1.532706752356527598e-02
5.679999999999999716e+01,1.284861852662367090e-02
5.684000000000000341e+01,1.006708561715858284e-02
5.688000000000000256e+01,1.259463601414818716e-02
5.692000000000000171e+01,1.254390274523220668e-02
5.696000000000000085e+01,9.459846651259221084e-03
5.700000000000000000e+01,1.411176037261747604e-02
5.703999999999999915e+01,1.224171023991070355e-02
5.707999999999999829e+01,1.355722777735446360e-02
5.711999999999999744e+01,1.259782856384041722e-02
5.715999999999999659e+01,1.315551790490781213e-02
5.720000000000000284e+01,1.295509472796626226e-02
5.724000000000000199e+01,1.108647939550459760e-02
5.728000000000000114e+01,9.673195459076465094e-03
5.732000000000000028e+01,1.372068949984693587e-02
5.735999999999999943e+01,1.185295087803135694e-02
5.739999999999999858e+01,1.408087143675180140e-02
5.743999999999999773e+01,1.312380484146095753e-02
5.747999999999999687e+01,1.353215719496430984e-02
5.752000000000000313e+01,1.075552503287294584e-02
5.756000000000000227e+01,1.070943589307139440e-02
5.760000000000000142e+01,1.111868870296934576e-02
5.764000000000000057e+01,1.198328478177503736e-02
5.767999999999999972e+01,1.178642385416438405e-02
5.771999999999999886e+01,1.538187234184920302e-02
5.775999999999999801e+01,1.366882199684343879e-02
5.779999999999999716e+01,1.256280035703169484e-02
5.784000000000000341e+01,1.555245240904667980e-02
5.788000000000000256e+01,1.080672703474399796e-02
5.792000000000000171e+01,1.485876293373501744e-02
5.796000000000000085e+01,1.375398675552989489e-02
5.800000000000000000e+01,1.735161018379750494e-02
5.803999999999999915e+01,1.245546066531424793e-02
5.807999999999999829e+01,1.377851498625261469e-02
5.811999999999999744e+01,1.206828473917322987e-02
5.815999999999999659e+01,1.324029746196066920e-02
5.820000000000000284e+01,1.395759096585197194e-02
5.824000000000000199e+01,1.209664433770996951e-02
5.828000000000000114e+01,1.084274224526096848e-02
5.832000000000000028e+01,1.307780903732480918e-02
5.835999999999999943e+01,1.182455869826065653e-02
5.839999999999999858e+01,1.330187908485961495e-02
5.843999999999999773e+01,1.083584450038739544e-02
5.847999999999999687e+01,1.701590949867113484e-02
5.852000000000000313e+01,1.455053722124977598e-02
5.856000000000000227e+01,1.208549807616622097e-02
5.860000000000000142e+01,1.553631960130507847e-02
5.864000000000000057e+01,1.307195067852187469e-02
5.867999999999999972e+01,1.348984187531278127e-02
5.871999999999999886e+01,1.421143180018098057e-02
5.875999999999999801e+01,1.311319953998934910e-02
5.879999999999999716e+01,1.656571311098221574e-02
5.884000000000000341e+01,1.425472298954752470e-02
5.888000000000000256e+01,1.664616149716709875e-02
5.892000000000000171e+01,1.448754022640152614e-02
5.896000000000000085e+01,1.657630974474696289e-02
5.900000000000000000e+01,1.381166180421734661e-02
5.903999999999999915e+01,1.620448824793463416e-02
5.907999999999999829e+01,1.526070146572572860e-02
5.911999999999999744e+01,1.522734724148959613e-02
5.915999999999999659e+01,1.701450785115386777e-02
5.920000000000000284e+01,1.576841951142318385e-02
5.924000000000000199e+01,1.664620896291592669e-02
5.928000000000000114e+01,1.691763465468200736e-02
5.932000000000000028e+01,1.673437806538292938e-02
5.935999999999999943e+01,1.670316115203992688e-02
5.939999999999999858e+01,1.940254794456632362e-02
5.943999999999999773e+01,1.633845083278891858e-02
5.947999999999999687e+01,1.524655926803119080e-02
5.952000000000000313e+01,1.718863568567410155e-02
5.956000000000000227e+01,1.640083534570275017e-02
5.960000000000000142e+01,1.515836195912400285e-02
5.964000000000000057e+01,2.059018433944840437e-02
5.967999999999999972e+01,1.525308546876157946e-02
5.971999999999999886e+01,1.734868580066057514e-02
5.975999999999999801e+01,1.701777628989306970e-02
5.979999999999999716e+01,1.972084399598394641e-02
5.984000000000000341e+01,1.741884178711974526e-02
5.988000000000000256e+01,1.754409879571749639e-02
5.992000000000000171e+01,1.493949091957522471e-02
5.996000000000000085e+01,1.779574808837613292e-02
