2.003999999999999915e+01,4.072036495017577508e-03
2.007999999999999829e+01,3.002522961400856151e-03
2.012000000000000099e+01,8.148428216976951041e-04
2.016000000000000014e+01,8.220432599801342013e-03
2.019999999999999929e+01,7.445368977200451585e-03
2.023999999999999844e+01,5.669845522118611980e-03
2.028000000000000114e+01,2.717299645133378419e-03
2.032000000000000028e+01,7.415838293781095922e-03
2.035999999999999943e+01,9.289440257934952413e-03
2.039999999999999858e+01,1.204591019940972826e-02
2.044000000000000128e+01,5.621205252906716181e-03
2.048000000000000043e+01,1.067309626745703219e-02
2.051999999999999957e+01,8.721411333415076891e-03
2.055999999999999872e+01,1.112498151654739940e-02
2.060000000000000142e+01,2.287483321005543638e-03
2.064000000000000057e+01,6.574492699274159767e-03
2.067999999999999972e+01,1.062614002742934619e-02
2.071999999999999886e+01,1.026378736628920894e-02
2.076000000000000156e+01,8.371282688012116752e-03
2.080000000000000071e+01,3.948106713519309446e-03
2.083999999999999986e+01,1.847598698149821930e-02
2.087999999999999901e+01,3.983098890250935664e-02
2.092000000000000171e+01,9.131931554233631287e-02
2.096000000000000085e+01,9.572445382868803587e-02
2.100000000000000000e+01,6.475835912289794327e-02
2.103999999999999915e+01,3.732355754495914058e-02
2.107999999999999829e+01,1.483254583550083078e-02
2.112000000000000099e+01,9.350403651423496929e-03
2.116000000000000014e+01,7.929239713631335701e-03
2.119999999999999929e+01,7.037810624815391512e-03
2.123999999999999844e+01,8.029759076343675334e-03
2.128000000000000114e+01,8.609776705391720270e-03
2.132000000000000028e+01,1.042577644963337512e-02
2.135999999999999943e+01,5.650169315694350027e-03
2.139999999999999858e+01,8.290218586093817815e-03
2.144000000000000128e+01,4.397514144296055076e-03
2.148000000000000043e+01,7.214216632425004584e-03
2.151999999999999957e+01,3.910142869907137775e-03
2.155999999999999872e+01,1.119984240527523676e-02
2.160000000000000142e+01,9.072938048093401667e-03
2.164000000000000057e+01,1.194867142570883375e-02
2.167999999999999972e+01,1.041039421469580617e-02
2.171999999999999886e+01,1.216798642662846909e-02
2.176000000000000156e+01,9.629275265177180201e-03
2.180000000000000071e+01,2.474682066311876052e-02
2.183999999999999986e+01,6.081644893743973213e-02
2.187999999999999901e+01,1.117761925726008659e-01
2.192000000000000171e+01,1.062949434224278455e-01
2.196000000000000085e+01,5.767371617830577973e-02
2.200000000000000000e+01,3.694934785682532641e-02
2.203999999999999915e+01,2.258125598676020626e-02
2.207999999999999829e+01,1.233298625454714269e-02
2.212000000000000099e+01,1.585660229737881691e-02
2.216000000000000014e+01,1.284745667851342095e-02
2.219999999999999929e+01,1.183938609918135966e-02
2.223999999999999844e+01,1.824696264977122492e-02
2.228000000000000114e+01,1.435511706103267601e-02
2.232000000000000028e+01,9.580496773113591352e-03
2.235999999999999943e+01,1.757724077296610177e-02
2.239999999999999858e+01,9.271448283934377588e-03
2.244000000000000128e+01,7.321927829929159894e-03
2.248000000000000043e+01,4.430776860926712718e-03
2.251999999999999957e+01,9.720372570769216305e-03
2.255999999999999872e+01,2.827213473453777347e-03
2.260000000000000142e+01,1.029447534412807064e-02
2.264000000000000057e+01,1.246490528792329466e-02
2.267999999999999972e+01,7.631735434626574048e-03
2.271999999999999886e+01,1.003764526380172828e-02
2.276000000000000156e+01,9.677445959411341836e-03
2.280000000000000071e+01,6.609991129077640026e-03
2.283999999999999986e+01,9.486825572553482869e-03
2.287999999999999901e+01,6.654847094488700043e-03
2.292000000000000171e+01,6.942162642419610549e-03
2.296000000000000085e+01,8.053463853521802135e-03
2.300000000000000000e+01,9.223647645761215083e-03
2.303999999999999915e+01,5.332411291777350119e-03
2.307999999999999829e+01,8.385980399209529493e-03
2.312000000000000099e+01,5.024485344133823410e-03
2.316000000000000014e+01,8.313524620890562142e-03
2.319999999999999929e+01,1.372133599473101921e-02
2.323999999999999844e+01,9.594817270305021698e-03
2.328000000000000114e+01,1.005893982865396254e-02
2.332000000000000028e+01,1.664390850892933857e-02
2.335999999999999943e+01,8.397681332516537464e-03
2.339999999999999858e+01,1.333478530609253157e-02
2.344000000000000128e+01,1.421098355449629258e-02
2.348000000000000043e+01,1.779449130112320532e-02
2.351999999999999957e+01,1.596344930629328002e-02
2.355999999999999872e+01,1.866419145350497327e-02
2.360000000000000142e+01,1.518528033558683675e-02
2.364000000000000057e+01,1.918085493949096484e-02
2.367999999999999972e+01,1.476032152306309790e-02
2.371999999999999886e+01,1.887364583188077052e-02
2.376000000000000156e+01,9.685975148411813535e-03
2.380000000000000071e+01,5.265502154195804592e-03
2.383999999999999986e+01,1.444033379676913816e-02
2.387999999999999901e+01,1.113812581179548199e-02
2.392000000000000171e+01,1.089634676258431113e-02
2.396000000000000085e+01,7.417612936551822717e-03
2.400000000000000000e+01,5.586809980735971473e-03
2.403999999999999915e+01,1.405548269488964518e-02
2.407999999999999829e+01,7.692951602855276939e-03
2.412000000000000099e+01,7.098133504402665862e-03
2.416000000000000014e+01,1.062311457858027865e-02
2.419999999999999929e+01,2.327048857094850265e-02
2.423999999999999844e+01,6.163709693151778884e-02
2.428000000000000114e+01,1.108917188048349489e-01
2.432000000000000028e+01,1.143579043107564447e-01
2.435999999999999943e+01,8.015751180568457535e-02
2.439999999999999858e+01,4.754619170517943028e-02
2.444000000000000128e+01,2.723538053313464408e-02
2.448000000000000043e+01,2.923026622230985236e-02
2.451999999999999957e+01,2.975381242955446245e-02
2.455999999999999872e+01,2.645185674278278595e-02
2.460000000000000142e+01,1.449836668094019350e-02
2.464000000000000057e+01,1.078445394034302333e-02
2.467999999999999972e+01,7.423675478355828278e-03
2.471999999999999886e+01,8.300398104576871966e-03
2.476000000000000156e+01,1.323805922958370962e-02
2.480000000000000071e+01,7.699708244229052333e-03
2.483999999999999986e+01,1.151915930788754983e-02
2.487999999999999901e+01,8.040716038009815617e-03
2.492000000000000171e+01,8.740917598884746439e-03
2.496000000000000085e+01,9.029147706502319709e-03
2.500000000000000000e+01,6.551243948776962374e-03
2.503999999999999915e+01,8.487399893932266390e-03
2.507999999999999829e+01,9.835020913130080103e-03
2.512000000000000099e+01,7.357133855367305707e-03
2.516000000000000014e+01,9.705283520396698269e-03
2.519999999999999929e+01,9.993545703022736759e-03
2.523999999999999844e+01,1.045837383353098206e-02
2.528000000000000114e+01,1.045237292840964748e-02
2.532000000000000028e+01,6.150029344043965625e-03
2.535999999999999943e+01,9.263298441767426131e-03
2.539999999999999858e+01,7.903661829185290935e-03
2.544000000000000128e+01,1.195859934053483502e-02
2.548000000000000043e+01,1.889738641594700119e-02
2.551999999999999957e+01,1.118151593395485394e-02
2.555999999999999872e+01,1.435364483226634659e-02
2.560000000000000142e+01,1.417109274804002547e-02
2.564000000000000057e+01,1.375312385047885132e-02
2.567999999999999972e+01,1.433567273242850916e-02
2.571999999999999886e+01,5.795842479329236727e-03
2.576000000000000156e+01,8.673695841689747776e-03
2.580000000000000071e+01,1.237550351086088261e-02
2.583999999999999986e+01,6.072119981148938091e-03
2.587999999999999901e+01,1.183381328385298310e-02
2.592000000000000171e+01,8.649687391097140438e-03
2.596000000000000085e+01,6.760346432685809467e-03
2.600000000000000000e+01,7.107454755158770614e-03
2.603999999999999915e+01,3.511336744454514412e-03
2.607999999999999829e+01,5.094369594415192916e-03
2.612000000000000099e+01,1.150342856783484989e-02
2.616000000000000014e+01,4.788028198418497507e-03
2.619999999999999929e+01,1.113821996574689346e-02
2.623999999999999844e+01,7.600924216325730121e-03
2.628000000000000114e+01,8.183404232674025905e-03
2.632000000000000028e+01,8.000773484476029693e-03
2.635999999999999943e+01,9.348339451278364284e-03
2.639999999999999858e+01,1.134329095252462061e-02
2.644000000000000128e+01,6.040330896318267008e-03
2.648000000000000043e+01,1.156650601346016598e-02
2.651999999999999957e+01,9.912476788394009725e-03
2.655999999999999872e+01,4.668339784412205845e-03
2.660000000000000142e+01,4.426785752006322586e-03
2.664000000000000057e+01,8.775835904709348295e-03
2.667999999999999972e+01,8.298841919095530095e-03
2.671999999999999886e+01,9.822873067821440499e-03
2.676000000000000156e+01,1.205313982550259254e-02
2.680000000000000071e+01,1.063444210517353397e-02
2.683999999999999986e+01,9.921979110521951875e-03
2.687999999999999901e+01,1.409438789745178638e-02
2.692000000000000171e+01,5.554307295234967197e-03
2.696000000000000085e+01,1.366990744355541139e-02
2.700000000000000000e+01,1.230999002881575516e-02
2.703999999999999915e+01,9.302143161112313291e-03
2.707999999999999829e+01,8.707295797826888201e-03
2.712000000000000099e+01,1.452752284707998880e-02
2.716000000000000014e+01,1.093108461597856740e-02
2.719999999999999929e+01,1.216066058408639058e-02
2.723999999999999844e+01,4.856381127479426213e-03
2.728000000000000114e+01,1.073538998188977404e-02
2.732000000000000028e+01,5.196694114510371637e-03
2.735999999999999943e+01,1.207618303447528796e-02
2.739999999999999858e+01,8.656193285334911475e-03
2.744000000000000128e+01,8.590863854041265457e-03
2.748000000000000043e+01,6.112497471361049740e-03
2.751999999999999957e+01,8.460141754778965906e-03
2.755999999999999872e+01,1.069005612471810203e-02
2.760000000000000142e+01,1.239026179471136579e-02
2.764000000000000057e+01,1.185399089454598938e-02
2.767999999999999972e+01,1.426039931756591626e-02
2.771999999999999886e+01,5.955347193541278214e-03
2.776000000000000156e+01,1.065701593308384862e-02
2.780000000000000071e+01,8.001904050190680392e-03
2.783999999999999986e+01,1.005509120176228434e-02
2.787999999999999901e+01,1.569835001019760645e-02
2.792000000000000171e+01,1.539732405354856878e-02
2.796000000000000085e+01,1.285981799362987885e-02
2.800000000000000000e+01,1.467748490605343473e-02
2.803999999999999915e+01,1.178680076296045182e-02
2.807999999999999829e+01,1.295701846262616898e-02
2.812000000000000099e+01,1.571626749444258314e-02
2.816000000000000014e+01,1.723955305223477674e-02
2.819999999999999929e+01,1.434875603426078762e-02
2.823999999999999844e+01,1.616625363436276566e-02
2.828000000000000114e+01,1.498216495768882675e-02
2.832000000000000028e+01,2.486260733601924899e-02
2.835999999999999943e+01,1.796961502718270876e-02
2.839999999999999858e+01,1.772709919548516588e-02
2.844000000000000128e+01,2.083923264066227937e-02
2.848000000000000043e+01,1.965498851712340483e-02
2.851999999999999957e+01,1.976550106304059487e-02
2.855999999999999872e+01,2.187701842790897716e-02
2.860000000000000142e+01,1.892705425874952052e-02
2.864000000000000057e+01,2.139162888241121635e-02
2.867999999999999972e+01,2.097232091143051355e-02
2.871999999999999886e+01,1.719829751007924054e-02
2.876000000000000156e+01,2.031016280816166225e-02
2.880000000000000071e+01,1.818398221623832023e-02
2.883999999999999986e+01,1.617547377543664469e-02
2.887999999999999901e+01,1.981691767466752657e-02
2.892000000000000171e+01,1.557188214222344179e-02
2.896000000000000085e+01,1.833044119954099077e-02
2.900000000000000000e+01,1.632178455274775619e-02
2.903999999999999915e+01,1.813860295233533579e-02
2.907999999999999829e+01,2.236839877439681171e-02
2.912000000000000099e+01,1.571015644426933949e-02
2.916000000000000014e+01,1.417217691935176299e-02
2.919999999999999929e+01,1.698935711760997044e-02
2.923999999999999844e+01,1.680494043975912580e-02
2.928000000000000114e+01,1.891579087766543862e-02
2.932000000000000028e+01,1.414067630494783741e-02
2.935999999999999943e+01,1.142541176766495928e-02
2.939999999999999858e+01,1.312415879462463728e-02
2.944000000000000128e+01,1.494057134812274042e-02
2.948000000000000043e+01,1.028299546926960198e-02
2.951999999999999957e+01,1.663108334699315433e-02
2.955999999999999872e+01,1.403331184011863408e-02
2.960000000000000142e+01,1.555527944298645132e-02
2.964000000000000057e+01,1.472304029522921061e-02
2.967999999999999972e+01,1.424388022122176876e-02
2.971999999999999886e+01,1.105738821774453380e-02
2.976000000000000156e+01,1.057813637518604903e-02
2.980000000000000071e+01,9.392589394759703891e-03
2.983999999999999986e+01,8.972098066355807533e-03
2.987999999999999901e+01,9.787494342424820151e-03
2.992000000000000171e+01,1.177992373206669489e-02
2.996000000000000085e+01,9.240543015309271579e-03
3.000000000000000000e+01,1.199797797712871469e-02
3.003999999999999915e+01,1.151839103301674494e-02
3.007999999999999829e+01,1.298093807631733876e-02
3.012000000000000099e+01,1.609134841908572630e-02
3.016000000000000014e+01,1.731837866401294765e-02
3.019999999999999929e+01,1.112974773891034844e-02
3.023999999999999844e+01,1.665302121201859067e-02
3.028000000000000114e+01,2.235280498650995748e-02
3.032000000000000028e+01,1.963640742861498187e-02
3.035999999999999943e+01,2.933816153514821196e-02
3.039999999999999858e+01,3.909871651962556344e-02
3.044000000000000128e+01,5.168421225568300970e-02
3.048000000000000043e+01,4.814364443958563111e-02
3.051999999999999957e+01,3.924730364448827252e-02
3.055999999999999872e+01,2.499518942875198629e-02
3.060000000000000142e+01,1.244978726207810957e-02
3.064000000000000057e+01,1.014493384569710617e-02
3.067999999999999972e+01,1.349001289559892923e-02
3.071999999999999886e+01,8.889738590815002284e-03
3.076000000000000156e+01,7.879504144895290926e-03
3.080000000000000071e+01,6.280671618658023071e-03
3.083999999999999986e+01,7.918753772440211350e-03
3.087999999999999901e+01,5.025015662128817784e-03
3.092000000000000171e+01,3.661423919985237752e-03
3.096000000000000085e+01,6.064431976294982693e-03
3.100000000000000000e+01,8.643942384487958777e-03
3.103999999999999915e+01,1.051714396400771703e-02
3.107999999999999829e+01,7.623106874194836464e-03
3.112000000000000099e+01,4.670154614303840580e-03
3.116000000000000014e+01,7.308275471767953189e-03
3.119999999999999929e+01,0.000000000000000000e+00
3.123999999999999844e+01,8.523401333752608777e-03
3.128000000000000114e+01,1.192643749441114377e-02
3.132000000000000028e+01,8.031508217673512598e-03
3.135999999999999943e+01,5.137034007725490778e-03
3.139999999999999858e+01,5.832592590419624808e-03
3.144000000000000128e+01,6.763502716230400738e-03
3.148000000000000043e+01,7.812055844996650816e-03
3.151999999999999957e+01,4.858468086797713449e-03
3.155999999999999872e+01,9.908965049272987213e-03
3.160000000000000142e+01,7.072952990268209852e-03
3.164000000000000057e+01,8.709781812989815866e-03
3.167999999999999972e+01,6.815300376280032137e-03
3.171999999999999886e+01,5.097313341953614747e-03
3.176000000000000156e+01,7.499041568869871041e-03
3.180000000000000071e+01,8.488203984840186553e-03
3.183999999999999986e+01,8.829902788620842824e-03
3.187999999999999901e+01,2.109046169105645123e-03
3.192000000000000171e+01,5.805286315222603875e-03
3.196000000000000085e+01,6.205629307480678772e-03
3.200000000000000000e+01,3.957469246113864449e-03
3.203999999999999915e+01,8.948285965359478386e-03
3.207999999999999829e+01,1.034893395952374978e-02
3.211999999999999744e+01,1.004274236332517237e-02
3.215999999999999659e+01,7.323462143990835081e-03
3.220000000000000284e+01,9.018162574177358143e-03
3.224000000000000199e+01,6.710714167898814211e-03
3.228000000000000114e+01,6.463083557416649839e-03
3.232000000000000028e+01,7.686729808480287710e-03
3.235999999999999943e+01,9.381133642010973731e-03
3.239999999999999858e+01,5.778597788775417278e-03
3.243999999999999773e+01,1.135721792538199604e-02
3.247999999999999687e+01,8.107654536274490689e-03
3.252000000000000313e+01,9.507484460621417818e-03
3.256000000000000227e+01,9.200469936577809413e-03
3.260000000000000142e+01,6.774632177676587902e-03
3.264000000000000057e+01,7.938813520612165650e-03
3.267999999999999972e+01,1.128051634147761439e-02
3.271999999999999886e+01,9.854962385816266185e-03
3.275999999999999801e+01,7.783027981920006980e-04
3.279999999999999716e+01,5.767681314336893517e-03
3.284000000000000341e+01,1.081583376845408201e-02
3.288000000000000256e+01,1.980712697014178070e-02
3.292000000000000171e+01,1.537961594571658590e-02
3.296000000000000085e+01,3.113896238166648234e-02
3.300000000000000000e+01,6.361277692994365962e-02
3.303999999999999915e+01,9.696931989765510129e-02
3.307999999999999829e+01,1.039003119859800151e-01
3.311999999999999744e+01,8.876095239860594399e-02
3.315999999999999659e+01,6.997255811263955461e-02
3.320000000000000284e+01,4.312107499185439258e-02
3.324000000000000199e+01,2.615698761926776514e-02
3.328000000000000114e+01,1.778550646949508818e-02
3.332000000000000028e+01,9.060815613199969809e-03
3.335999999999999943e+01,1.040008132797023109e-02
3.339999999999999858e+01,8.266871842098377429e-03
3.343999999999999773e+01,7.016386359271981413e-03
3.347999999999999687e+01,1.469468102869368438e-03
3.352000000000000313e+01,4.691715567230921036e-03
3.356000000000000227e+01,3.499821276216155599e-03
3.360000000000000142e+01,5.250540945832172721e-03
3.364000000000000057e+01,4.647009700934988559e-03
3.367999999999999972e+01,2.984016183631415988e-03
3.371999999999999886e+01,1.320932838983593892e-03
3.375999999999999801e+01,2.894731934716855779e-03
3.379999999999999716e+01,9.059056162199201345e-03
3.384000000000000341e+01,7.101430439379487376e-03
3.388000000000000256e+01,4.496318580787165772e-03
3.392000000000000171e+01,6.540584578288414011e-03
3.396000000000000085e+01,1.228001940966157689e-03
3.400000000000000000e+01,3.684060887301624822e-03
3.403999999999999915e+01,2.844199714556389265e-03
3.407999999999999829e+01,3.652158119029673237e-03
3.411999999999999744e+01,2.517838654151344311e-03
3.415999999999999659e+01,6.444872740361495995e-03
3.420000000000000284e+01,5.369217512361562812e-03
3.424000000000000199e+01,3.940342420144882750e-03
3.428000000000000114e+01,1.393144381677435123e-03
3.432000000000000028e+01,2.377092846952570497e-03
3.435999999999999943e+01,1.477614842303983430e-03
3.439999999999999858e+01,4.992093197037764975e-03
3.443999999999999773e+01,3.268463390683454001e-03
3.447999999999999687e+01,6.606183602306599408e-03
3.452000000000000313e+01,7.530789134099946831e-03
3.456000000000000227e+01,8.455295564132556466e-03
3.460000000000000142e+01,5.515950615903193180e-04
3.464000000000000057e+01,2.123296505057581472e-03
3.467999999999999972e+01,4.342292063720285325e-03
3.471999999999999886e+01,3.147651896918941469e-03
3.475999999999999801e+01,1.013362326746476694e-02
3.479999999999999716e+01,5.701807329749969226e-03
3.484000000000000341e+01,6.802169829352011816e-03
3.488000000000000256e+01,6.901910856642392254e-03
3.492000000000000171e+01,9.120294580824096428e-03
3.496000000000000085e+01,4.158380776993734693e-03
3.500000000000000000e+01,2.315627624216816914e-03
3.503999999999999915e+01,7.476401932091518258e-03
3.507999999999999829e+01,1.104801206684846368e-02
3.511999999999999744e+01,8.145571498171827463e-03
3.515999999999999659e+01,9.715932946999959394e-03
3.520000000000000284e+01,8.402339814048006075e-03
3.524000000000000199e+01,1.732924464291750108e-02
3.528000000000000114e+01,3.084665826289743895e-02
3.532000000000000028e+01,5.978372529640384875e-02
3.535999999999999943e+01,6.788635095691841759e-02
3.539999999999999858e+01,5.474255645797410086e-02
3.543999999999999773e+01,4.489447989983904458e-02
3.547999999999999687e+01,2.715985148125244636e-02
3.552000000000000313e+01,1.489853994286051767e-02
3.556000000000000227e+01,1.122980945386629729e-02
3.560000000000000142e+01,1.068023299134229082e-02
3.564000000000000057e+01,1.113106434024754496e-02
3.567999999999999972e+01,1.222917876337620627e-02
3.571999999999999886e+01,8.736565434845430453e-03
3.575999999999999801e+01,7.656855775095322732e-03
3.579999999999999716e+01,8.519216948397655143e-03
3.584000000000000341e+01,4.849703094385089501e-03
3.588000000000000256e+01,1.012589105222616234e-02
3.592000000000000171e+01,5.043652222618964093e-03
3.596000000000000085e+01,5.611287562962236249e-03
3.600000000000000000e+01,4.413186424709975887e-03
3.603999999999999915e+01,7.275899243078918707e-03
3.607999999999999829e+01,9.432247586275546714e-03
3.611999999999999744e+01,5.173388234327746561e-03
3.615999999999999659e+01,5.446173908173831610e-03
3.620000000000000284e+01,6.601653111982533351e-03
3.624000000000000199e+01,7.050766074063401223e-03
3.628000000000000114e+01,8.676841929134966255e-03
3.632000000000000028e+01,1.042050734885729621e-02
3.635999999999999943e+01,1.086926470932349231e-02
3.639999999999999858e+01,1.390748082013175228e-02
3.643999999999999773e+01,1.017736140711750226e-02
3.647999999999999687e+01,1.233252661979294257e-02
3.652000000000000313e+01,1.183913887364985984e-02
3.656000000000000227e+01,8.520635579265875212e-03
3.660000000000000142e+01,8.850961713730577315e-03
3.664000000000000057e+01,6.061901170370752844e-03
3.667999999999999972e+01,1.015864188194607817e-02
3.671999999999999886e+01,9.134957357539415582e-03
3.675999999999999801e+01,8.464273736800502143e-03
3.679999999999999716e+01,9.264817514052656189e-03
3.684000000000000341e+01,8.535031735337407499e-03
3.688000000000000256e+01,6.569186205321735604e-03
3.692000000000000171e+01,9.076123260700038123e-03
3.696000000000000085e+01,1.058241587854482149e-02
3.700000000000000000e+01,6.850572070413112925e-03
3.703999999999999915e+01,8.415466212415081970e-03
3.707999999999999829e+01,1.115731441463010259e-02
3.711999999999999744e+01,8.190192471862626014e-03
3.715999999999999659e+01,4.810964375978921646e-03
3.720000000000000284e+01,1.202533689717845064e-02
3.724000000000000199e+01,1.147084622433798724e-02
3.728000000000000114e+01,1.009226972863646807e-02
3.732000000000000028e+01,6.535963835428123918e-03
3.735999999999999943e+01,9.924305738555109016e-03
3.739999999999999858e+01,7.780236553010954140e-03
3.743999999999999773e+01,1.522924649727689858e-02
3.747999999999999687e+01,9.200547819336287944e-03
3.752000000000000313e+01,1.606075414655342565e-02
3.756000000000000227e+01,1.638802878110403108e-02
3.760000000000000142e+01,1.047664152765506729e-02
3.764000000000000057e+01,1.539426623030633497e-02
3.767999999999999972e+01,1.525030914690363691e-02
3.771999999999999886e+01,1.740152599345406309e-02
3.775999999999999801e+01,1.978802460417785833e-02
3.779999999999999716e+01,2.641187988719554888e-02
3.784000000000000341e+01,3.303559985406419319e-02
3.788000000000000256e+01,3.236128195476006830e-02
3.792000000000000171e+01,2.968579018114940113e-02
3.796000000000000085e+01,3.371952338224617346e-02
3.800000000000000000e+01,3.498697918536344820e-02
3.803999999999999915e+01,4.190428619320939879e-02
3.807999999999999829e+01,4.564333657496990465e-02
3.811999999999999744e+01,6.462544730775163226e-02
3.815999999999999659e+01,9.420114805828348759e-02
3.820000000000000284e+01,1.367834544046344636e-01
3.824000000000000199e+01,2.164436720529832880e-01
3.828000000000000114e+01,4.617190441480817364e-01
3.832000000000000028e+01,8.544236690265900602e-01
3.835999999999999943e+01,1.000000000000000000e+00
3.839999999999999858e+01,8.456559544394049999e-01
3.843999999999999773e+01,7.249174290662045994e-01
3.847999999999999687e+01,5.636283213696883232e-01
3.852000000000000313e+01,3.503709453515508332e-01
3.856000000000000227e+01,2.452871686097909121e-01
3.860000000000000142e+01,2.063551995302959352e-01
3.864000000000000057e+01,2.351640970014783893e-01
3.867999999999999972e+01,3.720288843255994959e-01
3.871999999999999886e+01,7.121165587163288402e-01
3.875999999999999801e+01,7.997790703520658573e-01
3.879999999999999716e+01,6.323091325251578576e-01
3.884000000000000341e+01,5.475878416023307604e-01
3.888000000000000256e+01,3.819420861466379380e-01
3.892000000000000171e+01,1.913420665638110030e-01
3.896000000000000085e+01,1.192151004616772425e-01
3.900000000000000000e+01,9.281758251179431096e-02
3.903999999999999915e+01,9.508183798678462861e-02
3.907999999999999829e+01,8.492774006071412973e-02
3.911999999999999744e+01,8.207139479443514851e-02
3.915999999999999659e+01,7.391803520441890540e-02
3.920000000000000284e+01,6.288067686873440032e-02
3.924000000000000199e+01,5.413847568072552296e-02
3.928000000000000114e+01,5.081069580959527571e-02
3.932000000000000028e+01,5.937128223243323677e-02
3.935999999999999943e+01,6.534213838935327978e-02
3.939999999999999858e+01,5.777641067613922821e-02
3.943999999999999773e+01,5.544854036546481568e-02
3.947999999999999687e+01,4.435126329153317448e-02
3.952000000000000313e+01,3.596111861863313802e-02
3.956000000000000227e+01,2.992498160955885458e-02
3.960000000000000142e+01,2.318244126109070269e-02
3.964000000000000057e+01,2.067723726952790109e-02
3.967999999999999972e+01,1.799531549864396077e-02
3.971999999999999886e+01,1.578407004867286509e-02
3.975999999999999801e+01,1.557370575876609875e-02
3.979999999999999716e+01,1.442151972422638269e-02
3.984000000000000341e+01,1.685927329652474674e-02
3.988000000000000256e+01,2.353436057589516905e-02
3.992000000000000171e+01,2.685460876600811661e-02
3.996000000000000085e+01,4.624185368141009445e-02
4.000000000000000000e+01,4.244044402326326709e-02
4.003999999999999915e+01,3.510763180315881055e-02
4.007999999999999829e+01,3.071736199818628915e-02
4.011999999999999744e+01,2.603266145734263806e-02
4.015999999999999659e+01,2.017071900007140484e-02
4.020000000000000284e+01,1.230757749507740972e-02
4.024000000000000199e+01,1.898122434310988565e-02
4.028000000000000114e+01,1.670889344732400666e-02
4.032000000000000028e+01,1.337702696707737497e-02
4.035999999999999943e+01,1.587154822428776466e-02
4.039999999999999858e+01,1.883673829455000462e-02
4.043999999999999773e+01,2.080124550469601014e-02
4.047999999999999687e+01,1.652705902884296640e-02
4.052000000000000313e+01,1.054594021846192060e-02
4.056000000000000227e+01,1.492296873045340436e-02
4.060000000000000142e+01,1.518004800493123752e-02
4.064000000000000057e+01,1.437758816183725905e-02
4.067999999999999972e+01,1.116194562652574225e-02
4.071999999999999886e+01,6.710200942581161926e-03
4.075999999999999801e+01,1.244003922503118635e-02
4.079999999999999716e+01,6.634315854866003510e-03
4.084000000000000341e+01,1.101017456781767240e-02
4.088000000000000256e+01,9.559313523209662933e-03
4.092000000000000171e+01,1.258119090010744595e-02
4.096000000000000085e+01,7.304477567198716138e-03
4.100000000000000000e+01,7.912998954786068864e-03
4.103999999999999915e+01,9.580722581814839212e-03
4.107999999999999829e+01,1.295504254851899753e-02
4.111999999999999744e+01,1.150315894527004050e-02
4.115999999999999659e+01,1.358234632551490358e-02
4.120000000000000284e+01,1.713271252347384546e-02
4.124000000000000199e+01,1.161938227975893578e-02
4.128000000000000114e+01,1.375690514290292543e-02
4.132000000000000028e+01,1.501144352839767042e-02
4.135999999999999943e+01,1.673664012761107503e-02
4.139999999999999858e+01,1.228198693239234210e-02
4.143999999999999773e+01,1.088756923510592056e-02
4.147999999999999687e+01,9.787246278838026767e-03
4.152000000000000313e+01,6.038315158891407672e-03
4.156000000000000227e+01,8.645444970585869013e-03
4.160000000000000142e+01,1.048729531168119886e-02
4.164000000000000057e+01,8.738871376002470964e-03
4.167999999999999972e+01,3.812151066738955676e-03
4.171999999999999886e+01,6.536279006306694624e-03
4.175999999999999801e+01,9.083666201331452167e-03
4.179999999999999716e+01,7.687653057459623886e-03
4.184000000000000341e+01,6.056044236505886934e-03
4.188000000000000256e+01,5.424774331315890784e-03
4.192000000000000171e+01,1.014904254557717940e-02
4.196000000000000085e+01,5.397628023836552325e-03
4.200000000000000000e+01,5.354356196396604060e-03
4.203999999999999915e+01,5.134340532941506288e-03
4.207999999999999829e+01,7.974553301196632416e-03
4.211999999999999744e+01,4.164075931430373523e-03
4.215999999999999659e+01,1.000547962734736618e-02
4.220000000000000284e+01,8.372235612308868979e-03
4.224000000000000199e+01,1.056432090282022687e-02
4.228000000000000114e+01,4.104676613874997521e-03
4.232000000000000028e+01,3.059420077253385307e-03
4.235999999999999943e+01,3.779599797124135168e-03
4.239999999999999858e+01,6.971463922982340522e-03
4.243999999999999773e+01,7.455855678206380760e-03
4.247999999999999687e+01,1.094161739949062705e-02
4.252000000000000313e+01,1.272042470430280459e-02
4.256000000000000227e+01,1.349852574213800463e-02
4.260000000000000142e+01,8.332179933419291834e-03
4.264000000000000057e+01,1.152292080697152853e-02
4.267999999999999972e+01,9.887440886654257771e-03
4.271999999999999886e+01,1.095905803625810311e-02
4.275999999999999801e+01,1.238360984369742471e-02
4.279999999999999716e+01,1.015902051757396236e-02
4.284000000000000341e+01,4.814976059599310187e-03
4.288000000000000256e+01,1.053530190007607482e-02
4.292000000000000171e+01,8.310139686008142026e-03
4.296000000000000085e+01,5.437391084141434891e-03
4.300000000000000000e+01,3.564969032149788771e-03
4.303999999999999915e+01,1.299233170909869922e-02
4.307999999999999829e+01,7.176302456562557580e-03
4.311999999999999744e+01,8.540273601407452619e-03
4.315999999999999659e+01,7.432180623162974384e-03
4.320000000000000284e+01,1.044367659744103657e-02
4.324000000000000199e+01,8.746653693427577578e-03
4.328000000000000114e+01,6.402040868504297461e-03
4.332000000000000028e+01,6.882226587441225840e-03
4.335999999999999943e+01,9.010129423376122756e-03
4.339999999999999858e+01,3.486809151405571676e-03
4.343999999999999773e+01,9.380977290509098093e-03
4.347999999999999687e+01,5.740591862072038504e-03
4.352000000000000313e+01,7.749997133836846776e-03
4.356000000000000227e+01,7.581604112429286835e-03
4.360000000000000142e+01,1.006144439562627231e-02
4.364000000000000057e+01,1.218796102946933559e-02
4.367999999999999972e+01,6.074710971323091062e-03
4.371999999999999886e+01,1.143780028203994666e-02
4.375999999999999801e+01,1.026788944606359111e-02
4.379999999999999716e+01,1.080454491831868077e-02
4.384000000000000341e+01,1.404828509460616555e-02
4.388000000000000256e+01,1.264235337564120591e-02
4.392000000000000171e+01,1.924036991093599006e-02
4.396000000000000085e+01,2.707411859381735411e-02
4.400000000000000000e+01,5.297585707134039312e-02
4.403999999999999915e+01,9.341434194619618880e-02
4.407999999999999829e+01,1.027188305500795762e-01
4.411999999999999744e+01,7.977109550538948046e-02
4.415999999999999659e+01,6.824084092227356013e-02
4.420000000000000284e+01,5.712235914725458802e-02
4.424000000000000199e+01,3.711670995542912938e-02
4.428000000000000114e+01,2.399677810715129464e-02
4.432000000000000028e+01,1.946933058935609168e-02
4.435999999999999943e+01,1.753125393576547564e-02
4.439999999999999858e+01,1.682890457173372503e-02
4.443999999999999773e+01,1.659717941522680096e-02
4.447999999999999687e+01,2.872459597536169973e-02
4.452000000000000313e+01,4.049867917008728030e-02
4.456000000000000227e+01,4.379756975972350780e-02
4.460000000000000142e+01,3.049940850459033695e-02
4.464000000000000057e+01,3.397444089413105550e-02
4.467999999999999972e+01,2.685553358026371296e-02
4.471999999999999886e+01,1.802964755978579692e-02
4.475999999999999801e+01,1.208739823342950929e-02
4.479999999999999716e+01,1.138294713000269354e-02
4.484000000000000341e+01,1.091369962066720233e-02
4.488000000000000256e+01,1.173902815048515937e-02
4.492000000000000171e+01,5.207387036426007129e-03
4.496000000000000085e+01,8.563012270373069473e-03
4.500000000000000000e+01,1.009394760771502655e-02
4.503999999999999915e+01,6.798636094493463664e-03
4.507999999999999829e+01,7.681746826028171792e-03
4.511999999999999744e+01,1.021255524245004084e-02
4.515999999999999659e+01,1.156606653758415239e-02
4.520000000000000284e+01,1.156571812200811629e-02
4.524000000000000199e+01,4.796937022055596314e-03
4.528000000000000114e+01,7.738856589214718369e-03
4.532000000000000028e+01,8.620666529613027831e-03
4.535999999999999943e+01,1.062048506171470695e-02
4.539999999999999858e+01,1.067790118230015767e-02
4.543999999999999773e+01,8.969476597513965921e-03
4.547999999999999687e+01,6.613437801679470859e-03
4.552000000000000313e+01,1.055456216597562037e-02
4.556000000000000227e+01,4.607985701942306569e-03
4.560000000000000142e+01,6.606484894074571464e-03
4.564000000000000057e+01,5.308935891850427580e-03
4.567999999999999972e+01,9.072613248716861548e-03
4.571999999999999886e+01,6.420976917107241826e-03
4.575999999999999801e+01,9.654522750966771857e-03
4.579999999999999716e+01,1.518315330372533439e-02
4.584000000000000341e+01,2.400738697118388193e-02
4.588000000000000256e+01,3.059494268115379653e-02
4.592000000000000171e+01,2.494063161759762018e-02
4.596000000000000085e+01,1.999234417633340838e-02
4.600000000000000000e+01,1.986986336400405062e-02
4.603999999999999915e+01,1.445029226604977249e-02
4.607999999999999829e+01,9.677889416209645157e-03
4.611999999999999744e+01,4.964113880233116463e-03
4.615999999999999659e+01,9.490196901223503165e-03
4.620000000000000284e+01,8.778041919294597359e-03
4.624000000000000199e+01,4.946394266209588018e-03
4.628000000000000114e+01,8.412420219556297069e-03
4.632000000000000028e+01,9.877179554431333997e-03
4.635999999999999943e+01,5.220888380914042413e-03
4.639999999999999858e+01,4.507588681025260363e-03
4.643999999999999773e+01,5.206555894895858669e-03
4.647999999999999687e+01,4.433941167089778049e-03
4.652000000000000313e+01,6.309527504249864624e-03
4.656000000000000227e+01,1.042133611990905991e-02
4.660000000000000142e+01,6.646470099507610294e-03
4.664000000000000057e+01,6.638030755117870635e-03
4.667999999999999972e+01,7.924147576131903778e-03
4.671999999999999886e+01,8.503782446031143971e-03
4.675999999999999801e+01,5.139962213812433560e-03
4.679999999999999716e+01,5.366004743266422107e-03
4.684000000000000341e+01,9.476179839060048377e-03
4.688000000000000256e+01,4.051763828008161060e-03
4.692000000000000171e+01,3.747414534502678356e-03
4.696000000000000085e+01,8.563131516904702936e-03
4.700000000000000000e+01,1.120101222519055868e-02
4.703999999999999915e+01,8.541791606879444235e-03
4.707999999999999829e+01,5.411501259748271488e-03
4.711999999999999744e+01,5.341383697828210042e-03
4.715999999999999659e+01,7.801752036129867666e-03
4.720000000000000284e+01,8.378552138426791779e-03
4.724000000000000199e+01,7.366053809385913337e-03
4.728000000000000114e+01,8.942894104911286099e-03
4.732000000000000028e+01,6.223148819807392505e-03
4.735999999999999943e+01,7.152114162692992973e-03
4.739999999999999858e+01,6.432925258424105827e-03
4.743999999999999773e+01,1.012754873926214813e-02
4.747999999999999687e+01,7.877671493602692726e-03
4.752000000000000313e+01,8.687962616765552287e-03
4.756000000000000227e+01,5.613643854294005087e-03
4.760000000000000142e+01,9.954692222693415152e-03
4.764000000000000057e+01,9.881443378830172264e-03
4.767999999999999972e+01,1.298606923575602520e-02
4.771999999999999886e+01,1.726753167695240648e-02
4.775999999999999801e+01,1.737011177801413633e-02
4.779999999999999716e+01,1.694276015149478315e-02
4.784000000000000341e+01,2.034067600108184840e-02
4.788000000000000256e+01,1.396857350580666714e-02
4.792000000000000171e+01,1.289308883488935950e-02
4.796000000000000085e+01,1.128767066983542115e-02
4.800000000000000000e+01,9.740859061617633888e-03
4.803999999999999915e+01,1.166618842574486566e-02
4.807999999999999829e+01,8.529821177708882263e-03
4.811999999999999744e+01,1.074892359509753252e-02
4.815999999999999659e+01,1.079017693084242252e-02
4.820000000000000284e+01,8.947850989610527453e-03
4.824000000000000199e+01,1.463859321154982636e-02
4.828000000000000114e+01,9.735355982581727144e-03
4.832000000000000028e+01,1.295372652611872198e-02
4.835999999999999943e+01,1.034529472562516206e-02
4.839999999999999858e+01,1.350430784391221974e-02
4.843999999999999773e+01,6.599026188086887235e-03
4.847999999999999687e+01,8.933577474173294217e-03
4.852000000000000313e+01,1.014964859056706123e-02
4.856000000000000227e+01,9.894114800062274104e-03
4.860000000000000142e+01,8.696662104370552968e-03
4.864000000000000057e+01,1.067707351013479772e-02
4.867999999999999972e+01,8.243176221025452777e-03
4.871999999999999886e+01,9.045996199355456346e-03
4.875999999999999801e+01,8.906895505943021596e-03
4.879999999999999716e+01,5.883690073530708879e-03
4.884000000000000341e+01,7.391989667386802791e-03
4.888000000000000256e+01,1.043023733355285566e-02
4.892000000000000171e+01,3.933871369290420535e-03
4.896000000000000085e+01,4.852857520176978232e-03
4.900000000000000000e+01,1.065647122634341692e-02
4.903999999999999915e+01,8.279113110171590004e-03
4.907999999999999829e+01,1.172804645418056360e-02
4.911999999999999744e+01,7.996525930013360581e-03
4.915999999999999659e+01,1.009129598274920159e-02
4.920000000000000284e+01,8.419146141178843537e-03
4.924000000000000199e+01,6.393610820811132696e-03
4.928000000000000114e+01,9.958948555385156720e-03
4.932000000000000028e+01,8.050597642162453035e-03
4.935999999999999943e+01,9.437810979418169433e-03
4.939999999999999858e+01,5.586750982644076921e-03
4.943999999999999773e+01,5.443232697898809161e-03
4.947999999999999687e+01,7.182780156447283668e-03
4.952000000000000313e+01,9.510603832904930208e-03
4.956000000000000227e+01,8.483481985134615558e-03
4.960000000000000142e+01,9.692548851308395788e-03
4.964000000000000057e+01,1.037166367451251674e-02
4.967999999999999972e+01,1.375779872247231625e-02
4.971999999999999886e+01,1.084628401659023904e-02
4.975999999999999801e+01,1.305480467189395512e-02
4.979999999999999716e+01,1.073129616791306494e-02
4.984000000000000341e+01,1.099709802360999446e-02
4.988000000000000256e+01,1.055638303872045644e-02
4.992000000000000171e+01,1.170445869279112226e-02
4.996000000000000085e+01,9.379876307722688142e-03
5.000000000000000000e+01,1.399980216110295432e-02
5.003999999999999915e+01,1.173353423491860920e-02
5.007999999999999829e+01,1.476386028459252334e-02
5.011999999999999744e+01,1.173194836108040935e-02
5.015999999999999659e+01,1.399662953014877732e-02
5.020000000000000284e+01,1.214125546837188652e-02
5.024000000000000199e+01,7.872593162684749998e-03
5.028000000000000114e+01,9.547917166534301489e-03
5.032000000000000028e+01,8.633389895412310264e-03
5.035999999999999943e+01,8.483691715566482605e-03
5.039999999999999858e+01,7.450908806045224500e-03
5.043999999999999773e+01,1.195013209467695771e-02
5.047999999999999687e+01,9.151178400888191830e-03
5.052000000000000313e+01,8.647257312610436009e-03
5.056000000000000227e+01,1.096805483155529823e-02
5.060000000000000142e+01,9.345354851049585132e-03
5.064000000000000057e+01,9.311437560004210204e-03
5.067999999999999972e+01,1.063088631973561210e-02
5.071999999999999886e+01,6.888609319137627314e-03
5.075999999999999801e+01,7.148129702791203299e-03
5.079999999999999716e+01,5.347479955157182982e-03
5.084000000000000341e+01,8.549145545936826310e-03
5.088000000000000256e+01,9.278661777322918386e-03
5.092000000000000171e+01,7.006341764326084326e-03
5.096000000000000085e+01,8.441546681080578513e-03
5.100000000000000000e+01,7.286892815002543426e-03
5.103999999999999915e+01,8.956952256480557942e-03
5.107999999999999829e+01,7.978297982587123291e-03
5.111999999999999744e+01,7.882172507353417748e-03
5.115999999999999659e+01,1.272950478816116393e-02
5.120000000000000284e+01,8.042198265124159140e-03
5.124000000000000199e+01,7.709808122239161787e-03
5.128000000000000114e+01,7.553696420324361623e-03
5.132000000000000028e+01,8.515527505919559884e-03
5.135999999999999943e+01,8.535409213245012672e-03
5.139999999999999858e+01,8.613859938101669014e-03
5.143999999999999773e+01,7.456090155104966484e-03
5.147999999999999687e+01,9.299590969420125711e-03
5.152000000000000313e+01,8.612081308858460238e-03
5.156000000000000227e+01,8.924803687451179565e-03
5.160000000000000142e+01,6.412244461583487681e-03
5.164000000000000057e+01,1.078532131770917023e-02
5.167999999999999972e+01,7.153959351113917987e-03
5.171999999999999886e+01,7.818654415742911853e-03
5.175999999999999801e+01,1.013097385320472360e-02
5.179999999999999716e+01,8.970614936138862627e-03
5.184000000000000341e+01,8.339652572665865599e-03
5.188000000000000256e+01,1.006256184824304636e-02
5.192000000000000171e+01,1.125549390743430314e-02
5.196000000000000085e+01,7.975227008102506177e-03
5.200000000000000000e+01,7.460808767732435981e-03
5.203999999999999915e+01,7.828909168327815443e-03
5.207999999999999829e+01,7.961300832287581883e-03
5.211999999999999744e+01,4.856426805653298907e-03
5.215999999999999659e+01,6.518437346304912887e-03
5.220000000000000284e+01,9.239526909149954614e-03
5.224000000000000199e+01,1.060667903284168503e-02
5.228000000000000114e+01,1.032562302943537159e-02
5.232000000000000028e+01,1.122135282182816669e-02
5.235999999999999943e+01,8.055857584137269406e-03
5.239999999999999858e+01,8.009330884586296842e-03
5.243999999999999773e+01,1.025781559187996864e-02
5.247999999999999687e+01,1.203517094910456185e-02
5.252000000000000313e+01,1.351795866240467804e-02
5.256000000000000227e+01,8.761919314763472189e-03
5.260000000000000142e+01,8.655051577858124609e-03
5.264000000000000057e+01,1.143173353221473183e-02
5.267999999999999972e+01,1.097114361303293262e-02
5.271999999999999886e+01,9.215465004292400578e-03
5.275999999999999801e+01,1.128499955007583079e-02
5.279999999999999716e+01,1.017611494666542660e-02
5.284000000000000341e+01,7.654432230257278598e-03
5.288000000000000256e+01,5.956404831136910376e-03
5.292000000000000171e+01,4.964324209143104738e-03
5.296000000000000085e+01,6.031833055643834492e-03
5.300000000000000000e+01,1.110111455461875590e-02
5.303999999999999915e+01,1.140291492451499418e-02
5.307999999999999829e+01,9.703374038968539186e-03
5.311999999999999744e+01,1.023998300314459681e-02
5.315999999999999659e+01,1.030545510939057281e-02
5.320000000000000284e+01,1.160655734464144211e-02
5.324000000000000199e+01,1.196568944459511577e-02
5.328000000000000114e+01,1.150055906613505971e-02
5.332000000000000028e+01,1.274188988585260238e-02
5.335999999999999943e+01,6.390741678844332439e-03
5.339999999999999858e+01,7.160626318763333234e-03
5.343999999999999773e+01,8.224473649675269685e-03
5.347999999999999687e+01,9.758845377724740741e-03
5.352000000000000313e+01,5.113233494760905003e-03
5.356000000000000227e+01,8.177193184780513074e-03
5.360000000000000142e+01,7.062206055388743631e-03
5.364000000000000057e+01,5.593784866922647467e-03
5.367999999999999972e+01,1.030472864573296968e-02
5.371999999999999886e+01,1.124870262504347115e-02
5.375999999999999801e+01,7.954873969125923067e-03
5.379999999999999716e+01,8.780517231427252198e-03
5.384000000000000341e+01,5.132940778178106053e-03
5.388000000000000256e+01,8.606391872189655262e-03
5.392000000000000171e+01,5.017044199881548830e-03
5.396000000000000085e+01,1.266850663983815420e-02
5.400000000000000000e+01,9.549364326743756473e-03
5.403999999999999915e+01,1.313926944952636261e-02
5.407999999999999829e+01,8.430439004949273271e-03
5.411999999999999744e+01,1.007753081740441967e-02
5.415999999999999659e+01,6.250880543758160351e-03
5.420000000000000284e+01,8.368173299038187893e-03
5.424000000000000199e+01,8.660674139131473853e-03
5.428000000000000114e+01,9.364836494323498448e-03
5.432000000000000028e+01,7.243687213611133512e-03
5.435999999999999943e+01,7.652944338121817937e-03
5.439999999999999858e+01,7.237926618330058591e-03
5.443999999999999773e+01,9.059044174177723063e-03
5.447999999999999687e+01,9.467345509833519426e-03
5.452000000000000313e+01,9.110224725531421500e-03
5.456000000000000227e+01,1.051840549786275079e-02
5.460000000000000142e+01,8.218460803900011144e-03
5.464000000000000057e+01,8.390065374426974171e-03
5.467999999999999972e+01,5.618646235777280222e-03
5.471999999999999886e+01,8.791164384748429914e-03
5.475999999999999801e+01,1.384668998068093286e-02
5.479999999999999716e+01,8.720142483396494879e-03
5.484000000000000341e+01,7.830763520242369283e-03
5.488000000000000256e+01,1.141396884662435052e-02
5.492000000000000171e+01,1.287810450365274931e-02
5.496000000000000085e+01,9.927862128503132585e-03
5.500000000000000000e+01,1.321582419580800451e-02
5.503999999999999915e+01,1.473783956440967782e-02
5.507999999999999829e+01,1.684806976311594914e-02
5.511999999999999744e+01,1.407308776899933618e-02
5.515999999999999659e+01,1.647693556408068999e-02
5.520000000000000284e+01,1.876274827321599073e-02
5.524000000000000199e+01,2.581541154344327987e-02
5.528000000000000114e+01,2.586411508089014183e-02
5.532000000000000028e+01,3.262185192176977888e-02
5.535999999999999943e+01,3.031573642245032063e-02
5.539999999999999858e+01,2.895095651569143391e-02
5.543999999999999773e+01,3.729676509976825177e-02
5.547999999999999687e+01,4.817296772317939541e-02
5.552000000000000313e+01,7.129048207237870249e-02
5.556000000000000227e+01,1.169487663264316829e-01
5.560000000000000142e+01,1.626655732259332798e-01
5.564000000000000057e+01,1.391108322995888713e-01
5.567999999999999972e+01,9.442715540139492991e-02
5.571999999999999886e+01,9.064671001098345560e-02
5.575999999999999801e+01,9.339873091819357598e-02
5.579999999999999716e+01,7.237338231188496229e-02
5.584000000000000341e+01,4.363781919871754372e-02
5.588000000000000256e+01,2.743783408289416845e-02
5.592000000000000171e+01,2.088957810897874162e-02
5.596000000000000085e+01,1.681285682546991220e-02
5.600000000000000000e+01,1.432485905181125549e-02
5.603999999999999915e+01,1.301360600153575117e-02
5.607999999999999829e+01,1.405617821822785496e-02
5.611999999999999744e+01,1.268539727009407661e-02
5.615999999999999659e+01,1.319760831156080970e-02
5.620000000000000284e+01,1.147302745270741692e-02
5.624000000000000199e+01,7.688216399678493747e-03
5.628000000000000114e+01,9.199930868481179594e-03
5.632000000000000028e+01,1.259463556032884048e-02
5.635999999999999943e+01,6.336936378393699665e-03
5.639999999999999858e+01,1.084918797466210248e-02
5.643999999999999773e+01,1.041735875476337315e-02
5.647999999999999687e+01,1.016175056278022931e-02
5.652000000000000313e+01,9.317260316678585216e-03
5.656000000000000227e+01,1.088544408713914245e-02
5.660000000000000142e+01,1.233557731429281087e-02
5.664000000000000057e+01,1.390307575354535197e-02
5.667999999999999972e+01,1.011451238196929212e-02
5.671999999999999886e+01,1.238757231459230827e-02
5.675999999999999801e+01,1.024623434128764561e-02
5.679999999999999716e+01,9.575902946533185883e-03
5.684000000000000341e+01,7.669291422676356544e-03
5.688000000000000256e+01,9.646701613799869152e-03
5.692000000000000171e+01,1.444876019156380621e-02
5.696000000000000085e+01,9.951532566528718815e-03
5.700000000000000000e+01,9.573741528602004378e-03
5.703999999999999915e+01,8.607062695251339532e-03
5.707999999999999829e+01,1.228950600908179126e-02
5.711999999999999744e+01,1.161640149149578694e-02
5.715999999999999659e+01,1.023669975504687413e-02
5.720000000000000284e+01,1.150508116598270014e-02
5.724000000000000199e+01,8.771037716152441793e-03
5.728000000000000114e+01,8.567368431906849380e-03
5.732000000000000028e+01,1.007011618195068764e-02
5.735999999999999943e+01,9.630329470452655971e-03
5.739999999999999858e+01,1.077925081144398035e-02
5.743999999999999773e+01,6.218977654900914413e-03
5.747999999999999687e+01,7.896881559201679446e-03
5.752000000000000313e+01,7.926519481710910670e-03
5.756000000000000227e+01,9.897987985720946291e-03
5.760000000000000142e+01,1.281076779215305564e-02
5.764000000000000057e+01,8.896123956894205070e-03
5.767999999999999972e+01,6.923309378219523295e-03
5.771999999999999886e+01,9.540755831242673374e-03
5.775999999999999801e+01,8.508895977761275417e-03
5.779999999999999716e+01,7.417826381067708398e-03
5.784000000000000341e+01,6.620670895090064942e-03
5.788000000000000256e+01,7.765342457502184305e-03
5.792000000000000171e+01,8.438824606957304880e-03
5.796000000000000085e+01,1.070100862595739326e-02
5.800000000000000000e+01,1.537585076251996030e-02
5.803999999999999915e+01,1.416492962918140981e-02
5.807999999999999829e+01,1.507239548382173847e-02
5.811999999999999744e+01,1.221284295868524210e-02
5.815999999999999659e+01,1.105969819342164998e-02
5.820000000000000284e+01,1.396712271683882983e-02
5.824000000000000199e+01,1.493200306265872294e-02
5.828000000000000114e+01,1.424860903554833053e-02
5.832000000000000028e+01,1.050444301160073646e-02
5.835999999999999943e+01,1.205677954426288313e-02
5.839999999999999858e+01,8.959283866758512363e-03
5.843999999999999773e+01,1.221766274928715729e-02
5.847999999999999687e+01,1.335693265660176793e-02
5.852000000000000313e+01,2.426561109781933540e-02
5.856000000000000227e+01,2.246145081353488268e-02
5.860000000000000142e+01,1.936213691877609541e-02
5.864000000000000057e+01,1.832234977979063303e-02
5.867999999999999972e+01,1.445720286626270105e-02
5.871999999999999886e+01,1.482918164789356549e-02
5.875999999999999801e+01,1.214038357465950860e-02
5.879999999999999716e+01,1.298246172217247356e-02
5.884000000000000341e+01,1.129344857489327641e-02
5.888000000000000256e+01,1.042802449906961304e-02
5.892000000000000171e+01,1.003306475749557794e-02
5.896000000000000085e+01,6.695034051384568356e-03
5.900000000000000000e+01,8.418082638616533261e-03
5.903999999999999915e+01,8.492848461779434893e-03
5.907999999999999829e+01,6.095374389578055337e-03
5.911999999999999744e+01,8.464708039497182909e-03
5.915999999999999659e+01,5.360244398454675624e-03
5.920000000000000284e+01,7.316857842560734251e-03
5.924000000000000199e+01,6.918937723269338522e-03
5.928000000000000114e+01,5.343564584164923331e-03
5.932000000000000028e+01,4.179797313660167137e-03
5.935999999999999943e+01,6.546900080958080979e-03
5.939999999999999858e+01,6.618321567564168333e-03
5.943999999999999773e+01,8.160720484554276691e-03
5.947999999999999687e+01,8.231393927231142604e-03
5.952000000000000313e+01,6.065238813560711560e-03
5.956000000000000227e+01,8.018492022110208090e-03
5.960000000000000142e+01,8.558872480690989104e-03
5.964000000000000057e+01,4.449407038299924705e-03
5.967999999999999972e+01,3.282267607988793596e-03
5.971999999999999886e+01,4.645475403290550732e-03
5.975999999999999801e+01,4.948932977635063686e-03
5.979999999999999716e+01,9.842628618455575781e-03
5.984000000000000341e+01,5.613568406261072730e-03
5.988000000000000256e+01,4.797664392041451481e-03
5.992000000000000171e+01,5.276170360755783918e-03
5.996000000000000085e+01,6.578253476675824732e-03
