2.003999999999999915e+01,6.226075967144128337e-02
2.007999999999999829e+01,4.236823242986392096e-02
2.012000000000000099e+01,4.231384218357061439e-02
2.016000000000000014e+01,5.141310475132532254e-02
2.019999999999999929e+01,2.234900212504848868e-02
2.023999999999999844e+01,3.601838469047832780e-02
2.028000000000000114e+01,3.976198992313546843e-02
2.032000000000000028e+01,0.000000000000000000e+00
2.035999999999999943e+01,2.968273240526210846e-02
2.039999999999999858e+01,4.104474636375655960e-02
2.044000000000000128e+01,3.408604672703202665e-02
2.048000000000000043e+01,7.215039475548402914e-02
2.051999999999999957e+01,5.526150506501294191e-02
2.055999999999999872e+01,4.523678333989752248e-02
2.060000000000000142e+01,4.665530116003625827e-02
2.064000000000000057e+01,4.196397425163616440e-02
2.067999999999999972e+01,7.237440802139891161e-02
2.071999999999999886e+01,3.867349487328333724e-02
2.076000000000000156e+01,3.931117431837016785e-02
2.080000000000000071e+01,9.260371812161007077e-02
2.083999999999999986e+01,6.270548486015910250e-02
2.087999999999999901e+01,5.188230298539030921e-02
2.092000000000000171e+01,5.937099956079425894e-02
2.096000000000000085e+01,9.356653510656266770e-02
2.100000000000000000e+01,1.102046027668573264e-01
2.103999999999999915e+01,5.433640665302415240e-02
2.107999999999999829e+01,9.996648729392439148e-02
2.112000000000000099e+01,8.148526953243699633e-02
2.116000000000000014e+01,1.080271819124604821e-01
2.119999999999999929e+01,8.801089471853723589e-02
2.123999999999999844e+01,7.867474690659567726e-02
2.128000000000000114e+01,1.380202552206220012e-01
2.132000000000000028e+01,1.393599116944732319e-01
2.135999999999999943e+01,1.414584108601942281e-01
2.139999999999999858e+01,1.145518238350571455e-01
2.144000000000000128e+01,1.296156897600404811e-01
2.148000000000000043e+01,1.568860797524169182e-01
2.151999999999999957e+01,1.345455978310058920e-01
2.155999999999999872e+01,1.862290505128151863e-01
2.160000000000000142e+01,1.524322849451907047e-01
2.164000000000000057e+01,1.300788850630972548e-01
2.167999999999999972e+01,1.542750339687690431e-01
2.171999999999999886e+01,1.372552908870413035e-01
2.176000000000000156e+01,1.309157502574328502e-01
2.180000000000000071e+01,1.436513726001353575e-01
2.183999999999999986e+01,9.838120617280088354e-02
2.187999999999999901e+01,1.416353911341886873e-01
2.192000000000000171e+01,1.261206192405789073e-01
2.196000000000000085e+01,1.029698071434328316e-01
2.200000000000000000e+01,1.568956941687806861e-01
2.203999999999999915e+01,1.627371279265954485e-01
2.207999999999999829e+01,1.784956251608643407e-01
2.212000000000000099e+01,2.041711907231363587e-01
2.216000000000000014e+01,1.672619395994130453e-01
2.219999999999999929e+01,1.555333222679586846e-01
2.223999999999999844e+01,1.789066548250809185e-01
2.228000000000000114e+01,1.893017414746512028e-01
2.232000000000000028e+01,1.401647419966562946e-01
2.235999999999999943e+01,1.986315968274320332e-01
2.239999999999999858e+01,1.685656192875227000e-01
2.244000000000000128e+01,1.736016158939353848e-01
2.248000000000000043e+01,1.542117240296649594e-01
2.251999999999999957e+01,1.798451272595744388e-01
2.255999999999999872e+01,1.543414291398555183e-01
2.260000000000000142e+01,1.662292579368302714e-01
2.264000000000000057e+01,1.208745727828077487e-01
2.267999999999999972e+01,1.129114242485771274e-01
2.271999999999999886e+01,1.888936622572493507e-01
2.276000000000000156e+01,1.549741334935426373e-01
2.280000000000000071e+01,1.462353112953408141e-01
2.283999999999999986e+01,1.252814888993321329e-01
2.287999999999999901e+01,1.638513832345541432e-01
2.292000000000000171e+01,1.337311307587464304e-01
2.296000000000000085e+01,1.402392710755159255e-01
2.300000000000000000e+01,1.116370969589228213e-01
2.303999999999999915e+01,1.150842586096549880e-01
2.307999999999999829e+01,9.792149350323239854e-02
2.312000000000000099e+01,1.212030295358749732e-01
2.316000000000000014e+01,1.276905374547528393e-01
2.319999999999999929e+01,1.471479558456922632e-01
2.323999999999999844e+01,1.406532223692645578e-01
2.328000000000000114e+01,1.402598089754709954e-01
2.332000000000000028e+01,1.284146313905178138e-01
2.335999999999999943e+01,1.249603169554720644e-01
2.339999999999999858e+01,1.176860259129487857e-01
2.344000000000000128e+01,1.073549409025552487e-01
2.348000000000000043e+01,9.778295571613269954e-02
2.351999999999999957e+01,7.446969723212035208e-02
2.355999999999999872e+01,1.129697713198482556e-01
2.360000000000000142e+01,1.239913816280340808e-01
2.364000000000000057e+01,1.289035110738615264e-01
2.367999999999999972e+01,9.946858635071920141e-02
2.371999999999999886e+01,1.058989688115283267e-01
2.376000000000000156e+01,1.527737300361876049e-01
2.380000000000000071e+01,1.027208730257369584e-01
2.383999999999999986e+01,1.572193386791396197e-01
2.387999999999999901e+01,1.575281519317998369e-01
2.392000000000000171e+01,1.051736732113838640e-01
2.396000000000000085e+01,1.573705317094684364e-01
2.400000000000000000e+01,1.454564411166986426e-01
2.403999999999999915e+01,1.182747847203606956e-01
2.407999999999999829e+01,1.284848347480325170e-01
2.412000000000000099e+01,1.135060174304752256e-01
2.416000000000000014e+01,1.351557384519672667e-01
2.419999999999999929e+01,1.216952905865694434e-01
2.423999999999999844e+01,1.089940347245748065e-01
2.428000000000000114e+01,1.367372206965687398e-01
2.432000000000000028e+01,1.263175411840863349e-01
2.435999999999999943e+01,1.158938904415963839e-01
2.439999999999999858e+01,1.062294511087058385e-01
2.444000000000000128e+01,1.041928281294895037e-01
2.448000000000000043e+01,1.021522484749126519e-01
2.451999999999999957e+01,1.115553838174002249e-01
2.455999999999999872e+01,1.156123276712163611e-01
2.460000000000000142e+01,1.219548627684943071e-01
2.464000000000000057e+01,1.405043052055425234e-01
2.467999999999999972e+01,1.331017704309899741e-01
2.471999999999999886e+01,1.096685745411453000e-01
2.476000000000000156e+01,1.243903453397030151e-01
2.480000000000000071e+01,1.307132426066503483e-01
2.483999999999999986e+01,9.734698188314265532e-02
2.487999999999999901e+01,1.242678582563779277e-01
2.492000000000000171e+01,9.242014164079657979e-02
2.496000000000000085e+01,9.720106039524593899e-02
2.500000000000000000e+01,1.012149077564144933e-01
2.503999999999999915e+01,1.036985107877928802e-01
2.507999999999999829e+01,1.313630969229735435e-01
2.512000000000000099e+01,9.262733644649887021e-02
2.516000000000000014e+01,1.645484810394644559e-01
2.519999999999999929e+01,1.021464655866764215e-01
2.523999999999999844e+01,1.297955646288500298e-01
2.528000000000000114e+01,1.192819146237251576e-01
2.532000000000000028e+01,1.003694541571283488e-01
2.535999999999999943e+01,1.012957662387684032e-01
2.539999999999999858e+01,7.779654401280838849e-02
2.544000000000000128e+01,8.176788191876765977e-02
2.548000000000000043e+01,1.116834292320782879e-01
2.551999999999999957e+01,1.301474791894285943e-01
2.555999999999999872e+01,1.005275028155651063e-01
2.560000000000000142e+01,9.761492819175861257e-02
2.564000000000000057e+01,1.320942492023756965e-01
2.567999999999999972e+01,9.254151364244103672e-02
2.571999999999999886e+01,1.216709727304221000e-01
2.576000000000000156e+01,9.279511850017534147e-02
2.580000000000000071e+01,1.119956683433662031e-01
2.583999999999999986e+01,1.121129817624054309e-01
2.587999999999999901e+01,1.000156637013673716e-01
2.592000000000000171e+01,1.314156975400637417e-01
2.596000000000000085e+01,1.109158646227449974e-01
2.600000000000000000e+01,1.064389929381567429e-01
2.603999999999999915e+01,1.073005983050306228e-01
2.607999999999999829e+01,7.686815174811328921e-02
2.612000000000000099e+01,1.265656151754779579e-01
2.616000000000000014e+01,9.230976900612077041e-02
2.619999999999999929e+01,1.297888868555016340e-01
2.623999999999999844e+01,9.628872720825146225e-02
2.628000000000000114e+01,9.102240736350937500e-02
2.632000000000000028e+01,8.346282065048910015e-02
2.635999999999999943e+01,5.910959394763045521e-02
2.639999999999999858e+01,9.580686648843790565e-02
2.644000000000000128e+01,8.747293058434464641e-02
2.648000000000000043e+01,8.447752509875340599e-02
2.651999999999999957e+01,1.051369217966145464e-01
2.655999999999999872e+01,9.144961363703955903e-02
2.660000000000000142e+01,8.386402823867220024e-02
2.664000000000000057e+01,6.559025911577720525e-02
2.667999999999999972e+01,5.265504466912934722e-02
2.671999999999999886e+01,8.474363472931424612e-02
2.676000000000000156e+01,8.172236640175023492e-02
2.680000000000000071e+01,1.008295786423651086e-01
2.683999999999999986e+01,6.193160855657760949e-02
2.687999999999999901e+01,1.085058851509136391e-01
2.692000000000000171e+01,7.952189999660239095e-02
2.696000000000000085e+01,9.250903730618455223e-02
2.700000000000000000e+01,5.512278957614463737e-02
2.703999999999999915e+01,9.023478553543171077e-02
2.707999999999999829e+01,8.260518403877856186e-02
2.712000000000000099e+01,7.573512385706224204e-02
2.716000000000000014e+01,8.794087675523354353e-02
2.719999999999999929e+01,1.039588918236730997e-01
2.723999999999999844e+01,9.249888460353652975e-02
2.728000000000000114e+01,9.019339377317557582e-02
2.732000000000000028e+01,9.170017966773026663e-02
2.735999999999999943e+01,8.786111368204924110e-02
2.739999999999999858e+01,5.578086702593019336e-02
2.744000000000000128e+01,9.009349027016172462e-02
2.748000000000000043e+01,6.640100881277609390e-02
2.751999999999999957e+01,5.567896179475249202e-02
2.755999999999999872e+01,9.150717674220874842e-02
2.760000000000000142e+01,3.575047886812591363e-02
2.764000000000000057e+01,6.012387533719041471e-02
2.767999999999999972e+01,6.083519182501043870e-02
2.771999999999999886e+01,4.551621106371896847e-02
2.776000000000000156e+01,8.208976104206168467e-02
2.780000000000000071e+01,8.202722319681446383e-02
2.783999999999999986e+01,8.654020293467963587e-02
2.787999999999999901e+01,5.441710455205323732e-02
2.792000000000000171e+01,4.671215594515520236e-02
2.796000000000000085e+01,4.739862841630864548e-02
2.800000000000000000e+01,3.816025990366125192e-02
2.803999999999999915e+01,5.639276687362309443e-02
2.807999999999999829e+01,5.401595353006487243e-02
2.812000000000000099e+01,6.689918076327977525e-02
2.816000000000000014e+01,6.069945296218960673e-02
2.819999999999999929e+01,9.341828687078065907e-02
2.823999999999999844e+01,7.881659729000461967e-02
2.828000000000000114e+01,3.673701156092812337e-02
2.832000000000000028e+01,7.936666937968363256e-02
2.835999999999999943e+01,8.612348508459494179e-02
2.839999999999999858e+01,3.945437440186781025e-02
2.844000000000000128e+01,7.138909951715297075e-02
2.848000000000000043e+01,6.363510813294905033e-02
2.851999999999999957e+01,7.953616150965130138e-02
2.855999999999999872e+01,5.880121924219633422e-02
2.860000000000000142e+01,8.995890959690604205e-02
2.864000000000000057e+01,7.455930276579758598e-02
2.867999999999999972e+01,6.831438212868227999e-02
2.871999999999999886e+01,6.893461917293411401e-02
2.876000000000000156e+01,9.702581902767869193e-02
2.880000000000000071e+01,5.642758524910792411e-02
2.883999999999999986e+01,9.977548030044894323e-02
2.887999999999999901e+01,7.824984036186467817e-02
2.892000000000000171e+01,5.290489332957554885e-02
2.896000000000000085e+01,5.808364451775807624e-02
2.900000000000000000e+01,5.944309831533370336e-02
2.903999999999999915e+01,8.522083773201208357e-02
2.907999999999999829e+01,5.757273323738668763e-02
2.912000000000000099e+01,8.715956895147260186e-02
2.916000000000000014e+01,1.091112377408561956e-01
2.919999999999999929e+01,5.397856574377300071e-02
2.923999999999999844e+01,5.913355966228225902e-02
2.928000000000000114e+01,4.291620102568532297e-02
2.932000000000000028e+01,5.874893984961840343e-02
2.935999999999999943e+01,6.236746927824415171e-02
2.939999999999999858e+01,7.285123886457139930e-02
2.944000000000000128e+01,6.654174203033902391e-02
2.948000000000000043e+01,8.465058418224918890e-02
2.951999999999999957e+01,8.672934740475632398e-02
2.955999999999999872e+01,1.300163706537887653e-01
2.960000000000000142e+01,8.782414596320303746e-02
2.964000000000000057e+01,8.073476869777346243e-02
2.967999999999999972e+01,9.348468794788152014e-02
2.971999999999999886e+01,8.333595243380641227e-02
2.976000000000000156e+01,1.243168124487610826e-01
2.980000000000000071e+01,8.745022666242681375e-02
2.983999999999999986e+01,1.154504462932711834e-01
2.987999999999999901e+01,1.098675415333115329e-01
2.992000000000000171e+01,7.375422838633016731e-02
2.996000000000000085e+01,1.276926022171016584e-01
3.000000000000000000e+01,1.343106660266651931e-01
3.003999999999999915e+01,1.332936696456059611e-01
3.007999999999999829e+01,1.559319072358670288e-01
3.012000000000000099e+01,1.343025605118010057e-01
3.016000000000000014e+01,1.348021018860365849e-01
3.019999999999999929e+01,1.459828693892470108e-01
3.023999999999999844e+01,1.869243125744411427e-01
3.028000000000000114e+01,2.011512799768473414e-01
3.032000000000000028e+01,2.520075328568608941e-01
3.035999999999999943e+01,3.173609202123375272e-01
3.039999999999999858e+01,3.613420908560823208e-01
3.044000000000000128e+01,4.221099390425634978e-01
3.048000000000000043e+01,5.141648475964395448e-01
3.051999999999999957e+01,5.596626869873041477e-01
3.055999999999999872e+01,6.662115301829388825e-01
3.060000000000000142e+01,6.682018020262228131e-01
3.064000000000000057e+01,6.572148419357114468e-01
3.067999999999999972e+01,5.996708320883846755e-01
3.071999999999999886e+01,5.405972668312366558e-01
3.076000000000000156e+01,5.547855742455387595e-01
3.080000000000000071e+01,5.796551805620516751e-01
3.083999999999999986e+01,5.717049567129965926e-01
3.087999999999999901e+01,5.729096858931340686e-01
3.092000000000000171e+01,5.832693729540130434e-01
3.096000000000000085e+01,6.523905789709777414e-01
3.100000000000000000e+01,6.879287964405126354e-01
3.103999999999999915e+01,6.761468300291153533e-01
3.107999999999999829e+01,7.269422860687431154e-01
3.112000000000000099e+01,7.021799897723769446e-01
3.116000000000000014e+01,6.735986580690538350e-01
3.119999999999999929e+01,6.763044740610093530e-01
3.123999999999999844e+01,6.431377972506540086e-01
3.128000000000000114e+01,6.466005223550838066e-01
3.132000000000000028e+01,5.981640308110749427e-01
3.135999999999999943e+01,6.344371515326278077e-01
3.139999999999999858e+01,5.722572202372785410e-01
3.144000000000000128e+01,5.306799767136844981e-01
3.148000000000000043e+01,5.249689815745628430e-01
3.151999999999999957e+01,4.917804832626160305e-01
3.155999999999999872e+01,4.486675757547362586e-01
3.160000000000000142e+01,4.414209311859761398e-01
3.164000000000000057e+01,4.402766206736071219e-01
3.167999999999999972e+01,4.131811819707265632e-01
3.171999999999999886e+01,4.700322214092909068e-01
3.176000000000000156e+01,5.551177653125871636e-01
3.180000000000000071e+01,5.028282385234941199e-01
3.183999999999999986e+01,5.833285828662303496e-01
3.187999999999999901e+01,5.272170440077338371e-01
3.192000000000000171e+01,5.031559179604573329e-01
3.196000000000000085e+01,4.577227644118628813e-01
3.200000000000000000e+01,4.374714332850612730e-01
3.203999999999999915e+01,4.805608188345207310e-01
3.207999999999999829e+01,4.984623024970176730e-01
3.211999999999999744e+01,5.285716007389620330e-01
3.215999999999999659e+01,5.716518961999611514e-01
3.220000000000000284e+01,5.903074821167033637e-01
3.224000000000000199e+01,6.723038089674518991e-01
3.228000000000000114e+01,7.107959912755822396e-01
3.232000000000000028e+01,7.782859237581896128e-01
3.235999999999999943e+01,8.198248105266195962e-01
3.239999999999999858e+01,9.414943689725370213e-01
3.243999999999999773e+01,9.921854019119302759e-01
3.247999999999999687e+01,9.993723145664502594e-01
3.252000000000000313e+01,9.935822233099814715e-01
3.256000000000000227e+01,1.000000000000000000e+00
3.260000000000000142e+01,9.797035822970772134e-01
3.264000000000000057e+01,8.571383740349814984e-01
3.267999999999999972e+01,7.261752479964439511e-01
3.271999999999999886e+01,6.944222771492459811e-01
3.275999999999999801e+01,5.863485750915077288e-01
3.279999999999999716e+01,5.210098816118868825e-01
3.284000000000000341e+01,4.701686234037718015e-01
3.288000000000000256e+01,4.185612495575440906e-01
3.292000000000000171e+01,3.577928092561105666e-01
3.296000000000000085e+01,4.092085756523037854e-01
3.300000000000000000e+01,3.728559731263752508e-01
3.303999999999999915e+01,3.563430746461068166e-01
3.307999999999999829e+01,3.093001510511940166e-01
3.311999999999999744e+01,2.614911409274628395e-01
3.315999999999999659e+01,1.747571597235430818e-01
3.320000000000000284e+01,1.941019920220776462e-01
3.324000000000000199e+01,1.455211069973029459e-01
3.328000000000000114e+01,1.412016443453513181e-01
3.332000000000000028e+01,1.345897638462099366e-01
3.335999999999999943e+01,1.119482701663770258e-01
3.339999999999999858e+01,1.411999912945982316e-01
3.343999999999999773e+01,1.170263973303649480e-01
3.347999999999999687e+01,1.050607828982477870e-01
3.352000000000000313e+01,9.996090833338698578e-02
3.356000000000000227e+01,1.200430454007329478e-01
3.360000000000000142e+01,7.830493111317848864e-02
3.364000000000000057e+01,1.128817499608410352e-01
3.367999999999999972e+01,1.100600163745698024e-01
3.371999999999999886e+01,7.823469087455608983e-02
3.375999999999999801e+01,1.036448683629469791e-01
3.379999999999999716e+01,8.402473009146725624e-02
3.384000000000000341e+01,7.355990386381178192e-02
3.388000000000000256e+01,9.285619480910607682e-02
3.392000000000000171e+01,6.177994003276850860e-02
3.396000000000000085e+01,8.564967913840548785e-02
3.400000000000000000e+01,9.806894941648654218e-02
3.403999999999999915e+01,8.148466659321776384e-02
3.407999999999999829e+01,5.879216916190001252e-02
3.411999999999999744e+01,6.662399580088468332e-02
3.415999999999999659e+01,8.590070666026125568e-02
3.420000000000000284e+01,1.082273509229367409e-01
3.424000000000000199e+01,8.552373279278158158e-02
3.428000000000000114e+01,7.121230228543215524e-02
3.432000000000000028e+01,8.742522010613060224e-02
3.435999999999999943e+01,6.547649018117128461e-02
3.439999999999999858e+01,9.465791856493445400e-02
3.443999999999999773e+01,6.125601968826964450e-02
3.447999999999999687e+01,7.974746661148389426e-02
3.452000000000000313e+01,7.991990768475475126e-02
3.456000000000000227e+01,8.772139255361617594e-02
3.460000000000000142e+01,6.804574781893191204e-02
3.464000000000000057e+01,1.017898238664397270e-01
3.467999999999999972e+01,1.538474472970031426e-01
3.471999999999999886e+01,1.807174890428427938e-01
3.475999999999999801e+01,1.839263095316248098e-01
3.479999999999999716e+01,1.787374693760661049e-01
3.484000000000000341e+01,1.262289062367376313e-01
3.488000000000000256e+01,1.393509375978300713e-01
3.492000000000000171e+01,9.523194443349208838e-02
3.496000000000000085e+01,7.171606597722830767e-02
3.500000000000000000e+01,1.054358409073903186e-01
3.503999999999999915e+01,7.046693904589337865e-02
3.507999999999999829e+01,8.128603345304460936e-02
3.511999999999999744e+01,9.591835063718165411e-02
3.515999999999999659e+01,9.070538402004384160e-02
3.520000000000000284e+01,1.190695836172672023e-01
3.524000000000000199e+01,1.329307536327223871e-01
3.528000000000000114e+01,1.170253431567907787e-01
3.532000000000000028e+01,1.163808465364663397e-01
3.535999999999999943e+01,1.607612023575753224e-01
3.539999999999999858e+01,1.769013478180615218e-01
3.543999999999999773e+01,1.777753101664664992e-01
3.547999999999999687e+01,2.099369393259010730e-01
3.552000000000000313e+01,1.734099499122655486e-01
3.556000000000000227e+01,1.483280145232397096e-01
3.560000000000000142e+01,1.354543157984309520e-01
3.564000000000000057e+01,1.225780139804542590e-01
3.567999999999999972e+01,8.909331364328222647e-02
3.571999999999999886e+01,9.376490931895971326e-02
3.575999999999999801e+01,9.309167193970775689e-02
3.579999999999999716e+01,9.699491760183442945e-02
3.584000000000000341e+01,5.281538378086010621e-02
3.588000000000000256e+01,7.502974353709183919e-02
3.592000000000000171e+01,8.808340070429868107e-02
3.596000000000000085e+01,6.755467091616097763e-02
3.600000000000000000e+01,7.220824870472382362e-02
3.603999999999999915e+01,8.067516085590142882e-02
3.607999999999999829e+01,8.456045655260048532e-02
3.611999999999999744e+01,8.081142949413661070e-02
3.615999999999999659e+01,7.553350683652609865e-02
3.620000000000000284e+01,7.788482688801846854e-02
3.624000000000000199e+01,9.320763901657161399e-02
3.628000000000000114e+01,6.578996954547229603e-02
3.632000000000000028e+01,7.729184664851716791e-02
3.635999999999999943e+01,9.337027471462770734e-02
3.639999999999999858e+01,6.670823573573299303e-02
3.643999999999999773e+01,7.286033558116250530e-02
3.647999999999999687e+01,1.087738679502318895e-01
3.652000000000000313e+01,7.752525861107473215e-02
3.656000000000000227e+01,1.004597807165239221e-01
3.660000000000000142e+01,1.035491936764649373e-01
3.664000000000000057e+01,1.012938803155562090e-01
3.667999999999999972e+01,1.059046900942809399e-01
3.671999999999999886e+01,8.303862740156085775e-02
3.675999999999999801e+01,8.840767561720733192e-02
3.679999999999999716e+01,8.614248355402513713e-02
3.684000000000000341e+01,7.395352269938819390e-02
3.688000000000000256e+01,7.702566491077258992e-02
3.692000000000000171e+01,7.170040360991707107e-02
3.696000000000000085e+01,8.392578844235609736e-02
3.700000000000000000e+01,8.546424610147831946e-02
3.703999999999999915e+01,8.471073710747512031e-02
3.707999999999999829e+01,8.319162188801229596e-02
3.711999999999999744e+01,1.007495277841570364e-01
3.715999999999999659e+01,1.022782813967726689e-01
3.720000000000000284e+01,1.335685548609114315e-01
3.724000000000000199e+01,1.358556633476265818e-01
3.728000000000000114e+01,1.198241007412845782e-01
3.732000000000000028e+01,9.921107207848546550e-02
3.735999999999999943e+01,1.167545383420481586e-01
3.739999999999999858e+01,1.220847703716680666e-01
3.743999999999999773e+01,1.174913063830693993e-01
3.747999999999999687e+01,1.312117293859616229e-01
3.752000000000000313e+01,1.350084660737334852e-01
3.756000000000000227e+01,1.349869436024011271e-01
3.760000000000000142e+01,1.464107225846812410e-01
3.764000000000000057e+01,9.906745137075163854e-02
3.767999999999999972e+01,1.387240923313131091e-01
3.771999999999999886e+01,1.325877151957553235e-01
3.775999999999999801e+01,1.058431918215542167e-01
3.779999999999999716e+01,7.222772724530979183e-02
3.784000000000000341e+01,9.890097166770926707e-02
3.788000000000000256e+01,8.359710634047778921e-02
3.792000000000000171e+01,1.049234482851783279e-01
3.796000000000000085e+01,1.025889570967473963e-01
3.800000000000000000e+01,8.804130444760979723e-02
3.803999999999999915e+01,1.017289179564092871e-01
3.807999999999999829e+01,8.946617952254920514e-02
3.811999999999999744e+01,1.000964724333156669e-01
3.815999999999999659e+01,9.240820098510467429e-02
3.820000000000000284e+01,1.175342818293773628e-01
3.824000000000000199e+01,1.754747198176827283e-01
3.828000000000000114e+01,3.204151427537155206e-01
3.832000000000000028e+01,4.607742209220180851e-01
3.835999999999999943e+01,4.805489353892647419e-01
3.839999999999999858e+01,5.102426927649886812e-01
3.843999999999999773e+01,3.796668511637187327e-01
3.847999999999999687e+01,2.872476403321846394e-01
3.852000000000000313e+01,2.223005760891181015e-01
3.856000000000000227e+01,1.726148186771339355e-01
3.860000000000000142e+01,8.705746114786939993e-02
3.864000000000000057e+01,9.231602117056568468e-02
3.867999999999999972e+01,1.013882357581158966e-01
3.871999999999999886e+01,8.679970939196714197e-02
3.875999999999999801e+01,7.831438065794536774e-02
3.879999999999999716e+01,8.432721007624227605e-02
3.884000000000000341e+01,7.278473539995433672e-02
3.888000000000000256e+01,6.352958397014887848e-02
3.892000000000000171e+01,1.061683168621701534e-01
3.896000000000000085e+01,9.538240417550984673e-02
3.900000000000000000e+01,9.451560717056302352e-02
3.903999999999999915e+01,7.838306369295194864e-02
3.907999999999999829e+01,8.514366799714527534e-02
3.911999999999999744e+01,8.427031341235642625e-02
3.915999999999999659e+01,7.499982700207613595e-02
3.920000000000000284e+01,8.709614735213068448e-02
3.924000000000000199e+01,8.240038991114966016e-02
3.928000000000000114e+01,8.762378211272570105e-02
3.932000000000000028e+01,7.300239507413078255e-02
3.935999999999999943e+01,8.432690093041733670e-02
3.939999999999999858e+01,7.199074830933915869e-02
3.943999999999999773e+01,9.552180953099952132e-02
3.947999999999999687e+01,7.173371054858328211e-02
3.952000000000000313e+01,6.854927935083603152e-02
3.956000000000000227e+01,6.917860945202240763e-02
3.960000000000000142e+01,6.293721667087394389e-02
3.964000000000000057e+01,8.416810632156715433e-02
3.967999999999999972e+01,7.715930472738893875e-02
3.971999999999999886e+01,5.641119471299757548e-02
3.975999999999999801e+01,6.924080398956229676e-02
3.979999999999999716e+01,6.909429233707049811e-02
3.984000000000000341e+01,9.184102064581543823e-02
3.988000000000000256e+01,7.108452620626656837e-02
3.992000000000000171e+01,6.101043682211837460e-02
3.996000000000000085e+01,8.375091319861326100e-02
4.000000000000000000e+01,7.519902599039571256e-02
4.003999999999999915e+01,7.504002502805089125e-02
4.007999999999999829e+01,9.624793756012063606e-02
4.011999999999999744e+01,5.639956732784796867e-02
4.015999999999999659e+01,6.005027614678126041e-02
4.020000000000000284e+01,6.064622379690778192e-02
4.024000000000000199e+01,7.650368204317792298e-02
4.028000000000000114e+01,8.472732209538925974e-02
4.032000000000000028e+01,1.021070601423753194e-01
4.035999999999999943e+01,8.514176711635701444e-02
4.039999999999999858e+01,7.275351505986134282e-02
4.043999999999999773e+01,5.883688651997025926e-02
4.047999999999999687e+01,7.315582008250977319e-02
4.052000000000000313e+01,5.618245313047492279e-02
4.056000000000000227e+01,6.744465798396895306e-02
4.060000000000000142e+01,7.946803912443899109e-02
4.064000000000000057e+01,8.919989025120056425e-02
4.067999999999999972e+01,6.916581584570077879e-02
4.071999999999999886e+01,7.889368822804292136e-02
4.075999999999999801e+01,9.014593409161579529e-02
4.079999999999999716e+01,1.021593804999101351e-01
4.084000000000000341e+01,7.677514290155550147e-02
4.088000000000000256e+01,4.680987103461169141e-02
4.092000000000000171e+01,5.423834809383906719e-02
4.096000000000000085e+01,7.082300077262651539e-02
4.100000000000000000e+01,6.985261134047938969e-02
4.103999999999999915e+01,9.177560741604130767e-02
4.107999999999999829e+01,4.424748149579652706e-02
4.111999999999999744e+01,5.853481797733681852e-02
4.115999999999999659e+01,7.739928760783212902e-02
4.120000000000000284e+01,4.741845007474434354e-02
4.124000000000000199e+01,8.917440074284792295e-02
4.128000000000000114e+01,8.055869837434985470e-02
4.132000000000000028e+01,6.736201510430245287e-02
4.135999999999999943e+01,6.790062269765607950e-02
4.139999999999999858e+01,8.675359273431018647e-02
4.143999999999999773e+01,7.431437384201868002e-02
4.147999999999999687e+01,9.392672728117679171e-02
4.152000000000000313e+01,6.393063458108608210e-02
4.156000000000000227e+01,6.369659055136793480e-02
4.160000000000000142e+01,9.627731119580505703e-02
4.164000000000000057e+01,8.611820034816614067e-02
4.167999999999999972e+01,8.282581908379534064e-02
4.171999999999999886e+01,1.054796169557014607e-01
4.175999999999999801e+01,1.243156650811566150e-01
4.179999999999999716e+01,8.591152314762261211e-02
4.184000000000000341e+01,8.337488614977180135e-02
4.188000000000000256e+01,9.304724750934331712e-02
4.192000000000000171e+01,9.355963401225129983e-02
4.196000000000000085e+01,7.117485032499400177e-02
4.200000000000000000e+01,9.305254664825847455e-02
4.203999999999999915e+01,1.019543937292147623e-01
4.207999999999999829e+01,1.078017076641709787e-01
4.211999999999999744e+01,8.312009293457428560e-02
4.215999999999999659e+01,9.125331080081985902e-02
4.220000000000000284e+01,9.098976555930385346e-02
4.224000000000000199e+01,8.767170657798413480e-02
4.228000000000000114e+01,8.129913870840975443e-02
4.232000000000000028e+01,8.637244477523906006e-02
4.235999999999999943e+01,6.931180695545220705e-02
4.239999999999999858e+01,9.498734208556118552e-02
4.243999999999999773e+01,6.342276478146620378e-02
4.247999999999999687e+01,7.841025907065717060e-02
4.252000000000000313e+01,9.186962915700465360e-02
4.256000000000000227e+01,7.708965731001420074e-02
4.260000000000000142e+01,7.070288220803763735e-02
4.264000000000000057e+01,8.568333109961637217e-02
4.267999999999999972e+01,1.151624087437740918e-01
4.271999999999999886e+01,9.732271915933057849e-02
4.275999999999999801e+01,7.642857890522126996e-02
4.279999999999999716e+01,9.140206002397310847e-02
4.284000000000000341e+01,9.111025556722314456e-02
4.288000000000000256e+01,8.089541490292906367e-02
4.292000000000000171e+01,8.060016537215829169e-02
4.296000000000000085e+01,8.411908952199255440e-02
4.300000000000000000e+01,9.297854778009782828e-02
4.303999999999999915e+01,6.978283338316208784e-02
4.307999999999999829e+01,8.169159653187263448e-02
4.311999999999999744e+01,8.978277488680079521e-02
4.315999999999999659e+01,1.001617956039626972e-01
4.320000000000000284e+01,6.856435182752085300e-02
4.324000000000000199e+01,6.215009375816253623e-02
4.328000000000000114e+01,8.244538182355362621e-02
4.332000000000000028e+01,6.458010889028018009e-02
4.335999999999999943e+01,7.495074737097107143e-02
4.339999999999999858e+01,7.387205713813925489e-02
4.343999999999999773e+01,9.263433235372754704e-02
4.347999999999999687e+01,1.037631774991831790e-01
4.352000000000000313e+01,7.062606359925256705e-02
4.356000000000000227e+01,7.946208555608268165e-02
4.360000000000000142e+01,1.188235814003467533e-01
4.364000000000000057e+01,7.499706556289394144e-02
4.367999999999999972e+01,7.848594465325785252e-02
4.371999999999999886e+01,8.273637845142578495e-02
4.375999999999999801e+01,8.164294950447971433e-02
4.379999999999999716e+01,1.095486631265962379e-01
4.384000000000000341e+01,7.487218960231782627e-02
4.388000000000000256e+01,9.743244650836047072e-02
4.392000000000000171e+01,8.183221518897472457e-02
4.396000000000000085e+01,1.112578793940741106e-01
4.400000000000000000e+01,9.718082056043442218e-02
4.403999999999999915e+01,9.454984427980894779e-02
4.407999999999999829e+01,9.344364415898756548e-02
4.411999999999999744e+01,1.014940029301032720e-01
4.415999999999999659e+01,1.049637252596542503e-01
4.420000000000000284e+01,6.340439323209486056e-02
4.424000000000000199e+01,9.129267990773233532e-02
4.428000000000000114e+01,6.728332183683234657e-02
4.432000000000000028e+01,1.005107475632931457e-01
4.435999999999999943e+01,9.939362737165741146e-02
4.439999999999999858e+01,7.919552187464193316e-02
4.443999999999999773e+01,9.639159224011653593e-02
4.447999999999999687e+01,9.908575373165993960e-02
4.452000000000000313e+01,9.109390014111315437e-02
4.456000000000000227e+01,9.607454774983517631e-02
4.460000000000000142e+01,8.960601219150673979e-02
4.464000000000000057e+01,7.932007619826078604e-02
4.467999999999999972e+01,9.955974508427395397e-02
4.471999999999999886e+01,9.156033402059923776e-02
4.475999999999999801e+01,1.079811152348147396e-01
4.479999999999999716e+01,1.198213376322506268e-01
4.484000000000000341e+01,1.072383835749378123e-01
4.488000000000000256e+01,1.122070362576370051e-01
4.492000000000000171e+01,1.125951446782037374e-01
4.496000000000000085e+01,1.114554248404207304e-01
4.500000000000000000e+01,1.263409707211801125e-01
4.503999999999999915e+01,1.313037423780455404e-01
4.507999999999999829e+01,1.324491669670334326e-01
4.511999999999999744e+01,1.267245381874591847e-01
4.515999999999999659e+01,1.324461278042731172e-01
4.520000000000000284e+01,1.709829187346592894e-01
4.524000000000000199e+01,1.713593815407367382e-01
4.528000000000000114e+01,1.808925439336744878e-01
4.532000000000000028e+01,1.934769884605544721e-01
4.535999999999999943e+01,1.892700974834078120e-01
4.539999999999999858e+01,1.858249649791265112e-01
4.543999999999999773e+01,2.090896405932446689e-01
4.547999999999999687e+01,1.926676616162317779e-01
4.552000000000000313e+01,2.685887902337379951e-01
4.556000000000000227e+01,2.475849398588321482e-01
4.560000000000000142e+01,2.693176505577482560e-01
4.564000000000000057e+01,2.612850373164886664e-01
4.567999999999999972e+01,2.860676836073902107e-01
4.571999999999999886e+01,2.734532377806302983e-01
4.575999999999999801e+01,2.631269496667940633e-01
4.579999999999999716e+01,2.642469575741314691e-01
4.584000000000000341e+01,2.714710218377826001e-01
4.588000000000000256e+01,2.329030577213264674e-01
4.592000000000000171e+01,2.012023374523406460e-01
4.596000000000000085e+01,1.870533549151916775e-01
4.600000000000000000e+01,2.026669595703630700e-01
4.603999999999999915e+01,1.755412664038567550e-01
4.607999999999999829e+01,1.896258369536446831e-01
4.611999999999999744e+01,1.602079415967948006e-01
4.615999999999999659e+01,1.559735861101110010e-01
4.620000000000000284e+01,1.502115527630989988e-01
4.624000000000000199e+01,1.253687572819648377e-01
4.628000000000000114e+01,1.295254051659359973e-01
4.632000000000000028e+01,1.237594340755838462e-01
4.635999999999999943e+01,1.271502935639170495e-01
4.639999999999999858e+01,1.198553659929667697e-01
4.643999999999999773e+01,9.195334496952276004e-02
4.647999999999999687e+01,1.067879917539806267e-01
4.652000000000000313e+01,1.017787325771015022e-01
4.656000000000000227e+01,1.196635284217040518e-01
4.660000000000000142e+01,9.557227215437459622e-02
4.664000000000000057e+01,9.895414733997535961e-02
4.667999999999999972e+01,9.012391385101940766e-02
4.671999999999999886e+01,1.057141103658582604e-01
4.675999999999999801e+01,9.611818551224583784e-02
4.679999999999999716e+01,7.736287769095745448e-02
4.684000000000000341e+01,8.913343673257818900e-02
4.688000000000000256e+01,8.563920020515405906e-02
4.692000000000000171e+01,7.298559526470105308e-02
4.696000000000000085e+01,8.627880501345421005e-02
4.700000000000000000e+01,8.507041153586797355e-02
4.703999999999999915e+01,8.538715323271765800e-02
4.707999999999999829e+01,6.586005688991729279e-02
4.711999999999999744e+01,7.227979464251947650e-02
4.715999999999999659e+01,8.404057106449662473e-02
4.720000000000000284e+01,8.435247967011343107e-02
4.724000000000000199e+01,6.253103627810135956e-02
4.728000000000000114e+01,7.352504648021351841e-02
4.732000000000000028e+01,8.222833687731324892e-02
4.735999999999999943e+01,5.582426743443870409e-02
4.739999999999999858e+01,9.276277766267126967e-02
4.743999999999999773e+01,8.009355978091846351e-02
4.747999999999999687e+01,6.971270822869968242e-02
4.752000000000000313e+01,9.977911726048353802e-02
4.756000000000000227e+01,9.321183513392181097e-02
4.760000000000000142e+01,7.977480043484085070e-02
4.764000000000000057e+01,7.854746271624932219e-02
4.767999999999999972e+01,7.350309328047015256e-02
4.771999999999999886e+01,9.440563071332958023e-02
4.775999999999999801e+01,8.935899027840621400e-02
4.779999999999999716e+01,1.194173998719204183e-01
4.784000000000000341e+01,1.197107523604580281e-01
4.788000000000000256e+01,1.261084086343124411e-01
4.792000000000000171e+01,9.892512856599666726e-02
4.796000000000000085e+01,9.387289553532192354e-02
4.800000000000000000e+01,1.201098478505380485e-01
4.803999999999999915e+01,7.155427782307820228e-02
4.807999999999999829e+01,8.710454773111801774e-02
4.811999999999999744e+01,9.349559477260138696e-02
4.815999999999999659e+01,8.233246813043501589e-02
4.820000000000000284e+01,1.016953733038466062e-01
4.824000000000000199e+01,7.602971412660462780e-02
4.828000000000000114e+01,8.165327425609704426e-02
4.832000000000000028e+01,7.659128020066167941e-02
4.835999999999999943e+01,8.526542602971583229e-02
4.839999999999999858e+01,9.775440535004975562e-02
4.843999999999999773e+01,8.429428927893524437e-02
4.847999999999999687e+01,8.457032764695754379e-02
4.852000000000000313e+01,7.873990281614773323e-02
4.856000000000000227e+01,7.977704203504742964e-02
4.860000000000000142e+01,8.768175015520573989e-02
4.864000000000000057e+01,1.077962765445804882e-01
4.867999999999999972e+01,6.609238061305693079e-02
4.871999999999999886e+01,1.022316024268694196e-01
4.875999999999999801e+01,8.036830056317383064e-02
4.879999999999999716e+01,8.139932540770827840e-02
4.884000000000000341e+01,8.548205932250393935e-02
4.888000000000000256e+01,8.040566255017553288e-02
4.892000000000000171e+01,7.914416233926487021e-02
4.896000000000000085e+01,9.543476372637191285e-02
4.900000000000000000e+01,8.959222658400953221e-02
4.903999999999999915e+01,7.611693373683622865e-02
4.907999999999999829e+01,8.782553492291179931e-02
4.911999999999999744e+01,1.010595235639752815e-01
4.915999999999999659e+01,8.147590404894825000e-02
4.920000000000000284e+01,1.069188156113353716e-01
4.924000000000000199e+01,1.094654399654892279e-01
4.928000000000000114e+01,1.005634487838346774e-01
4.932000000000000028e+01,1.214244474730737378e-01
4.935999999999999943e+01,1.109942178400844942e-01
4.939999999999999858e+01,1.234583876885614606e-01
4.943999999999999773e+01,9.928909440149967514e-02
4.947999999999999687e+01,1.064091659676444646e-01
4.952000000000000313e+01,1.196337402326183852e-01
4.956000000000000227e+01,9.469851034058383854e-02
4.960000000000000142e+01,1.155530378295125393e-01
4.964000000000000057e+01,1.318275935391001741e-01
4.967999999999999972e+01,1.137582485866184268e-01
4.971999999999999886e+01,1.147674529877037303e-01
4.975999999999999801e+01,1.218811891969124594e-01
4.979999999999999716e+01,1.641002180120123832e-01
4.984000000000000341e+01,1.216056315593858211e-01
4.988000000000000256e+01,1.554279479709016476e-01
4.992000000000000171e+01,1.701699485908104714e-01
4.996000000000000085e+01,1.429363046289097161e-01
5.000000000000000000e+01,1.546238664709374266e-01
5.003999999999999915e+01,1.792845941744577454e-01
5.007999999999999829e+01,1.627328696388740115e-01
5.011999999999999744e+01,1.667860985484648229e-01
5.015999999999999659e+01,1.677857743249692168e-01
5.020000000000000284e+01,1.626791906677027555e-01
5.024000000000000199e+01,1.369659744551050828e-01
5.028000000000000114e+01,1.272786643655278160e-01
5.032000000000000028e+01,1.465912876475129467e-01
5.035999999999999943e+01,1.285073815915294126e-01
5.039999999999999858e+01,1.653714634041914266e-01
5.043999999999999773e+01,1.457595808805234316e-01
5.047999999999999687e+01,1.154624061555777209e-01
5.052000000000000313e+01,1.485081895225670578e-01
5.056000000000000227e+01,1.281307342601071542e-01
5.060000000000000142e+01,1.321741796017024961e-01
5.064000000000000057e+01,1.194269298437496268e-01
5.067999999999999972e+01,1.311005903929500227e-01
5.071999999999999886e+01,1.572738548560942140e-01
5.075999999999999801e+01,1.468138162848190709e-01
5.079999999999999716e+01,1.470375023902935896e-01
5.084000000000000341e+01,1.426813622628993194e-01
5.088000000000000256e+01,1.497721343034113528e-01
5.092000000000000171e+01,1.538094453902694447e-01
5.096000000000000085e+01,1.746359228645408268e-01
5.100000000000000000e+01,1.595923042017456106e-01
5.103999999999999915e+01,1.590483282652866703e-01
5.107999999999999829e+01,1.722408221186546018e-01
5.111999999999999744e+01,1.411682787209609657e-01
5.115999999999999659e+01,1.436748373057105677e-01
5.120000000000000284e+01,1.126008573753141812e-01
5.124000000000000199e+01,1.143428113424006659e-01
5.128000000000000114e+01,1.145577035958917911e-01
5.132000000000000028e+01,1.063769388948108546e-01
5.135999999999999943e+01,9.514276660711595834e-02
5.139999999999999858e+01,8.238154716047269011e-02
5.143999999999999773e+01,8.106730780342284726e-02
5.147999999999999687e+01,8.967369781139887530e-02
5.152000000000000313e+01,1.005689441553657554e-01
5.156000000000000227e+01,7.330462891977805595e-02
5.160000000000000142e+01,9.717255815901632010e-02
5.164000000000000057e+01,5.998560188004648658e-02
5.167999999999999972e+01,8.690492217599325719e-02
5.171999999999999886e+01,6.040114453741422113e-02
5.175999999999999801e+01,7.434514174703982237e-02
5.179999999999999716e+01,6.691951782368985024e-02
5.184000000000000341e+01,6.178278904872355759e-02
5.188000000000000256e+01,7.572487161097427033e-02
5.192000000000000171e+01,7.440276989936381313e-02
5.196000000000000085e+01,7.002733337437534733e-02
5.200000000000000000e+01,8.320436716513460174e-02
5.203999999999999915e+01,7.195909777997915036e-02
5.207999999999999829e+01,8.818761965842847328e-02
5.211999999999999744e+01,1.013628261296963401e-01
5.215999999999999659e+01,8.477349946328791019e-02
5.220000000000000284e+01,8.649984515843085753e-02
5.224000000000000199e+01,8.059382327268928281e-02
5.228000000000000114e+01,8.231899441877964241e-02
5.232000000000000028e+01,6.267460750203247832e-02
5.235999999999999943e+01,8.805713493507649758e-02
5.239999999999999858e+01,7.146431373080487648e-02
5.243999999999999773e+01,9.150346091078023769e-02
5.247999999999999687e+01,5.964595791177883244e-02
5.252000000000000313e+01,7.052585530459001828e-02
5.256000000000000227e+01,4.782537913492370535e-02
5.260000000000000142e+01,7.473091315269356216e-02
5.264000000000000057e+01,8.637235022448562505e-02
5.267999999999999972e+01,7.206520616903142051e-02
5.271999999999999886e+01,8.217921984973372562e-02
5.275999999999999801e+01,8.313457344357255696e-02
5.279999999999999716e+01,7.493127180209710470e-02
5.284000000000000341e+01,7.054334217384872208e-02
5.288000000000000256e+01,7.989210065513575876e-02
5.292000000000000171e+01,9.229306306468991472e-02
5.296000000000000085e+01,6.577145591084872234e-02
5.300000000000000000e+01,6.214468487789079343e-02
5.303999999999999915e+01,6.233331011590561438e-02
5.307999999999999829e+01,9.228538127042722194e-02
5.311999999999999744e+01,5.584050189764795669e-02
5.315999999999999659e+01,7.052805621010878323e-02
5.320000000000000284e+01,6.766204813410355012e-02
5.324000000000000199e+01,7.319052731516664800e-02
5.328000000000000114e+01,6.650769832727078390e-02
5.332000000000000028e+01,7.356161081595020967e-02
5.335999999999999943e+01,7.450964714323574101e-02
5.339999999999999858e+01,7.698359004126040239e-02
5.343999999999999773e+01,5.045633283923801199e-02
5.347999999999999687e+01,7.811425928708154443e-02
5.352000000000000313e+01,6.761286188127525743e-02
5.356000000000000227e+01,6.855870169716372919e-02
5.360000000000000142e+01,5.271420542813529120e-02
5.364000000000000057e+01,6.281733405700887229e-02
5.367999999999999972e+01,6.376191418464781380e-02
5.371999999999999886e+01,6.775879527153540194e-02
5.375999999999999801e+01,7.862387110951250813e-02
5.379999999999999716e+01,7.269863512031823904e-02
5.384000000000000341e+01,8.432609261812926138e-02
5.388000000000000256e+01,7.992642577992528641e-02
5.392000000000000171e+01,7.705272858259852586e-02
5.396000000000000085e+01,7.875771702993172863e-02
5.400000000000000000e+01,8.962046270182401353e-02
5.403999999999999915e+01,8.521928123195619820e-02
5.407999999999999829e+01,8.921268890168733423e-02
5.411999999999999744e+01,9.015302374169087418e-02
5.415999999999999659e+01,7.277673484234779833e-02
5.420000000000000284e+01,8.745356106706099475e-02
5.424000000000000199e+01,8.534012883164286689e-02
5.428000000000000114e+01,8.856859884133536087e-02
5.432000000000000028e+01,8.340177576263674286e-02
5.435999999999999943e+01,8.357686463214730743e-02
5.439999999999999858e+01,1.096996705789922422e-01
5.443999999999999773e+01,9.003148637723230874e-02
5.447999999999999687e+01,8.486336213502926329e-02
5.452000000000000313e+01,7.511585800247252975e-02
5.456000000000000227e+01,7.223664565198679999e-02
5.460000000000000142e+01,1.037001303052233064e-01
5.464000000000000057e+01,7.487227109449114126e-02
5.467999999999999972e+01,6.130767388911941007e-02
5.471999999999999886e+01,8.208578824211712477e-02
5.475999999999999801e+01,7.233650702007048128e-02
5.479999999999999716e+01,8.166639129832350963e-02
5.484000000000000341e+01,8.260104555832346873e-02
5.488000000000000256e+01,8.735131926055374196e-02
5.492000000000000171e+01,7.454823919092830320e-02
5.496000000000000085e+01,7.853481066362384688e-02
5.500000000000000000e+01,9.167926064960553456e-02
5.503999999999999915e+01,7.505952680944479039e-02
5.507999999999999829e+01,8.820348146324472061e-02
5.511999999999999744e+01,7.310961757011708029e-02
5.515999999999999659e+01,1.022798298471577633e-01
5.520000000000000284e+01,9.863316655201856409e-02
5.524000000000000199e+01,9.956534415110969427e-02
5.528000000000000114e+01,6.462794472888579167e-02
5.532000000000000028e+01,9.837633010089465169e-02
5.535999999999999943e+01,8.099159239351887141e-02
5.539999999999999858e+01,9.337058199249644030e-02
5.543999999999999773e+01,8.590674752558138949e-02
5.547999999999999687e+01,8.836402757859966595e-02
5.552000000000000313e+01,9.158429354639979758e-02
5.556000000000000227e+01,7.725128336712978883e-02
5.560000000000000142e+01,7.512893562661550340e-02
5.564000000000000057e+01,1.020071665136906280e-01
5.567999999999999972e+01,7.851549092183225664e-02
5.571999999999999886e+01,7.868215914425256974e-02
5.575999999999999801e+01,8.342773133104122718e-02
5.579999999999999716e+01,7.519912320840425879e-02
5.584000000000000341e+01,6.849671760100041473e-02
5.588000000000000256e+01,9.232127530659713088e-02
5.592000000000000171e+01,8.790811149624770671e-02
5.596000000000000085e+01,1.010478983050047130e-01
5.600000000000000000e+01,7.068641753974598541e-02
5.603999999999999915e+01,7.772051958620972145e-02
5.607999999999999829e+01,9.009674219749293222e-02
5.611999999999999744e+01,9.178835667591817016e-02
5.615999999999999659e+01,9.424303469391064059e-02
5.620000000000000284e+01,8.372358091796841539e-02
5.624000000000000199e+01,1.014416007547933180e-01
5.628000000000000114e+01,9.015876495155550341e-02
5.632000000000000028e+01,7.887583430602272683e-02
5.635999999999999943e+01,1.156730143174226344e-01
5.639999999999999858e+01,9.141588614495457787e-02
5.643999999999999773e+01,1.068439226638748935e-01
5.647999999999999687e+01,9.174477222436136503e-02
5.652000000000000313e+01,9.725135147787448975e-02
5.656000000000000227e+01,1.035210427864454857e-01
5.660000000000000142e+01,1.143697399419156824e-01
5.664000000000000057e+01,1.023230474257317141e-01
5.667999999999999972e+01,1.146979929490630074e-01
5.671999999999999886e+01,1.011248473516048185e-01
5.675999999999999801e+01,9.594661594753402245e-02
5.679999999999999716e+01,1.281640595346179301e-01
5.684000000000000341e+01,1.268016486749758975e-01
5.688000000000000256e+01,1.475713667484194469e-01
5.692000000000000171e+01,1.553670403558114477e-01
5.696000000000000085e+01,1.608731633815186080e-01
5.700000000000000000e+01,1.602738517367981452e-01
5.703999999999999915e+01,1.902016441000015379e-01
5.707999999999999829e+01,1.819705443974230230e-01
5.711999999999999744e+01,1.706867357312976119e-01
5.715999999999999659e+01,1.922195789919186881e-01
5.720000000000000284e+01,1.771199003175217557e-01
5.724000000000000199e+01,1.894946387565606405e-01
5.728000000000000114e+01,1.934744431218403116e-01
5.732000000000000028e+01,1.882961404768511149e-01
5.735999999999999943e+01,1.831178691298430139e-01
5.739999999999999858e+01,1.909136563293578615e-01
5.743999999999999773e+01,1.781036842523752439e-01
5.747999999999999687e+01,1.698728247563712490e-01
5.752000000000000313e+01,1.830109940301797300e-01
5.756000000000000227e+01,1.930965077074808800e-01
5.760000000000000142e+01,1.642600146010797790e-01
5.764000000000000057e+01,1.552662092430214524e-01
5.767999999999999972e+01,1.882472523385482766e-01
5.771999999999999886e+01,1.708586363841440303e-01
5.775999999999999801e+01,1.870499229177808032e-01
5.779999999999999716e+01,1.811091382627452728e-01
5.784000000000000341e+01,1.682998430317541594e-01
5.788000000000000256e+01,1.860177536912176466e-01
5.792000000000000171e+01,1.800772521405394899e-01
5.796000000000000085e+01,1.794790991774870281e-01
5.800000000000000000e+01,1.636174993760330931e-01
5.803999999999999915e+01,1.645459246861791514e-01
5.807999999999999829e+01,1.700535353505401304e-01
5.811999999999999744e+01,1.839562251609568322e-01
5.815999999999999659e+01,1.597001538974166246e-01
5.820000000000000284e+01,1.468918826352641760e-01
5.824000000000000199e+01,1.676635720797413631e-01
5.828000000000000114e+01,1.632505374019016242e-01
5.832000000000000028e+01,1.550217615189290465e-01
5.835999999999999943e+01,1.193187378525623205e-01
5.839999999999999858e+01,1.210115832393137136e-01
5.843999999999999773e+01,1.120201018830538076e-01
5.847999999999999687e+01,1.228714101576673240e-01
5.852000000000000313e+01,1.039589566909079471e-01
5.856000000000000227e+01,9.267845794918584679e-02
5.860000000000000142e+01,9.360898551240064147e-02
5.864000000000000057e+01,9.148698847093318653e-02
5.867999999999999972e+01,9.089153840468314205e-02
5.871999999999999886e+01,8.495404007267418067e-02
5.875999999999999801e+01,8.435898735927266356e-02
5.879999999999999716e+01,7.918507387126863528e-02
5.884000000000000341e+01,6.409005994380248539e-02
5.888000000000000256e+01,8.410143992386835687e-02
5.892000000000000171e+01,7.587546225416876011e-02
5.896000000000000085e+01,8.596597685781469378e-02
5.900000000000000000e+01,7.010867687896887857e-02
5.903999999999999915e+01,7.791012339297520573e-02
5.907999999999999829e+01,6.968507627234675483e-02
5.911999999999999744e+01,8.664514092378579335e-02
5.915999999999999659e+01,7.002563251834514890e-02
5.920000000000000284e+01,7.630171222389481311e-02
5.924000000000000199e+01,8.028851788605709250e-02
5.928000000000000114e+01,7.206474311162178181e-02
5.932000000000000028e+01,6.155170399689720295e-02
5.935999999999999943e+01,8.385558364411828391e-02
5.939999999999999858e+01,7.334309713181287604e-02
5.943999999999999773e+01,7.198902765474099463e-02
5.947999999999999687e+01,7.979338006445192699e-02
5.952000000000000313e+01,8.759802575579435369e-02
5.956000000000000227e+01,6.411268026992301972e-02
5.960000000000000142e+01,7.573381601946693742e-02
5.964000000000000057e+01,8.048665951276404162e-02
5.967999999999999972e+01,7.150261550883749151e-02
5.971999999999999886e+01,5.946617789205398130e-02
5.975999999999999801e+01,6.956221851988950156e-02
5.979999999999999716e+01,6.286867505291546254e-02
5.984000000000000341e+01,7.143901944113290048e-02
5.988000000000000256e+01,5.406165598093835151e-02
5.992000000000000171e+01,7.026445699243469289e-02
5.996000000000000085e+01,6.738815995114232071e-02
