2.003999999999999915e+01,1.670052637283237461e-03
2.007999999999999829e+01,8.452629199508884805e-03
2.012000000000000099e+01,4.694559073949668496e-03
2.016000000000000014e+01,3.704657387232022144e-03
2.019999999999999929e+01,6.494393901141215682e-03
2.023999999999999844e+01,5.451126043677988892e-03
2.028000000000000114e+01,5.951615004839517185e-03
2.032000000000000028e+01,1.128511871101798127e-03
2.035999999999999943e+01,4.184161246451509851e-03
2.039999999999999858e+01,4.737686970267304502e-03
2.044000000000000128e+01,5.929969257120801425e-03
2.048000000000000043e+01,6.163950064133943453e-03
2.051999999999999957e+01,5.120217620100680697e-03
2.055999999999999872e+01,4.715241129240302712e-03
2.060000000000000142e+01,7.983430283485103141e-03
2.064000000000000057e+01,7.365377772155591411e-03
2.067999999999999972e+01,9.409020534281265641e-03
2.071999999999999886e+01,8.684361711968961034e-03
2.076000000000000156e+01,6.522282634921806876e-03
2.080000000000000071e+01,1.255836539870953082e-02
2.083999999999999986e+01,8.586150428721187750e-03
2.087999999999999901e+01,4.720337172403389105e-03
2.092000000000000171e+01,1.086268403192411879e-02
2.096000000000000085e+01,7.103203070443432111e-03
2.100000000000000000e+01,1.074335401356153914e-02
2.103999999999999915e+01,2.139325231036911471e-03
2.107999999999999829e+01,5.140513590787571842e-03
2.112000000000000099e+01,7.343103002045193138e-03
2.116000000000000014e+01,1.151532685014379151e-02
2.119999999999999929e+01,4.188663817921857435e-03
2.123999999999999844e+01,1.706338927225880230e-03
2.128000000000000114e+01,7.315702915266664857e-03
2.132000000000000028e+01,1.058264436010323412e-02
2.135999999999999943e+01,9.484223128300441411e-03
2.139999999999999858e+01,7.800142570265650166e-03
2.144000000000000128e+01,1.026834074016007986e-02
2.148000000000000043e+01,5.070589421731732348e-03
2.151999999999999957e+01,8.550113636827005870e-03
2.155999999999999872e+01,9.261331998431434134e-03
2.160000000000000142e+01,1.396512249085321566e-02
2.164000000000000057e+01,5.519730765874635015e-03
2.167999999999999972e+01,2.876909650005248821e-03
2.171999999999999886e+01,4.599306884326168771e-03
2.176000000000000156e+01,3.819573555313368358e-03
2.180000000000000071e+01,5.115941933169091196e-03
2.183999999999999986e+01,5.028119828827495516e-03
2.187999999999999901e+01,1.852578676771272827e-03
2.192000000000000171e+01,8.365780990429869807e-03
2.196000000000000085e+01,9.182736045134174546e-03
2.200000000000000000e+01,4.516384682874643140e-03
2.203999999999999915e+01,7.782012552916514267e-03
2.207999999999999829e+01,6.735509348450533819e-03
2.212000000000000099e+01,5.156578419884085170e-03
2.216000000000000014e+01,7.783157821378437237e-03
2.219999999999999929e+01,6.257311322459144232e-03
2.223999999999999844e+01,8.457857395147264784e-03
2.228000000000000114e+01,8.315976045713678599e-03
2.232000000000000028e+01,9.664605885885420300e-03
2.235999999999999943e+01,8.830513681317998451e-03
2.239999999999999858e+01,6.665463409837610841e-03
2.244000000000000128e+01,9.823862533113176046e-03
2.248000000000000043e+01,1.090600952442415811e-02
2.251999999999999957e+01,8.900434215408875235e-03
2.255999999999999872e+01,1.024860302245752218e-02
2.260000000000000142e+01,1.015934222351279510e-02
2.264000000000000057e+01,5.491771197426685569e-03
2.267999999999999972e+01,4.284414200179157382e-03
2.271999999999999886e+01,6.111388937924715041e-03
2.276000000000000156e+01,5.595933814089819845e-03
2.280000000000000071e+01,8.487456847909156943e-03
2.283999999999999986e+01,2.435377209934099906e-03
2.287999999999999901e+01,2.664979434298280544e-03
2.292000000000000171e+01,6.461264990411018372e-03
2.296000000000000085e+01,1.084305904108323788e-02
2.300000000000000000e+01,3.832427586103894380e-03
2.303999999999999915e+01,3.582594532187849921e-03
2.307999999999999829e+01,9.295030756251933604e-03
2.312000000000000099e+01,5.052392920430545317e-03
2.316000000000000014e+01,9.220845976717082296e-03
2.319999999999999929e+01,5.936281848565548407e-03
2.323999999999999844e+01,7.123398868290879704e-03
2.328000000000000114e+01,1.086572742509714015e-02
2.332000000000000028e+01,7.847096584756187501e-03
2.335999999999999943e+01,1.297337931348372699e-02
2.339999999999999858e+01,1.352134795259354871e-02
2.344000000000000128e+01,1.311100006853403721e-02
2.348000000000000043e+01,1.291351120704946343e-02
2.351999999999999957e+01,1.591005579875235179e-02
2.355999999999999872e+01,1.368946235184870241e-02
2.360000000000000142e+01,9.658787387508293090e-03
2.364000000000000057e+01,1.063214415135904298e-02
2.367999999999999972e+01,1.256365257981871195e-02
2.371999999999999886e+01,1.231243205173941473e-02
2.376000000000000156e+01,8.281424524243094151e-03
2.380000000000000071e+01,8.083272162752576026e-03
2.383999999999999986e+01,3.785920827350696544e-03
2.387999999999999901e+01,8.219068292786504623e-03
2.392000000000000171e+01,4.666842301399542516e-03
2.396000000000000085e+01,6.065411150578233629e-03
2.400000000000000000e+01,6.505660630552387996e-03
2.403999999999999915e+01,7.691118900262788188e-03
2.407999999999999829e+01,9.621785756421263186e-03
2.412000000000000099e+01,1.272354308629678084e-02
2.416000000000000014e+01,6.615514729268038609e-03
2.419999999999999929e+01,7.374749400583180230e-03
2.423999999999999844e+01,1.223301330833185055e-02
2.428000000000000114e+01,7.455608828754308956e-03
2.432000000000000028e+01,9.066349415779044463e-03
2.435999999999999943e+01,9.186416190808639054e-03
2.439999999999999858e+01,5.420222191170272902e-03
2.444000000000000128e+01,6.019232718122533889e-03
2.448000000000000043e+01,1.013168338726269484e-02
2.451999999999999957e+01,7.802580128526734327e-03
2.455999999999999872e+01,7.762505595050053775e-03
2.460000000000000142e+01,9.851753799585531018e-03
2.464000000000000057e+01,8.107975271043323107e-03
2.467999999999999972e+01,9.664694822969232407e-03
2.471999999999999886e+01,9.198386120109324632e-03
2.476000000000000156e+01,8.838459411961707701e-03
2.480000000000000071e+01,9.543149198991905321e-03
2.483999999999999986e+01,9.555691654363051429e-03
2.487999999999999901e+01,7.545205041795464800e-03
2.492000000000000171e+01,3.671394941959929895e-03
2.496000000000000085e+01,8.261901847581614583e-03
2.500000000000000000e+01,8.114380748097406101e-03
2.503999999999999915e+01,8.658828094824058685e-03
2.507999999999999829e+01,1.351524145421000370e-02
2.512000000000000099e+01,1.043951051944594192e-02
2.516000000000000014e+01,5.181043309766581069e-03
2.519999999999999929e+01,8.919244499011647759e-03
2.523999999999999844e+01,9.037356951134214653e-03
2.528000000000000114e+01,7.505085131673365668e-03
2.532000000000000028e+01,1.033801336646213327e-02
2.535999999999999943e+01,8.592617550509867169e-03
2.539999999999999858e+01,9.083010929444412795e-03
2.544000000000000128e+01,1.255448695845281029e-02
2.548000000000000043e+01,7.082346898643640185e-03
2.551999999999999957e+01,4.218642253094259838e-03
2.555999999999999872e+01,7.849546894851330836e-03
2.560000000000000142e+01,7.487714140654249881e-03
2.564000000000000057e+01,1.005372775877016664e-02
2.567999999999999972e+01,6.178181553651265930e-03
2.571999999999999886e+01,1.321577051221740906e-02
2.576000000000000156e+01,1.141621248158772306e-02
2.580000000000000071e+01,8.232443843225911717e-03
2.583999999999999986e+01,1.463092822569307672e-02
2.587999999999999901e+01,5.963739434699856859e-03
2.592000000000000171e+01,6.985273780598433291e-03
2.596000000000000085e+01,6.409655660333367193e-03
2.600000000000000000e+01,8.229529469590645199e-03
2.603999999999999915e+01,9.623426155140286931e-03
2.607999999999999829e+01,9.686346071259819418e-03
2.612000000000000099e+01,1.118652260328323149e-02
2.616000000000000014e+01,8.161606280120683662e-03
2.619999999999999929e+01,1.418658853499648285e-02
2.623999999999999844e+01,1.190677397441423924e-02
2.628000000000000114e+01,7.390982185526591419e-03
2.632000000000000028e+01,6.867738539445177731e-03
2.635999999999999943e+01,1.230674750170908209e-02
2.639999999999999858e+01,7.258313121256123809e-03
2.644000000000000128e+01,1.062095296327618572e-02
2.648000000000000043e+01,9.777909891722457586e-03
2.651999999999999957e+01,1.170300293618166745e-02
2.655999999999999872e+01,8.357707434097468718e-03
2.660000000000000142e+01,7.461136073531821414e-03
2.664000000000000057e+01,8.055053947442719284e-03
2.667999999999999972e+01,9.766814023304317208e-03
2.671999999999999886e+01,1.467259128929497905e-02
2.676000000000000156e+01,6.961512930188428448e-03
2.680000000000000071e+01,8.406800622436060022e-03
2.683999999999999986e+01,7.616108240343106434e-03
2.687999999999999901e+01,1.635442833226548320e-02
2.692000000000000171e+01,1.162412780482317137e-02
2.696000000000000085e+01,1.455960519863175838e-02
2.700000000000000000e+01,1.020175187957943035e-02
2.703999999999999915e+01,1.036879565734175231e-02
2.707999999999999829e+01,1.325073744376218179e-02
2.712000000000000099e+01,1.006375891780911594e-02
2.716000000000000014e+01,1.390373416082990414e-02
2.719999999999999929e+01,1.114243607170411175e-02
2.723999999999999844e+01,8.540742634740002351e-03
2.728000000000000114e+01,1.344511970876200412e-02
2.732000000000000028e+01,1.238704597660863181e-02
2.735999999999999943e+01,1.303239886502226795e-02
2.739999999999999858e+01,1.671205970370613289e-02
2.744000000000000128e+01,1.283221128676025578e-02
2.748000000000000043e+01,1.235931724274570709e-02
2.751999999999999957e+01,1.449484844857943690e-02
2.755999999999999872e+01,1.183910337754090665e-02
2.760000000000000142e+01,1.626354510062531095e-02
2.764000000000000057e+01,7.059656761197978005e-03
2.767999999999999972e+01,1.025948094128286206e-02
2.771999999999999886e+01,1.276714315295610254e-02
2.776000000000000156e+01,1.846881726926450501e-02
2.780000000000000071e+01,1.682392134562766747e-02
2.783999999999999986e+01,1.661627329650083862e-02
2.787999999999999901e+01,1.193675891211382588e-02
2.792000000000000171e+01,1.417772391158500858e-02
2.796000000000000085e+01,1.908034718605356589e-02
2.800000000000000000e+01,2.116139661630664012e-02
2.803999999999999915e+01,1.791881471703210202e-02
2.807999999999999829e+01,2.010612407151242398e-02
2.812000000000000099e+01,1.893950635871598231e-02
2.816000000000000014e+01,1.356719719424006633e-02
2.819999999999999929e+01,2.070506842916868331e-02
2.823999999999999844e+01,1.932519163894911782e-02
2.828000000000000114e+01,2.225726459833049162e-02
2.832000000000000028e+01,2.103688055419910760e-02
2.835999999999999943e+01,2.503344529552636519e-02
2.839999999999999858e+01,2.647461046635410375e-02
2.844000000000000128e+01,2.466831746623852559e-02
2.848000000000000043e+01,2.440573961066059422e-02
2.851999999999999957e+01,2.446246568597992832e-02
2.855999999999999872e+01,3.112025632462782354e-02
2.860000000000000142e+01,2.633235773595234835e-02
2.864000000000000057e+01,2.399317292109574493e-02
2.867999999999999972e+01,2.617887686823637192e-02
2.871999999999999886e+01,2.426535704030160709e-02
2.876000000000000156e+01,2.267113992353473120e-02
2.880000000000000071e+01,2.421769416458937479e-02
2.883999999999999986e+01,2.134561245278591979e-02
2.887999999999999901e+01,2.608606364307872530e-02
2.892000000000000171e+01,2.151023443252856465e-02
2.896000000000000085e+01,2.417429088826055644e-02
2.900000000000000000e+01,2.316500423645679457e-02
2.903999999999999915e+01,1.853560953514873585e-02
2.907999999999999829e+01,1.704698476864450682e-02
2.912000000000000099e+01,1.641001349691068034e-02
2.916000000000000014e+01,2.248057426182129698e-02
2.919999999999999929e+01,1.758456010196200389e-02
2.923999999999999844e+01,2.221754642211248507e-02
2.928000000000000114e+01,1.833277943162082979e-02
2.932000000000000028e+01,1.615142910057293726e-02
2.935999999999999943e+01,1.498143682852503059e-02
2.939999999999999858e+01,1.711191864893410811e-02
2.944000000000000128e+01,1.578199617091554513e-02
2.948000000000000043e+01,1.056578710062384095e-02
2.951999999999999957e+01,1.908416273157720680e-02
2.955999999999999872e+01,1.690213791476488994e-02
2.960000000000000142e+01,1.216470742880616449e-02
2.964000000000000057e+01,1.493333545982798022e-02
2.967999999999999972e+01,1.700979156131487979e-02
2.971999999999999886e+01,1.291084361405406278e-02
2.976000000000000156e+01,1.450795468904070296e-02
2.980000000000000071e+01,1.509348165670986071e-02
2.983999999999999986e+01,1.477389483641258425e-02
2.987999999999999901e+01,1.120684252679577525e-02
2.992000000000000171e+01,1.589114096961704442e-02
2.996000000000000085e+01,1.008797797706896537e-02
3.000000000000000000e+01,1.487851682844746129e-02
3.003999999999999915e+01,1.551658993491928686e-02
3.007999999999999829e+01,1.375896071674493661e-02
3.012000000000000099e+01,1.152209837814381632e-02
3.016000000000000014e+01,1.418276410911300731e-02
3.019999999999999929e+01,9.124200773605654208e-03
3.023999999999999844e+01,1.173139868971433825e-02
3.028000000000000114e+01,1.135730539021945901e-02
3.032000000000000028e+01,1.598720986978132211e-02
3.035999999999999943e+01,2.114934997426048610e-02
3.039999999999999858e+01,1.507873274872460409e-02
3.044000000000000128e+01,1.784505150739604251e-02
3.048000000000000043e+01,1.177419928886053353e-02
3.051999999999999957e+01,1.672292836206181951e-02
3.055999999999999872e+01,1.586889594670012546e-02
3.060000000000000142e+01,1.001063075928206036e-02
3.064000000000000057e+01,7.665774407664479630e-03
3.067999999999999972e+01,9.100502995157482358e-03
3.071999999999999886e+01,1.090775959401477264e-02
3.076000000000000156e+01,7.125194733146543100e-03
3.080000000000000071e+01,7.973978382638698126e-03
3.083999999999999986e+01,7.864407900639023771e-03
3.087999999999999901e+01,9.564716672481463761e-03
3.092000000000000171e+01,6.526967352559991456e-03
3.096000000000000085e+01,1.003703513735360216e-02
3.100000000000000000e+01,8.649338639847856461e-03
3.103999999999999915e+01,3.428582883147685955e-03
3.107999999999999829e+01,8.641817697632886777e-03
3.112000000000000099e+01,7.573170825642973857e-03
3.116000000000000014e+01,1.039057697594416435e-02
3.119999999999999929e+01,9.854040405774899467e-03
3.123999999999999844e+01,4.206797288298275844e-03
3.128000000000000114e+01,1.027118999723765705e-02
3.132000000000000028e+01,7.924289550474479527e-03
3.135999999999999943e+01,4.512561806833186202e-03
3.139999999999999858e+01,6.477473182704016931e-03
3.144000000000000128e+01,8.229321036234771639e-03
3.148000000000000043e+01,3.433109067098040392e-03
3.151999999999999957e+01,8.964414910336872266e-03
3.155999999999999872e+01,3.848545402718158825e-03
3.160000000000000142e+01,3.310785078375589555e-03
3.164000000000000057e+01,7.191427950061936476e-03
3.167999999999999972e+01,5.375774163754175848e-03
3.171999999999999886e+01,6.062053759391235197e-03
3.176000000000000156e+01,4.033210924358505284e-03
3.180000000000000071e+01,7.008358346718020736e-03
3.183999999999999986e+01,5.724560353561221164e-03
3.187999999999999901e+01,3.588873466057956787e-03
3.192000000000000171e+01,4.966588909131820252e-03
3.196000000000000085e+01,6.876531845593818887e-03
3.200000000000000000e+01,3.835470156231088942e-03
3.203999999999999915e+01,4.946633323416671675e-03
3.207999999999999829e+01,7.867669645797480474e-03
3.211999999999999744e+01,5.092407074013653896e-03
3.215999999999999659e+01,4.233487773487885908e-03
3.220000000000000284e+01,2.867969768842082066e-04
3.224000000000000199e+01,6.774090856107230219e-03
3.228000000000000114e+01,3.945087258276040211e-03
3.232000000000000028e+01,5.108601310016585260e-03
3.235999999999999943e+01,5.579929811910873567e-03
3.239999999999999858e+01,4.347602595597187779e-03
3.243999999999999773e+01,9.343673394416152772e-03
3.247999999999999687e+01,9.495207650590923448e-03
3.252000000000000313e+01,1.288677913735921353e-03
3.256000000000000227e+01,2.877308090565893622e-03
3.260000000000000142e+01,5.477279860049246059e-03
3.264000000000000057e+01,3.924772670891008529e-03
3.267999999999999972e+01,4.075665064965217251e-03
3.271999999999999886e+01,1.245253842853842477e-03
3.275999999999999801e+01,4.802944793528265630e-03
3.279999999999999716e+01,7.295801128948298415e-03
3.284000000000000341e+01,7.392941112834259393e-03
3.288000000000000256e+01,5.360540848496245063e-03
3.292000000000000171e+01,7.746537274963789105e-03
3.296000000000000085e+01,6.885052558918087172e-03
3.300000000000000000e+01,1.102755200161772975e-02
3.303999999999999915e+01,1.431815665461222582e-02
3.307999999999999829e+01,1.441451481654841549e-02
3.311999999999999744e+01,1.690632872270209086e-02
3.315999999999999659e+01,1.572477837934408568e-02
3.320000000000000284e+01,1.752427124814332979e-02
3.324000000000000199e+01,9.262168102495639890e-03
3.328000000000000114e+01,8.931987065156781619e-03
3.332000000000000028e+01,1.009226131316007767e-02
3.335999999999999943e+01,8.111522908407144128e-03
3.339999999999999858e+01,4.054476874002875715e-03
3.343999999999999773e+01,7.450234782877642077e-03
3.347999999999999687e+01,6.161156850861432624e-03
3.352000000000000313e+01,4.925181132115480712e-03
3.356000000000000227e+01,1.080544357368722194e-03
3.360000000000000142e+01,2.506064998642130916e-03
3.364000000000000057e+01,2.281158881092088322e-03
3.367999999999999972e+01,9.029938135214778117e-03
3.371999999999999886e+01,5.238001583554855421e-03
3.375999999999999801e+01,3.575341216902455741e-03
3.379999999999999716e+01,4.041956831969302673e-03
3.384000000000000341e+01,5.839319305672341538e-03
3.388000000000000256e+01,1.354786066012397990e-03
3.392000000000000171e+01,3.577760671697522397e-03
3.396000000000000085e+01,3.617954279056795515e-03
3.400000000000000000e+01,8.662126962955669224e-03
3.403999999999999915e+01,2.207347511012252607e-03
3.407999999999999829e+01,6.772131258153194812e-03
3.411999999999999744e+01,3.724136539210387131e-03
3.415999999999999659e+01,6.478649003449065205e-03
3.420000000000000284e+01,6.677732420394926795e-03
3.424000000000000199e+01,4.268151325440079809e-03
3.428000000000000114e+01,3.881373250106419110e-03
3.432000000000000028e+01,1.844164960049382357e-03
3.435999999999999943e+01,4.491522349019956561e-03
3.439999999999999858e+01,5.914331207247952409e-03
3.443999999999999773e+01,9.487709834384475778e-04
3.447999999999999687e+01,5.884831438118199795e-03
3.452000000000000313e+01,3.900169790987424636e-03
3.456000000000000227e+01,3.725368695181594317e-03
3.460000000000000142e+01,6.638074219084271442e-03
3.464000000000000057e+01,3.694762257704860796e-03
3.467999999999999972e+01,2.454839715146395120e-03
3.471999999999999886e+01,1.906836423047181999e-03
3.475999999999999801e+01,4.606044721462525249e-03
3.479999999999999716e+01,6.666290330769221971e-03
3.484000000000000341e+01,7.129338343925242273e-03
3.488000000000000256e+01,1.629897129430476696e-03
3.492000000000000171e+01,1.027959793206699489e-03
3.496000000000000085e+01,0.000000000000000000e+00
3.500000000000000000e+01,3.283955803971599224e-03
3.503999999999999915e+01,1.616891532212972986e-03
3.507999999999999829e+01,4.794095064252768858e-03
3.511999999999999744e+01,3.179983897944859035e-03
3.515999999999999659e+01,2.523966052523951217e-03
3.520000000000000284e+01,3.943981812414606124e-03
3.524000000000000199e+01,5.789737873419236770e-03
3.528000000000000114e+01,4.654177307791569802e-03
3.532000000000000028e+01,4.308293896040750535e-04
3.535999999999999943e+01,4.724980883253699498e-03
3.539999999999999858e+01,6.623403014922571788e-03
3.543999999999999773e+01,5.008155093609650658e-03
3.547999999999999687e+01,6.427174058344527902e-03
3.552000000000000313e+01,4.651934131439082638e-03
3.556000000000000227e+01,6.443313297201560229e-03
3.560000000000000142e+01,4.241904244952398109e-03
3.564000000000000057e+01,7.523583286302325951e-03
3.567999999999999972e+01,6.120415305908634071e-03
3.571999999999999886e+01,4.291221006055660758e-03
3.575999999999999801e+01,8.264525757854997504e-03
3.579999999999999716e+01,8.245041275201587042e-03
3.584000000000000341e+01,5.829825194396883424e-03
3.588000000000000256e+01,8.045931806347363102e-03
3.592000000000000171e+01,7.387189061693198028e-03
3.596000000000000085e+01,5.344184074096541490e-03
3.600000000000000000e+01,6.441913852439975878e-03
3.603999999999999915e+01,5.463322584108926648e-03
3.607999999999999829e+01,5.602525744994558791e-03
3.611999999999999744e+01,5.635112121456550827e-03
3.615999999999999659e+01,7.477550917714299861e-03
3.620000000000000284e+01,7.669549944701895168e-03
3.624000000000000199e+01,7.967872622679780109e-03
3.628000000000000114e+01,7.307813521966562663e-03
3.632000000000000028e+01,5.795842961913389053e-03
3.635999999999999943e+01,1.003313314286940518e-02
3.639999999999999858e+01,8.520867416500557678e-03
3.643999999999999773e+01,9.350805300106422580e-03
3.647999999999999687e+01,1.092588875080910057e-02
3.652000000000000313e+01,7.177297774879434940e-03
3.656000000000000227e+01,7.474438161288829430e-03
3.660000000000000142e+01,7.505253539856850120e-03
3.664000000000000057e+01,7.429449491254232034e-03
3.667999999999999972e+01,1.107996462720804709e-02
3.671999999999999886e+01,1.217503790871053530e-02
3.675999999999999801e+01,8.319082373088936694e-03
3.679999999999999716e+01,1.063826743286327980e-02
3.684000000000000341e+01,9.816422153805388559e-03
3.688000000000000256e+01,1.144324877119101865e-02
3.692000000000000171e+01,1.125992617615938739e-02
3.696000000000000085e+01,1.160880566348714872e-02
3.700000000000000000e+01,1.025400605446050335e-02
3.703999999999999915e+01,1.241258275511759185e-02
3.707999999999999829e+01,1.387894991791729232e-02
3.711999999999999744e+01,1.278987319338336683e-02
3.715999999999999659e+01,1.462858429415226855e-02
3.720000000000000284e+01,1.747861360942810569e-02
3.724000000000000199e+01,1.660202267847319182e-02
3.728000000000000114e+01,2.253939303929135621e-02
3.732000000000000028e+01,2.634720058689201533e-02
3.735999999999999943e+01,3.196485445564154620e-02
3.739999999999999858e+01,3.870029604509617888e-02
3.743999999999999773e+01,5.656175428006317285e-02
3.747999999999999687e+01,9.028716721470378404e-02
3.752000000000000313e+01,1.726694556186384177e-01
3.756000000000000227e+01,3.822306297350727133e-01
3.760000000000000142e+01,7.106659885948519717e-01
3.764000000000000057e+01,9.624424171675882711e-01
3.767999999999999972e+01,1.000000000000000000e+00
3.771999999999999886e+01,8.841334053158471651e-01
3.775999999999999801e+01,6.836758257981574438e-01
3.779999999999999716e+01,4.493604652812761557e-01
3.784000000000000341e+01,2.554505131028362852e-01
3.788000000000000256e+01,1.503900568604372157e-01
3.792000000000000171e+01,9.771294234682587065e-02
3.796000000000000085e+01,7.175977340263935134e-02
3.800000000000000000e+01,5.805055874564279961e-02
3.803999999999999915e+01,4.966471420099254769e-02
3.807999999999999829e+01,4.394047649941756201e-02
3.811999999999999744e+01,4.550931317243972485e-02
3.815999999999999659e+01,4.803622791973166661e-02
3.820000000000000284e+01,3.954328674108235214e-02
3.824000000000000199e+01,3.200842323012632884e-02
3.828000000000000114e+01,3.820809990029304382e-02
3.832000000000000028e+01,3.477203682896488207e-02
3.835999999999999943e+01,2.611876050238514865e-02
3.839999999999999858e+01,2.555708604717980836e-02
3.843999999999999773e+01,2.834907500261119040e-02
3.847999999999999687e+01,2.347502807222207749e-02
3.852000000000000313e+01,2.248699675908981399e-02
3.856000000000000227e+01,1.723998587801862936e-02
3.860000000000000142e+01,1.385605027748084903e-02
3.864000000000000057e+01,1.260136606078652091e-02
3.867999999999999972e+01,1.187887518505772143e-02
3.871999999999999886e+01,7.642697586712306722e-03
3.875999999999999801e+01,1.048665006507373647e-02
3.879999999999999716e+01,1.077515011799590541e-02
3.884000000000000341e+01,9.892314336501653940e-03
3.888000000000000256e+01,1.065961136724457615e-02
3.892000000000000171e+01,8.445573272126284670e-03
3.896000000000000085e+01,7.242844446832825966e-03
3.900000000000000000e+01,7.424071517313553074e-03
3.903999999999999915e+01,8.350431144444376771e-03
3.907999999999999829e+01,9.755746818338741425e-03
3.911999999999999744e+01,1.068178363195464338e-02
3.915999999999999659e+01,7.295602566988528166e-03
3.920000000000000284e+01,4.441612200240942915e-03
3.924000000000000199e+01,6.591574279274842185e-03
3.928000000000000114e+01,5.387552573615875598e-03
3.932000000000000028e+01,5.727190921384239797e-03
3.935999999999999943e+01,6.386078108939579473e-03
3.939999999999999858e+01,8.162742852788526168e-03
3.943999999999999773e+01,7.437187179906190257e-03
3.947999999999999687e+01,7.190585520905131735e-03
3.952000000000000313e+01,1.029764178375858555e-02
3.956000000000000227e+01,8.506890260631502082e-03
3.960000000000000142e+01,1.054891360465937816e-02
3.964000000000000057e+01,6.947835097655063151e-03
3.967999999999999972e+01,6.221296347475426328e-03
3.971999999999999886e+01,5.015475687693869006e-03
3.975999999999999801e+01,7.695664343233996410e-03
3.979999999999999716e+01,6.915396048694956790e-03
3.984000000000000341e+01,6.401138893164484873e-03
3.988000000000000256e+01,5.620540060157780925e-03
3.992000000000000171e+01,3.136247290755908926e-03
3.996000000000000085e+01,5.176785956070460368e-03
4.000000000000000000e+01,7.909217037797906802e-03
4.003999999999999915e+01,7.713542562913383756e-03
4.007999999999999829e+01,6.772408042234567133e-03
4.011999999999999744e+01,8.439634735611619906e-03
4.015999999999999659e+01,4.996109548406064797e-03
4.020000000000000284e+01,4.427121475278201351e-03
4.024000000000000199e+01,7.211787664816706779e-03
4.028000000000000114e+01,7.866875997808706056e-03
4.032000000000000028e+01,7.457091497359096509e-03
4.035999999999999943e+01,8.431255980883869267e-03
4.039999999999999858e+01,7.701724088554680152e-03
4.043999999999999773e+01,1.096466857828661164e-02
4.047999999999999687e+01,8.478036425294209130e-03
4.052000000000000313e+01,4.287707286583171233e-03
4.056000000000000227e+01,6.911322770010355082e-03
4.060000000000000142e+01,9.694475007330456695e-03
4.064000000000000057e+01,6.781285050092946895e-03
4.067999999999999972e+01,4.347043008089803220e-03
4.071999999999999886e+01,5.905275925130166678e-03
4.075999999999999801e+01,5.866281159361835459e-03
4.079999999999999716e+01,7.264468402717007799e-03
4.084000000000000341e+01,7.438074385924609358e-03
4.088000000000000256e+01,3.033277442558041017e-03
4.092000000000000171e+01,5.815070120973239547e-03
4.096000000000000085e+01,6.626987270900970908e-03
4.100000000000000000e+01,3.552559281545381465e-03
4.103999999999999915e+01,7.505014520147907341e-03
4.107999999999999829e+01,4.270538011071911555e-03
4.111999999999999744e+01,8.488826413934806234e-03
4.115999999999999659e+01,7.117240502132441034e-03
4.120000000000000284e+01,4.840483068506374643e-03
4.124000000000000199e+01,2.829729658800843751e-03
4.128000000000000114e+01,5.237330452660848151e-03
4.132000000000000028e+01,9.827404271372578576e-03
4.135999999999999943e+01,6.165839692995035703e-03
4.139999999999999858e+01,3.196160415942367328e-03
4.143999999999999773e+01,4.112481916105738440e-03
4.147999999999999687e+01,6.306276185533758044e-03
4.152000000000000313e+01,7.275485738914293406e-03
4.156000000000000227e+01,6.115110930524964364e-03
4.160000000000000142e+01,2.026622637282682847e-03
4.164000000000000057e+01,1.018207013200142855e-02
4.167999999999999972e+01,9.287348683530210688e-03
4.171999999999999886e+01,5.996865753537923560e-03
4.175999999999999801e+01,6.858558281054145944e-03
4.179999999999999716e+01,4.366254216719004690e-03
4.184000000000000341e+01,6.185830987274869297e-03
4.188000000000000256e+01,3.852881839608064338e-03
4.192000000000000171e+01,4.820343155182319622e-03
4.196000000000000085e+01,3.604982814784760559e-03
4.200000000000000000e+01,4.146209952781758530e-03
4.203999999999999915e+01,7.029612240401294544e-03
4.207999999999999829e+01,5.334605502799772379e-03
4.211999999999999744e+01,6.088244030883632925e-03
4.215999999999999659e+01,8.172587133651891891e-03
4.220000000000000284e+01,7.914401576759974577e-03
4.224000000000000199e+01,6.378392383312790452e-03
4.228000000000000114e+01,9.739849663102316188e-03
4.232000000000000028e+01,7.617897255507213687e-03
4.235999999999999943e+01,6.666942622196377240e-03
4.239999999999999858e+01,7.366102911758484924e-03
4.243999999999999773e+01,8.597437433192505613e-03
4.247999999999999687e+01,7.166830304030807376e-03
4.252000000000000313e+01,9.409277418024331041e-03
4.256000000000000227e+01,5.742431534346596582e-03
4.260000000000000142e+01,1.149804770977056259e-02
4.264000000000000057e+01,8.735842676283619990e-03
4.267999999999999972e+01,8.102868494528927407e-03
4.271999999999999886e+01,7.735890815030265974e-03
4.275999999999999801e+01,7.901085741097676682e-03
4.279999999999999716e+01,8.811394114721579629e-03
4.284000000000000341e+01,6.474171133639449252e-03
4.288000000000000256e+01,1.190911568773205843e-02
4.292000000000000171e+01,9.784472313649979908e-03
4.296000000000000085e+01,7.074060040980040612e-03
4.300000000000000000e+01,1.005963950215350323e-02
4.303999999999999915e+01,1.325797857795750663e-02
4.307999999999999829e+01,1.203760933029367208e-02
4.311999999999999744e+01,1.502264388965817397e-02
4.315999999999999659e+01,1.348249919633903032e-02
4.320000000000000284e+01,1.258099539505477989e-02
4.324000000000000199e+01,1.907901047011357001e-02
4.328000000000000114e+01,1.482332010822420831e-02
4.332000000000000028e+01,2.004332340756805747e-02
4.335999999999999943e+01,2.228196901605718552e-02
4.339999999999999858e+01,2.515925450014003945e-02
4.343999999999999773e+01,3.037870801875738880e-02
4.347999999999999687e+01,3.810003515257998769e-02
4.352000000000000313e+01,4.896205883415551130e-02
4.356000000000000227e+01,6.812859920820239779e-02
4.360000000000000142e+01,1.093875887532235747e-01
4.364000000000000057e+01,1.804581401572810939e-01
4.367999999999999972e+01,2.744729045068509121e-01
4.371999999999999886e+01,3.558174917757944700e-01
4.375999999999999801e+01,3.638569391177342016e-01
4.379999999999999716e+01,3.451188647227620421e-01
4.384000000000000341e+01,2.840053368209302653e-01
4.388000000000000256e+01,2.214010359024472796e-01
4.392000000000000171e+01,1.564541975829101816e-01
4.396000000000000085e+01,1.056145174068047615e-01
4.400000000000000000e+01,7.260846346321880862e-02
4.403999999999999915e+01,5.195280363293939413e-02
4.407999999999999829e+01,3.864342314863056238e-02
4.411999999999999744e+01,3.246738076172547144e-02
4.415999999999999659e+01,2.799467961433085156e-02
4.420000000000000284e+01,2.708855364934649110e-02
4.424000000000000199e+01,2.075224350046212321e-02
4.428000000000000114e+01,2.021838910283714139e-02
4.432000000000000028e+01,1.771464210051340929e-02
4.435999999999999943e+01,1.941629260328287324e-02
4.439999999999999858e+01,1.898834431081815668e-02
4.443999999999999773e+01,1.744226698490450658e-02
4.447999999999999687e+01,1.078541582327942686e-02
4.452000000000000313e+01,1.339131117896204433e-02
4.456000000000000227e+01,1.413378323285584270e-02
4.460000000000000142e+01,1.466312488258194290e-02
4.464000000000000057e+01,1.210463181359066470e-02
4.467999999999999972e+01,1.279329991963292466e-02
4.471999999999999886e+01,1.151207338809413956e-02
4.475999999999999801e+01,1.113565612694754174e-02
4.479999999999999716e+01,5.488757619824698002e-03
4.484000000000000341e+01,9.743427139539601045e-03
4.488000000000000256e+01,9.526143926496647568e-03
4.492000000000000171e+01,4.570731470809327041e-03
4.496000000000000085e+01,8.611886989660902728e-03
4.500000000000000000e+01,8.340794949848920337e-03
4.503999999999999915e+01,1.206215591395160339e-02
4.507999999999999829e+01,8.649800062872451192e-03
4.511999999999999744e+01,8.484603150656308893e-03
4.515999999999999659e+01,5.657450967533045501e-03
4.520000000000000284e+01,7.621279894966402971e-03
4.524000000000000199e+01,5.964918441162357123e-03
4.528000000000000114e+01,6.916891977232522866e-03
4.532000000000000028e+01,8.773671937659660233e-03
4.535999999999999943e+01,7.063496168304365941e-03
4.539999999999999858e+01,7.855184256319281202e-03
4.543999999999999773e+01,9.498442897506814697e-03
4.547999999999999687e+01,7.734450983006199362e-03
4.552000000000000313e+01,7.993204964134208515e-03
4.556000000000000227e+01,7.027353697103509537e-03
4.560000000000000142e+01,5.103073285224194594e-03
4.564000000000000057e+01,2.433304570486644319e-03
4.567999999999999972e+01,5.353043446641799971e-03
4.571999999999999886e+01,1.210552608685275429e-02
4.575999999999999801e+01,6.294291801376965256e-03
4.579999999999999716e+01,5.753152929011247363e-03
4.584000000000000341e+01,3.295348988313692197e-03
4.588000000000000256e+01,5.628522702272850502e-03
4.592000000000000171e+01,8.334147178068962436e-03
4.596000000000000085e+01,6.833989738923295330e-03
4.600000000000000000e+01,7.250105233308175474e-03
4.603999999999999915e+01,1.059396342300885502e-02
4.607999999999999829e+01,8.294687032272339555e-03
4.611999999999999744e+01,7.272859829365800437e-03
4.615999999999999659e+01,9.444951018508635637e-03
4.620000000000000284e+01,4.589790223038519787e-03
4.624000000000000199e+01,8.145603022367700966e-03
4.628000000000000114e+01,6.856809144613395211e-03
4.632000000000000028e+01,5.833993473174440593e-03
4.635999999999999943e+01,6.301566815114689052e-03
4.639999999999999858e+01,8.738646319022852493e-03
4.643999999999999773e+01,8.300823001521897768e-03
4.647999999999999687e+01,5.413978749880875990e-03
4.652000000000000313e+01,7.797226252161788829e-03
4.656000000000000227e+01,7.252335061849251793e-03
4.660000000000000142e+01,5.536068599203715183e-03
4.664000000000000057e+01,6.907247566509487798e-03
4.667999999999999972e+01,7.639403468102366236e-03
4.671999999999999886e+01,5.762831431866833470e-03
4.675999999999999801e+01,5.003999546890603410e-03
4.679999999999999716e+01,8.131141198507628454e-03
4.684000000000000341e+01,1.003367109674261660e-02
4.688000000000000256e+01,7.623943881767244503e-03
4.692000000000000171e+01,6.704602834135871096e-03
4.696000000000000085e+01,7.754765102437175331e-03
4.700000000000000000e+01,7.260903236285580487e-03
4.703999999999999915e+01,5.010075987114231619e-03
4.707999999999999829e+01,9.626395485419310047e-03
4.711999999999999744e+01,5.458694699933461063e-03
4.715999999999999659e+01,5.070495098807480810e-03
4.720000000000000284e+01,6.758268116524129322e-03
4.724000000000000199e+01,7.860250483812314046e-03
4.728000000000000114e+01,5.554973147441994753e-03
4.732000000000000028e+01,8.306842453950399885e-03
4.735999999999999943e+01,9.088803705854570439e-03
4.739999999999999858e+01,5.292328895203113684e-03
4.743999999999999773e+01,6.925646946803276985e-03
4.747999999999999687e+01,6.748762117893488538e-03
4.752000000000000313e+01,4.442262637267594370e-03
4.756000000000000227e+01,9.269083771257655840e-03
4.760000000000000142e+01,9.890114655488523032e-03
4.764000000000000057e+01,7.476530835704423526e-03
4.767999999999999972e+01,5.541859355714471441e-03
4.771999999999999886e+01,9.036979314958542425e-03
4.775999999999999801e+01,6.782485633020447248e-03
4.779999999999999716e+01,7.668666746994663372e-03
4.784000000000000341e+01,6.052584753709340341e-03
4.788000000000000256e+01,6.086589832809454099e-03
4.792000000000000171e+01,4.576566101827394401e-03
4.796000000000000085e+01,7.325156841317509784e-03
4.800000000000000000e+01,9.487953067902813939e-03
4.803999999999999915e+01,7.711133115156685626e-03
4.807999999999999829e+01,5.774400333486513423e-03
4.811999999999999744e+01,8.255986993094590817e-03
4.815999999999999659e+01,7.596485783301389072e-03
4.820000000000000284e+01,7.202953225276738022e-03
4.824000000000000199e+01,6.383330718576843421e-03
4.828000000000000114e+01,8.278498477773260644e-03
4.832000000000000028e+01,1.070581058547180088e-02
4.835999999999999943e+01,7.809388093221986127e-03
4.839999999999999858e+01,1.007657727770800218e-02
4.843999999999999773e+01,7.818560375464054385e-03
4.847999999999999687e+01,7.423568541560738275e-03
4.852000000000000313e+01,6.815426381243223052e-03
4.856000000000000227e+01,5.940898429903604915e-03
4.860000000000000142e+01,7.408512288916839147e-03
4.864000000000000057e+01,6.320623713586276914e-03
4.867999999999999972e+01,1.071575695989187421e-02
4.871999999999999886e+01,7.710978585188424037e-03
4.875999999999999801e+01,7.846870127479777315e-03
4.879999999999999716e+01,7.876080442978607501e-03
4.884000000000000341e+01,6.787139363323234538e-03
4.888000000000000256e+01,8.093573932322756931e-03
4.892000000000000171e+01,8.548033006189897573e-03
4.896000000000000085e+01,7.777869552398816548e-03
4.900000000000000000e+01,9.190140092119323742e-03
4.903999999999999915e+01,6.556318847663338174e-03
4.907999999999999829e+01,8.447282688207382109e-03
4.911999999999999744e+01,8.208623745506129013e-03
4.915999999999999659e+01,6.958282303984130064e-03
4.920000000000000284e+01,9.753607985720556470e-03
4.924000000000000199e+01,7.810782469683807960e-03
4.928000000000000114e+01,9.381271057132456806e-03
4.932000000000000028e+01,7.118607482665627838e-03
4.935999999999999943e+01,7.517493423993239915e-03
4.939999999999999858e+01,7.064401430729694634e-03
4.943999999999999773e+01,8.846976456126870100e-03
4.947999999999999687e+01,8.606397391323985374e-03
4.952000000000000313e+01,9.377073928253265578e-03
4.956000000000000227e+01,9.455477501397432580e-03
4.960000000000000142e+01,7.989843726353756601e-03
4.964000000000000057e+01,9.398699089365547890e-03
4.967999999999999972e+01,1.091380979852239232e-02
4.971999999999999886e+01,8.329590006283181872e-03
4.975999999999999801e+01,1.165426863745518474e-02
4.979999999999999716e+01,8.590500123909407953e-03
4.984000000000000341e+01,7.975337641420688142e-03
4.988000000000000256e+01,9.649075202741811200e-03
4.992000000000000171e+01,1.142906689047862648e-02
4.996000000000000085e+01,9.588844208966919302e-03
5.000000000000000000e+01,1.120869671043281217e-02
5.003999999999999915e+01,1.250892063789244869e-02
5.007999999999999829e+01,9.017753837206413450e-03
5.011999999999999744e+01,9.572249484149532653e-03
5.015999999999999659e+01,1.198976166132763831e-02
5.020000000000000284e+01,8.018824660905672988e-03
5.024000000000000199e+01,9.317960508600285283e-03
5.028000000000000114e+01,9.978054994641298234e-03
5.032000000000000028e+01,7.337344849757682606e-03
5.035999999999999943e+01,5.814356560192689670e-03
5.039999999999999858e+01,9.029087692394768133e-03
5.043999999999999773e+01,6.600662085742619797e-03
5.047999999999999687e+01,7.472603438650342149e-03
5.052000000000000313e+01,7.599031687535795672e-03
5.056000000000000227e+01,7.778475548905594561e-03
5.060000000000000142e+01,8.170640603430492921e-03
5.064000000000000057e+01,6.646116195035970536e-03
5.067999999999999972e+01,6.718429367531164077e-03
5.071999999999999886e+01,4.714346886571522260e-03
5.075999999999999801e+01,9.151510360013907427e-03
5.079999999999999716e+01,6.135516380139625220e-03
5.084000000000000341e+01,9.614003209410594206e-03
5.088000000000000256e+01,1.005785886831996219e-02
5.092000000000000171e+01,8.904435209210257232e-03
5.096000000000000085e+01,7.218437255186381865e-03
5.100000000000000000e+01,7.821333652901909378e-03
5.103999999999999915e+01,7.306067474610582896e-03
5.107999999999999829e+01,1.158175252350608815e-02
5.111999999999999744e+01,6.115162256033853348e-03
5.115999999999999659e+01,5.545993331811312731e-03
5.120000000000000284e+01,8.543364014558789410e-03
5.124000000000000199e+01,5.418456540810505200e-03
5.128000000000000114e+01,5.434206176898550081e-03
5.132000000000000028e+01,9.495612161968845083e-03
5.135999999999999943e+01,5.677975757130012367e-03
5.139999999999999858e+01,6.757759475811483431e-03
5.143999999999999773e+01,3.738203951703013110e-03
5.147999999999999687e+01,7.159890722808439321e-03
5.152000000000000313e+01,8.292236729415791360e-03
5.156000000000000227e+01,7.827300165392382658e-03
5.160000000000000142e+01,8.213902848154220823e-03
5.164000000000000057e+01,6.470869940512254635e-03
5.167999999999999972e+01,9.518785210733670191e-03
5.171999999999999886e+01,8.893241905704804204e-03
5.175999999999999801e+01,7.096297104161267827e-03
5.179999999999999716e+01,1.019677039325575171e-02
5.184000000000000341e+01,6.057021988818236599e-03
5.188000000000000256e+01,4.738516076975639313e-03
5.192000000000000171e+01,9.062721304381555695e-03
5.196000000000000085e+01,9.074643600971911417e-03
5.200000000000000000e+01,8.181339487916532843e-03
5.203999999999999915e+01,6.223102977968194595e-03
5.207999999999999829e+01,6.713461114936033342e-03
5.211999999999999744e+01,7.310062197466933413e-03
5.215999999999999659e+01,7.533788670395722038e-03
5.220000000000000284e+01,6.426405626680359133e-03
5.224000000000000199e+01,8.033792723326554572e-03
5.228000000000000114e+01,7.351835192998308448e-03
5.232000000000000028e+01,7.627883772906466492e-03
5.235999999999999943e+01,8.436056169205544478e-03
5.239999999999999858e+01,6.262824931509966553e-03
5.243999999999999773e+01,6.059069159259576273e-03
5.247999999999999687e+01,6.121260286937139743e-03
5.252000000000000313e+01,8.472338041401386924e-03
5.256000000000000227e+01,7.362893996841131904e-03
5.260000000000000142e+01,1.008615875076114901e-02
5.264000000000000057e+01,8.869783947203306249e-03
5.267999999999999972e+01,7.599943459214302498e-03
5.271999999999999886e+01,7.607518616497362454e-03
5.275999999999999801e+01,6.922804546936926588e-03
5.279999999999999716e+01,7.728446761350734988e-03
5.284000000000000341e+01,7.575623035746294025e-03
5.288000000000000256e+01,6.996685780031954710e-03
5.292000000000000171e+01,5.352811655083634761e-03
5.296000000000000085e+01,7.541644499021491789e-03
5.300000000000000000e+01,8.186422715271986228e-03
5.303999999999999915e+01,8.511557110898987366e-03
5.307999999999999829e+01,7.665283301499743740e-03
5.311999999999999744e+01,8.149658365809914207e-03
5.315999999999999659e+01,6.717331160042191301e-03
5.320000000000000284e+01,8.212710260997121287e-03
5.324000000000000199e+01,8.909327173010494691e-03
5.328000000000000114e+01,9.499240089949630150e-03
5.332000000000000028e+01,9.929213547206629936e-03
5.335999999999999943e+01,7.856895843428348888e-03
5.339999999999999858e+01,1.046904705348025363e-02
5.343999999999999773e+01,1.057890669592044357e-02
5.347999999999999687e+01,9.570591361771746061e-03
5.352000000000000313e+01,8.987923426015995143e-03
5.356000000000000227e+01,9.043843730643588361e-03
5.360000000000000142e+01,8.620411584653490250e-03
5.364000000000000057e+01,8.516155704552327149e-03
5.367999999999999972e+01,8.039017489896336036e-03
5.371999999999999886e+01,1.054281820053568422e-02
5.375999999999999801e+01,5.753152198488339572e-03
5.379999999999999716e+01,9.587362415043482536e-03
5.384000000000000341e+01,1.028045589526873325e-02
5.388000000000000256e+01,8.364785049072396769e-03
5.392000000000000171e+01,8.099170578738816573e-03
5.396000000000000085e+01,7.300966566873839415e-03
5.400000000000000000e+01,7.726936433737881769e-03
5.403999999999999915e+01,7.939727920412005882e-03
5.407999999999999829e+01,9.057281311320762932e-03
5.411999999999999744e+01,8.098421769275152005e-03
5.415999999999999659e+01,7.299030066412518468e-03
5.420000000000000284e+01,7.404399657919823532e-03
5.424000000000000199e+01,1.017129396405754178e-02
5.428000000000000114e+01,8.146776196785438309e-03
5.432000000000000028e+01,5.802608103666494557e-03
5.435999999999999943e+01,7.557316170944003431e-03
5.439999999999999858e+01,6.383845701134997254e-03
5.443999999999999773e+01,5.795723738048620503e-03
5.447999999999999687e+01,5.899420601035949147e-03
5.452000000000000313e+01,7.706406051882257018e-03
5.456000000000000227e+01,8.341975776037813609e-03
5.460000000000000142e+01,6.368777514583669024e-03
5.464000000000000057e+01,1.030445287537669341e-02
5.467999999999999972e+01,8.596949948763102367e-03
5.471999999999999886e+01,8.220087764329735841e-03
5.475999999999999801e+01,7.523573017878991236e-03
5.479999999999999716e+01,7.199463903278172441e-03
5.484000000000000341e+01,8.259230182312532476e-03
5.488000000000000256e+01,6.656991791399933557e-03
5.492000000000000171e+01,7.237157307340897662e-03
5.496000000000000085e+01,1.053207914004377146e-02
5.500000000000000000e+01,8.769408933550432508e-03
5.503999999999999915e+01,8.869730456128051277e-03
5.507999999999999829e+01,7.159810473432043527e-03
5.511999999999999744e+01,6.727293938714292570e-03
5.515999999999999659e+01,9.275709010915603528e-03
5.520000000000000284e+01,7.778000992553027806e-03
5.524000000000000199e+01,7.291519505705726205e-03
5.528000000000000114e+01,1.037155689042902097e-02
5.532000000000000028e+01,1.148164576619034941e-02
5.535999999999999943e+01,1.259149059852879109e-02
5.539999999999999858e+01,1.157168073136984228e-02
5.543999999999999773e+01,1.326662474151405965e-02
5.547999999999999687e+01,9.637797966405002928e-03
5.552000000000000313e+01,1.165166403460377205e-02
5.556000000000000227e+01,8.820876262849752444e-03
5.560000000000000142e+01,1.083425200803221806e-02
5.564000000000000057e+01,1.029208974343067198e-02
5.567999999999999972e+01,1.150644543264909420e-02
5.571999999999999886e+01,9.473204308351476990e-03
5.575999999999999801e+01,9.249715992617008054e-03
5.579999999999999716e+01,9.185687181248097799e-03
5.584000000000000341e+01,8.535824012481336293e-03
5.588000000000000256e+01,8.577772554700215449e-03
5.592000000000000171e+01,7.022416367871295133e-03
5.596000000000000085e+01,7.649458802401983872e-03
5.600000000000000000e+01,7.051842930545996167e-03
5.603999999999999915e+01,1.081927098757906949e-02
5.607999999999999829e+01,6.334985837454324212e-03
5.611999999999999744e+01,5.151038983249043961e-03
5.615999999999999659e+01,8.917723322584376541e-03
5.620000000000000284e+01,6.987986388240718071e-03
5.624000000000000199e+01,1.086064442197570354e-02
5.628000000000000114e+01,6.800999800029647845e-03
5.632000000000000028e+01,6.893456638676424310e-03
5.635999999999999943e+01,5.335371250785222660e-03
5.639999999999999858e+01,7.929386916910382763e-03
5.643999999999999773e+01,8.393742598044182796e-03
5.647999999999999687e+01,8.857848543684669965e-03
5.652000000000000313e+01,7.085823575118005944e-03
5.656000000000000227e+01,8.720605188939599406e-03
5.660000000000000142e+01,5.510727677314418080e-03
5.664000000000000057e+01,7.517655226369371856e-03
5.667999999999999972e+01,8.299921013137747869e-03
5.671999999999999886e+01,9.773994241838959707e-03
5.675999999999999801e+01,6.243701747981501328e-03
5.679999999999999716e+01,7.770507717692284357e-03
5.684000000000000341e+01,8.498533202520823851e-03
5.688000000000000256e+01,7.576013818064387430e-03
5.692000000000000171e+01,5.535301974231300950e-03
5.696000000000000085e+01,1.110698032415706991e-02
5.700000000000000000e+01,9.225469711090578812e-03
5.703999999999999915e+01,6.332236551422062293e-03
5.707999999999999829e+01,8.283159387025552239e-03
5.711999999999999744e+01,7.678536691180513560e-03
5.715999999999999659e+01,6.221896622827754846e-03
5.720000000000000284e+01,8.597941974808823509e-03
5.724000000000000199e+01,8.418441185476669211e-03
5.728000000000000114e+01,3.926630427994402470e-03
5.732000000000000028e+01,6.781031728078622429e-03
5.735999999999999943e+01,5.269887392116603952e-03
5.739999999999999858e+01,6.047604881777241329e-03
5.743999999999999773e+01,5.920068314592865331e-03
5.747999999999999687e+01,6.750511633463246106e-03
5.752000000000000313e+01,5.983642091756633495e-03
5.756000000000000227e+01,8.730044572871841282e-03
5.760000000000000142e+01,6.525312323695204447e-03
5.764000000000000057e+01,8.046792736042571170e-03
5.767999999999999972e+01,6.054490067152366178e-03
5.771999999999999886e+01,7.681929130570381431e-03
5.775999999999999801e+01,5.582643660895734820e-03
5.779999999999999716e+01,7.049864255633216288e-03
5.784000000000000341e+01,6.493888272930576321e-03
5.788000000000000256e+01,6.629713836802121271e-03
5.792000000000000171e+01,6.019988688328883897e-03
5.796000000000000085e+01,8.231475132639626963e-03
5.800000000000000000e+01,1.219946774005299314e-02
5.803999999999999915e+01,8.235148747103205116e-03
5.807999999999999829e+01,7.145275998392384802e-03
5.811999999999999744e+01,7.492497235001549342e-03
5.815999999999999659e+01,5.816520267864768064e-03
5.820000000000000284e+01,7.174694719061252071e-03
5.824000000000000199e+01,8.106728399525029924e-03
5.828000000000000114e+01,6.376740130542297123e-03
5.832000000000000028e+01,5.924139046479453240e-03
5.835999999999999943e+01,7.015101250646527987e-03
5.839999999999999858e+01,6.934628212452795780e-03
5.843999999999999773e+01,7.226542306880079369e-03
5.847999999999999687e+01,7.145549672164968821e-03
5.852000000000000313e+01,7.809590592731997967e-03
5.856000000000000227e+01,7.994253854940843590e-03
5.860000000000000142e+01,1.014836127620751677e-02
5.864000000000000057e+01,6.552799761893488180e-03
5.867999999999999972e+01,7.481974543404343835e-03
5.871999999999999886e+01,7.985006114723764564e-03
5.875999999999999801e+01,5.932483819777209337e-03
5.879999999999999716e+01,8.777344040028455668e-03
5.884000000000000341e+01,6.617827966733059661e-03
5.888000000000000256e+01,5.469519925724057249e-03
5.892000000000000171e+01,4.906537623155929513e-03
5.896000000000000085e+01,8.708584409436087581e-03
5.900000000000000000e+01,4.418608932476617707e-03
5.903999999999999915e+01,7.261895726411131749e-03
5.907999999999999829e+01,6.964039153257623599e-03
5.911999999999999744e+01,7.996800960579078174e-03
5.915999999999999659e+01,8.017829447022301742e-03
5.920000000000000284e+01,5.004184479152143372e-03
5.924000000000000199e+01,3.853509895088812719e-03
5.928000000000000114e+01,6.429039637732031354e-03
5.932000000000000028e+01,4.266366953968165482e-03
5.935999999999999943e+01,6.841368155407878855e-03
5.939999999999999858e+01,8.724046384157978923e-03
5.943999999999999773e+01,7.092932586988380354e-03
5.947999999999999687e+01,6.952141124658614384e-03
5.952000000000000313e+01,6.438437647692476888e-03
5.956000000000000227e+01,8.479761325382846257e-03
5.960000000000000142e+01,5.623175369689541354e-03
5.964000000000000057e+01,5.374851423395949311e-03
5.967999999999999972e+01,7.149201408697596592e-03
5.971999999999999886e+01,9.295932021396908357e-03
5.975999999999999801e+01,8.780633162985220300e-03
5.979999999999999716e+01,8.744185048034045296e-03
5.984000000000000341e+01,6.578059668591961125e-03
5.988000000000000256e+01,5.210196193951893012e-03
5.992000000000000171e+01,7.621769054726369730e-03
5.996000000000000085e+01,7.051899860030744899e-03
