2.003999999999999915e+01,4.254895544042864436e-02
2.007999999999999829e+01,3.541774703813233699e-02
2.012000000000000099e+01,0.000000000000000000e+00
2.016000000000000014e+01,4.277107279511485616e-02
2.019999999999999929e+01,1.122720999119171219e-02
2.023999999999999844e+01,3.014422136080417702e-02
2.028000000000000114e+01,4.628443581501202192e-02
2.032000000000000028e+01,7.184815965321941778e-02
2.035999999999999943e+01,4.749757135197914953e-02
2.039999999999999858e+01,3.257050329552044904e-02
2.044000000000000128e+01,4.592197134816321941e-02
2.048000000000000043e+01,4.207813224670324537e-02
2.051999999999999957e+01,5.043062533324536856e-02
2.055999999999999872e+01,6.377018734285415380e-02
2.060000000000000142e+01,5.270518979420654726e-02
2.064000000000000057e+01,4.607271289899749628e-02
2.067999999999999972e+01,6.106409513031862274e-02
2.071999999999999886e+01,4.610534279045873374e-02
2.076000000000000156e+01,6.774355695897218976e-02
2.080000000000000071e+01,5.665885176503809850e-02
2.083999999999999986e+01,5.998875872387086916e-02
2.087999999999999901e+01,6.220562761439029503e-02
2.092000000000000171e+01,5.720931343248034789e-02
2.096000000000000085e+01,7.383689638983598202e-02
2.100000000000000000e+01,4.775952278932327905e-02
2.103999999999999915e+01,7.158857283975217367e-02
2.107999999999999829e+01,5.382179545391376635e-02
2.112000000000000099e+01,7.930674301488237210e-02
2.116000000000000014e+01,6.153219660913628736e-02
2.119999999999999929e+01,5.096304253434848913e-02
2.123999999999999844e+01,5.924502795951324535e-02
2.128000000000000114e+01,5.643196527289798953e-02
2.132000000000000028e+01,1.079618372932376891e-01
2.135999999999999943e+01,7.685854423972801608e-02
2.139999999999999858e+01,8.068862718961547498e-02
2.144000000000000128e+01,7.841471592297342974e-02
2.148000000000000043e+01,7.114593413101197306e-02
2.151999999999999957e+01,8.882848028624533432e-02
2.155999999999999872e+01,6.103335025703322814e-02
2.160000000000000142e+01,7.205353729604044299e-02
2.164000000000000057e+01,7.364240248801334765e-02
2.167999999999999972e+01,7.023642430662109526e-02
2.171999999999999886e+01,5.795369426938630497e-02
2.176000000000000156e+01,7.949527084824656309e-02
2.180000000000000071e+01,6.997774121565791816e-02
2.183999999999999986e+01,8.263878732134215255e-02
2.187999999999999901e+01,1.019507589442186640e-01
2.192000000000000171e+01,8.576716760354143043e-02
2.196000000000000085e+01,9.287128655312869296e-02
2.200000000000000000e+01,6.947088557363105543e-02
2.203999999999999915e+01,1.004135170481225969e-01
2.207999999999999829e+01,7.090544641218725352e-02
2.212000000000000099e+01,1.101589564816748690e-01
2.216000000000000014e+01,8.896177530151698487e-02
2.219999999999999929e+01,6.886997177758077959e-02
2.223999999999999844e+01,8.814813133852611449e-02
2.228000000000000114e+01,9.910417419950984241e-02
2.232000000000000028e+01,8.121941796576406802e-02
2.235999999999999943e+01,7.275844806594841674e-02
2.239999999999999858e+01,8.148509775618982542e-02
2.244000000000000128e+01,1.101721681189273133e-01
2.248000000000000043e+01,9.227256893538790528e-02
2.251999999999999957e+01,7.547839085119700808e-02
2.255999999999999872e+01,8.252656364354210572e-02
2.260000000000000142e+01,5.851573883225456157e-02
2.264000000000000057e+01,1.099212748863870465e-01
2.267999999999999972e+01,8.590309376489227433e-02
2.271999999999999886e+01,7.907257567658090847e-02
2.276000000000000156e+01,8.166589822610791083e-02
2.280000000000000071e+01,9.423762597427361165e-02
2.283999999999999986e+01,1.112421730473719811e-01
2.287999999999999901e+01,1.121608570506351238e-01
2.292000000000000171e+01,1.197306077612512454e-01
2.296000000000000085e+01,8.625934539437708770e-02
2.300000000000000000e+01,1.049130092892327504e-01
2.303999999999999915e+01,7.309816575041525044e-02
2.307999999999999829e+01,7.677148542181791435e-02
2.312000000000000099e+01,9.707796329990223128e-02
2.316000000000000014e+01,1.218173039460457019e-01
2.319999999999999929e+01,1.177159649660571850e-01
2.323999999999999844e+01,1.230385317885965418e-01
2.328000000000000114e+01,1.255847089750411483e-01
2.332000000000000028e+01,1.214725880429141508e-01
2.335999999999999943e+01,1.378755718126813135e-01
2.339999999999999858e+01,1.298743761515480932e-01
2.344000000000000128e+01,1.773255212689016647e-01
2.348000000000000043e+01,1.471348212968055513e-01
2.351999999999999957e+01,1.574233764429157634e-01
2.355999999999999872e+01,1.588354295311603659e-01
2.360000000000000142e+01,1.319614164275909052e-01
2.364000000000000057e+01,1.705218356018364245e-01
2.367999999999999972e+01,1.647139846631681948e-01
2.371999999999999886e+01,1.478114168665587702e-01
2.376000000000000156e+01,1.785974054658266141e-01
2.380000000000000071e+01,1.406145385053262920e-01
2.383999999999999986e+01,1.652933353225466417e-01
2.387999999999999901e+01,1.345127065706134273e-01
2.392000000000000171e+01,1.791486124566054050e-01
2.396000000000000085e+01,1.799708453728289526e-01
2.400000000000000000e+01,1.608254533572916478e-01
2.403999999999999915e+01,1.899232148807767917e-01
2.407999999999999829e+01,2.051535127677896198e-01
2.412000000000000099e+01,1.998616428838043135e-01
2.416000000000000014e+01,2.234033732656745541e-01
2.419999999999999929e+01,2.125589684770858578e-01
2.423999999999999844e+01,2.527305400315222883e-01
2.428000000000000114e+01,1.969599238008050424e-01
2.432000000000000028e+01,2.027419182516788931e-01
2.435999999999999943e+01,1.685922079495600912e-01
2.439999999999999858e+01,1.776946678862937057e-01
2.444000000000000128e+01,1.485291113220452430e-01
2.448000000000000043e+01,1.415424889018625509e-01
2.451999999999999957e+01,1.295614086660614173e-01
2.455999999999999872e+01,9.816733865438023732e-02
2.460000000000000142e+01,1.100254660335054646e-01
2.464000000000000057e+01,7.696089449868660781e-02
2.467999999999999972e+01,9.491235904119144084e-02
2.471999999999999886e+01,1.001055650942960368e-01
2.476000000000000156e+01,1.197139154784662013e-01
2.480000000000000071e+01,9.717238432230364265e-02
2.483999999999999986e+01,1.073464596615082423e-01
2.487999999999999901e+01,1.064259756241046906e-01
2.492000000000000171e+01,7.111945416327664082e-02
2.496000000000000085e+01,1.001384259223407902e-01
2.500000000000000000e+01,8.534386590179704468e-02
2.503999999999999915e+01,8.163713344259659888e-02
2.507999999999999829e+01,8.790911571431034299e-02
2.512000000000000099e+01,6.589523814906010635e-02
2.516000000000000014e+01,9.877937573869161048e-02
2.519999999999999929e+01,9.727751391763379829e-02
2.523999999999999844e+01,8.911761463676289019e-02
2.528000000000000114e+01,8.372718854343419448e-02
2.532000000000000028e+01,8.332447758967749529e-02
2.535999999999999943e+01,8.901860546670284369e-02
2.539999999999999858e+01,7.308162108441627891e-02
2.544000000000000128e+01,1.120426898697468587e-01
2.548000000000000043e+01,7.003483030270932219e-02
2.551999999999999957e+01,6.684281998218932763e-02
2.555999999999999872e+01,6.586576173153761704e-02
2.560000000000000142e+01,6.433086532909634836e-02
2.564000000000000057e+01,7.443843707426979484e-02
2.567999999999999972e+01,9.896127804949722551e-02
2.571999999999999886e+01,8.077980325297057229e-02
2.576000000000000156e+01,6.758610333031470074e-02
2.580000000000000071e+01,7.601695762421115110e-02
2.583999999999999986e+01,8.389000634866311534e-02
2.587999999999999901e+01,5.848626623988895795e-02
2.592000000000000171e+01,6.025268794293658220e-02
2.596000000000000085e+01,5.203381515074733538e-02
2.600000000000000000e+01,6.876687850952235836e-02
2.603999999999999915e+01,8.438760432039724146e-02
2.607999999999999829e+01,7.671363279737462848e-02
2.612000000000000099e+01,7.513660328255930554e-02
2.616000000000000014e+01,6.301974729405115938e-02
2.619999999999999929e+01,7.862765026051012074e-02
2.623999999999999844e+01,6.373160891930890193e-02
2.628000000000000114e+01,7.822401478508526906e-02
2.632000000000000028e+01,7.385822894258661786e-02
2.635999999999999943e+01,4.120675160523902536e-02
2.639999999999999858e+01,6.955360819939419847e-02
2.644000000000000128e+01,6.961478415948188503e-02
2.648000000000000043e+01,6.634544578432929884e-02
2.651999999999999957e+01,9.080090980727012484e-02
2.655999999999999872e+01,8.197967731362848509e-02
2.660000000000000142e+01,7.093706503673836983e-02
2.664000000000000057e+01,6.266411058067788975e-02
2.667999999999999972e+01,6.658832459280251970e-02
2.671999999999999886e+01,4.222689598359508079e-02
2.676000000000000156e+01,5.169045278933284693e-02
2.680000000000000071e+01,5.227794739885947145e-02
2.683999999999999986e+01,5.896248176362783866e-02
2.687999999999999901e+01,4.845257783682162256e-02
2.692000000000000171e+01,6.622208974242638213e-02
2.696000000000000085e+01,5.958790552191189915e-02
2.700000000000000000e+01,6.459637408229948474e-02
2.703999999999999915e+01,5.296498520308506180e-02
2.707999999999999829e+01,5.186714170473466501e-02
2.712000000000000099e+01,7.128491336501378839e-02
2.716000000000000014e+01,6.297166126866947378e-02
2.719999999999999929e+01,5.465534736657735870e-02
2.723999999999999844e+01,4.245406317626038151e-02
2.728000000000000114e+01,4.245002890999070161e-02
2.732000000000000028e+01,5.297957260692981452e-02
2.735999999999999943e+01,5.796048491558732085e-02
2.739999999999999858e+01,6.792939474413847711e-02
2.744000000000000128e+01,6.403129708904409245e-02
2.748000000000000043e+01,6.179385303216670955e-02
2.751999999999999957e+01,6.010794974307768351e-02
2.755999999999999872e+01,7.394668917322953783e-02
2.760000000000000142e+01,4.785416371204346403e-02
2.764000000000000057e+01,4.394100139579627806e-02
2.767999999999999972e+01,2.616086417824850519e-02
2.771999999999999886e+01,4.775143400912190000e-02
2.776000000000000156e+01,4.050194327841446368e-02
2.780000000000000071e+01,5.376816002298000913e-02
2.783999999999999986e+01,4.873095054453063096e-02
2.787999999999999901e+01,4.757268548984490419e-02
2.792000000000000171e+01,3.975674681152954054e-02
2.796000000000000085e+01,2.916505385284305293e-02
2.800000000000000000e+01,4.685292334711931017e-02
2.803999999999999915e+01,5.067386681361215478e-02
2.807999999999999829e+01,5.449186794295489411e-02
2.812000000000000099e+01,4.444295390529592882e-02
2.816000000000000014e+01,5.490979621642706060e-02
2.819999999999999929e+01,4.929149769969922573e-02
2.823999999999999844e+01,4.145204204574561013e-02
2.828000000000000114e+01,5.468291816216426515e-02
2.832000000000000028e+01,6.014705669804188554e-02
2.835999999999999943e+01,4.897151699721407486e-02
2.839999999999999858e+01,5.276617492342421112e-02
2.844000000000000128e+01,6.099441242927887419e-02
2.848000000000000043e+01,4.093724625099694203e-02
2.851999999999999957e+01,2.864102529559937188e-02
2.855999999999999872e+01,3.963341064494856764e-02
2.860000000000000142e+01,5.006836512181819104e-02
2.864000000000000057e+01,3.554529241857250915e-02
2.867999999999999972e+01,4.708363796329431000e-02
2.871999999999999886e+01,3.643676284073094768e-02
2.876000000000000156e+01,4.186925247954228352e-02
2.880000000000000071e+01,4.785345665864744469e-02
2.883999999999999986e+01,3.719804776573681915e-02
2.887999999999999901e+01,4.040378340373433630e-02
2.892000000000000171e+01,4.804316378606609400e-02
2.896000000000000085e+01,5.290692564779684443e-02
2.900000000000000000e+01,6.996817094037906248e-02
2.903999999999999915e+01,4.044363727077584375e-02
2.907999999999999829e+01,4.308072658755483092e-02
2.912000000000000099e+01,3.739662780119896307e-02
2.916000000000000014e+01,6.110136720995846399e-02
2.919999999999999929e+01,3.544755372604709714e-02
2.923999999999999844e+01,4.140082581967161057e-02
2.928000000000000114e+01,4.624220022705049365e-02
2.932000000000000028e+01,4.387153194406797491e-02
2.935999999999999943e+01,5.591663248709299872e-02
2.939999999999999858e+01,5.520410989644123495e-02
2.944000000000000128e+01,4.395220612414210692e-02
2.948000000000000043e+01,5.099800138189094362e-02
2.951999999999999957e+01,8.022341501294619204e-02
2.955999999999999872e+01,2.515309940903696570e-02
2.960000000000000142e+01,4.161817564567891342e-02
2.964000000000000057e+01,7.194449959065422895e-02
2.967999999999999972e+01,8.064029232813325898e-02
2.971999999999999886e+01,5.217790363703510292e-02
2.976000000000000156e+01,3.979501546708170967e-02
2.980000000000000071e+01,3.572780542292795791e-02
2.983999999999999986e+01,3.553980589168702353e-02
2.987999999999999901e+01,4.255837708620804904e-02
2.992000000000000171e+01,5.622896530647204100e-02
2.996000000000000085e+01,5.769656554894009998e-02
3.000000000000000000e+01,4.307926933113519208e-02
3.003999999999999915e+01,6.339652208114021636e-02
3.007999999999999829e+01,5.099211531936292258e-02
3.012000000000000099e+01,6.243108577798314740e-02
3.016000000000000014e+01,6.333077280199066184e-02
3.019999999999999929e+01,3.649984877907550690e-02
3.023999999999999844e+01,5.680380174493754319e-02
3.028000000000000114e+01,5.214995017670717020e-02
3.032000000000000028e+01,5.082081515566944097e-02
3.035999999999999943e+01,4.505257428647967827e-02
3.039999999999999858e+01,6.201863038960367391e-02
3.044000000000000128e+01,2.408071063807465731e-02
3.048000000000000043e+01,5.934197958692342956e-02
3.051999999999999957e+01,6.687268093197600016e-02
3.055999999999999872e+01,3.946355140829706232e-02
3.060000000000000142e+01,6.972597122469693931e-02
3.064000000000000057e+01,7.503063538052130721e-02
3.067999999999999972e+01,5.925946321902909181e-02
3.071999999999999886e+01,6.788630886420612964e-02
3.076000000000000156e+01,5.931924296571597366e-02
3.080000000000000071e+01,5.962255008320527239e-02
3.083999999999999986e+01,5.881417129969005592e-02
3.087999999999999901e+01,5.800323030638072225e-02
3.092000000000000171e+01,8.436312992374321584e-02
3.096000000000000085e+01,7.522869384587237140e-02
3.100000000000000000e+01,6.775538924060897639e-02
3.103999999999999915e+01,7.137072675530840848e-02
3.107999999999999829e+01,5.890131443028656655e-02
3.112000000000000099e+01,5.474775943396071459e-02
3.116000000000000014e+01,4.116417502361148506e-02
3.119999999999999929e+01,7.083368401855075214e-02
3.123999999999999844e+01,5.280859446197905260e-02
3.128000000000000114e+01,7.360013612820011375e-02
3.132000000000000028e+01,6.499754140721174245e-02
3.135999999999999943e+01,6.415627746685455268e-02
3.139999999999999858e+01,5.499413495563813814e-02
3.144000000000000128e+01,4.971142017296660554e-02
3.148000000000000043e+01,7.659065420012532710e-02
3.151999999999999957e+01,6.520283290547354560e-02
3.155999999999999872e+01,7.821314345569783943e-02
3.160000000000000142e+01,9.843025823848843003e-02
3.164000000000000057e+01,8.148945225146025928e-02
3.167999999999999972e+01,6.787354744491214120e-02
3.171999999999999886e+01,9.030153794340700646e-02
3.176000000000000156e+01,1.010813439621014997e-01
3.180000000000000071e+01,1.118587126699902984e-01
3.183999999999999986e+01,1.143152625413185741e-01
3.187999999999999901e+01,1.422791059614688103e-01
3.192000000000000171e+01,1.425125718415007625e-01
3.196000000000000085e+01,1.416345038714706961e-01
3.200000000000000000e+01,1.512906492203731357e-01
3.203999999999999915e+01,1.370983472331975539e-01
3.207999999999999829e+01,1.306674737736876757e-01
3.211999999999999744e+01,1.153612603599431657e-01
3.215999999999999659e+01,9.894354024809065562e-02
3.220000000000000284e+01,1.019330066936798007e-01
3.224000000000000199e+01,1.137930416493170283e-01
3.228000000000000114e+01,1.006955435904016982e-01
3.232000000000000028e+01,9.646862490231618292e-02
3.235999999999999943e+01,8.835743101602817895e-02
3.239999999999999858e+01,8.856226823094180689e-02
3.243999999999999773e+01,1.054015289335934191e-01
3.247999999999999687e+01,9.950152029528519515e-02
3.252000000000000313e+01,1.107905051359062421e-01
3.256000000000000227e+01,7.272139323668364019e-02
3.260000000000000142e+01,5.738687698126878484e-02
3.264000000000000057e+01,8.475109049480161749e-02
3.267999999999999972e+01,6.719369660294084723e-02
3.271999999999999886e+01,7.514371029810867908e-02
3.275999999999999801e+01,6.867287962119779376e-02
3.279999999999999716e+01,6.996357521898695364e-02
3.284000000000000341e+01,6.792461991367286511e-02
3.288000000000000256e+01,6.311057826605605270e-02
3.292000000000000171e+01,7.881293918373474816e-02
3.296000000000000085e+01,7.676712809883046162e-02
3.300000000000000000e+01,6.307330087624077319e-02
3.303999999999999915e+01,8.875090294404851254e-02
3.307999999999999829e+01,8.669828495307127514e-02
3.311999999999999744e+01,7.577046276762947064e-02
3.315999999999999659e+01,7.925892529532117814e-02
3.320000000000000284e+01,7.442675361973967452e-02
3.324000000000000199e+01,9.343838273503808634e-02
3.328000000000000114e+01,4.978259372769457819e-02
3.332000000000000028e+01,8.986300245625993000e-02
3.335999999999999943e+01,7.614895000952000281e-02
3.339999999999999858e+01,7.962401051030691679e-02
3.343999999999999773e+01,7.034199634688784175e-02
3.347999999999999687e+01,9.433132077365836976e-02
3.352000000000000313e+01,9.003592574553297145e-02
3.356000000000000227e+01,8.130185930051939125e-02
3.360000000000000142e+01,8.088398686843138730e-02
3.364000000000000057e+01,7.658201301064661293e-02
3.367999999999999972e+01,8.891463098271450149e-02
3.371999999999999886e+01,6.630784708692405438e-02
3.375999999999999801e+01,9.693656848880799481e-02
3.379999999999999716e+01,9.539869453566360291e-02
3.384000000000000341e+01,8.332203674385996184e-02
3.388000000000000256e+01,7.179778315198188932e-02
3.392000000000000171e+01,1.029724331015570149e-01
3.396000000000000085e+01,9.033476767906359339e-02
3.400000000000000000e+01,8.878614622545227819e-02
3.403999999999999915e+01,8.778995069332959367e-02
3.407999999999999829e+01,7.958235868735070995e-02
3.411999999999999744e+01,7.747279476773902274e-02
3.415999999999999659e+01,8.534317827775333987e-02
3.420000000000000284e+01,7.768379464893830633e-02
3.424000000000000199e+01,8.222260583216958740e-02
3.428000000000000114e+01,7.844092943267923224e-02
3.432000000000000028e+01,7.022068479372593763e-02
3.435999999999999943e+01,6.366202778020707553e-02
3.439999999999999858e+01,7.706541512603354294e-02
3.443999999999999773e+01,7.549362704578516103e-02
3.447999999999999687e+01,5.783755070903338208e-02
3.452000000000000313e+01,4.794323415378587416e-02
3.456000000000000227e+01,6.854760715723116904e-02
3.460000000000000142e+01,6.807667602165820564e-02
3.464000000000000057e+01,5.873074704647100047e-02
3.467999999999999972e+01,6.102851348721931302e-02
3.471999999999999886e+01,7.496998077429378737e-02
3.475999999999999801e+01,8.502749868661377275e-02
3.479999999999999716e+01,4.572722396097505387e-02
3.484000000000000341e+01,6.465363332724934076e-02
3.488000000000000256e+01,5.529550787191488820e-02
3.492000000000000171e+01,5.536287389322198244e-02
3.496000000000000085e+01,6.430117769115156756e-02
3.500000000000000000e+01,6.325541426216482743e-02
3.503999999999999915e+01,6.941692207935307168e-02
3.507999999999999829e+01,6.614893266081633971e-02
3.511999999999999744e+01,5.067865578489690742e-02
3.515999999999999659e+01,7.125274122762899343e-02
3.520000000000000284e+01,8.184278659539888368e-02
3.524000000000000199e+01,5.194804514606386758e-02
3.528000000000000114e+01,5.754312317614315025e-02
3.532000000000000028e+01,6.313624176980707492e-02
3.535999999999999943e+01,4.876327766269741154e-02
3.539999999999999858e+01,3.494292411036354490e-02
3.543999999999999773e+01,4.552122915081328186e-02
3.547999999999999687e+01,5.776127386763991317e-02
3.552000000000000313e+01,6.223555847426941873e-02
3.556000000000000227e+01,5.228937883617619520e-02
3.560000000000000142e+01,4.955054646972925636e-02
3.564000000000000057e+01,7.841966854334590786e-02
3.567999999999999972e+01,6.347670875169836302e-02
3.571999999999999886e+01,5.685023078368896254e-02
3.575999999999999801e+01,4.966729398315314348e-02
3.579999999999999716e+01,5.135540899744669291e-02
3.584000000000000341e+01,4.250501169262098367e-02
3.588000000000000256e+01,4.640759097627404628e-02
3.592000000000000171e+01,7.692713053903915688e-02
3.596000000000000085e+01,5.975271233640781082e-02
3.600000000000000000e+01,4.923113657892100314e-02
3.603999999999999915e+01,6.809933304376698804e-02
3.607999999999999829e+01,3.982814716479866207e-02
3.611999999999999744e+01,4.593777654263205695e-02
3.615999999999999659e+01,5.426379704389569514e-02
3.620000000000000284e+01,4.761488105627966622e-02
3.624000000000000199e+01,5.926458183475662861e-02
3.628000000000000114e+01,3.819346481202520044e-02
3.632000000000000028e+01,7.368555541443751189e-02
3.635999999999999943e+01,6.758389298986793026e-02
3.639999999999999858e+01,5.593482644533753073e-02
3.643999999999999773e+01,4.872042555861169633e-02
3.647999999999999687e+01,6.812306097646918246e-02
3.652000000000000313e+01,4.704108334972728622e-02
3.656000000000000227e+01,4.093041114974660388e-02
3.660000000000000142e+01,7.474621067535426600e-02
3.664000000000000057e+01,4.755872562237629247e-02
3.667999999999999972e+01,5.586125011249073319e-02
3.671999999999999886e+01,4.586155392634767847e-02
3.675999999999999801e+01,5.305142684055874636e-02
3.679999999999999716e+01,5.303027254748778063e-02
3.684000000000000341e+01,4.801633299916458625e-02
3.688000000000000256e+01,7.128316145056180775e-02
3.692000000000000171e+01,5.406543116126757975e-02
3.696000000000000085e+01,4.849170582018450665e-02
3.700000000000000000e+01,5.178919520565473944e-02
3.703999999999999915e+01,6.118510909602055403e-02
3.707999999999999829e+01,6.392459292224980660e-02
3.711999999999999744e+01,5.612573820186538692e-02
3.715999999999999659e+01,4.333414166935513345e-02
3.720000000000000284e+01,5.161408788436553513e-02
3.724000000000000199e+01,5.601042140885102716e-02
3.728000000000000114e+01,7.648727636795153717e-02
3.732000000000000028e+01,5.592506775985896239e-02
3.735999999999999943e+01,4.090676796937880305e-02
3.739999999999999858e+01,5.916033894738669668e-02
3.743999999999999773e+01,6.133002351781028511e-02
3.747999999999999687e+01,5.018862276308893450e-02
3.752000000000000313e+01,5.235498037327888932e-02
3.756000000000000227e+01,4.786497308402185707e-02
3.760000000000000142e+01,7.165583154151954071e-02
3.764000000000000057e+01,4.165280987552762854e-02
3.767999999999999972e+01,5.823111612059202191e-02
3.771999999999999886e+01,6.316204701408539846e-02
3.775999999999999801e+01,6.310031755131481623e-02
3.779999999999999716e+01,7.523726620537179999e-02
3.784000000000000341e+01,6.130831840837797780e-02
3.788000000000000256e+01,6.623276915390965969e-02
3.792000000000000171e+01,6.006443083023390445e-02
3.796000000000000085e+01,6.664935147535863691e-02
3.800000000000000000e+01,5.548678434714120200e-02
3.803999999999999915e+01,3.822247661457615908e-02
3.807999999999999829e+01,6.365763718410742678e-02
3.811999999999999744e+01,5.138119757671998772e-02
3.815999999999999659e+01,4.631245278598994375e-02
3.820000000000000284e+01,6.786097780664750168e-02
3.824000000000000199e+01,6.389821981057203226e-02
3.828000000000000114e+01,6.437037727027787593e-02
3.832000000000000028e+01,6.484098257287829181e-02
3.835999999999999943e+01,6.364636375753499054e-02
3.839999999999999858e+01,5.801373060259031739e-02
3.843999999999999773e+01,5.016132506007382752e-02
3.847999999999999687e+01,5.284401255979938317e-02
3.852000000000000313e+01,6.217988461928980470e-02
3.856000000000000227e+01,7.317791449524869984e-02
3.860000000000000142e+01,6.753765631454695939e-02
3.864000000000000057e+01,7.298707202805999883e-02
3.867999999999999972e+01,4.904335054627094459e-02
3.871999999999999886e+01,7.445389381774750182e-02
3.875999999999999801e+01,7.102586988511312704e-02
3.879999999999999716e+01,7.147827287293090359e-02
3.884000000000000341e+01,8.745684995019512020e-02
3.888000000000000256e+01,7.958790828820810903e-02
3.892000000000000171e+01,7.781764635948434927e-02
3.896000000000000085e+01,7.715503742072737925e-02
3.900000000000000000e+01,8.148200081519589577e-02
3.903999999999999915e+01,8.525295066918357756e-02
3.907999999999999829e+01,1.184140854552050148e-01
3.911999999999999744e+01,8.669035843400252350e-02
3.915999999999999659e+01,8.491138633602500485e-02
3.920000000000000284e+01,9.311304589691424272e-02
3.924000000000000199e+01,9.244033211313125442e-02
3.928000000000000114e+01,1.095120886747322914e-01
3.932000000000000028e+01,1.038455044922004106e-01
3.935999999999999943e+01,1.192507562982923208e-01
3.939999999999999858e+01,1.080357643081650276e-01
3.943999999999999773e+01,1.223290922107206913e-01
3.947999999999999687e+01,1.344027889158653510e-01
3.952000000000000313e+01,1.420386233323510106e-01
3.956000000000000227e+01,1.269361495870484913e-01
3.960000000000000142e+01,1.390056948472212783e-01
3.964000000000000057e+01,1.449737167186783693e-01
3.967999999999999972e+01,1.465038980230396748e-01
3.971999999999999886e+01,1.718787598415904561e-01
3.975999999999999801e+01,1.706334267374391978e-01
3.979999999999999716e+01,1.649502693573645651e-01
3.984000000000000341e+01,1.609294435662638745e-01
3.988000000000000256e+01,1.851897930541935577e-01
3.992000000000000171e+01,1.922574745579491984e-01
3.996000000000000085e+01,2.181788369845519271e-01
4.000000000000000000e+01,2.180345962012070760e-01
4.003999999999999915e+01,2.239891872020678132e-01
4.007999999999999829e+01,2.227331962876922811e-01
4.011999999999999744e+01,2.342307575832203725e-01
4.015999999999999659e+01,2.562636399974039803e-01
4.020000000000000284e+01,2.799589028740789298e-01
4.024000000000000199e+01,3.169622933822396349e-01
4.028000000000000114e+01,3.761467630388318217e-01
4.032000000000000028e+01,4.203568555367967474e-01
4.035999999999999943e+01,4.928481884784817191e-01
4.039999999999999858e+01,5.675564881650214666e-01
4.043999999999999773e+01,6.356088139402520376e-01
4.047999999999999687e+01,7.191875364509516810e-01
4.052000000000000313e+01,7.678277802602290203e-01
4.056000000000000227e+01,7.737657229727392671e-01
4.060000000000000142e+01,7.724931543650934707e-01
4.064000000000000057e+01,8.122567242133261756e-01
4.067999999999999972e+01,8.181909553425191772e-01
4.071999999999999886e+01,7.969505627479795962e-01
4.075999999999999801e+01,8.361558944648302960e-01
4.079999999999999716e+01,8.709235376655276584e-01
4.084000000000000341e+01,9.067990890845594176e-01
4.088000000000000256e+01,9.959111124108275259e-01
4.092000000000000171e+01,9.846467339512373629e-01
4.096000000000000085e+01,1.000000000000000000e+00
4.100000000000000000e+01,9.842967664248977178e-01
4.103999999999999915e+01,9.403098343083697852e-01
4.107999999999999829e+01,9.440138099469357336e-01
4.111999999999999744e+01,8.656418622551170783e-01
4.115999999999999659e+01,8.355153923095832713e-01
4.120000000000000284e+01,7.660140629359932785e-01
4.124000000000000199e+01,7.336670395612757689e-01
4.128000000000000114e+01,6.863457693573103979e-01
4.132000000000000028e+01,6.673058699264440286e-01
4.135999999999999943e+01,6.016818640937584561e-01
4.139999999999999858e+01,5.798668955464251207e-01
4.143999999999999773e+01,5.281046053703453147e-01
4.147999999999999687e+01,5.268060729053154478e-01
4.152000000000000313e+01,5.066514122805144682e-01
4.156000000000000227e+01,4.876047576210823520e-01
4.160000000000000142e+01,4.369471256632375122e-01
4.164000000000000057e+01,3.990432522701468088e-01
4.167999999999999972e+01,3.583654872207291953e-01
4.171999999999999886e+01,3.382053194225830839e-01
4.175999999999999801e+01,3.385627543060990563e-01
4.179999999999999716e+01,3.023182068694692526e-01
4.184000000000000341e+01,2.566450799331594923e-01
4.188000000000000256e+01,2.198438302310806447e-01
4.192000000000000171e+01,2.196424197141083889e-01
4.196000000000000085e+01,1.955939085979765124e-01
4.200000000000000000e+01,1.587894849212697357e-01
4.203999999999999915e+01,1.635759488945291718e-01
4.207999999999999829e+01,1.506154789943081052e-01
4.211999999999999744e+01,1.287810267375524287e-01
4.215999999999999659e+01,1.119365758148953838e-01
4.220000000000000284e+01,1.028549273087762117e-01
4.224000000000000199e+01,1.026452049104051578e-01
4.228000000000000114e+01,1.046527044852566812e-01
4.232000000000000028e+01,8.114947494323671018e-02
4.235999999999999943e+01,7.705481127792143670e-02
4.239999999999999858e+01,8.571400935478537542e-02
4.243999999999999773e+01,7.551720417086656145e-02
4.247999999999999687e+01,7.918338985072792546e-02
4.252000000000000313e+01,6.787549704345600954e-02
4.256000000000000227e+01,7.320340161279434432e-02
4.260000000000000142e+01,6.743915246864899682e-02
4.264000000000000057e+01,6.278305591042389333e-02
4.267999999999999972e+01,7.698100954162027942e-02
4.271999999999999886e+01,7.343211618558891096e-02
4.275999999999999801e+01,7.210050996746965313e-02
4.279999999999999716e+01,8.185914240420853749e-02
4.284000000000000341e+01,6.388887979751749213e-02
4.288000000000000256e+01,5.201783453277888936e-02
4.292000000000000171e+01,5.789175377898710811e-02
4.296000000000000085e+01,4.990077253318029454e-02
4.300000000000000000e+01,5.466373448541460983e-02
4.303999999999999915e+01,4.722548419764461408e-02
4.307999999999999829e+01,7.139619840262700912e-02
4.311999999999999744e+01,4.898304514298550127e-02
4.315999999999999659e+01,5.762430810646827772e-02
4.320000000000000284e+01,4.075496142167726876e-02
4.324000000000000199e+01,6.436754703775698916e-02
4.328000000000000114e+01,5.969673821429589272e-02
4.332000000000000028e+01,6.334344298872486567e-02
4.335999999999999943e+01,6.643472070487946302e-02
4.339999999999999858e+01,5.067012548963058249e-02
4.343999999999999773e+01,5.542336103245736056e-02
4.347999999999999687e+01,7.015780928596643262e-02
4.352000000000000313e+01,4.995418611736318626e-02
4.356000000000000227e+01,5.082296912841776509e-02
4.360000000000000142e+01,3.782693853371010134e-02
4.364000000000000057e+01,5.643994845722606624e-02
4.367999999999999972e+01,3.900579041937343033e-02
4.371999999999999886e+01,4.985332897806798308e-02
4.375999999999999801e+01,6.236373130403489312e-02
4.379999999999999716e+01,6.988229326274866815e-02
4.384000000000000341e+01,6.242695593722561581e-02
4.388000000000000256e+01,5.053434823564077055e-02
4.392000000000000171e+01,3.808638950125273204e-02
4.396000000000000085e+01,5.946575124985358646e-02
4.400000000000000000e+01,5.200725717553831423e-02
4.403999999999999915e+01,5.009357879409896686e-02
4.407999999999999829e+01,7.036149544821720947e-02
4.411999999999999744e+01,6.400980909223059900e-02
4.415999999999999659e+01,4.822985819923049366e-02
4.420000000000000284e+01,7.071373341484155084e-02
4.424000000000000199e+01,4.217742017349348366e-02
4.428000000000000114e+01,5.911421259686432811e-02
4.432000000000000028e+01,5.553157959659091314e-02
4.435999999999999943e+01,5.638468747150041094e-02
4.439999999999999858e+01,5.668250947829633207e-02
4.443999999999999773e+01,4.533386843917555642e-02
4.447999999999999687e+01,6.892173673894344543e-02
4.452000000000000313e+01,5.923534676759813905e-02
4.456000000000000227e+01,7.783076743100662831e-02
4.460000000000000142e+01,4.374237111974406400e-02
4.464000000000000057e+01,5.679080673794667522e-02
4.467999999999999972e+01,5.486545711011932974e-02
4.471999999999999886e+01,4.517559636197863299e-02
4.475999999999999801e+01,6.099477774849736827e-02
4.479999999999999716e+01,5.463092148483240235e-02
4.484000000000000341e+01,6.046669908677566180e-02
4.488000000000000256e+01,6.519269685488535138e-02
4.492000000000000171e+01,6.603612456750361515e-02
4.496000000000000085e+01,6.355154678543104008e-02
4.500000000000000000e+01,6.217544198233605768e-02
4.503999999999999915e+01,6.967164341434510522e-02
4.507999999999999829e+01,6.441235042587098447e-02
4.511999999999999744e+01,8.078023453270542775e-02
4.515999999999999659e+01,7.607424812369280309e-02
4.520000000000000284e+01,5.639454706373051018e-02
4.524000000000000199e+01,7.109689938967238276e-02
4.528000000000000114e+01,6.805275227339771527e-02
4.532000000000000028e+01,7.776286331783049954e-02
4.535999999999999943e+01,7.749031360656413736e-02
4.539999999999999858e+01,1.016177746553906386e-01
4.543999999999999773e+01,9.968037102741823807e-02
4.547999999999999687e+01,1.188156342378621222e-01
4.552000000000000313e+01,1.235317853708923774e-01
4.556000000000000227e+01,1.276928081171422591e-01
4.560000000000000142e+01,1.312987079070026819e-01
4.564000000000000057e+01,1.609683284305296613e-01
4.567999999999999972e+01,1.767734177286160446e-01
4.571999999999999886e+01,1.809322177532912967e-01
4.575999999999999801e+01,1.795448843694529006e-01
4.579999999999999716e+01,2.047758525712541355e-01
4.584000000000000341e+01,1.911871504007415234e-01
4.588000000000000256e+01,2.252900076322186251e-01
4.592000000000000171e+01,2.200186462217537109e-01
4.596000000000000085e+01,1.992191142073545806e-01
4.600000000000000000e+01,2.028196744089103276e-01
4.603999999999999915e+01,1.881192792152649729e-01
4.607999999999999829e+01,1.944916323158978888e-01
4.611999999999999744e+01,1.648171487090009935e-01
4.615999999999999659e+01,1.856070581688778476e-01
4.620000000000000284e+01,1.664682278691387018e-01
4.624000000000000199e+01,1.390105336735270314e-01
4.628000000000000114e+01,1.398348836194736600e-01
4.632000000000000028e+01,1.306767031391002643e-01
4.635999999999999943e+01,1.248454167926303093e-01
4.639999999999999858e+01,1.356504491402874824e-01
4.643999999999999773e+01,1.148451612668187627e-01
4.647999999999999687e+01,1.223219446868624161e-01
4.652000000000000313e+01,1.037340100506588814e-01
4.656000000000000227e+01,1.001187384389163743e-01
4.660000000000000142e+01,1.203490813685810235e-01
4.664000000000000057e+01,1.084145720986641748e-01
4.667999999999999972e+01,9.869788214495792134e-02
4.671999999999999886e+01,9.619004911154017956e-02
4.675999999999999801e+01,9.479092799429512939e-02
4.679999999999999716e+01,9.838243813648159253e-02
4.684000000000000341e+01,1.008644345339834852e-01
4.688000000000000256e+01,9.613677218268512625e-02
4.692000000000000171e+01,1.252368321632947867e-01
4.696000000000000085e+01,9.499868599737422425e-02
4.700000000000000000e+01,1.096794556323372333e-01
4.703999999999999915e+01,9.885013693654311207e-02
4.707999999999999829e+01,9.911163794742262889e-02
4.711999999999999744e+01,1.237733832251993876e-01
4.715999999999999659e+01,1.035154868990519894e-01
4.720000000000000284e+01,1.059941683093543197e-01
4.724000000000000199e+01,1.151272181046159443e-01
4.728000000000000114e+01,1.314692008456373185e-01
4.732000000000000028e+01,1.378287889201086913e-01
4.735999999999999943e+01,1.480699660186632627e-01
4.739999999999999858e+01,1.389012540944846164e-01
4.743999999999999773e+01,1.724332811838494850e-01
4.747999999999999687e+01,2.015285266323245394e-01
4.752000000000000313e+01,2.150958132621066665e-01
4.756000000000000227e+01,2.297719204158774620e-01
4.760000000000000142e+01,2.350202300462435889e-01
4.764000000000000057e+01,2.679962093210453977e-01
4.767999999999999972e+01,2.493979080220871669e-01
4.771999999999999886e+01,2.657365559236724017e-01
4.775999999999999801e+01,2.709837506321869371e-01
4.779999999999999716e+01,2.806671532294932603e-01
4.784000000000000341e+01,2.792591134945105469e-01
4.788000000000000256e+01,2.767417012050041869e-01
4.792000000000000171e+01,2.692330078784970215e-01
4.796000000000000085e+01,2.772517267705387201e-01
4.800000000000000000e+01,2.697425520085771078e-01
4.803999999999999915e+01,2.882974238037301351e-01
4.807999999999999829e+01,2.647055745459958587e-01
4.811999999999999744e+01,2.671777827061579402e-01
4.815999999999999659e+01,2.374853450215888562e-01
4.820000000000000284e+01,2.272022660507813652e-01
4.824000000000000199e+01,2.196917773118352291e-01
4.828000000000000114e+01,2.304815398866128240e-01
4.832000000000000028e+01,2.107703557294515750e-01
4.835999999999999943e+01,1.988228102690114407e-01
4.839999999999999858e+01,2.085028871959256347e-01
4.843999999999999773e+01,1.738180554218310969e-01
4.847999999999999687e+01,1.629790934175110728e-01
4.852000000000000313e+01,1.671130605268014713e-01
4.856000000000000227e+01,1.673649517461633096e-01
4.860000000000000142e+01,1.443252029416479398e-01
4.864000000000000057e+01,1.312673673682280551e-01
4.867999999999999972e+01,1.525920521943210928e-01
4.871999999999999886e+01,1.228971567672245968e-01
4.875999999999999801e+01,1.092843412969026345e-01
4.879999999999999716e+01,1.372633312125920158e-01
4.884000000000000341e+01,9.869510151479272964e-02
4.888000000000000256e+01,1.039369245854251528e-01
4.892000000000000171e+01,9.586921542268145302e-02
4.896000000000000085e+01,9.722890380374987762e-02
4.900000000000000000e+01,9.637025342041763420e-02
4.903999999999999915e+01,8.885679665979798192e-02
4.907999999999999829e+01,8.577972156047555807e-02
4.911999999999999744e+01,9.434830224816737054e-02
4.915999999999999659e+01,8.849826502400832962e-02
4.920000000000000284e+01,8.486638923068018370e-02
4.924000000000000199e+01,7.846164812488651275e-02
4.928000000000000114e+01,8.481170278848956801e-02
4.932000000000000028e+01,8.062507517467289164e-02
4.935999999999999943e+01,7.033824375710490129e-02
4.939999999999999858e+01,9.831594439895204041e-02
4.943999999999999773e+01,8.414710862119922918e-02
4.947999999999999687e+01,9.049692359053286561e-02
4.952000000000000313e+01,8.631008343440080277e-02
4.956000000000000227e+01,9.931455010367866432e-02
4.960000000000000142e+01,8.791839424802992686e-02
4.964000000000000057e+01,7.596766390546254299e-02
4.967999999999999972e+01,9.396311667890036579e-02
4.971999999999999886e+01,8.533972669694533941e-02
4.975999999999999801e+01,8.392560634497968353e-02
4.979999999999999716e+01,8.195693322765837396e-02
4.984000000000000341e+01,7.333356234086566006e-02
4.988000000000000256e+01,6.803756346236682073e-02
4.992000000000000171e+01,5.996879158804611920e-02
4.996000000000000085e+01,6.576402606058510958e-02
5.000000000000000000e+01,5.270428361620242003e-02
5.003999999999999915e+01,5.461767664028055469e-02
5.007999999999999829e+01,6.041302795501619222e-02
5.011999999999999744e+01,5.400812820891907201e-02
5.015999999999999659e+01,5.037607935344177307e-02
5.020000000000000284e+01,6.116262855757870209e-02
5.024000000000000199e+01,5.198511516631945661e-02
5.028000000000000114e+01,6.609915678201111477e-02
5.032000000000000028e+01,5.414899622858162370e-02
5.035999999999999943e+01,4.718995023936470995e-02
5.039999999999999858e+01,5.964056163540323169e-02
5.043999999999999773e+01,4.103595497980570134e-02
5.047999999999999687e+01,5.404131743925860015e-02
5.052000000000000313e+01,3.710059096867639183e-02
5.056000000000000227e+01,4.622425316982925469e-02
5.060000000000000142e+01,3.482934251869333059e-02
5.064000000000000057e+01,3.064382096614452072e-02
5.067999999999999972e+01,4.697711307240609591e-02
5.071999999999999886e+01,5.055567644328721327e-02
5.075999999999999801e+01,5.247069911737260034e-02
5.079999999999999716e+01,4.495835869931717743e-02
5.084000000000000341e+01,5.741029453122580700e-02
5.088000000000000256e+01,4.712545900194251014e-02
5.092000000000000171e+01,5.791402884422423847e-02
5.096000000000000085e+01,3.875656949076969338e-02
5.100000000000000000e+01,3.956340810884224901e-02
5.103999999999999915e+01,3.870674404285473491e-02
5.107999999999999829e+01,5.282335663548865662e-02
5.111999999999999744e+01,3.754852088435917806e-02
5.115999999999999659e+01,4.778359613041709836e-02
5.120000000000000284e+01,4.082753476250644553e-02
5.124000000000000199e+01,3.775358916658668601e-02
5.128000000000000114e+01,4.133456042509691536e-02
5.132000000000000028e+01,3.992471222982444529e-02
5.135999999999999943e+01,4.738802827140239232e-02
5.139999999999999858e+01,5.762436354571492947e-02
5.143999999999999773e+01,4.900591739717462259e-02
5.147999999999999687e+01,4.316050134215063810e-02
5.152000000000000313e+01,5.672489472332446769e-02
5.156000000000000227e+01,5.420731862486638519e-02
5.160000000000000142e+01,5.446278891109700149e-02
5.164000000000000057e+01,5.139116057790023978e-02
5.167999999999999972e+01,4.610155731648633848e-02
5.171999999999999886e+01,5.356708107830816107e-02
5.175999999999999801e+01,5.604184512064588897e-02
5.179999999999999716e+01,5.685320965634865081e-02
5.184000000000000341e+01,6.154677141990427813e-02
5.188000000000000256e+01,5.736767584228033567e-02
5.192000000000000171e+01,3.932489618018050748e-02
5.196000000000000085e+01,3.958286742775798256e-02
5.200000000000000000e+01,4.926864892884849634e-02
5.203999999999999915e+01,5.174547220155176902e-02
5.207999999999999829e+01,6.365011658854954901e-02
5.211999999999999744e+01,6.612757708630311038e-02
5.215999999999999659e+01,5.806874086438362087e-02
5.220000000000000284e+01,5.611038726547293298e-02
5.224000000000000199e+01,6.025252171996189204e-02
5.228000000000000114e+01,6.716779487578301844e-02
5.232000000000000028e+01,7.131062085923006721e-02
5.235999999999999943e+01,5.826246771004180841e-02
5.239999999999999858e+01,7.183351216097526304e-02
5.243999999999999773e+01,7.819565268742940944e-02
5.247999999999999687e+01,7.180330341569829411e-02
5.252000000000000313e+01,8.814825412239327140e-02
5.256000000000000227e+01,7.898386589226144561e-02
5.260000000000000142e+01,7.980192850191425435e-02
5.264000000000000057e+01,8.062038303436808162e-02
5.267999999999999972e+01,7.644820274632621593e-02
5.271999999999999886e+01,6.950362958981837203e-02
5.275999999999999801e+01,7.475976551629716360e-02
5.279999999999999716e+01,5.450659508829411998e-02
5.284000000000000341e+01,6.863650982044706972e-02
5.288000000000000256e+01,6.391183862381599745e-02
5.292000000000000171e+01,6.140583388436036266e-02
5.296000000000000085e+01,5.890026451083190534e-02
5.300000000000000000e+01,6.083160897689908475e-02
5.303999999999999915e+01,6.442707706090441966e-02
5.307999999999999829e+01,5.804093245463477074e-02
5.311999999999999744e+01,5.442804058790406962e-02
5.315999999999999659e+01,6.135223471683907276e-02
5.320000000000000284e+01,6.106762809871996850e-02
5.324000000000000199e+01,4.192848442533411019e-02
5.328000000000000114e+01,5.828160390722254836e-02
5.332000000000000028e+01,5.134372415134833001e-02
5.335999999999999943e+01,5.106104363022564985e-02
5.339999999999999858e+01,6.020636342629384630e-02
5.343999999999999773e+01,5.437908723191731825e-02
5.347999999999999687e+01,6.019805873715198402e-02
5.352000000000000313e+01,5.714459554722996909e-02
5.356000000000000227e+01,4.743693961418105759e-02
5.360000000000000142e+01,4.937554767191573019e-02
5.364000000000000057e+01,6.129674775959579464e-02
5.367999999999999972e+01,5.547258878712738733e-02
5.371999999999999886e+01,4.410337705391449703e-02
5.375999999999999801e+01,5.658075190206185434e-02
5.379999999999999716e+01,5.353102050287174979e-02
5.384000000000000341e+01,5.990934915517143189e-02
5.388000000000000256e+01,5.020602329050558033e-02
5.392000000000000171e+01,4.327605877319467415e-02
5.396000000000000085e+01,4.133769755526842810e-02
5.400000000000000000e+01,5.659124593613076154e-02
5.403999999999999915e+01,4.966301108708414541e-02
5.407999999999999829e+01,6.048125582801752026e-02
5.411999999999999744e+01,5.521787863433028770e-02
5.415999999999999659e+01,5.550069102239120478e-02
5.420000000000000284e+01,5.467498885767484162e-02
5.424000000000000199e+01,6.605019670040478130e-02
5.428000000000000114e+01,4.914350346106381717e-02
5.432000000000000028e+01,5.552891369814456218e-02
5.435999999999999943e+01,6.302406762565009035e-02
5.439999999999999858e+01,7.162897067397100415e-02
5.443999999999999773e+01,6.082494044833944985e-02
5.447999999999999687e+01,7.220391715987342640e-02
5.452000000000000313e+01,6.251029406700757407e-02
5.456000000000000227e+01,6.279938790307539043e-02
5.460000000000000142e+01,6.087090322945457044e-02
5.464000000000000057e+01,4.840645852039044544e-02
5.467999999999999972e+01,6.367063920454278658e-02
5.471999999999999886e+01,6.118960201870737164e-02
5.475999999999999801e+01,5.149997587105922120e-02
5.479999999999999716e+01,5.567501314755748248e-02
5.484000000000000341e+01,6.428721406162821173e-02
5.488000000000000256e+01,7.622746578284289587e-02
5.492000000000000171e+01,6.099502156905883821e-02
5.496000000000000085e+01,7.460035902204631419e-02
5.500000000000000000e+01,5.826021574876826675e-02
5.503999999999999915e+01,5.079373630829433356e-02
5.507999999999999829e+01,6.883770004330605485e-02
5.511999999999999744e+01,5.194516716953737068e-02
5.515999999999999659e+01,4.836278746302277026e-02
5.520000000000000284e+01,5.809056635415292547e-02
5.524000000000000199e+01,6.670997188266653000e-02
5.528000000000000114e+01,6.312982687076064414e-02
5.532000000000000028e+01,5.955043761783910400e-02
5.535999999999999943e+01,4.321694955486981432e-02
5.539999999999999858e+01,5.572130289297088507e-02
5.543999999999999773e+01,4.826229958647983154e-02
5.547999999999999687e+01,5.910452506405639017e-02
5.552000000000000313e+01,6.329282388765500311e-02
5.556000000000000227e+01,5.250881453152124456e-02
5.560000000000000142e+01,4.838030851202380911e-02
5.564000000000000057e+01,5.478922517242149071e-02
5.567999999999999972e+01,5.398967776999499119e-02
5.571999999999999886e+01,5.263638130005109800e-02
5.575999999999999801e+01,5.350213684502928835e-02
5.579999999999999716e+01,5.048679940081370054e-02
5.584000000000000341e+01,5.856347091885705236e-02
5.588000000000000256e+01,5.943170552602988765e-02
5.592000000000000171e+01,6.972828256501403810e-02
5.596000000000000085e+01,5.507054138079928163e-02
5.600000000000000000e+01,6.259601348860033276e-02
5.603999999999999915e+01,5.625836084217782779e-02
5.607999999999999829e+01,5.380348104503302614e-02
5.611999999999999744e+01,6.188608909247280548e-02
5.615999999999999659e+01,6.996956693710396080e-02
5.620000000000000284e+01,5.864435044497783023e-02
5.624000000000000199e+01,7.449341200089966419e-02
5.628000000000000114e+01,5.928804834224211950e-02
5.632000000000000028e+01,5.628387707135243390e-02
5.635999999999999943e+01,5.438972101042752194e-02
5.639999999999999858e+01,5.249646732903853058e-02
5.643999999999999773e+01,5.559515363126371623e-02
5.647999999999999687e+01,5.370372100011944205e-02
5.652000000000000313e+01,4.793129312681567583e-02
5.656000000000000227e+01,6.434215457099901059e-02
5.660000000000000142e+01,6.356261250397197970e-02
5.664000000000000057e+01,5.723841409472872621e-02
5.667999999999999972e+01,6.477913433799965814e-02
5.671999999999999886e+01,6.899344562147476101e-02
5.675999999999999801e+01,5.047178381120577539e-02
5.679999999999999716e+01,6.799742216101099801e-02
5.684000000000000341e+01,6.833268958195047593e-02
5.688000000000000256e+01,6.035053759097032400e-02
5.692000000000000171e+01,6.346054118280047840e-02
5.696000000000000085e+01,6.712608231004761616e-02
5.700000000000000000e+01,5.526495162122140731e-02
5.703999999999999915e+01,5.560511106719735752e-02
5.707999999999999829e+01,6.703744781754683579e-02
5.711999999999999744e+01,6.072489252135660626e-02
5.715999999999999659e+01,5.053142886925982014e-02
5.720000000000000284e+01,5.642119098639624547e-02
5.724000000000000199e+01,6.896667908619188991e-02
5.728000000000000114e+01,5.766714642650437594e-02
5.732000000000000028e+01,7.132380191377753198e-02
5.735999999999999943e+01,5.780809271989083287e-02
5.739999999999999858e+01,6.758490514251763726e-02
5.743999999999999773e+01,6.571701939623751654e-02
5.747999999999999687e+01,6.939577395414203709e-02
5.752000000000000313e+01,7.085734642088639679e-02
5.756000000000000227e+01,5.679232309702842568e-02
5.760000000000000142e+01,6.269249375917956835e-02
5.764000000000000057e+01,6.138446644765555016e-02
5.767999999999999972e+01,6.895046137472854442e-02
5.771999999999999886e+01,5.877164571112346997e-02
5.775999999999999801e+01,5.691230401648718351e-02
5.779999999999999716e+01,5.893596867793293725e-02
5.784000000000000341e+01,6.317896773462226834e-02
5.788000000000000256e+01,7.130498400817512905e-02
5.792000000000000171e+01,7.610475423365643810e-02
5.796000000000000085e+01,5.927783253793666995e-02
5.800000000000000000e+01,6.907086869705046650e-02
5.803999999999999915e+01,8.052870727295222131e-02
5.807999999999999829e+01,6.814163369718680141e-02
5.811999999999999744e+01,7.350158818087212942e-02
5.815999999999999659e+01,6.499870572104615718e-02
5.820000000000000284e+01,6.259712044284911070e-02
5.824000000000000199e+01,7.017875168953935372e-02
5.828000000000000114e+01,6.667035793593931170e-02
5.832000000000000028e+01,7.813622374169570950e-02
5.835999999999999943e+01,6.464809714770090865e-02
5.839999999999999858e+01,7.223439140835061223e-02
5.843999999999999773e+01,7.205803717273143172e-02
5.847999999999999687e+01,7.021919030574097498e-02
5.852000000000000313e+01,7.281800667227641966e-02
5.856000000000000227e+01,7.375434126822207059e-02
5.860000000000000142e+01,7.857379082806582871e-02
5.864000000000000057e+01,7.341238252195574077e-02
5.867999999999999972e+01,6.492483134519917709e-02
5.871999999999999886e+01,6.752968011883908606e-02
5.875999999999999801e+01,6.181736470892675028e-02
5.879999999999999716e+01,7.828864271838634203e-02
5.884000000000000341e+01,8.810644479630443116e-02
5.888000000000000256e+01,7.241576593914222926e-02
5.892000000000000171e+01,7.724501940129514799e-02
5.896000000000000085e+01,7.320257670144025841e-02
5.900000000000000000e+01,8.191624935594657431e-02
5.903999999999999915e+01,7.621264540512950880e-02
5.907999999999999829e+01,8.603796332150356885e-02
5.911999999999999744e+01,6.813659636350342941e-02
5.915999999999999659e+01,8.295549517617653579e-02
5.920000000000000284e+01,9.167552606123507974e-02
5.924000000000000199e+01,9.263301705784082740e-02
5.928000000000000114e+01,8.194605968351645342e-02
5.932000000000000028e+01,9.066997067159593415e-02
5.935999999999999943e+01,8.941312154075616025e-02
5.939999999999999858e+01,8.483022728630443265e-02
5.943999999999999773e+01,9.522174464215123202e-02
5.947999999999999687e+01,9.729619556148022541e-02
5.952000000000000313e+01,9.105358547468238306e-02
5.956000000000000227e+01,8.758510242034214799e-02
5.960000000000000142e+01,9.021810661130867659e-02
5.964000000000000057e+01,8.397950695691107359e-02
5.967999999999999972e+01,8.550608279983065718e-02
5.971999999999999886e+01,1.020071082657845601e-01
5.975999999999999801e+01,9.854536356935268693e-02
5.979999999999999716e+01,9.453042370526529292e-02
5.984000000000000341e+01,9.328964888637109043e-02
5.988000000000000256e+01,1.025868723687970580e-01
5.992000000000000171e+01,1.057853256706426520e-01
5.996000000000000085e+01,9.733942291820174564e-02
