2.003999999999999915e+01,8.216101848004991881e-02
2.007999999999999829e+01,7.560170326663272211e-02
2.012000000000000099e+01,3.584188289805333855e-02
2.016000000000000014e+01,1.058904624804040406e-01
2.019999999999999929e+01,4.441991428188842711e-02
2.023999999999999844e+01,1.933801530339369912e-02
2.028000000000000114e+01,0.000000000000000000e+00
2.032000000000000028e+01,4.003420770153379160e-02
2.035999999999999943e+01,6.538245520032523461e-02
2.039999999999999858e+01,4.986900524026555842e-02
2.044000000000000128e+01,1.013889692296187917e-01
2.048000000000000043e+01,1.114088028755901155e-01
2.051999999999999957e+01,6.907515162657057450e-02
2.055999999999999872e+01,1.122894596871363421e-01
2.060000000000000142e+01,9.357379339055570122e-02
2.064000000000000057e+01,6.655649206665598117e-02
2.067999999999999972e+01,7.209724279151522031e-02
2.071999999999999886e+01,6.997479082989997712e-02
2.076000000000000156e+01,9.274919929295015464e-02
2.080000000000000071e+01,1.027529438961822805e-01
2.083999999999999986e+01,6.997969170736333122e-02
2.087999999999999901e+01,7.167978872575747618e-02
2.092000000000000171e+01,1.416901632878800055e-01
2.096000000000000085e+01,5.655940081718846546e-02
2.100000000000000000e+01,1.706176012193173219e-01
2.103999999999999915e+01,6.441453782266423622e-02
2.107999999999999829e+01,1.350552955829270318e-01
2.112000000000000099e+01,1.022679573943751918e-01
2.116000000000000014e+01,5.670995412271127856e-02
2.119999999999999929e+01,2.583388797757523239e-02
2.123999999999999844e+01,9.391286369779394683e-02
2.128000000000000114e+01,9.112380617257456739e-02
2.132000000000000028e+01,1.023782527534305847e-01
2.135999999999999943e+01,6.638667248644140872e-02
2.139999999999999858e+01,1.146661834493093030e-01
2.144000000000000128e+01,9.335452584842635071e-02
2.148000000000000043e+01,5.863376946437070386e-02
2.151999999999999957e+01,8.264679939490740535e-02
2.155999999999999872e+01,1.194264673906145491e-01
2.160000000000000142e+01,2.851759852432373538e-02
2.164000000000000057e+01,6.465480512242159639e-02
2.167999999999999972e+01,5.673814684873873526e-02
2.171999999999999886e+01,4.754260861741547300e-02
2.176000000000000156e+01,9.644242327246758950e-02
2.180000000000000071e+01,5.085219624566233304e-02
2.183999999999999986e+01,9.336365462970097617e-02
2.187999999999999901e+01,6.628394295485109944e-02
2.192000000000000171e+01,1.075145054256897298e-01
2.196000000000000085e+01,9.830687594642165128e-02
2.200000000000000000e+01,6.419835888862480966e-02
2.203999999999999915e+01,9.903854818143885408e-02
2.207999999999999829e+01,1.102547148492561968e-01
2.212000000000000099e+01,1.246610284890296294e-01
2.216000000000000014e+01,4.330043399827595424e-02
2.219999999999999929e+01,1.684302783532232173e-02
2.223999999999999844e+01,1.142395320344955362e-01
2.228000000000000114e+01,1.069310711177527129e-01
2.232000000000000028e+01,1.621869894732941852e-01
2.235999999999999943e+01,1.101842119903262834e-01
2.239999999999999858e+01,7.797082845773788129e-02
2.244000000000000128e+01,6.810056919035699374e-02
2.248000000000000043e+01,9.525738414407514121e-02
2.251999999999999957e+01,6.048421821640941748e-02
2.255999999999999872e+01,8.636013290743563275e-02
2.260000000000000142e+01,9.180418626992117859e-02
2.264000000000000057e+01,6.340929330150797683e-02
2.267999999999999972e+01,8.417169351564696145e-02
2.271999999999999886e+01,1.394074366846048962e-01
2.276000000000000156e+01,9.823783707152475286e-02
2.280000000000000071e+01,7.877292788767065179e-02
2.283999999999999986e+01,6.888248935605822965e-02
2.287999999999999901e+01,6.537435827732814009e-02
2.292000000000000171e+01,1.103850869529341000e-01
2.296000000000000085e+01,1.062344855057680559e-01
2.300000000000000000e+01,1.167658150686571444e-01
2.303999999999999915e+01,9.537349477949348675e-02
2.307999999999999829e+01,1.250537641517285303e-01
2.312000000000000099e+01,9.025032015300531174e-02
2.316000000000000014e+01,7.906686319827610498e-02
2.319999999999999929e+01,6.149706035530646403e-02
2.323999999999999844e+01,7.520843563673763887e-02
2.328000000000000114e+01,1.144550953924600156e-01
2.332000000000000028e+01,1.128400477670533919e-01
2.335999999999999943e+01,8.440881010372043580e-02
2.339999999999999858e+01,1.064117284017261494e-01
2.344000000000000128e+01,1.347969522497120265e-01
2.348000000000000043e+01,1.248741986236318185e-01
2.351999999999999957e+01,9.451958054281445198e-02
2.355999999999999872e+01,1.267293375207114436e-01
2.360000000000000142e+01,9.126321643315310483e-02
2.364000000000000057e+01,1.068696831040916173e-01
2.367999999999999972e+01,1.109823413542303933e-01
2.371999999999999886e+01,1.208388715902109639e-01
2.376000000000000156e+01,1.140941322320490753e-01
2.380000000000000071e+01,9.968617972144749872e-02
2.383999999999999986e+01,7.123068779561063379e-02
2.387999999999999901e+01,7.341793920674076490e-02
2.392000000000000171e+01,1.202934512980414483e-01
2.396000000000000085e+01,1.346068777984043008e-01
2.400000000000000000e+01,1.425339556920942052e-01
2.403999999999999915e+01,1.287523021386910438e-01
2.407999999999999829e+01,8.177012997389729310e-02
2.412000000000000099e+01,1.024597918664162249e-01
2.416000000000000014e+01,8.994893487570121415e-02
2.419999999999999929e+01,1.004196287823303918e-01
2.423999999999999844e+01,8.726629272419554606e-02
2.428000000000000114e+01,1.341235988274361579e-01
2.432000000000000028e+01,1.273505418977572134e-01
2.435999999999999943e+01,1.397284396456112132e-01
2.439999999999999858e+01,7.230023696851518855e-02
2.444000000000000128e+01,1.268106393397944731e-01
2.448000000000000043e+01,1.072608345284686154e-01
2.451999999999999957e+01,1.298455579077386068e-01
2.455999999999999872e+01,7.262418031837215848e-02
2.460000000000000142e+01,1.213805919165076158e-01
2.464000000000000057e+01,1.165066393943506168e-01
2.467999999999999972e+01,1.154612577578538329e-01
2.471999999999999886e+01,7.866162488447096812e-02
2.476000000000000156e+01,1.191103130839665375e-01
2.480000000000000071e+01,1.276353454508577512e-01
2.483999999999999986e+01,1.227512676171603617e-01
2.487999999999999901e+01,1.191420295387650985e-01
2.492000000000000171e+01,1.117001701782505962e-01
2.496000000000000085e+01,1.502234331893191055e-01
2.500000000000000000e+01,1.708685571672997616e-01
2.503999999999999915e+01,8.170124574927301042e-02
2.507999999999999829e+01,1.138341045921886091e-01
2.512000000000000099e+01,1.351115827338137954e-01
2.516000000000000014e+01,1.136120494038530132e-01
2.519999999999999929e+01,8.955675906569661449e-02
2.523999999999999844e+01,1.370038946551716541e-01
2.528000000000000114e+01,1.276285008861707260e-01
2.532000000000000028e+01,1.527264412370837598e-01
2.535999999999999943e+01,1.669690000711771261e-01
2.539999999999999858e+01,1.243890291390297720e-01
2.544000000000000128e+01,1.424581290392187005e-01
2.548000000000000043e+01,1.611636340431975845e-01
2.551999999999999957e+01,2.130656072621074648e-01
2.555999999999999872e+01,1.570704411560911451e-01
2.560000000000000142e+01,1.942844085857861891e-01
2.564000000000000057e+01,5.018148595965035708e-02
2.567999999999999972e+01,1.199514603953186348e-01
2.571999999999999886e+01,1.041694364064362083e-01
2.576000000000000156e+01,1.234991776550172088e-01
2.580000000000000071e+01,1.549571099483905701e-01
2.583999999999999986e+01,1.570451133259476717e-01
2.587999999999999901e+01,1.559389247719539795e-01
2.592000000000000171e+01,8.460311981830122285e-02
2.596000000000000085e+01,1.543588931286274668e-01
2.600000000000000000e+01,1.685689998592639627e-01
2.603999999999999915e+01,1.278718724869761791e-01
2.607999999999999829e+01,1.337782962931538533e-01
2.612000000000000099e+01,1.677737253739381984e-01
2.616000000000000014e+01,1.264320763380340218e-01
2.619999999999999929e+01,1.610618782564547380e-01
2.623999999999999844e+01,1.976049479215302440e-01
2.628000000000000114e+01,1.588109390621522121e-01
2.632000000000000028e+01,1.429984738962727098e-01
2.635999999999999943e+01,9.845451066028364229e-02
2.639999999999999858e+01,1.228592389594488632e-01
2.644000000000000128e+01,1.632227518047856818e-01
2.648000000000000043e+01,8.675106562137392674e-02
2.651999999999999957e+01,1.156187294885391986e-01
2.655999999999999872e+01,4.999633549917448933e-02
2.660000000000000142e+01,1.446184959796678604e-01
2.664000000000000057e+01,1.473043287825384073e-01
2.667999999999999972e+01,1.250892581040515539e-01
2.671999999999999886e+01,1.718228778733458251e-01
2.676000000000000156e+01,1.349197935221903843e-01
2.680000000000000071e+01,1.420665274521609733e-01
2.683999999999999986e+01,1.179280312302124073e-01
2.687999999999999901e+01,1.320934595033597392e-01
2.692000000000000171e+01,1.462568553744312272e-01
2.696000000000000085e+01,1.380730772634443382e-01
2.700000000000000000e+01,1.222260751262886219e-01
2.703999999999999915e+01,1.963960385682288201e-01
2.707999999999999829e+01,1.786296728374082154e-01
2.712000000000000099e+01,1.104250976225926023e-01
2.716000000000000014e+01,1.360680832552332020e-01
2.719999999999999929e+01,1.527709789567220089e-01
2.723999999999999844e+01,2.186311523456991035e-01
2.728000000000000114e+01,1.638255283113710936e-01
2.732000000000000028e+01,1.358320402486257461e-01
2.735999999999999943e+01,1.423118793737918608e-01
2.739999999999999858e+01,1.787960172621354815e-01
2.744000000000000128e+01,2.127243905306725191e-01
2.748000000000000043e+01,1.942992552538573836e-01
2.751999999999999957e+01,2.077937161705172842e-01
2.755999999999999872e+01,1.759574270095438653e-01
2.760000000000000142e+01,2.379686972008889234e-01
2.764000000000000057e+01,2.054899058658205546e-01
2.767999999999999972e+01,1.985463840536659252e-01
2.771999999999999886e+01,2.439523013613780766e-01
2.776000000000000156e+01,2.446659005245361285e-01
2.780000000000000071e+01,2.243091880766565627e-01
2.783999999999999986e+01,2.409795316363784745e-01
2.787999999999999901e+01,3.131914768357180190e-01
2.792000000000000171e+01,2.174936090981318682e-01
2.796000000000000085e+01,3.056622978785054623e-01
2.800000000000000000e+01,3.293472567054836486e-01
2.803999999999999915e+01,3.051477333730189256e-01
2.807999999999999829e+01,2.713696845064401675e-01
2.812000000000000099e+01,3.231395692602609393e-01
2.816000000000000014e+01,2.957417734251873154e-01
2.819999999999999929e+01,3.321852021072960737e-01
2.823999999999999844e+01,2.926531129921044472e-01
2.828000000000000114e+01,3.744211832641256565e-01
2.832000000000000028e+01,2.908331696907550112e-01
2.835999999999999943e+01,3.183303934297539994e-01
2.839999999999999858e+01,3.956233235272022530e-01
2.844000000000000128e+01,3.982176003731170977e-01
2.848000000000000043e+01,4.097478960936384862e-01
2.851999999999999957e+01,3.529638644176584239e-01
2.855999999999999872e+01,3.204382340489410619e-01
2.860000000000000142e+01,3.434542028732524566e-01
2.864000000000000057e+01,3.505073181336715860e-01
2.867999999999999972e+01,3.384054166308391176e-01
2.871999999999999886e+01,3.901447378782081366e-01
2.876000000000000156e+01,3.288794480254212393e-01
2.880000000000000071e+01,2.848497999248053580e-01
2.883999999999999986e+01,2.791240696591259507e-01
2.887999999999999901e+01,3.085100940290239069e-01
2.892000000000000171e+01,3.161873703693910409e-01
2.896000000000000085e+01,2.951331398047433163e-01
2.900000000000000000e+01,2.664156784178460247e-01
2.903999999999999915e+01,2.753637015735899696e-01
2.907999999999999829e+01,2.568570826419289688e-01
2.912000000000000099e+01,2.472864804101285729e-01
2.916000000000000014e+01,2.919806102430788086e-01
2.919999999999999929e+01,2.702757082069225381e-01
2.923999999999999844e+01,2.498456311106121153e-01
2.928000000000000114e+01,1.834463654793518639e-01
2.932000000000000028e+01,2.766532124625916689e-01
2.935999999999999943e+01,2.223800852217271695e-01
2.939999999999999858e+01,1.987496825606466511e-01
2.944000000000000128e+01,2.210843870479281825e-01
2.948000000000000043e+01,2.025573632221515652e-01
2.951999999999999957e+01,1.718980785183321369e-01
2.955999999999999872e+01,1.731583830759853004e-01
2.960000000000000142e+01,1.884621636039395254e-01
2.964000000000000057e+01,2.548385115021475911e-01
2.967999999999999972e+01,2.509852302240648814e-01
2.971999999999999886e+01,1.935015675636440891e-01
2.976000000000000156e+01,1.602763021328381388e-01
2.980000000000000071e+01,1.583321925352874082e-01
2.983999999999999986e+01,1.404252252961957492e-01
2.987999999999999901e+01,1.295389743363916935e-01
2.992000000000000171e+01,1.141816524915785780e-01
2.996000000000000085e+01,1.403204077393341020e-01
3.000000000000000000e+01,2.028477790422369420e-01
3.003999999999999915e+01,1.402403152544298426e-01
3.007999999999999829e+01,1.574348849126761263e-01
3.012000000000000099e+01,1.401520502099931620e-01
3.016000000000000014e+01,1.809645398501454894e-01
3.019999999999999929e+01,1.732541073784008012e-01
3.023999999999999844e+01,1.202129157222744382e-01
3.028000000000000114e+01,1.297360762900312270e-01
3.032000000000000028e+01,2.139538085868114559e-01
3.035999999999999943e+01,1.621833502898217261e-01
3.039999999999999858e+01,1.672313502947628816e-01
3.044000000000000128e+01,1.652545471969638080e-01
3.048000000000000043e+01,1.607219691493156355e-01
3.051999999999999957e+01,1.319269071845218244e-01
3.055999999999999872e+01,1.427126224354100803e-01
3.060000000000000142e+01,9.284519457412253318e-02
3.064000000000000057e+01,1.125648764529857404e-01
3.067999999999999972e+01,1.271750522516417181e-01
3.071999999999999886e+01,1.136921477774189698e-01
3.076000000000000156e+01,9.893033262727086996e-02
3.080000000000000071e+01,7.969744360183819709e-02
3.083999999999999986e+01,7.003899804432392462e-02
3.087999999999999901e+01,8.208521545986909029e-02
3.092000000000000171e+01,1.107286348110517737e-01
3.096000000000000085e+01,1.093636752357639158e-01
3.100000000000000000e+01,1.188500238100829859e-01
3.103999999999999915e+01,1.538716304898998521e-01
3.107999999999999829e+01,1.090871140458567617e-01
3.112000000000000099e+01,1.000527772384682268e-01
3.116000000000000014e+01,5.845633037425077005e-02
3.119999999999999929e+01,6.984774341740682124e-02
3.123999999999999844e+01,8.379083982970267352e-02
3.128000000000000114e+01,7.347144974234255665e-02
3.132000000000000028e+01,1.953055631278396986e-01
3.135999999999999943e+01,4.005787511759091590e-02
3.139999999999999858e+01,9.740619950698022056e-02
3.144000000000000128e+01,9.282451270446474834e-02
3.148000000000000043e+01,8.951764323018483738e-02
3.151999999999999957e+01,5.301022986309396334e-02
3.155999999999999872e+01,9.822014275101906278e-02
3.160000000000000142e+01,7.320041993841561179e-02
3.164000000000000057e+01,8.967676850967286339e-02
3.167999999999999972e+01,6.465294867949553104e-02
3.171999999999999886e+01,1.028319087927103970e-01
3.176000000000000156e+01,1.007875654580222685e-01
3.180000000000000071e+01,7.703446430744695372e-02
3.183999999999999986e+01,7.817818593124957471e-02
3.187999999999999901e+01,3.079897973444698303e-02
3.192000000000000171e+01,7.215985730892823802e-02
3.196000000000000085e+01,8.925824607308557868e-02
3.200000000000000000e+01,8.273257850368533062e-02
3.203999999999999915e+01,1.017421656417421549e-01
3.207999999999999829e+01,6.265233508927360584e-02
3.211999999999999744e+01,8.229625483216859716e-02
3.215999999999999659e+01,7.257022418363173744e-02
3.220000000000000284e+01,8.901788031155348502e-02
3.224000000000000199e+01,5.821947262095041736e-02
3.228000000000000114e+01,6.955556675214964735e-02
3.232000000000000028e+01,1.064269146393548443e-01
3.235999999999999943e+01,6.221526982783361776e-02
3.239999999999999858e+01,8.120640264903705718e-02
3.243999999999999773e+01,9.317272557141971501e-02
3.247999999999999687e+01,1.057754298113096625e-01
3.252000000000000313e+01,1.298678696484729111e-01
3.256000000000000227e+01,1.233134925096129042e-01
3.260000000000000142e+01,8.100483735730876211e-02
3.264000000000000057e+01,1.248825330789493093e-01
3.267999999999999972e+01,1.387518440294895350e-01
3.271999999999999886e+01,5.174675006469657557e-02
3.275999999999999801e+01,3.432875863620846874e-02
3.279999999999999716e+01,5.968369987522944425e-02
3.284000000000000341e+01,2.502392300315148602e-02
3.288000000000000256e+01,9.506504195742598862e-02
3.292000000000000171e+01,7.955413802125851919e-02
3.296000000000000085e+01,9.723967701860139479e-02
3.300000000000000000e+01,5.044146907234650645e-02
3.303999999999999915e+01,6.110014306988297006e-02
3.307999999999999829e+01,6.856460066997761837e-02
3.311999999999999744e+01,9.134938750464624557e-02
3.315999999999999659e+01,5.092729207740550462e-02
3.320000000000000284e+01,1.062680348115194184e-01
3.324000000000000199e+01,7.861048401856871037e-02
3.328000000000000114e+01,8.351094245906728886e-02
3.332000000000000028e+01,4.116533341115781452e-02
3.335999999999999943e+01,7.415271837491639595e-02
3.339999999999999858e+01,6.627836170529848026e-02
3.343999999999999773e+01,5.648665264031913630e-02
3.347999999999999687e+01,1.118130153762434964e-01
3.352000000000000313e+01,1.167011468807137159e-01
3.356000000000000227e+01,5.582866431330873319e-02
3.360000000000000142e+01,8.944215332266700069e-02
3.364000000000000057e+01,5.921032582636925889e-02
3.367999999999999972e+01,9.856559774017943643e-02
3.371999999999999886e+01,6.401695931616282163e-03
3.375999999999999801e+01,3.681480011437954225e-02
3.379999999999999716e+01,8.510196167179907845e-02
3.384000000000000341e+01,7.018223865664202643e-02
3.388000000000000256e+01,8.207462932192290117e-02
3.392000000000000171e+01,9.396496379884539119e-02
3.396000000000000085e+01,3.562565455586416685e-02
3.400000000000000000e+01,3.218949354380558348e-02
3.403999999999999915e+01,7.024939576031057065e-02
3.407999999999999829e+01,6.425539096933416405e-02
3.411999999999999744e+01,7.422014462757871300e-02
3.415999999999999659e+01,5.545337371099785806e-02
3.420000000000000284e+01,7.243677196510704686e-02
3.424000000000000199e+01,8.048005636586033629e-02
3.428000000000000114e+01,8.213695722808558863e-02
3.432000000000000028e+01,1.284820834308608439e-01
3.435999999999999943e+01,1.116203232940784357e-01
3.439999999999999858e+01,7.432666173187868486e-02
3.443999999999999773e+01,5.746078582033921356e-02
3.447999999999999687e+01,6.740702155041353172e-02
3.452000000000000313e+01,7.798963166599275076e-02
3.456000000000000227e+01,3.238811350196862948e-02
3.460000000000000142e+01,6.595018081216769135e-02
3.464000000000000057e+01,1.014254873254817196e-01
3.467999999999999972e+01,8.773942389098997319e-02
3.471999999999999886e+01,8.554308857808240463e-02
3.475999999999999801e+01,1.063282682792123096e-01
3.479999999999999716e+01,5.560693618070927657e-02
3.484000000000000341e+01,6.617307558565010961e-02
3.488000000000000256e+01,5.247671625798899786e-02
3.492000000000000171e+01,6.686933230217897983e-02
3.496000000000000085e+01,1.195658453852979364e-01
3.500000000000000000e+01,5.415026526298929305e-02
3.503999999999999915e+01,6.215237560557836105e-02
3.507999999999999829e+01,6.951399320539473903e-02
3.511999999999999744e+01,1.941461539733034883e-02
3.515999999999999659e+01,8.423104747108577095e-02
3.520000000000000284e+01,5.072679665311762010e-02
3.524000000000000199e+01,5.680330714800219810e-02
3.528000000000000114e+01,7.500797647425591630e-02
3.532000000000000028e+01,3.447478448764574460e-02
3.535999999999999943e+01,8.332009719574744178e-02
3.539999999999999858e+01,1.341488272651812641e-02
3.543999999999999773e+01,6.991726421603194908e-02
3.547999999999999687e+01,5.810529465868313065e-02
3.552000000000000313e+01,4.692969608879877380e-02
3.556000000000000227e+01,9.384940351233142519e-02
3.560000000000000142e+01,1.882642001548737176e-02
3.564000000000000057e+01,3.175607465591802087e-03
3.567999999999999972e+01,1.944436338116167090e-02
3.571999999999999886e+01,3.826478744265025822e-02
3.575999999999999801e+01,3.473800761932407943e-02
3.579999999999999716e+01,6.632295891713567426e-02
3.584000000000000341e+01,8.258346479785158567e-02
3.588000000000000256e+01,4.968259665311319101e-02
3.592000000000000171e+01,1.106292595889967062e-01
3.596000000000000085e+01,6.240188263495877186e-02
3.600000000000000000e+01,6.588548405232509675e-02
3.603999999999999915e+01,6.617485901405001369e-02
3.607999999999999829e+01,4.794762467971205172e-02
3.611999999999999744e+01,6.100152470301400259e-02
3.615999999999999659e+01,7.724552398978455636e-02
3.620000000000000284e+01,8.199567231228979680e-02
3.624000000000000199e+01,5.418369331592101656e-02
3.628000000000000114e+01,8.255172002831778766e-02
3.632000000000000028e+01,8.091134960074715388e-02
3.635999999999999943e+01,9.969875829959917723e-02
3.639999999999999858e+01,6.485576291720358821e-02
3.643999999999999773e+01,1.851891575501314266e-02
3.647999999999999687e+01,7.049862605935439119e-02
3.652000000000000313e+01,4.267219475449589988e-02
3.656000000000000227e+01,7.741009433382649296e-02
3.660000000000000142e+01,1.166149569068629932e-01
3.664000000000000057e+01,8.367486881518487740e-02
3.667999999999999972e+01,9.031553714318124593e-02
3.671999999999999886e+01,9.184667886680629445e-02
3.675999999999999801e+01,7.103061330757586000e-02
3.679999999999999716e+01,9.107216898563040564e-02
3.684000000000000341e+01,7.216726917911160666e-02
3.688000000000000256e+01,6.475209015440981652e-02
3.692000000000000171e+01,1.033019928607277343e-01
3.696000000000000085e+01,5.885358939927055888e-02
3.700000000000000000e+01,5.270907604474025371e-02
3.703999999999999915e+01,7.273823302015258729e-02
3.707999999999999829e+01,1.100030036119612892e-01
3.711999999999999744e+01,6.618476533037082055e-02
3.715999999999999659e+01,6.258571445008319356e-02
3.720000000000000284e+01,1.023980138986140681e-01
3.724000000000000199e+01,1.090097500175429557e-01
3.728000000000000114e+01,6.773697257913578740e-02
3.732000000000000028e+01,1.030740409215320647e-01
3.735999999999999943e+01,5.860496480037449829e-02
3.739999999999999858e+01,9.521476247698937301e-02
3.743999999999999773e+01,1.050083222712691611e-01
3.747999999999999687e+01,1.396986856749786454e-01
3.752000000000000313e+01,8.372954965576094588e-02
3.756000000000000227e+01,8.010981931969192449e-02
3.760000000000000142e+01,9.564099867110059661e-02
3.764000000000000057e+01,1.150007048695656370e-01
3.767999999999999972e+01,7.753783957385361469e-02
3.771999999999999886e+01,1.128542230236039279e-01
3.775999999999999801e+01,1.085857152498960060e-01
3.779999999999999716e+01,9.218491846237077125e-02
3.784000000000000341e+01,1.191954698289183767e-01
3.788000000000000256e+01,1.506729798396798103e-01
3.792000000000000171e+01,1.048980739347351726e-01
3.796000000000000085e+01,1.338177137977851761e-01
3.800000000000000000e+01,1.614584183830968800e-01
3.803999999999999915e+01,2.222955486398737190e-01
3.807999999999999829e+01,2.084339928880074022e-01
3.811999999999999744e+01,2.264919973103877437e-01
3.815999999999999659e+01,2.241180875307185461e-01
3.820000000000000284e+01,3.143148358587644076e-01
3.824000000000000199e+01,3.585423652054178234e-01
3.828000000000000114e+01,4.244745323796315639e-01
3.832000000000000028e+01,4.380531541737349155e-01
3.835999999999999943e+01,5.365412421796168507e-01
3.839999999999999858e+01,5.462851256103580244e-01
3.843999999999999773e+01,6.722216730027216203e-01
3.847999999999999687e+01,7.700651137534133550e-01
3.852000000000000313e+01,7.721415907816369106e-01
3.856000000000000227e+01,7.850693502702821291e-01
3.860000000000000142e+01,8.273629378513642774e-01
3.864000000000000057e+01,8.792309423956499170e-01
3.867999999999999972e+01,9.100285983582176996e-01
3.871999999999999886e+01,9.293323947934583051e-01
3.875999999999999801e+01,9.173509205721379622e-01
3.879999999999999716e+01,9.941095067435833377e-01
3.884000000000000341e+01,1.000000000000000000e+00
3.888000000000000256e+01,9.573675416495286417e-01
3.892000000000000171e+01,9.836837322907461267e-01
3.896000000000000085e+01,9.608385384405445651e-01
3.900000000000000000e+01,8.767017403219403704e-01
3.903999999999999915e+01,9.374870716970713502e-01
3.907999999999999829e+01,9.146356570878942938e-01
3.911999999999999744e+01,9.045508208742983891e-01
3.915999999999999659e+01,8.267900537217386381e-01
3.920000000000000284e+01,7.483887798264795554e-01
3.924000000000000199e+01,7.025454949123489667e-01
3.928000000000000114e+01,6.254169375746767567e-01
3.932000000000000028e+01,6.223444887709768114e-01
3.935999999999999943e+01,5.592572997009546132e-01
3.939999999999999858e+01,5.491579426743743442e-01
3.943999999999999773e+01,4.905356321380032192e-01
3.947999999999999687e+01,4.829858555351686511e-01
3.952000000000000313e+01,4.735187058768868251e-01
3.956000000000000227e+01,4.359584459070492968e-01
3.960000000000000142e+01,4.239334149554833120e-01
3.964000000000000057e+01,3.831768408078308208e-01
3.967999999999999972e+01,4.132842109074189585e-01
3.971999999999999886e+01,3.680544568128903404e-01
3.975999999999999801e+01,3.866658879541963190e-01
3.979999999999999716e+01,3.771842079684168403e-01
3.984000000000000341e+01,3.894071605092546129e-01
3.988000000000000256e+01,3.448075340802262967e-01
3.992000000000000171e+01,3.340427595470344957e-01
3.996000000000000085e+01,3.315755322662574667e-01
4.000000000000000000e+01,3.623047239967859823e-01
4.003999999999999915e+01,3.259964144107622697e-01
4.007999999999999829e+01,3.311841475291382730e-01
4.011999999999999744e+01,3.012560096934934206e-01
4.015999999999999659e+01,2.885634750082803901e-01
4.020000000000000284e+01,2.292632820688282336e-01
4.024000000000000199e+01,1.757069049795898785e-01
4.028000000000000114e+01,1.355555349568934864e-01
4.032000000000000028e+01,1.847826527746288250e-01
4.035999999999999943e+01,1.267510135891272705e-01
4.039999999999999858e+01,1.178766073729021341e-01
4.043999999999999773e+01,1.709280862437817516e-01
4.047999999999999687e+01,1.237435664432221805e-01
4.052000000000000313e+01,1.167782226265492579e-01
4.056000000000000227e+01,1.232178849249669639e-01
4.060000000000000142e+01,1.430625532025538715e-01
4.064000000000000057e+01,1.028924768643265930e-01
4.067999999999999972e+01,1.272020152484244770e-01
4.071999999999999886e+01,1.087344892874272800e-01
4.075999999999999801e+01,9.601077740966279528e-02
4.079999999999999716e+01,1.145681839867090102e-01
4.084000000000000341e+01,1.216317238325823752e-01
4.088000000000000256e+01,9.677155320536164063e-02
4.092000000000000171e+01,1.051077984632492190e-01
4.096000000000000085e+01,1.089729353217616520e-01
4.100000000000000000e+01,1.090053962576643942e-01
4.103999999999999915e+01,7.519884833872431118e-02
4.107999999999999829e+01,4.394395035220637069e-02
4.111999999999999744e+01,8.802202000856332309e-02
4.115999999999999659e+01,9.826108040231196217e-02
4.120000000000000284e+01,3.443987679821942927e-02
4.124000000000000199e+01,8.936505809198601324e-02
4.128000000000000114e+01,5.873818808769305788e-02
4.132000000000000028e+01,8.046071098991688930e-02
4.135999999999999943e+01,7.345168485142461456e-02
4.139999999999999858e+01,6.133311620573195927e-02
4.143999999999999773e+01,9.071058564310403860e-02
4.147999999999999687e+01,9.263337085736993159e-02
4.152000000000000313e+01,8.242385441710806115e-02
4.156000000000000227e+01,7.476598627820922605e-02
4.160000000000000142e+01,1.220112405451257848e-01
4.164000000000000057e+01,1.188182359885003037e-01
4.167999999999999972e+01,9.519330526872327169e-02
4.171999999999999886e+01,7.922748320812261769e-02
4.175999999999999801e+01,8.305098931183893529e-02
4.179999999999999716e+01,8.304181677451355492e-02
4.184000000000000341e+01,1.117600287072866572e-01
4.188000000000000256e+01,7.152543523305100737e-02
4.192000000000000171e+01,7.342531082350797766e-02
4.196000000000000085e+01,8.553802470836176230e-02
4.200000000000000000e+01,3.699755674337876915e-02
4.203999999999999915e+01,6.187475545701093260e-02
4.207999999999999829e+01,9.696479205727484563e-02
4.211999999999999744e+01,1.001311139708744025e-01
4.215999999999999659e+01,1.026569190835753265e-01
4.220000000000000284e+01,1.173108595132054954e-01
4.224000000000000199e+01,8.344183691853189477e-02
4.228000000000000114e+01,1.070296648697562636e-01
4.232000000000000028e+01,9.869377745470826746e-02
4.235999999999999943e+01,5.204984841059145245e-02
4.239999999999999858e+01,1.043608893292947010e-01
4.243999999999999773e+01,8.388852726196123488e-02
4.247999999999999687e+01,8.767451920116817177e-02
4.252000000000000313e+01,1.157188650109940015e-01
4.256000000000000227e+01,9.077121842033047949e-02
4.260000000000000142e+01,6.071402524481799706e-02
4.264000000000000057e+01,1.047129293217836793e-01
4.267999999999999972e+01,6.635194040687078521e-02
4.271999999999999886e+01,8.417093531734304301e-02
4.275999999999999801e+01,1.070953049022797671e-01
4.279999999999999716e+01,7.319708559507251411e-02
4.284000000000000341e+01,6.611094952186111207e-02
4.288000000000000256e+01,8.902905961016134573e-02
4.292000000000000171e+01,6.406263697617764485e-02
4.296000000000000085e+01,5.888553842886262019e-02
4.300000000000000000e+01,1.035040966286066150e-01
4.303999999999999915e+01,1.053455825998016321e-01
4.307999999999999829e+01,1.084618464819633726e-01
4.311999999999999744e+01,8.412342056823282621e-02
4.315999999999999659e+01,1.287336292384994585e-01
4.320000000000000284e+01,7.949215612153166799e-02
4.324000000000000199e+01,1.234597565988425072e-01
4.328000000000000114e+01,1.106047665529499152e-01
4.332000000000000028e+01,1.009398514405567826e-01
4.335999999999999943e+01,1.225560460839907467e-01
4.339999999999999858e+01,1.173559825927687622e-01
4.343999999999999773e+01,6.874041290109429714e-02
4.347999999999999687e+01,1.229104051784812024e-01
4.352000000000000313e+01,5.705297746107350354e-02
4.356000000000000227e+01,9.908857234238387102e-02
4.360000000000000142e+01,1.149463410221176485e-01
4.364000000000000057e+01,1.154796377800403478e-01
4.367999999999999972e+01,8.983510806454335362e-02
4.371999999999999886e+01,1.197321261637036144e-01
4.375999999999999801e+01,1.011061760735384035e-01
4.379999999999999716e+01,1.003542493776255762e-01
4.384000000000000341e+01,1.181147785527306565e-01
4.388000000000000256e+01,9.948255877180790796e-02
4.392000000000000171e+01,1.217079360341220967e-01
4.396000000000000085e+01,9.732564226556543463e-02
4.400000000000000000e+01,9.592483211315272484e-02
4.403999999999999915e+01,1.002678248984000958e-01
4.407999999999999829e+01,1.288691662533232585e-01
4.411999999999999744e+01,1.185240273859389237e-01
4.415999999999999659e+01,1.535055130350741481e-01
4.420000000000000284e+01,1.367718659363089118e-01
4.424000000000000199e+01,1.372738081239705810e-01
4.428000000000000114e+01,1.633109634270748234e-01
4.432000000000000028e+01,1.759389423357632931e-01
4.435999999999999943e+01,1.738808794887391485e-01
4.439999999999999858e+01,1.839509444829553753e-01
4.443999999999999773e+01,2.240252503377402060e-01
4.447999999999999687e+01,2.398370248387352854e-01
4.452000000000000313e+01,2.096795590186443792e-01
4.456000000000000227e+01,2.516628860887317187e-01
4.460000000000000142e+01,2.764064401368266366e-01
4.464000000000000057e+01,2.424121012023209287e-01
4.467999999999999972e+01,3.009883983562282039e-01
4.471999999999999886e+01,2.995499370303165154e-01
4.475999999999999801e+01,2.917250565544136087e-01
4.479999999999999716e+01,3.343342593217844549e-01
4.484000000000000341e+01,3.475734686105709792e-01
4.488000000000000256e+01,3.588952866304138123e-01
4.492000000000000171e+01,3.976676134290159093e-01
4.496000000000000085e+01,3.349270611075825799e-01
4.500000000000000000e+01,3.851869873931887400e-01
4.503999999999999915e+01,3.779858845623530472e-01
4.507999999999999829e+01,3.873819355509030560e-01
4.511999999999999744e+01,3.731538856236047419e-01
4.515999999999999659e+01,3.748845566311612143e-01
4.520000000000000284e+01,3.657597787047760507e-01
4.524000000000000199e+01,4.070690825265268487e-01
4.528000000000000114e+01,3.832561650640560758e-01
4.532000000000000028e+01,3.409266069076292149e-01
4.535999999999999943e+01,3.790374628878855345e-01
4.539999999999999858e+01,3.507492319507803935e-01
4.543999999999999773e+01,3.690644864060781960e-01
4.547999999999999687e+01,3.343877385386088141e-01
4.552000000000000313e+01,3.048163559670123424e-01
4.556000000000000227e+01,3.346171106338035606e-01
4.560000000000000142e+01,3.184486213096252016e-01
4.564000000000000057e+01,2.639720792108053438e-01
4.567999999999999972e+01,2.995124393516082062e-01
4.571999999999999886e+01,2.443932722055519868e-01
4.575999999999999801e+01,2.639686243227755691e-01
4.579999999999999716e+01,2.445974905089836893e-01
4.584000000000000341e+01,2.507615645096913370e-01
4.588000000000000256e+01,2.671384634844772843e-01
4.592000000000000171e+01,2.056244867465459591e-01
4.596000000000000085e+01,2.271046525572234520e-01
4.600000000000000000e+01,2.217685513983399248e-01
4.603999999999999915e+01,2.125997571907232153e-01
4.607999999999999829e+01,1.970445393477019691e-01
4.611999999999999744e+01,1.980864717901040517e-01
4.615999999999999659e+01,1.901882498745082473e-01
4.620000000000000284e+01,1.982487453598051896e-01
4.624000000000000199e+01,2.126914689197606512e-01
4.628000000000000114e+01,2.079791159109537491e-01
4.632000000000000028e+01,1.707046013310252186e-01
4.635999999999999943e+01,1.953559517218021180e-01
4.639999999999999858e+01,1.906373033330519551e-01
4.643999999999999773e+01,1.935777475647271484e-01
4.647999999999999687e+01,1.818321428368442905e-01
4.652000000000000313e+01,1.751919000067938548e-01
4.656000000000000227e+01,1.513118774945919065e-01
4.660000000000000142e+01,1.650972798554412868e-01
4.664000000000000057e+01,1.641966327130457981e-01
4.667999999999999972e+01,1.339259858396718572e-01
4.671999999999999886e+01,1.687733657771463003e-01
4.675999999999999801e+01,1.474365759789242336e-01
4.679999999999999716e+01,1.388663384793333011e-01
4.684000000000000341e+01,1.232712421491393151e-01
4.688000000000000256e+01,1.159736695569207748e-01
4.692000000000000171e+01,1.463415207503802884e-01
4.696000000000000085e+01,1.141408754016604715e-01
4.700000000000000000e+01,1.132213274399008623e-01
4.703999999999999915e+01,8.931610465074293903e-02
4.707999999999999829e+01,8.392332672295202411e-02
4.711999999999999744e+01,1.040657522601690504e-01
4.715999999999999659e+01,1.408053245488473104e-01
4.720000000000000284e+01,1.175301299305665237e-01
4.724000000000000199e+01,7.765358593215418437e-02
4.728000000000000114e+01,6.969657098193825229e-02
4.732000000000000028e+01,1.326034743179339559e-01
4.735999999999999943e+01,8.442100118828457789e-02
4.739999999999999858e+01,5.283567399456706032e-02
4.743999999999999773e+01,1.010523212569210544e-01
4.747999999999999687e+01,6.946278966755238538e-02
4.752000000000000313e+01,8.383830378997503274e-02
4.756000000000000227e+01,9.246582186058072139e-02
4.760000000000000142e+01,6.789274139788577245e-02
4.764000000000000057e+01,1.186526064228418248e-01
4.767999999999999972e+01,8.705256146571710429e-02
4.771999999999999886e+01,1.020559941534633364e-01
4.775999999999999801e+01,8.322039515153477340e-02
4.779999999999999716e+01,6.565955802182196765e-02
4.784000000000000341e+01,9.470219812921504277e-02
4.788000000000000256e+01,7.266812559660644488e-02
4.792000000000000171e+01,9.276850174044798392e-02
4.796000000000000085e+01,1.026518521844439202e-01
4.800000000000000000e+01,9.465698544042286389e-02
4.803999999999999915e+01,9.304434065458767888e-02
4.807999999999999829e+01,7.929937192307962013e-02
4.811999999999999744e+01,1.070504185757262389e-01
4.815999999999999659e+01,1.022392974048569048e-01
4.820000000000000284e+01,6.805817133798765239e-02
4.824000000000000199e+01,1.232555061990700945e-01
4.828000000000000114e+01,9.162390075043495841e-02
4.832000000000000028e+01,9.446555126678422842e-02
4.835999999999999943e+01,1.266729967106959287e-01
4.839999999999999858e+01,9.631194071925022748e-02
4.843999999999999773e+01,1.125543599260860061e-01
4.847999999999999687e+01,1.064495320250329891e-01
4.852000000000000313e+01,7.672059165479444554e-02
4.856000000000000227e+01,9.742572175119761091e-02
4.860000000000000142e+01,9.833733478269696127e-02
4.864000000000000057e+01,1.254225787268702097e-01
4.867999999999999972e+01,6.823261145285983154e-02
4.871999999999999886e+01,8.637558599661689096e-02
4.875999999999999801e+01,8.025601464297131560e-02
4.879999999999999716e+01,8.307239311575076446e-02
4.884000000000000341e+01,1.184467279484709978e-01
4.888000000000000256e+01,1.027443467431490426e-01
4.892000000000000171e+01,9.087045405498761497e-02
4.896000000000000085e+01,8.857094326225224690e-02
4.900000000000000000e+01,6.711634665808441369e-02
4.903999999999999915e+01,7.758127312156166966e-02
4.907999999999999829e+01,1.161351268406375231e-01
4.911999999999999744e+01,9.722793757926666280e-02
4.915999999999999659e+01,9.108729259715138415e-02
4.920000000000000284e+01,1.181430353643695835e-01
4.924000000000000199e+01,1.024216848351886672e-01
4.928000000000000114e+01,9.116725421256088868e-02
4.932000000000000028e+01,6.778049543069013250e-02
4.935999999999999943e+01,5.907557808652943304e-02
4.939999999999999858e+01,1.027200261927189578e-01
4.943999999999999773e+01,8.124223887883887107e-02
4.947999999999999687e+01,8.466121439790366687e-02
4.952000000000000313e+01,1.104232221632420047e-01
4.956000000000000227e+01,8.510851157987057991e-02
4.960000000000000142e+01,9.362861999930412182e-02
4.964000000000000057e+01,6.128693160118467431e-02
4.967999999999999972e+01,1.036397491460263470e-01
4.971999999999999886e+01,9.044681950965954842e-02
4.975999999999999801e+01,1.168346018465985514e-01
4.979999999999999716e+01,7.682328231479837455e-02
4.984000000000000341e+01,6.936991574489856371e-02
4.988000000000000256e+01,9.511293461366486512e-02
4.992000000000000171e+01,6.594863823430213712e-02
4.996000000000000085e+01,8.083408143744963414e-02
5.000000000000000000e+01,1.040170377766863052e-01
5.003999999999999915e+01,9.016879161527870112e-02
5.007999999999999829e+01,1.037710366987417282e-01
5.011999999999999744e+01,8.098051162240474388e-02
5.015999999999999659e+01,8.947107319522017155e-02
5.020000000000000284e+01,8.199870794239202954e-02
5.024000000000000199e+01,1.006999681653731327e-01
5.028000000000000114e+01,9.258494687518015187e-02
5.032000000000000028e+01,9.021370718295337876e-02
5.035999999999999943e+01,9.039408588933391109e-02
5.039999999999999858e+01,8.227272844271261987e-02
5.043999999999999773e+01,7.287239344673036856e-02
5.047999999999999687e+01,1.043296332028400553e-01
5.052000000000000313e+01,8.279485351005869131e-02
5.056000000000000227e+01,7.721877640271385124e-02
5.060000000000000142e+01,8.057864300532126267e-02
5.064000000000000057e+01,6.733714867446012609e-02
5.067999999999999972e+01,1.332591851773318459e-01
5.071999999999999886e+01,7.915377721951827317e-02
5.075999999999999801e+01,1.003813041474696383e-01
5.079999999999999716e+01,1.088380652743905497e-01
5.084000000000000341e+01,8.728637992179738569e-02
5.088000000000000256e+01,8.169339606726762348e-02
5.092000000000000171e+01,1.016356027651921234e-01
5.096000000000000085e+01,6.411676023027557125e-02
5.100000000000000000e+01,1.032077169909692005e-01
5.103999999999999915e+01,1.027137374022281113e-01
5.107999999999999829e+01,9.072585628638051014e-02
5.111999999999999744e+01,7.171310179631702753e-02
5.115999999999999659e+01,9.164262190961534882e-02
5.120000000000000284e+01,8.347899215816732832e-02
5.124000000000000199e+01,7.914384304042600127e-02
5.128000000000000114e+01,7.352971351896982199e-02
5.132000000000000028e+01,7.557466003550185329e-02
5.135999999999999943e+01,9.740890209516300802e-02
5.139999999999999858e+01,9.753431973734466576e-02
5.143999999999999773e+01,8.361210417837511288e-02
5.147999999999999687e+01,9.394821204358229372e-02
5.152000000000000313e+01,1.100280974291072134e-01
5.156000000000000227e+01,7.886185334596651497e-02
5.160000000000000142e+01,7.961512363148774696e-02
5.164000000000000057e+01,9.951925589599888711e-02
5.167999999999999972e+01,8.558434315051705044e-02
5.171999999999999886e+01,8.633126382336996085e-02
5.175999999999999801e+01,1.023984503913229899e-01
5.179999999999999716e+01,1.159097895632053427e-01
5.184000000000000341e+01,1.064354375970955474e-01
5.188000000000000256e+01,9.695896841382130316e-02
5.192000000000000171e+01,5.811248169383682188e-02
5.196000000000000085e+01,8.374557136628145437e-02
5.200000000000000000e+01,8.128550845554760595e-02
5.203999999999999915e+01,7.882332778396293482e-02
5.207999999999999829e+01,8.912768146935587388e-02
5.211999999999999744e+01,6.112396036080561951e-02
5.215999999999999659e+01,1.052610063173260863e-01
5.220000000000000284e+01,1.027903532431226896e-01
5.224000000000000199e+01,9.393325560158596876e-02
5.228000000000000114e+01,1.138035069546056433e-01
5.232000000000000028e+01,1.215414199542610846e-01
5.235999999999999943e+01,8.969439211906858611e-02
5.239999999999999858e+01,7.827508890573060818e-02
5.243999999999999773e+01,1.275047647776372806e-01
5.247999999999999687e+01,1.033125709344942106e-01
5.252000000000000313e+01,1.135936187845656975e-01
5.256000000000000227e+01,1.091885970149930746e-01
5.260000000000000142e+01,1.335109231526042661e-01
5.264000000000000057e+01,7.930391812997936163e-02
5.267999999999999972e+01,8.510745876438198521e-02
5.271999999999999886e+01,1.068696946444535473e-01
5.275999999999999801e+01,8.521639265433618438e-02
5.279999999999999716e+01,1.037822249201696273e-01
5.284000000000000341e+01,8.212468210740779540e-02
5.288000000000000256e+01,9.940940805337836195e-02
5.292000000000000171e+01,1.160535806355353083e-01
5.296000000000000085e+01,8.800534944252005887e-02
5.300000000000000000e+01,1.174139323684094544e-01
5.303999999999999915e+01,8.936145899353380162e-02
5.307999999999999829e+01,9.131319712015739665e-02
5.311999999999999744e+01,8.943221813992176250e-02
5.315999999999999659e+01,1.028715002975301163e-01
5.320000000000000284e+01,1.041784411114984321e-01
5.324000000000000199e+01,9.271460783321780474e-02
5.328000000000000114e+01,8.763297870739143736e-02
5.332000000000000028e+01,1.195783190070971724e-01
5.335999999999999943e+01,9.661633236941455372e-02
5.339999999999999858e+01,6.854476244804642848e-02
5.343999999999999773e+01,8.643821812207058697e-02
5.347999999999999687e+01,1.177366360085030650e-01
5.352000000000000313e+01,9.604302425192326464e-02
5.356000000000000227e+01,8.137004830903406261e-02
5.360000000000000142e+01,9.223225381185053140e-02
5.364000000000000057e+01,9.798487521545180823e-02
5.367999999999999972e+01,1.152271603137910022e-01
5.371999999999999886e+01,1.088453152731346102e-01
5.375999999999999801e+01,9.096955959862314256e-02
5.379999999999999716e+01,1.158666652327717400e-01
5.384000000000000341e+01,8.713330752384780553e-02
5.388000000000000256e+01,1.420324980637400480e-01
5.392000000000000171e+01,8.201169417071733914e-02
5.396000000000000085e+01,9.923911212779291946e-02
5.400000000000000000e+01,1.234871644034207933e-01
5.403999999999999915e+01,1.024043766213054429e-01
5.407999999999999829e+01,4.620567044852499222e-02
5.411999999999999744e+01,1.023689792799682696e-01
5.415999999999999659e+01,9.660219971602856948e-02
5.420000000000000284e+01,9.849448640372078512e-02
5.424000000000000199e+01,8.825442821381133951e-02
5.428000000000000114e+01,7.801224465144045161e-02
5.432000000000000028e+01,8.436718351056152199e-02
5.435999999999999943e+01,6.901328789400371089e-02
5.439999999999999858e+01,9.770911677265653461e-02
5.443999999999999773e+01,9.256589126272471435e-02
5.447999999999999687e+01,7.018285915816140086e-02
5.452000000000000313e+01,1.212174513246687679e-01
5.456000000000000227e+01,8.925367751788966519e-02
5.460000000000000142e+01,9.750903185058845679e-02
5.464000000000000057e+01,9.043987688303184447e-02
5.467999999999999972e+01,9.102978653604763826e-02
5.471999999999999886e+01,9.289443454683943280e-02
5.475999999999999801e+01,9.475695555411085824e-02
5.479999999999999716e+01,8.767929284431504044e-02
5.484000000000000341e+01,5.633906357703067497e-02
5.488000000000000256e+01,8.947840077989764607e-02
5.492000000000000171e+01,8.877868196312038718e-02
5.496000000000000085e+01,1.142525725834016986e-01
5.500000000000000000e+01,7.843480456663347311e-02
5.503999999999999915e+01,8.858205670839289225e-02
5.507999999999999829e+01,9.808874814657116137e-02
5.511999999999999744e+01,8.971719820268456158e-02
5.515999999999999659e+01,1.145420157558110080e-01
5.520000000000000284e+01,9.084382624602953260e-02
5.524000000000000199e+01,9.268081260916768982e-02
5.528000000000000114e+01,1.079227550682417408e-01
5.532000000000000028e+01,9.570996627533025214e-02
5.535999999999999943e+01,1.007327289826362299e-01
5.539999999999999858e+01,8.596195151836356907e-02
5.543999999999999773e+01,8.012710131752781573e-02
5.547999999999999687e+01,8.258974563151966208e-02
5.552000000000000313e+01,7.228160810573036610e-02
5.556000000000000227e+01,1.207071412252376102e-01
5.560000000000000142e+01,7.400408519643385252e-02
5.564000000000000057e+01,8.603469954108314277e-02
5.567999999999999972e+01,7.188744663582785632e-02
5.571999999999999886e+01,1.203044595083069684e-01
5.575999999999999801e+01,1.080682437739134555e-01
5.579999999999999716e+01,1.290283933617869250e-01
5.584000000000000341e+01,1.072114272261943946e-01
5.588000000000000256e+01,8.922292595740079213e-02
5.592000000000000171e+01,8.655467644785952430e-02
5.596000000000000085e+01,6.856191315264957564e-02
5.600000000000000000e+01,7.418902530978591092e-02
5.603999999999999915e+01,1.289733172908467673e-01
5.607999999999999829e+01,9.309804678135004397e-02
5.611999999999999744e+01,8.403481437987235514e-02
5.615999999999999659e+01,9.093026553480472451e-02
5.620000000000000284e+01,8.569336515197620296e-02
5.624000000000000199e+01,1.053532046313391674e-01
5.628000000000000114e+01,1.071347987869104568e-01
5.632000000000000028e+01,1.280672390186428644e-01
5.635999999999999943e+01,1.036688313091782970e-01
5.639999999999999858e+01,8.054515624878166857e-02
5.643999999999999773e+01,1.053017944277183648e-01
5.647999999999999687e+01,1.051574278636929621e-01
5.652000000000000313e+01,6.798183677972122196e-02
5.656000000000000227e+01,9.783953690794272573e-02
5.660000000000000142e+01,9.960406882199983325e-02
5.664000000000000057e+01,8.157505635090803175e-02
5.667999999999999972e+01,8.205845611999534883e-02
5.671999999999999886e+01,7.360166564777795295e-02
5.675999999999999801e+01,9.514907417227122521e-02
5.679999999999999716e+01,1.052025617328665869e-01
5.684000000000000341e+01,6.290244098164311792e-02
5.688000000000000256e+01,8.827404296792740190e-02
5.692000000000000171e+01,9.257523439223655504e-02
5.696000000000000085e+01,6.878325637908672130e-02
5.700000000000000000e+01,6.286525690605553052e-02
5.703999999999999915e+01,8.056712935140863951e-02
5.707999999999999829e+01,9.188254078291246962e-02
5.711999999999999744e+01,9.617305845195793512e-02
5.715999999999999659e+01,9.216181699724870779e-02
5.720000000000000284e+01,1.251775317836746615e-01
5.724000000000000199e+01,8.732509113112822685e-02
5.728000000000000114e+01,1.190596696949358102e-01
5.732000000000000028e+01,9.524847525242766122e-02
5.735999999999999943e+01,1.008030451551184675e-01
5.739999999999999858e+01,1.082707769215245641e-01
5.743999999999999773e+01,1.080751812254117233e-01
5.747999999999999687e+01,1.053237188323584289e-01
5.752000000000000313e+01,1.325764528535051945e-01
5.756000000000000227e+01,9.279162602443155605e-02
5.760000000000000142e+01,9.386434975340196551e-02
5.764000000000000057e+01,9.748866714324538885e-02
5.767999999999999972e+01,9.791868454385278808e-02
5.771999999999999886e+01,1.085614866857397970e-01
5.775999999999999801e+01,9.366484712248535072e-02
5.779999999999999716e+01,8.068136806372996905e-02
5.784000000000000341e+01,8.812559514148922413e-02
5.788000000000000256e+01,9.046022371234169190e-02
5.792000000000000171e+01,1.074766646336783593e-01
5.796000000000000085e+01,1.034226914590778701e-01
5.800000000000000000e+01,9.936658027130582105e-02
5.803999999999999915e+01,1.157381745404402057e-01
5.807999999999999829e+01,1.155083825946853771e-01
5.811999999999999744e+01,1.337909979959312490e-01
5.815999999999999659e+01,7.801329176857020598e-02
5.820000000000000284e+01,1.065065517231783276e-01
5.824000000000000199e+01,1.120140987923354536e-01
5.828000000000000114e+01,9.325906761474511697e-02
5.832000000000000028e+01,9.557017355529776048e-02
5.835999999999999943e+01,1.023481685481964637e-01
5.839999999999999858e+01,8.741731533733285153e-02
5.843999999999999773e+01,9.738319451297201834e-02
5.847999999999999687e+01,9.777044485406803653e-02
5.852000000000000313e+01,7.644884658363666763e-02
5.856000000000000227e+01,9.023890209494317416e-02
5.860000000000000142e+01,7.402048475794209548e-02
5.864000000000000057e+01,8.652939480396033833e-02
5.867999999999999972e+01,6.647610127907767341e-02
5.871999999999999886e+01,1.121792264012460155e-01
5.875999999999999801e+01,8.446046046867054791e-02
5.879999999999999716e+01,9.249178011499069318e-02
5.884000000000000341e+01,1.062668524079728033e-01
5.888000000000000256e+01,9.769464225344573483e-02
5.892000000000000171e+01,9.486618447373726393e-02
5.896000000000000085e+01,8.884342235530090504e-02
5.900000000000000000e+01,9.175657540327780692e-02
5.903999999999999915e+01,9.275228906605835488e-02
5.907999999999999829e+01,7.842347834128404749e-02
5.911999999999999744e+01,9.537572381922013176e-02
5.915999999999999659e+01,9.444971418700796872e-02
5.920000000000000284e+01,9.862902336547553495e-02
5.924000000000000199e+01,9.322970112688935829e-02
5.928000000000000114e+01,6.420622985620257073e-02
5.932000000000000028e+01,9.327798384149262045e-02
5.935999999999999943e+01,1.083020777131513540e-01
5.939999999999999858e+01,9.523299385613248624e-02
5.943999999999999773e+01,6.939311483901385025e-02
5.947999999999999687e+01,1.105865171118105977e-01
5.952000000000000313e+01,7.388899745854043966e-02
5.956000000000000227e+01,6.464193683671776158e-02
5.960000000000000142e+01,8.284533511042109499e-02
5.964000000000000057e+01,7.359398745260456454e-02
5.967999999999999972e+01,7.136325481247081381e-02
5.971999999999999886e+01,8.636805885709822328e-02
5.975999999999999801e+01,8.030244268931584217e-02
5.979999999999999716e+01,7.998057590607683676e-02
5.984000000000000341e+01,7.071850827964672181e-02
5.988000000000000256e+01,6.847705499129186357e-02
5.992000000000000171e+01,9.943195302527725599e-02
5.996000000000000085e+01,9.527091268811976876e-02
