2.003999999999999915e+01,1.631838453838580644e-02
2.007999999999999829e+01,9.092253558879853648e-03
2.012000000000000099e+01,1.867627926265500934e-02
2.016000000000000014e+01,1.631205248052304199e-02
2.019999999999999929e+01,3.164286260855983524e-02
2.023999999999999844e+01,1.644306762246341286e-02
2.028000000000000114e+01,1.008957334586284803e-02
2.032000000000000028e+01,4.045592073346725853e-02
2.035999999999999943e+01,1.357206306029136184e-03
2.039999999999999858e+01,2.596700327991303958e-02
2.044000000000000128e+01,5.888222624155953731e-03
2.048000000000000043e+01,2.960828941047029608e-02
2.051999999999999957e+01,2.899189164911449013e-02
2.055999999999999872e+01,1.908189409484771157e-02
2.060000000000000142e+01,3.040646036443771238e-02
2.064000000000000057e+01,2.624331330250188193e-02
2.067999999999999972e+01,4.198742473958202298e-02
2.071999999999999886e+01,3.118290109274782229e-02
2.076000000000000156e+01,1.993353487533585169e-02
2.080000000000000071e+01,3.124605882828099604e-02
2.083999999999999986e+01,4.034399777546451848e-02
2.087999999999999901e+01,3.572398985106055996e-02
2.092000000000000171e+01,2.092553494090786462e-02
2.096000000000000085e+01,3.488310175829265058e-02
2.100000000000000000e+01,1.078868964450256131e-02
2.103999999999999915e+01,4.288140610571014588e-02
2.107999999999999829e+01,1.922466522820786075e-02
2.112000000000000099e+01,4.025169406297130631e-02
2.116000000000000014e+01,3.473012084785732922e-02
2.119999999999999929e+01,3.274567208929046042e-02
2.123999999999999844e+01,3.208616523864919745e-02
2.128000000000000114e+01,3.761841151280197887e-02
2.132000000000000028e+01,2.943274394940421229e-02
2.135999999999999943e+01,4.159682304796767649e-02
2.139999999999999858e+01,4.623711385997215928e-02
2.144000000000000128e+01,2.565613497478844499e-02
2.148000000000000043e+01,2.940684575393682706e-02
2.151999999999999957e+01,4.288882455918949232e-02
2.155999999999999872e+01,2.672517157310576666e-02
2.160000000000000142e+01,4.285708524681237225e-02
2.164000000000000057e+01,3.774967823188994653e-02
2.167999999999999972e+01,5.299204190368297929e-02
2.171999999999999886e+01,6.911694641019008878e-02
2.176000000000000156e+01,3.922606105813762623e-02
2.180000000000000071e+01,4.826731403649320989e-02
2.183999999999999986e+01,3.872388400374961182e-02
2.187999999999999901e+01,2.873569548706777707e-02
2.192000000000000171e+01,4.219435544806858507e-02
2.196000000000000085e+01,4.060783828999754014e-02
2.200000000000000000e+01,5.273455918824995758e-02
2.203999999999999915e+01,4.671904920121734001e-02
2.207999999999999829e+01,2.698568243542509570e-02
2.212000000000000099e+01,3.600842448690407677e-02
2.216000000000000014e+01,4.060449508301667426e-02
2.219999999999999929e+01,3.944658589582797359e-02
2.223999999999999844e+01,3.076495148705981481e-02
2.228000000000000114e+01,1.677178041152219481e-02
2.232000000000000028e+01,4.392297225833323437e-02
2.235999999999999943e+01,5.116220880324129361e-02
2.239999999999999858e+01,6.238109700786743927e-02
2.244000000000000128e+01,3.776029994442776233e-02
2.248000000000000043e+01,4.322295005713684690e-02
2.251999999999999957e+01,4.248920730095560178e-02
2.255999999999999872e+01,7.051160639608250458e-02
2.260000000000000142e+01,7.154307444238237890e-02
2.264000000000000057e+01,3.629243512574462094e-02
2.267999999999999972e+01,3.156769511107025694e-02
2.271999999999999886e+01,2.551338545675081032e-02
2.276000000000000156e+01,3.449968224857496990e-02
2.280000000000000071e+01,3.330767320008085064e-02
2.283999999999999986e+01,4.184703127980195919e-02
2.287999999999999901e+01,5.126901728397048608e-02
2.292000000000000171e+01,4.608833535367264089e-02
2.296000000000000085e+01,4.002053891263856328e-02
2.300000000000000000e+01,4.722361849494133984e-02
2.303999999999999915e+01,5.663664934509805848e-02
2.307999999999999829e+01,5.100458716282227356e-02
2.312000000000000099e+01,3.607911738566849796e-02
2.316000000000000014e+01,4.061865518903204353e-02
2.319999999999999929e+01,5.754420981051756173e-02
2.323999999999999844e+01,4.128476188788103574e-02
2.328000000000000114e+01,4.183570789298589332e-02
2.332000000000000028e+01,6.627604459441596707e-02
2.335999999999999943e+01,6.638012996786861464e-02
2.339999999999999858e+01,5.055427211295666912e-02
2.344000000000000128e+01,2.278040802586251204e-02
2.348000000000000043e+01,5.915772368869163383e-02
2.351999999999999957e+01,3.624626831881634648e-02
2.355999999999999872e+01,3.943640721554719786e-02
2.360000000000000142e+01,5.147309607859811703e-02
2.364000000000000057e+01,4.669498551116379320e-02
2.367999999999999972e+01,5.828486179207052059e-02
2.371999999999999886e+01,4.155657977976055795e-02
2.376000000000000156e+01,6.553033169084986065e-02
2.380000000000000071e+01,4.702794378393198443e-02
2.383999999999999986e+01,4.666330317910453995e-02
2.387999999999999901e+01,4.939355112779665602e-02
2.392000000000000171e+01,6.804936683305229383e-02
2.396000000000000085e+01,7.342990401532181743e-02
2.400000000000000000e+01,6.332298012598386316e-02
2.403999999999999915e+01,7.445087832660922389e-02
2.407999999999999829e+01,6.478207613769869366e-02
2.412000000000000099e+01,5.157162386572707730e-02
2.416000000000000014e+01,6.579012223780478230e-02
2.419999999999999929e+01,6.186655189168794450e-02
2.423999999999999844e+01,5.572865180282204900e-02
2.428000000000000114e+01,7.392265159488654869e-02
2.432000000000000028e+01,5.273761038157102898e-02
2.435999999999999943e+01,2.845337421410312068e-02
2.439999999999999858e+01,5.062290245400292987e-02
2.444000000000000128e+01,5.553525421495991710e-02
2.448000000000000043e+01,3.080219341046187484e-02
2.451999999999999957e+01,1.934012274688283461e-02
2.455999999999999872e+01,3.619190697898187065e-02
2.460000000000000142e+01,4.198064628931845454e-02
2.464000000000000057e+01,4.024584056373151780e-02
2.467999999999999972e+01,6.549758741207628576e-02
2.471999999999999886e+01,2.615140799642751493e-02
2.476000000000000156e+01,2.618002625050551771e-02
2.480000000000000071e+01,1.647292592932165373e-02
2.483999999999999986e+01,4.083138395993594211e-02
2.487999999999999901e+01,3.642933367672399059e-02
2.492000000000000171e+01,4.883780044811838333e-02
2.496000000000000085e+01,4.354669267045218478e-02
2.500000000000000000e+01,2.144088756750608601e-02
2.503999999999999915e+01,3.915233826628971431e-02
2.507999999999999829e+01,3.120035543911999637e-02
2.512000000000000099e+01,2.545848004070580192e-02
2.516000000000000014e+01,3.741201393614978360e-02
2.519999999999999929e+01,4.847860149413626280e-02
2.523999999999999844e+01,3.255445620751722807e-02
2.528000000000000114e+01,2.326480146546172634e-02
2.532000000000000028e+01,2.459157426415196912e-02
2.535999999999999943e+01,3.697721471702519053e-02
2.539999999999999858e+01,2.812381677213008149e-02
2.544000000000000128e+01,2.590492138417570256e-02
2.548000000000000043e+01,3.739952532174560529e-02
2.551999999999999957e+01,3.517653074666250712e-02
2.555999999999999872e+01,2.941199419991192415e-02
2.560000000000000142e+01,3.603365465693911251e-02
2.564000000000000057e+01,2.938016272093918468e-02
2.567999999999999972e+01,4.174943045005207604e-02
2.571999999999999886e+01,3.420699513718006290e-02
2.576000000000000156e+01,1.294697933022060168e-02
2.580000000000000071e+01,2.707990528035099723e-02
2.583999999999999986e+01,3.280450206669972835e-02
2.587999999999999901e+01,2.790858714064545568e-02
2.592000000000000171e+01,2.964721080866298403e-02
2.596000000000000085e+01,1.545608344634912153e-02
2.600000000000000000e+01,3.621547574625323673e-02
2.603999999999999915e+01,2.246276438760462860e-02
2.607999999999999829e+01,2.773284272501150283e-02
2.612000000000000099e+01,1.884293048583620539e-02
2.616000000000000014e+01,1.260564086621046229e-02
2.619999999999999929e+01,2.494871284157986271e-02
2.623999999999999844e+01,5.719946074606798575e-02
2.628000000000000114e+01,3.414357882444361142e-02
2.632000000000000028e+01,2.657100773469550647e-02
2.635999999999999943e+01,2.961494226614403216e-02
2.639999999999999858e+01,3.708126587707998023e-02
2.644000000000000128e+01,4.808510734991162244e-02
2.648000000000000043e+01,2.634662663959981901e-02
2.651999999999999957e+01,4.221332729379004972e-02
2.655999999999999872e+01,2.710746021239769654e-02
2.660000000000000142e+01,1.509668589493490254e-02
2.664000000000000057e+01,1.945412065478877017e-02
2.667999999999999972e+01,2.469446863304524883e-02
2.671999999999999886e+01,2.860554728108318998e-02
2.676000000000000156e+01,2.322349161582137195e-02
2.680000000000000071e+01,3.067016015750835198e-02
2.683999999999999986e+01,9.798904647331199702e-03
2.687999999999999901e+01,1.325974421921184004e-02
2.692000000000000171e+01,6.100150159140357506e-03
2.696000000000000085e+01,1.265416653908095837e-02
2.700000000000000000e+01,3.247935925178495331e-02
2.703999999999999915e+01,2.044714604535130542e-02
2.707999999999999829e+01,2.212855228821259540e-02
2.712000000000000099e+01,1.141979147322080661e-02
2.716000000000000014e+01,1.707927877577104792e-02
2.719999999999999929e+01,3.025827499209567117e-02
2.723999999999999844e+01,2.529543072538980447e-02
2.728000000000000114e+01,1.590629939938368112e-02
2.732000000000000028e+01,3.394635596187365462e-02
2.735999999999999943e+01,5.086168878315174349e-03
2.739999999999999858e+01,2.887409097899762411e-02
2.744000000000000128e+01,1.416808053633889300e-02
2.748000000000000043e+01,1.361815668426075501e-02
2.751999999999999957e+01,9.084400901790865360e-03
2.755999999999999872e+01,2.888279125398124370e-02
2.760000000000000142e+01,2.699987126824476835e-02
2.764000000000000057e+01,2.334531391311479853e-02
2.767999999999999972e+01,3.119223550197823547e-02
2.771999999999999886e+01,1.868516709322704666e-02
2.776000000000000156e+01,2.387370317946098039e-02
2.780000000000000071e+01,1.976918303284598902e-02
2.783999999999999986e+01,2.982077650466000845e-02
2.787999999999999901e+01,3.765831351530299353e-02
2.792000000000000171e+01,2.381456421277339253e-02
2.796000000000000085e+01,3.872736217927747610e-02
2.800000000000000000e+01,3.594081383188527795e-02
2.803999999999999915e+01,2.961290970466983613e-02
2.807999999999999829e+01,2.284071257312703801e-02
2.812000000000000099e+01,3.110952430235933500e-02
2.816000000000000014e+01,1.106051108183819624e-02
2.819999999999999929e+01,8.707135390339197992e-03
2.823999999999999844e+01,1.431578380340855702e-02
2.828000000000000114e+01,1.948015422762201104e-02
2.832000000000000028e+01,2.375781255573062439e-02
2.835999999999999943e+01,6.025351702432429684e-04
2.839999999999999858e+01,9.743334970571280659e-03
2.844000000000000128e+01,3.397007042755355311e-03
2.848000000000000043e+01,2.359507987248318089e-02
2.851999999999999957e+01,2.963334231128486942e-02
2.855999999999999872e+01,1.266305515539281959e-02
2.860000000000000142e+01,1.117625000775002327e-02
2.864000000000000057e+01,2.163343298870620823e-02
2.867999999999999972e+01,2.943418246003350752e-02
2.871999999999999886e+01,1.997807678350439070e-02
2.876000000000000156e+01,1.848403425176910198e-02
2.880000000000000071e+01,1.167894455762923805e-02
2.883999999999999986e+01,3.495777953162630680e-02
2.887999999999999901e+01,2.726422094950812711e-02
2.892000000000000171e+01,9.835253110837277254e-03
2.896000000000000085e+01,2.912677560473251465e-02
2.900000000000000000e+01,2.364003309659852212e-02
2.903999999999999915e+01,9.302764561880840291e-03
2.907999999999999829e+01,2.327969027249333911e-02
2.912000000000000099e+01,1.911491664550571401e-02
2.916000000000000014e+01,2.556685885631316754e-02
2.919999999999999929e+01,3.422921481149124312e-02
2.923999999999999844e+01,3.625324530727244005e-02
2.928000000000000114e+01,2.057802558817370051e-02
2.932000000000000028e+01,1.728928216061946174e-02
2.935999999999999943e+01,1.665340160015603768e-02
2.939999999999999858e+01,1.380357869610364038e-02
2.944000000000000128e+01,1.006712778258574137e-02
2.948000000000000043e+01,5.886488973039882659e-03
2.951999999999999957e+01,1.453477858085281890e-02
2.955999999999999872e+01,1.919938941608157618e-02
2.960000000000000142e+01,1.722570181976176493e-02
2.964000000000000057e+01,2.188683210528039394e-02
2.967999999999999972e+01,0.000000000000000000e+00
2.971999999999999886e+01,2.324002038259528891e-02
2.976000000000000156e+01,1.550771327714925776e-02
2.980000000000000071e+01,2.237410405209434155e-02
2.983999999999999986e+01,2.525683707611490678e-02
2.987999999999999901e+01,2.282860402127623659e-02
2.992000000000000171e+01,1.951377899410318070e-02
2.996000000000000085e+01,1.354261655631788103e-02
3.000000000000000000e+01,2.305504123508108488e-02
3.003999999999999915e+01,1.840776964050020240e-02
3.007999999999999829e+01,1.951047474110844532e-02
3.012000000000000099e+01,2.105391421588303016e-02
3.016000000000000014e+01,2.436540239894752907e-02
3.019999999999999929e+01,2.059620008653439277e-02
3.023999999999999844e+01,3.673497401266631601e-02
3.028000000000000114e+01,2.898045325647173598e-02
3.032000000000000028e+01,2.786080143471806464e-02
3.035999999999999943e+01,2.496971645398084541e-02
3.039999999999999858e+01,3.048325485524549724e-02
3.044000000000000128e+01,1.387325902793301244e-02
3.048000000000000043e+01,2.955949654733766932e-02
3.051999999999999957e+01,3.374069649258795017e-02
3.055999999999999872e+01,2.155005365300411563e-02
3.060000000000000142e+01,3.988590472804786485e-02
3.064000000000000057e+01,1.132175841077273995e-02
3.067999999999999972e+01,3.009672220735122583e-02
3.071999999999999886e+01,3.294229234181569183e-02
3.076000000000000156e+01,2.782233980343611079e-02
3.080000000000000071e+01,2.845241801594243156e-02
3.083999999999999986e+01,2.067454245144996483e-02
3.087999999999999901e+01,2.174376341643368196e-02
3.092000000000000171e+01,1.573234794163648823e-02
3.096000000000000085e+01,3.272602253348271678e-02
3.100000000000000000e+01,2.317183383664071436e-02
3.103999999999999915e+01,2.600425056439652563e-02
3.107999999999999829e+01,3.060478507161033465e-02
3.112000000000000099e+01,3.254906925794549127e-02
3.116000000000000014e+01,2.343080102997747993e-02
3.119999999999999929e+01,3.908738932859086301e-02
3.123999999999999844e+01,2.465663547433690622e-02
3.128000000000000114e+01,1.110914019432602574e-02
3.132000000000000028e+01,3.074281554669809624e-02
3.135999999999999943e+01,2.515596596925948059e-02
3.139999999999999858e+01,3.151331173392399321e-02
3.144000000000000128e+01,4.892998162309971505e-02
3.148000000000000043e+01,2.696814806076881094e-02
3.151999999999999957e+01,2.447194972565632648e-02
3.155999999999999872e+01,3.701701851742566357e-02
3.160000000000000142e+01,3.407519682549789430e-02
3.164000000000000057e+01,5.767801313556084747e-02
3.167999999999999972e+01,3.305359880272663170e-02
3.171999999999999886e+01,4.338013357459029329e-02
3.176000000000000156e+01,3.866222698547700648e-02
3.180000000000000071e+01,4.323392310735101746e-02
3.183999999999999986e+01,7.390783513634385793e-02
3.187999999999999901e+01,6.343352530340035100e-02
3.192000000000000171e+01,4.455134277700333045e-02
3.196000000000000085e+01,5.132894805666481097e-02
3.200000000000000000e+01,5.368062064214921408e-02
3.203999999999999915e+01,4.983661509517822025e-02
3.207999999999999829e+01,4.333643130159105933e-02
3.211999999999999744e+01,3.860444336791263309e-02
3.215999999999999659e+01,4.935620471787313668e-02
3.220000000000000284e+01,5.479717416844153560e-02
3.224000000000000199e+01,3.899961875036093983e-02
3.228000000000000114e+01,1.877615165976301986e-02
3.232000000000000028e+01,2.996418183753227910e-02
3.235999999999999943e+01,2.079857037662142735e-02
3.239999999999999858e+01,3.286840865237528053e-02
3.243999999999999773e+01,2.723923395769612191e-02
3.247999999999999687e+01,3.532408413003763903e-02
3.252000000000000313e+01,3.013429844156558998e-02
3.256000000000000227e+01,2.494299320566688294e-02
3.260000000000000142e+01,3.036866207367007811e-02
3.264000000000000057e+01,2.296214120048555365e-02
3.267999999999999972e+01,3.900327663734099587e-02
3.271999999999999886e+01,2.716936658753225931e-02
3.275999999999999801e+01,2.152807155057148009e-02
3.279999999999999716e+01,3.800713050190420578e-02
3.284000000000000341e+01,3.015064985860022029e-02
3.288000000000000256e+01,2.538973346502532147e-02
3.292000000000000171e+01,3.788237185525279022e-02
3.296000000000000085e+01,2.869410232218484388e-02
3.300000000000000000e+01,2.702577715155978638e-02
3.303999999999999915e+01,2.978033957407018664e-02
3.307999999999999829e+01,2.191493084114523246e-02
3.311999999999999744e+01,2.820603213509232168e-02
3.315999999999999659e+01,2.608935383150800744e-02
3.320000000000000284e+01,4.432331110578750094e-02
3.324000000000000199e+01,4.308856703014694867e-02
3.328000000000000114e+01,1.442125662150496937e-02
3.332000000000000028e+01,3.353569164128113872e-02
3.335999999999999943e+01,4.026042808590945404e-02
3.339999999999999858e+01,2.309210408956387586e-02
3.343999999999999773e+01,2.494712235861839059e-02
3.347999999999999687e+01,4.228598901342257854e-02
3.352000000000000313e+01,3.263474446413399538e-02
3.356000000000000227e+01,2.430936677580466249e-02
3.360000000000000142e+01,3.368003203422325481e-02
3.364000000000000057e+01,4.172194749773110861e-02
3.367999999999999972e+01,2.277376376952329473e-02
3.371999999999999886e+01,2.992793709386482731e-02
3.375999999999999801e+01,1.363151411542406523e-02
3.379999999999999716e+01,2.786182529915190789e-02
3.384000000000000341e+01,3.147222238623557239e-02
3.388000000000000256e+01,3.065682792457246827e-02
3.392000000000000171e+01,1.568202848970887131e-02
3.396000000000000085e+01,3.344616078110652924e-02
3.400000000000000000e+01,3.970551676755083859e-02
3.403999999999999915e+01,2.782354279698964761e-02
3.407999999999999829e+01,3.054058803790592191e-02
3.411999999999999744e+01,2.794698552795476035e-02
3.415999999999999659e+01,2.933391758743540342e-02
3.420000000000000284e+01,2.496777079189417548e-02
3.424000000000000199e+01,7.769554378935883236e-03
3.428000000000000114e+01,3.392878436522707430e-02
3.432000000000000028e+01,4.238914252651575926e-02
3.435999999999999943e+01,2.872626076246524718e-02
3.439999999999999858e+01,2.037124291744146776e-02
3.443999999999999773e+01,3.856107329100680325e-02
3.447999999999999687e+01,2.666380476234016944e-02
3.452000000000000313e+01,3.821433068604967315e-02
3.456000000000000227e+01,3.162356569297913866e-02
3.460000000000000142e+01,1.574025499308462361e-02
3.464000000000000057e+01,1.755306532038882969e-02
3.467999999999999972e+01,3.750443678832914712e-02
3.471999999999999886e+01,2.692629026225995884e-02
3.475999999999999801e+01,2.961990266924139151e-02
3.479999999999999716e+01,3.054241526070273702e-02
3.484000000000000341e+01,1.376609506738699605e-02
3.488000000000000256e+01,3.548045810596067023e-02
3.492000000000000171e+01,1.516195329707600500e-02
3.496000000000000085e+01,3.554632327798475794e-02
3.500000000000000000e+01,2.318901073482851349e-02
3.503999999999999915e+01,1.967910704295175103e-02
3.507999999999999829e+01,2.191955543304729276e-02
3.511999999999999744e+01,2.150405381169062310e-02
3.515999999999999659e+01,2.772378449918088544e-02
3.520000000000000284e+01,1.314764965734084752e-02
3.524000000000000199e+01,1.715255510979967965e-02
3.528000000000000114e+01,2.159858233558493643e-02
3.532000000000000028e+01,3.135254255156501302e-02
3.535999999999999943e+01,2.119552347127792724e-02
3.539999999999999858e+01,1.855862893908956021e-02
3.543999999999999773e+01,3.627253815804377945e-02
3.547999999999999687e+01,3.451791420035678348e-02
3.552000000000000313e+01,2.214350227598461604e-02
3.556000000000000227e+01,2.481065778792070770e-02
3.560000000000000142e+01,3.234333020136834214e-02
3.564000000000000057e+01,3.456546898153063652e-02
3.567999999999999972e+01,2.616783180738482817e-02
3.571999999999999886e+01,2.440546898540571844e-02
3.575999999999999801e+01,2.750863507731510574e-02
3.579999999999999716e+01,1.999203422419918580e-02
3.584000000000000341e+01,3.680820114625637379e-02
3.588000000000000256e+01,2.928905670884086876e-02
3.592000000000000171e+01,2.752032741837724325e-02
3.596000000000000085e+01,2.176839985041166547e-02
3.600000000000000000e+01,2.973076142176204334e-02
3.603999999999999915e+01,2.176412874253564125e-02
3.607999999999999829e+01,2.706935409847055843e-02
3.611999999999999744e+01,2.308214786516355269e-02
3.615999999999999659e+01,2.617268612840325040e-02
3.620000000000000284e+01,3.811072033265622272e-02
3.624000000000000199e+01,3.367733819146057767e-02
3.628000000000000114e+01,3.233977556300654532e-02
3.632000000000000028e+01,2.480685613318361557e-02
3.635999999999999943e+01,1.992732511194770378e-02
3.639999999999999858e+01,4.557472345400778724e-02
3.643999999999999773e+01,3.538348761099469747e-02
3.647999999999999687e+01,2.342127808242057754e-02
3.652000000000000313e+01,3.490701316093581391e-02
3.656000000000000227e+01,1.276630861537603537e-02
3.660000000000000142e+01,1.761305156583893583e-02
3.664000000000000057e+01,2.998001216032270336e-02
3.667999999999999972e+01,3.305458320888426255e-02
3.671999999999999886e+01,2.329727083187314862e-02
3.675999999999999801e+01,3.035136442537064716e-02
3.679999999999999716e+01,3.386475991668881635e-02
3.684000000000000341e+01,2.720090365377570568e-02
3.688000000000000256e+01,3.336652837756615142e-02
3.692000000000000171e+01,3.554902689811702959e-02
3.696000000000000085e+01,4.834882685984461664e-02
3.700000000000000000e+01,3.150415422462191084e-02
3.703999999999999915e+01,2.925872302985218359e-02
3.707999999999999829e+01,3.143648274073870819e-02
3.711999999999999744e+01,3.405550236728781960e-02
3.715999999999999659e+01,2.870947981607521737e-02
3.720000000000000284e+01,4.282951893146667854e-02
3.724000000000000199e+01,4.190552810979539244e-02
3.728000000000000114e+01,3.788331233341912796e-02
3.732000000000000028e+01,3.341749726749063121e-02
3.735999999999999943e+01,4.355094766676929213e-02
3.739999999999999858e+01,4.262231413445013994e-02
3.743999999999999773e+01,5.540807785284041637e-02
3.747999999999999687e+01,3.810696790106855858e-02
3.752000000000000313e+01,4.115681786134103848e-02
3.756000000000000227e+01,5.438157719886105301e-02
3.760000000000000142e+01,4.150140586858950403e-02
3.764000000000000057e+01,2.817765927351987762e-02
3.767999999999999972e+01,3.122295060978385814e-02
3.771999999999999886e+01,3.780660668052610723e-02
3.775999999999999801e+01,4.261938516472379979e-02
3.779999999999999716e+01,4.433397773444191364e-02
3.784000000000000341e+01,3.808357917900075107e-02
3.788000000000000256e+01,5.262660467379540880e-02
3.792000000000000171e+01,5.212565128412985360e-02
3.796000000000000085e+01,4.498702710961710594e-02
3.800000000000000000e+01,4.802334534638878771e-02
3.803999999999999915e+01,5.813754922513757889e-02
3.807999999999999829e+01,5.541997178351865810e-02
3.811999999999999744e+01,5.579835199697758680e-02
3.815999999999999659e+01,5.883025575826546921e-02
3.820000000000000284e+01,5.389719542224243737e-02
3.824000000000000199e+01,6.577565217121583707e-02
3.828000000000000114e+01,7.721058170489931982e-02
3.832000000000000028e+01,9.129904679878890483e-02
3.835999999999999943e+01,7.972507539402105825e-02
3.839999999999999858e+01,9.646599795554698653e-02
3.843999999999999773e+01,9.373860956940725797e-02
3.847999999999999687e+01,1.064954449558002669e-01
3.852000000000000313e+01,1.351789442281632614e-01
3.856000000000000227e+01,1.351029622449385625e-01
3.860000000000000142e+01,1.452019677194122949e-01
3.864000000000000057e+01,1.597242812202185336e-01
3.867999999999999972e+01,1.985795757158906050e-01
3.871999999999999886e+01,2.148695205131552766e-01
3.875999999999999801e+01,2.360252194563783046e-01
3.879999999999999716e+01,2.939021474933564693e-01
3.884000000000000341e+01,2.960309515654782619e-01
3.888000000000000256e+01,3.791247017718527013e-01
3.892000000000000171e+01,3.852333527230910049e-01
3.896000000000000085e+01,4.501851002976161031e-01
3.900000000000000000e+01,5.235421169194098834e-01
3.903999999999999915e+01,5.522119523503956628e-01
3.907999999999999829e+01,6.344156480898339723e-01
3.911999999999999744e+01,6.767989768584269372e-01
3.915999999999999659e+01,7.567884359693097807e-01
3.920000000000000284e+01,8.133277071982299988e-01
3.924000000000000199e+01,8.729630201688675095e-01
3.928000000000000114e+01,9.343670665532870512e-01
3.932000000000000028e+01,9.510839527685589490e-01
3.935999999999999943e+01,9.518720939900777722e-01
3.939999999999999858e+01,1.000000000000000000e+00
3.943999999999999773e+01,9.397298109606521122e-01
3.947999999999999687e+01,9.568851162192261173e-01
3.952000000000000313e+01,9.368747071999560250e-01
3.956000000000000227e+01,8.973960713196598160e-01
3.960000000000000142e+01,8.065937396367292012e-01
3.964000000000000057e+01,7.697677474159135835e-01
3.967999999999999972e+01,7.324983330881073007e-01
3.971999999999999886e+01,7.000947449805219325e-01
3.975999999999999801e+01,6.190220957447377659e-01
3.979999999999999716e+01,5.534337693835970073e-01
3.984000000000000341e+01,4.918264040312734786e-01
3.988000000000000256e+01,4.483579902218406965e-01
3.992000000000000171e+01,4.186041598549615772e-01
3.996000000000000085e+01,3.773460006441746173e-01
4.000000000000000000e+01,3.170620847167413547e-01
4.003999999999999915e+01,2.722625096825170843e-01
4.007999999999999829e+01,2.690510680548384159e-01
4.011999999999999744e+01,2.609718662507751752e-01
4.015999999999999659e+01,2.825350018801826568e-01
4.020000000000000284e+01,2.757812164912104014e-01
4.024000000000000199e+01,2.530987521765590276e-01
4.028000000000000114e+01,2.529796405391717129e-01
4.032000000000000028e+01,2.400289157546955654e-01
4.035999999999999943e+01,2.421201187778394825e-01
4.039999999999999858e+01,2.220885353428781184e-01
4.043999999999999773e+01,2.073652692941773956e-01
4.047999999999999687e+01,2.156478080485551563e-01
4.052000000000000313e+01,1.964983240299933986e-01
4.056000000000000227e+01,1.738084242001132484e-01
4.060000000000000142e+01,1.453659260102935225e-01
4.064000000000000057e+01,1.151527664567162934e-01
4.067999999999999972e+01,1.075029896113457728e-01
4.071999999999999886e+01,9.542793474634771178e-02
4.075999999999999801e+01,8.866122129236438110e-02
4.079999999999999716e+01,7.304486472151125454e-02
4.084000000000000341e+01,6.229441845751820112e-02
4.088000000000000256e+01,7.233762147583081004e-02
4.092000000000000171e+01,6.866438217278235390e-02
4.096000000000000085e+01,5.038982933078092752e-02
4.100000000000000000e+01,4.981187500796632750e-02
4.103999999999999915e+01,6.339102532468807172e-02
4.107999999999999829e+01,5.219281757384858916e-02
4.111999999999999744e+01,5.249709780667544123e-02
4.115999999999999659e+01,4.439419906082391065e-02
4.120000000000000284e+01,4.071480053933784760e-02
4.124000000000000199e+01,3.084041459707731817e-02
4.128000000000000114e+01,3.423827709223259408e-02
4.132000000000000028e+01,2.790166129005724333e-02
4.135999999999999943e+01,2.244906084187969775e-02
4.139999999999999858e+01,3.557796316451776464e-02
4.143999999999999773e+01,3.676021064739260630e-02
4.147999999999999687e+01,3.617185983148949596e-02
4.152000000000000313e+01,2.142467463029618796e-02
4.156000000000000227e+01,2.039219599852157977e-02
4.160000000000000142e+01,3.705636093234778577e-02
4.164000000000000057e+01,4.177388604188204957e-02
4.167999999999999972e+01,3.631452277159098047e-02
4.171999999999999886e+01,3.262407610383223633e-02
4.175999999999999801e+01,3.026011193135705324e-02
4.179999999999999716e+01,3.807137546412146106e-02
4.184000000000000341e+01,3.039651730532051677e-02
4.188000000000000256e+01,3.201201863726153146e-02
4.192000000000000171e+01,2.787502071137369641e-02
4.196000000000000085e+01,2.240989763418219094e-02
4.200000000000000000e+01,2.579270594667231603e-02
4.203999999999999915e+01,3.713857443125215957e-02
4.207999999999999829e+01,2.105253726356887817e-02
4.211999999999999744e+01,1.514175182587926966e-02
4.215999999999999659e+01,2.692765199711017257e-02
4.220000000000000284e+01,3.340351104251512715e-02
4.224000000000000199e+01,2.218109287558200915e-02
4.228000000000000114e+01,2.290368689239196190e-02
4.232000000000000028e+01,1.875868590300190999e-02
4.235999999999999943e+01,3.009819998628825155e-02
4.239999999999999858e+01,3.037600552475985469e-02
4.243999999999999773e+01,2.888328483871583849e-02
4.247999999999999687e+01,2.075323271747651563e-02
4.252000000000000313e+01,2.368333657785968993e-02
4.256000000000000227e+01,3.192191698849954073e-02
4.260000000000000142e+01,4.325679140077483970e-02
4.264000000000000057e+01,2.892955064547904007e-02
4.267999999999999972e+01,2.875953765658442393e-02
4.271999999999999886e+01,2.947364212689263657e-02
4.275999999999999801e+01,3.107186705949788533e-02
4.279999999999999716e+01,2.072353925754485612e-02
4.284000000000000341e+01,2.143539146196850667e-02
4.288000000000000256e+01,2.789818135174596328e-02
4.292000000000000171e+01,3.037829550242359192e-02
4.296000000000000085e+01,3.462741935155576323e-02
4.300000000000000000e+01,2.294807148851318174e-02
4.303999999999999915e+01,2.719572686109255483e-02
4.307999999999999829e+01,2.436365873454745049e-02
4.311999999999999744e+01,2.330061231883402348e-02
4.315999999999999659e+01,2.666121327910498870e-02
4.320000000000000284e+01,3.223327906673924270e-02
4.324000000000000199e+01,3.868950135380167660e-02
4.328000000000000114e+01,3.629626671583865982e-02
4.332000000000000028e+01,2.284139260422895709e-02
4.335999999999999943e+01,1.911942620819211125e-02
4.339999999999999858e+01,2.734255608253782430e-02
4.343999999999999773e+01,2.937086370629360399e-02
4.347999999999999687e+01,3.095603451701399444e-02
4.352000000000000313e+01,3.829219106259643818e-02
4.356000000000000227e+01,3.899109725652868952e-02
4.360000000000000142e+01,2.730107366744492087e-02
4.364000000000000057e+01,2.932591280868157915e-02
4.367999999999999972e+01,1.542233129034598256e-02
4.371999999999999886e+01,3.470085136361540645e-02
4.375999999999999801e+01,4.380263921796119508e-02
4.379999999999999716e+01,3.122433298755735581e-02
4.384000000000000341e+01,3.014871895122990184e-02
4.388000000000000256e+01,4.190311144310230468e-02
4.392000000000000171e+01,4.171103528705586566e-02
4.396000000000000085e+01,2.824518215515560079e-02
4.400000000000000000e+01,3.822783520897210519e-02
4.403999999999999915e+01,4.068839972758347273e-02
4.407999999999999829e+01,3.518444160374079727e-02
4.411999999999999744e+01,3.366176581980183380e-02
4.415999999999999659e+01,2.904138161337138993e-02
4.420000000000000284e+01,3.813590218058114656e-02
4.424000000000000199e+01,3.616885234531230092e-02
4.428000000000000114e+01,4.128015663472586055e-02
4.432000000000000028e+01,4.948788405882822983e-02
4.435999999999999943e+01,4.486430164836247014e-02
4.439999999999999858e+01,3.891277727534318137e-02
4.443999999999999773e+01,4.667617569452962162e-02
4.447999999999999687e+01,5.045701549529255786e-02
4.452000000000000313e+01,4.671580279798148716e-02
4.456000000000000227e+01,5.270758790907118657e-02
4.460000000000000142e+01,5.692900896273556804e-02
4.464000000000000057e+01,6.778637405858761733e-02
4.467999999999999972e+01,7.643094399285982332e-02
4.471999999999999886e+01,7.047448267903987096e-02
4.475999999999999801e+01,6.717204042360261362e-02
4.479999999999999716e+01,6.917824289170081131e-02
4.484000000000000341e+01,9.286326616912299325e-02
4.488000000000000256e+01,9.619558777637000901e-02
4.492000000000000171e+01,8.581176737168237645e-02
4.496000000000000085e+01,1.028584592200617737e-01
4.500000000000000000e+01,1.132680088281845243e-01
4.503999999999999915e+01,1.365076520542407856e-01
4.507999999999999829e+01,1.597467157013753580e-01
4.511999999999999744e+01,1.537843534900384390e-01
4.515999999999999659e+01,1.664037763403780901e-01
4.520000000000000284e+01,1.776953172900494204e-01
4.524000000000000199e+01,1.845619195697452419e-01
4.528000000000000114e+01,1.940825799480491165e-01
4.532000000000000028e+01,2.407673960348163389e-01
4.535999999999999943e+01,2.467474394127573967e-01
4.539999999999999858e+01,2.859097105122624938e-01
4.543999999999999773e+01,2.896764602332470573e-01
4.547999999999999687e+01,3.031762768338004954e-01
4.552000000000000313e+01,3.441066477307406779e-01
4.556000000000000227e+01,3.730906731066267468e-01
4.560000000000000142e+01,4.135775228127367975e-01
4.564000000000000057e+01,4.487545896591277339e-01
4.567999999999999972e+01,4.458815304835052062e-01
4.571999999999999886e+01,4.412381913370967412e-01
4.575999999999999801e+01,4.365943236643690106e-01
4.579999999999999716e+01,4.430108582269935980e-01
4.584000000000000341e+01,4.330566971867929604e-01
4.588000000000000256e+01,4.062894064365185631e-01
4.592000000000000171e+01,3.848308444964190222e-01
4.596000000000000085e+01,3.828390019005673550e-01
4.600000000000000000e+01,3.317361295488792106e-01
4.603999999999999915e+01,3.244340236164973690e-01
4.607999999999999829e+01,3.100524194170610759e-01
4.611999999999999744e+01,2.540812253469034165e-01
4.615999999999999659e+01,2.228860109605821649e-01
4.620000000000000284e+01,2.062907257233005109e-01
4.624000000000000199e+01,1.985436902036925022e-01
4.628000000000000114e+01,1.518616994877988458e-01
4.632000000000000028e+01,1.365922571232649485e-01
4.635999999999999943e+01,1.199950199477965024e-01
4.639999999999999858e+01,1.149006671644373506e-01
4.643999999999999773e+01,1.009570947004995722e-01
4.647999999999999687e+01,7.949161689010682263e-02
4.652000000000000313e+01,8.589920556380045702e-02
4.656000000000000227e+01,7.549371558002268556e-02
4.660000000000000142e+01,6.464532302456216240e-02
4.664000000000000057e+01,7.282126375560898923e-02
4.667999999999999972e+01,5.533539263160549421e-02
4.671999999999999886e+01,5.510411235892553189e-02
4.675999999999999801e+01,5.089044464419508612e-02
4.679999999999999716e+01,6.525868511800604621e-02
4.684000000000000341e+01,5.927437107326073013e-02
4.688000000000000256e+01,4.090137349922906562e-02
4.692000000000000171e+01,4.509222711610939849e-02
4.696000000000000085e+01,5.105239074087074974e-02
4.700000000000000000e+01,4.285413140425616690e-02
4.703999999999999915e+01,4.438905606788674796e-02
4.707999999999999829e+01,3.442018643838838654e-02
4.711999999999999744e+01,5.011224278767506535e-02
4.715999999999999659e+01,4.146983465007175046e-02
4.720000000000000284e+01,3.902112564234593017e-02
4.724000000000000199e+01,2.949300545729925324e-02
4.728000000000000114e+01,5.270481702890390807e-02
4.732000000000000028e+01,3.875149992604613736e-02
4.735999999999999943e+01,2.214315175858109011e-02
4.739999999999999858e+01,3.827474435705032624e-02
4.743999999999999773e+01,3.980550991783741305e-02
4.747999999999999687e+01,2.098376900957647784e-02
4.752000000000000313e+01,3.180491810413096920e-02
4.756000000000000227e+01,3.997105114954947747e-02
4.760000000000000142e+01,3.442124339034915992e-02
4.764000000000000057e+01,2.533155136751530367e-02
4.767999999999999972e+01,2.995702538752264069e-02
4.771999999999999886e+01,3.369724381214347919e-02
4.775999999999999801e+01,2.062447367212084937e-02
4.779999999999999716e+01,2.392150124628083380e-02
4.784000000000000341e+01,1.704210291713220346e-02
4.788000000000000256e+01,2.874469386007009672e-02
4.792000000000000171e+01,3.558011023000500622e-02
4.796000000000000085e+01,2.781473860248323549e-02
4.800000000000000000e+01,2.049144373226413976e-02
4.803999999999999915e+01,2.290140793964681731e-02
4.807999999999999829e+01,2.929295179326539891e-02
4.811999999999999744e+01,2.196859388249050582e-02
4.815999999999999659e+01,1.198926496899364522e-02
4.820000000000000284e+01,3.165287711091473860e-02
4.824000000000000199e+01,3.052160273223574610e-02
4.828000000000000114e+01,3.469923434629318404e-02
4.832000000000000028e+01,2.427610499074235248e-02
4.835999999999999943e+01,2.358625873754740393e-02
4.839999999999999858e+01,2.245364505191159432e-02
4.843999999999999773e+01,3.193919469550639961e-02
4.847999999999999687e+01,2.505424694049758136e-02
4.852000000000000313e+01,3.099965407262338102e-02
4.856000000000000227e+01,3.075062335022517995e-02
4.860000000000000142e+01,2.165253511433863978e-02
4.864000000000000057e+01,2.715455921624188029e-02
4.867999999999999972e+01,3.309871112805027465e-02
4.871999999999999886e+01,2.532700632187919604e-02
4.875999999999999801e+01,3.259785997312374117e-02
4.879999999999999716e+01,2.349824025051877596e-02
4.884000000000000341e+01,3.917480141906597851e-02
4.888000000000000256e+01,3.272921278549204005e-02
4.892000000000000171e+01,1.920433910455630888e-02
4.896000000000000085e+01,3.134052954474170205e-02
4.900000000000000000e+01,2.179701630243182850e-02
4.903999999999999915e+01,2.331414854610963650e-02
4.907999999999999829e+01,2.660074996166448408e-02
4.911999999999999744e+01,3.740850598665086679e-02
4.915999999999999659e+01,2.786388167254830878e-02
4.920000000000000284e+01,2.849504063612425669e-02
4.924000000000000199e+01,4.018686010115928714e-02
4.928000000000000114e+01,2.621706291227105662e-02
4.932000000000000028e+01,2.640499200343201722e-02
4.935999999999999943e+01,2.526535151572824670e-02
4.939999999999999858e+01,2.279814445225399749e-02
4.943999999999999773e+01,4.377985199531658767e-02
4.947999999999999687e+01,2.715415592066390896e-02
4.952000000000000313e+01,3.486225467942278416e-02
4.956000000000000227e+01,3.903061332307278253e-02
4.960000000000000142e+01,2.063443910995532704e-02
4.964000000000000057e+01,2.568719451884609803e-02
4.967999999999999972e+01,2.631534460122451902e-02
4.971999999999999886e+01,2.384620369121435643e-02
4.975999999999999801e+01,3.155288810220237272e-02
4.979999999999999716e+01,2.554379687875606847e-02
4.984000000000000341e+01,2.882566276181039097e-02
4.988000000000000256e+01,2.547075278210831489e-02
4.992000000000000171e+01,1.990344104617507506e-02
4.996000000000000085e+01,1.831785010190817645e-02
5.000000000000000000e+01,1.673204895931404076e-02
5.003999999999999915e+01,2.222503438697635836e-02
5.007999999999999829e+01,1.577201364323658345e-02
5.011999999999999744e+01,2.391921635177431810e-02
5.015999999999999659e+01,1.436873646063836774e-02
5.020000000000000284e+01,2.340042002105619315e-02
5.024000000000000199e+01,2.446804341553684287e-02
5.028000000000000114e+01,2.420816630232081740e-02
5.032000000000000028e+01,2.394810301553171317e-02
5.035999999999999943e+01,3.165172454443940242e-02
5.039999999999999858e+01,1.634843616812180905e-02
5.043999999999999773e+01,1.874245504123754277e-02
5.047999999999999687e+01,3.617916150482224785e-02
5.052000000000000313e+01,2.352997330697505218e-02
5.056000000000000227e+01,1.574742516789440216e-02
5.060000000000000142e+01,2.433488495959469297e-02
5.064000000000000057e+01,2.540075172664356395e-02
5.067999999999999972e+01,2.292696246522294562e-02
5.071999999999999886e+01,2.531982527494590698e-02
5.075999999999999801e+01,2.284572673135870993e-02
5.079999999999999716e+01,1.860172960995717245e-02
5.084000000000000341e+01,1.258783691383566147e-02
5.088000000000000256e+01,1.542254229432249608e-02
5.092000000000000171e+01,2.666341164416891063e-02
5.096000000000000085e+01,2.286128111828543419e-02
5.100000000000000000e+01,2.259851235417602300e-02
5.103999999999999915e+01,1.835367747910252034e-02
5.107999999999999829e+01,1.676333615130546142e-02
5.111999999999999744e+01,2.180942536696692594e-02
5.115999999999999659e+01,2.729782858437796236e-02
5.120000000000000284e+01,2.393736948942786977e-02
5.124000000000000199e+01,9.073428423152469363e-03
5.128000000000000114e+01,2.031316276780863878e-02
5.132000000000000028e+01,2.403135514041570761e-02
5.135999999999999943e+01,2.509481675784209706e-02
5.139999999999999858e+01,2.925523305764207715e-02
5.143999999999999773e+01,2.943361327742058386e-02
5.147999999999999687e+01,2.076315220649797497e-02
5.152000000000000313e+01,2.536570836512273483e-02
5.156000000000000227e+01,2.067699212889177046e-02
5.160000000000000142e+01,2.527936513530911269e-02
5.164000000000000057e+01,2.943921395992093668e-02
5.167999999999999972e+01,2.563511072998900936e-02
5.171999999999999886e+01,2.669773464855731970e-02
5.175999999999999801e+01,2.422078362220130357e-02
5.179999999999999716e+01,1.731938643332904190e-02
5.184000000000000341e+01,2.634565316081701955e-02
5.188000000000000256e+01,2.785041995957562161e-02
5.192000000000000171e+01,1.519713317755284551e-02
5.196000000000000085e+01,2.510807597631941820e-02
5.200000000000000000e+01,3.501895873147202465e-02
5.203999999999999915e+01,2.502011448066585389e-02
5.207999999999999829e+01,3.271870060615775233e-02
5.211999999999999744e+01,2.271975128359498067e-02
5.215999999999999659e+01,3.528504655729271938e-02
5.220000000000000284e+01,3.811668037529988839e-02
5.224000000000000199e+01,2.944490729933833123e-02
5.228000000000000114e+01,3.050671162897062097e-02
5.232000000000000028e+01,3.510797682248772283e-02
5.235999999999999943e+01,4.546089143469937005e-02
5.239999999999999858e+01,3.855872873085924857e-02
5.243999999999999773e+01,2.634729369332493992e-02
5.247999999999999687e+01,3.448794172508987815e-02
5.252000000000000313e+01,2.448864722939972371e-02
5.256000000000000227e+01,2.908975937473714385e-02
5.260000000000000142e+01,2.970892252978670628e-02
5.264000000000000057e+01,2.900076235970137570e-02
5.267999999999999972e+01,2.652284475723208981e-02
5.271999999999999886e+01,2.271760983581631865e-02
5.275999999999999801e+01,2.997329968815483706e-02
5.279999999999999716e+01,2.307100202778585019e-02
5.284000000000000341e+01,1.926576716118398591e-02
5.288000000000000256e+01,1.678784965007120572e-02
5.292000000000000171e+01,2.448599470440373377e-02
5.296000000000000085e+01,2.422028380320885924e-02
5.300000000000000000e+01,1.997265394266881447e-02
5.303999999999999915e+01,2.855571831891537751e-02
5.307999999999999829e+01,2.430812753514339716e-02
5.311999999999999744e+01,1.696350102199518581e-02
5.315999999999999659e+01,2.421932619628874156e-02
5.320000000000000284e+01,2.262643921293434543e-02
5.324000000000000199e+01,2.103358528188817647e-02
5.328000000000000114e+01,2.828950961310628884e-02
5.332000000000000028e+01,2.758160501664557937e-02
5.335999999999999943e+01,2.775861670246200855e-02
5.339999999999999858e+01,3.280248166673770810e-02
5.343999999999999773e+01,2.280353294712792953e-02
5.347999999999999687e+01,1.501682085010733712e-02
5.352000000000000313e+01,2.669739568215079295e-02
5.356000000000000227e+01,2.245029161890539290e-02
5.360000000000000142e+01,2.793686406336448949e-02
5.364000000000000057e+01,3.076887692901593419e-02
5.367999999999999972e+01,1.192153747420107192e-02
5.371999999999999886e+01,2.448730194318507122e-02
5.375999999999999801e+01,2.643464785646851625e-02
5.379999999999999716e+01,2.041820087920425894e-02
5.384000000000000341e+01,2.590519686958254325e-02
5.388000000000000256e+01,3.183471107212036688e-02
5.392000000000000171e+01,1.918195074515907997e-02
5.396000000000000085e+01,1.803264239512318914e-02
5.400000000000000000e+01,2.528972925270516273e-02
5.403999999999999915e+01,2.325572990727579545e-02
5.407999999999999829e+01,1.193064736192928424e-02
5.411999999999999744e+01,2.228508234377626906e-02
5.415999999999999659e+01,2.157869169052227185e-02
5.420000000000000284e+01,2.706652570864206964e-02
5.424000000000000199e+01,1.706916899441867849e-02
5.428000000000000114e+01,2.388453360599167297e-02
5.432000000000000028e+01,2.494832991895788721e-02
5.435999999999999943e+01,2.645468048121487822e-02
5.439999999999999858e+01,2.043972030968113293e-02
5.443999999999999773e+01,2.327362549014538179e-02
5.447999999999999687e+01,1.725891461197822871e-02
5.452000000000000313e+01,1.522626687822364010e-02
5.456000000000000227e+01,1.806055951266191673e-02
5.460000000000000142e+01,2.531935840804430682e-02
5.464000000000000057e+01,2.195980481580008664e-02
5.467999999999999972e+01,1.550333261485592473e-02
5.471999999999999886e+01,2.453230344271589355e-02
5.475999999999999801e+01,2.648242767497678909e-02
5.479999999999999716e+01,1.515958876992942739e-02
5.484000000000000341e+01,2.153438745468445187e-02
5.488000000000000256e+01,1.906060011175084515e-02
5.492000000000000171e+01,2.012646883382919819e-02
5.496000000000000085e+01,2.163493685161224991e-02
5.500000000000000000e+01,2.756794116128204186e-02
5.503999999999999915e+01,2.553724567632642897e-02
5.507999999999999829e+01,2.129453583429968128e-02
5.511999999999999744e+01,2.324611973481483657e-02
5.515999999999999659e+01,2.608275505684916687e-02
5.520000000000000284e+01,2.980444480349679973e-02
5.524000000000000199e+01,2.379270132961787410e-02
5.528000000000000114e+01,2.884207182443199527e-02
5.532000000000000028e+01,1.796389556010476174e-02
5.535999999999999943e+01,2.389852170511920504e-02
5.539999999999999858e+01,1.257829576615163841e-02
5.543999999999999773e+01,1.497381847031270356e-02
5.547999999999999687e+01,2.489097327589327030e-02
5.552000000000000313e+01,3.171127253775347932e-02
5.556000000000000227e+01,2.481622861075354763e-02
5.560000000000000142e+01,3.207938244960223395e-02
5.564000000000000057e+01,2.031795378166217567e-02
5.567999999999999972e+01,1.784792067198548091e-02
5.571999999999999886e+01,2.599659745469542690e-02
5.575999999999999801e+01,2.839381405019213156e-02
5.579999999999999716e+01,3.123369300637301657e-02
5.584000000000000341e+01,2.743724356084309424e-02
5.588000000000000256e+01,2.806539647527364276e-02
5.592000000000000171e+01,2.471184965624035126e-02
5.596000000000000085e+01,2.268585143095463996e-02
5.600000000000000000e+01,2.995127278868616946e-02
5.603999999999999915e+01,3.633206319463826162e-02
5.607999999999999829e+01,2.590048967955400211e-02
5.611999999999999744e+01,2.166328498436822028e-02
5.615999999999999659e+01,2.937213454663542903e-02
5.620000000000000284e+01,2.292325185920763425e-02
5.624000000000000199e+01,2.134143566993177560e-02
5.628000000000000114e+01,2.064475498881443091e-02
5.632000000000000028e+01,2.481514681203769029e-02
5.635999999999999943e+01,3.208286570132348053e-02
5.639999999999999858e+01,3.227186112187490491e-02
5.643999999999999773e+01,2.184263919404149171e-02
5.647999999999999687e+01,2.999605220356165239e-02
5.652000000000000313e+01,3.284049919500254405e-02
5.656000000000000227e+01,4.055203670934959259e-02
5.660000000000000142e+01,3.189368645322887552e-02
5.664000000000000057e+01,3.208436671929053297e-02
5.667999999999999972e+01,2.696609297965019830e-02
5.671999999999999886e+01,3.423635265112548454e-02
5.675999999999999801e+01,2.734892211622554081e-02
5.679999999999999716e+01,2.754078567451272858e-02
5.684000000000000341e+01,2.640564123256262247e-02
5.688000000000000256e+01,2.659811445552819412e-02
5.692000000000000171e+01,3.475476500164988158e-02
5.696000000000000085e+01,2.344449503275041619e-02
5.700000000000000000e+01,1.877109706216647037e-02
5.703999999999999915e+01,3.400768740328485862e-02
5.707999999999999829e+01,1.827400136974459757e-02
5.711999999999999744e+01,3.085661475061394349e-02
5.715999999999999659e+01,2.176013708021813653e-02
5.720000000000000284e+01,2.903416285115697354e-02
5.724000000000000199e+01,3.409633643211506387e-02
5.728000000000000114e+01,3.340716394344196705e-02
5.732000000000000028e+01,2.785152260891800985e-02
5.735999999999999943e+01,3.601177406604734454e-02
5.739999999999999858e+01,4.019043690420067566e-02
5.743999999999999773e+01,2.534465237480705221e-02
5.747999999999999687e+01,3.394838607389745466e-02
5.752000000000000313e+01,3.104910928746216700e-02
5.756000000000000227e+01,2.372581878408464712e-02
5.760000000000000142e+01,4.029449262881706212e-02
5.764000000000000057e+01,3.562654856975849132e-02
5.767999999999999972e+01,2.609216269269760621e-02
5.771999999999999886e+01,3.248588218685372064e-02
5.775999999999999801e+01,2.693417210370654610e-02
5.779999999999999716e+01,3.111645385316177612e-02
5.784000000000000341e+01,2.733524602458997643e-02
5.788000000000000256e+01,2.311198249691799947e-02
5.792000000000000171e+01,3.481683935593452017e-02
5.796000000000000085e+01,3.988552697723602575e-02
5.800000000000000000e+01,2.681468349499659468e-02
5.803999999999999915e+01,2.745978385701291352e-02
5.807999999999999829e+01,3.208721463883131703e-02
5.811999999999999744e+01,4.025454173320292678e-02
5.815999999999999659e+01,3.691890639155691323e-02
5.820000000000000284e+01,2.473493427904623412e-02
5.824000000000000199e+01,3.024885501935035276e-02
5.828000000000000114e+01,3.664806142252619026e-02
5.832000000000000028e+01,3.641112561583560031e-02
5.835999999999999943e+01,3.617460725751904527e-02
5.839999999999999858e+01,2.841707847483829902e-02
5.843999999999999773e+01,3.879989467078680948e-02
5.847999999999999687e+01,3.546758690375651640e-02
5.852000000000000313e+01,3.390545703884966650e-02
5.856000000000000227e+01,3.588325652053296622e-02
5.860000000000000142e+01,3.343712036572513840e-02
5.864000000000000057e+01,3.364604534300966870e-02
5.867999999999999972e+01,3.208566335205005615e-02
5.871999999999999886e+01,3.760471960280240000e-02
5.875999999999999801e+01,3.294816979498036563e-02
5.879999999999999716e+01,3.581350134540187136e-02
5.884000000000000341e+01,3.602466371927006555e-02
5.888000000000000256e+01,3.446653414036552482e-02
5.892000000000000171e+01,3.335130116349774992e-02
5.896000000000000085e+01,4.108527288827985152e-02
5.900000000000000000e+01,3.952853079373951778e-02
5.903999999999999915e+01,2.912351499331388566e-02
5.907999999999999829e+01,3.818620355205499389e-02
5.911999999999999744e+01,4.017037285247192224e-02
5.915999999999999659e+01,3.684577433903103716e-02
5.920000000000000284e+01,4.104308721477636923e-02
5.924000000000000199e+01,3.904676406216638085e-02
5.928000000000000114e+01,4.324504697390172542e-02
5.932000000000000028e+01,3.594045453935323930e-02
5.935999999999999943e+01,3.261828862362324555e-02
5.939999999999999858e+01,4.124242021598169272e-02
5.943999999999999773e+01,3.703637414030972602e-02
5.947999999999999687e+01,4.167957180651303550e-02
5.952000000000000313e+01,4.809302245219656408e-02
5.956000000000000227e+01,3.548218489432915929e-02
5.960000000000000142e+01,3.614497119105077039e-02
5.964000000000000057e+01,4.079020502825082134e-02
5.967999999999999972e+01,4.720570385730792767e-02
5.971999999999999886e+01,4.344566870205305437e-02
5.975999999999999801e+01,5.207439519307808379e-02
5.979999999999999716e+01,4.566078549220573685e-02
5.984000000000000341e+01,4.721157234037080125e-02
5.988000000000000256e+01,4.522339387174745262e-02
5.992000000000000171e+01,4.589037263423293572e-02
5.996000000000000085e+01,3.992133231371672308e-02
