2.003999999999999915e+01,5.496859636440556279e-03
2.007999999999999829e+01,4.950119478203549028e-03
2.012000000000000099e+01,3.335347437048397697e-03
2.016000000000000014e+01,3.937434408740148571e-03
2.019999999999999929e+01,6.017280733757080988e-03
2.023999999999999844e+01,7.521830652894630036e-03
2.028000000000000114e+01,7.055006456790192428e-03
2.032000000000000028e+01,4.863175560686113820e-03
2.035999999999999943e+01,1.767561173436440949e-03
2.039999999999999858e+01,7.212223408071487436e-03
2.044000000000000128e+01,5.101200690013963680e-03
2.048000000000000043e+01,2.743374470307645505e-03
2.051999999999999957e+01,5.640936562930856484e-03
2.055999999999999872e+01,8.045329678317747826e-03
2.060000000000000142e+01,6.014686163967939911e-03
2.064000000000000057e+01,4.312097527787465620e-03
2.067999999999999972e+01,4.169398259781701734e-03
2.071999999999999886e+01,8.050256693409736306e-03
2.076000000000000156e+01,6.674858521204916559e-03
2.080000000000000071e+01,7.516329706671604459e-03
2.083999999999999986e+01,5.729457778776651106e-03
2.087999999999999901e+01,8.458879676103349399e-03
2.092000000000000171e+01,4.535969197889390576e-03
2.096000000000000085e+01,6.689676706375046432e-03
2.100000000000000000e+01,5.311698869172681858e-03
2.103999999999999915e+01,7.218183599944631712e-03
2.107999999999999829e+01,5.182372996980556465e-03
2.112000000000000099e+01,4.131603080647009221e-03
2.116000000000000014e+01,9.321698896231521078e-03
2.119999999999999929e+01,7.038244299834079364e-03
2.123999999999999844e+01,5.082854279879937300e-03
2.128000000000000114e+01,6.165563938518960237e-03
2.132000000000000028e+01,7.494217210474239665e-03
2.135999999999999943e+01,9.068814742297363896e-03
2.139999999999999858e+01,7.686589187560243994e-03
2.144000000000000128e+01,9.178221385162145529e-03
2.148000000000000043e+01,8.041520814227995709e-03
2.151999999999999957e+01,8.054111907900817977e-03
2.155999999999999872e+01,5.684738294831489895e-03
2.160000000000000142e+01,5.532246970465636016e-03
2.164000000000000057e+01,6.775416019052298185e-03
2.167999999999999972e+01,3.829932663486125283e-03
2.171999999999999886e+01,5.236512198264688979e-03
2.176000000000000156e+01,9.927565938946279409e-03
2.180000000000000071e+01,4.352922254091395882e-03
2.183999999999999986e+01,6.743722673366979101e-03
2.187999999999999901e+01,7.491663864385468552e-03
2.192000000000000171e+01,9.060414160605906320e-03
2.196000000000000085e+01,7.672350421988457722e-03
2.200000000000000000e+01,6.612363544294693959e-03
2.203999999999999915e+01,7.030165761299670552e-03
2.207999999999999829e+01,6.954823570029008105e-03
2.212000000000000099e+01,8.110904997869568603e-03
2.216000000000000014e+01,6.063808854939468571e-03
2.219999999999999929e+01,8.122416592282471690e-03
2.223999999999999844e+01,5.746014208504295236e-03
2.228000000000000114e+01,4.518915773813459574e-03
2.232000000000000028e+01,5.590833521985054053e-03
2.235999999999999943e+01,5.348388825439694821e-03
2.239999999999999858e+01,6.583739042557487826e-03
2.244000000000000128e+01,6.340483595601024286e-03
2.248000000000000043e+01,6.671679536878148513e-03
2.251999999999999957e+01,2.075136345513775137e-03
2.255999999999999872e+01,8.236205608037071996e-03
2.260000000000000142e+01,8.730436724949806188e-03
2.264000000000000057e+01,5.036030954948074977e-03
2.267999999999999972e+01,6.843415179752856958e-03
2.271999999999999886e+01,6.350975704042086806e-03
2.276000000000000156e+01,8.978782085563821042e-03
2.280000000000000071e+01,8.403421241140457756e-03
2.283999999999999986e+01,6.842194735540309443e-03
2.287999999999999901e+01,9.140316332899705090e-03
2.292000000000000171e+01,6.428583006903302449e-03
2.296000000000000085e+01,9.218644201574610966e-03
2.300000000000000000e+01,8.312807865677306063e-03
2.303999999999999915e+01,8.884776788268714670e-03
2.307999999999999829e+01,1.085242935967015328e-02
2.312000000000000099e+01,3.539872916500823915e-03
2.316000000000000014e+01,8.052527956486381713e-03
2.319999999999999929e+01,6.159254243063115933e-03
2.323999999999999844e+01,9.357168295017466095e-03
2.328000000000000114e+01,4.588832018291450973e-03
2.332000000000000028e+01,1.873161319527047973e-03
2.335999999999999943e+01,7.040837037623571236e-03
2.339999999999999858e+01,7.609276872134702885e-03
2.344000000000000128e+01,8.834305868348012181e-03
2.348000000000000043e+01,8.580746010828621193e-03
2.351999999999999957e+01,1.111895527010106979e-02
2.355999999999999872e+01,9.714909281836525343e-03
2.360000000000000142e+01,8.721088272789820350e-03
2.364000000000000057e+01,9.779938014117497275e-03
2.367999999999999972e+01,7.882001522325975465e-03
2.371999999999999886e+01,6.147925180716314573e-03
2.376000000000000156e+01,7.616233116359329321e-03
2.380000000000000071e+01,7.688079626912661980e-03
2.383999999999999986e+01,6.856198896309416424e-03
2.387999999999999901e+01,7.748503770469152355e-03
2.392000000000000171e+01,6.094637571970509989e-03
2.396000000000000085e+01,6.493447296259061835e-03
2.400000000000000000e+01,4.920943034604150813e-03
2.403999999999999915e+01,8.439639469358857851e-03
2.407999999999999829e+01,4.731198812537354935e-03
2.412000000000000099e+01,8.413383319675648772e-03
2.416000000000000014e+01,6.428754896715652319e-03
2.419999999999999929e+01,6.496806275852429376e-03
2.423999999999999844e+01,9.110271641019067335e-03
2.428000000000000114e+01,6.713904065584211378e-03
2.432000000000000028e+01,6.862951769282422433e-03
2.435999999999999943e+01,3.644612950087342332e-03
2.439999999999999858e+01,7.406292539561955095e-03
2.444000000000000128e+01,4.597818906266747455e-03
2.448000000000000043e+01,7.701775643751197428e-03
2.451999999999999957e+01,6.042270088634509213e-03
2.455999999999999872e+01,5.121494054894981662e-03
2.460000000000000142e+01,9.045561000596655243e-03
2.464000000000000057e+01,7.631311799740249716e-03
2.467999999999999972e+01,4.984859910389787332e-03
2.471999999999999886e+01,8.086597758668071997e-03
2.476000000000000156e+01,7.246099755957303469e-03
2.480000000000000071e+01,6.897968385242510617e-03
2.483999999999999986e+01,4.003680812556081360e-03
2.487999999999999901e+01,3.490573058264577477e-03
2.492000000000000171e+01,7.493824430906081274e-03
2.496000000000000085e+01,7.965454466467732780e-03
2.500000000000000000e+01,4.741219299040652126e-03
2.503999999999999915e+01,5.951222941971124301e-03
2.507999999999999829e+01,7.653597742758758843e-03
2.512000000000000099e+01,4.428275436758704470e-03
2.516000000000000014e+01,6.869027724224739846e-03
2.519999999999999929e+01,6.024529322611251771e-03
2.523999999999999844e+01,3.701470515535362337e-03
2.528000000000000114e+01,5.730532141896329743e-03
2.532000000000000028e+01,1.227595936070629765e-02
2.535999999999999943e+01,5.435100960322452636e-03
2.539999999999999858e+01,6.970355488312515550e-03
2.544000000000000128e+01,7.601908637209896062e-03
2.548000000000000043e+01,9.218572946861900916e-03
2.551999999999999957e+01,5.004201796709466417e-03
2.555999999999999872e+01,7.441378780302077521e-03
2.560000000000000142e+01,4.786621903265662371e-03
2.564000000000000057e+01,5.580646460097754905e-03
2.567999999999999972e+01,4.813995467304759725e-03
2.571999999999999886e+01,3.636381158661757939e-03
2.576000000000000156e+01,5.168449917469795755e-03
2.580000000000000071e+01,7.275023728294015626e-03
2.583999999999999986e+01,6.342723963555060157e-03
2.587999999999999901e+01,3.603385113258233702e-03
2.592000000000000171e+01,7.104988934519563745e-03
2.596000000000000085e+01,5.021931176734792911e-03
2.600000000000000000e+01,4.909460059638397558e-03
2.603999999999999915e+01,5.043008848946768652e-03
2.607999999999999829e+01,6.408045265974512614e-03
2.612000000000000099e+01,6.294535501674954590e-03
2.616000000000000014e+01,6.509169839665204967e-03
2.619999999999999929e+01,4.998892520740638550e-03
2.623999999999999844e+01,5.951939259195552015e-03
2.628000000000000114e+01,4.605219840227081293e-03
2.632000000000000028e+01,1.375123480843108942e-04
2.635999999999999943e+01,3.553199764172312175e-03
2.639999999999999858e+01,7.461279674320174700e-03
2.644000000000000128e+01,4.881360945508344748e-03
2.648000000000000043e+01,4.682647897155327310e-03
2.651999999999999957e+01,3.333884157912006454e-03
2.655999999999999872e+01,4.694816417151690888e-03
2.660000000000000142e+01,8.190589527814243556e-03
2.664000000000000057e+01,8.975991018866539412e-03
2.667999999999999972e+01,7.051021536860187580e-03
2.671999999999999886e+01,8.410606433154979925e-03
2.676000000000000156e+01,4.431909450126339349e-03
2.680000000000000071e+01,6.365680337870021320e-03
2.683999999999999986e+01,5.835449607452167925e-03
2.687999999999999901e+01,7.440064254318379429e-03
2.692000000000000171e+01,4.856111195291033973e-03
2.696000000000000085e+01,4.653371575341662229e-03
2.700000000000000000e+01,1.493899386055679533e-03
2.703999999999999915e+01,4.000532178160851743e-03
2.707999999999999829e+01,3.796800462723339160e-03
2.712000000000000099e+01,4.167595135504725129e-03
2.716000000000000014e+01,5.030794586826359098e-03
2.719999999999999929e+01,2.855142445339087405e-03
2.723999999999999844e+01,1.418263144186008087e-03
2.728000000000000114e+01,2.773213735674962856e-03
2.732000000000000028e+01,4.620571691910531006e-03
2.735999999999999943e+01,3.675447410234353954e-03
2.739999999999999858e+01,6.507622035617980152e-03
2.744000000000000128e+01,2.687569673371326909e-03
2.748000000000000043e+01,3.301795561129669369e-03
2.751999999999999957e+01,6.379366195918610358e-03
2.755999999999999872e+01,4.939890444718569862e-03
2.760000000000000142e+01,2.514625971981842168e-03
2.764000000000000057e+01,5.180620385298488791e-03
2.767999999999999972e+01,2.261981021287678365e-03
2.771999999999999886e+01,0.000000000000000000e+00
2.776000000000000156e+01,6.196292309860696942e-03
2.780000000000000071e+01,5.329752169904243553e-03
2.783999999999999986e+01,2.245593344266970555e-03
2.787999999999999901e+01,5.566653383676633399e-03
2.792000000000000171e+01,8.558907923804408985e-03
2.796000000000000085e+01,5.966533212465924621e-03
2.800000000000000000e+01,1.074420145422745653e-03
2.803999999999999915e+01,3.490873348165630247e-03
2.807999999999999829e+01,4.675178819300277247e-03
2.812000000000000099e+01,6.598271354904251124e-03
2.816000000000000014e+01,4.825549765095684882e-03
2.819999999999999929e+01,4.284350070241129890e-03
2.823999999999999844e+01,4.974672916892202215e-03
2.828000000000000114e+01,2.379794858936766944e-03
2.832000000000000028e+01,2.823130272655633398e-03
2.835999999999999943e+01,6.222557548370141051e-03
2.839999999999999858e+01,4.119484940916202237e-03
2.844000000000000128e+01,3.576427132646880103e-03
2.848000000000000043e+01,4.921873795034734447e-03
2.851999999999999957e+01,4.131835019349179745e-03
2.855999999999999872e+01,6.790624875798736797e-03
2.860000000000000142e+01,4.357529362989103795e-03
2.864000000000000057e+01,3.977185419503547620e-03
2.867999999999999972e+01,5.403226923202910509e-03
2.871999999999999886e+01,4.775908477817113716e-03
2.876000000000000156e+01,5.380120979107678135e-03
2.880000000000000071e+01,4.752197386718755648e-03
2.883999999999999986e+01,7.244617927405134529e-03
2.887999999999999901e+01,3.988179574851498550e-03
2.892000000000000171e+01,2.702375061252888094e-03
2.896000000000000085e+01,4.290549851693625620e-03
2.900000000000000000e+01,3.661124706449857789e-03
2.903999999999999915e+01,5.330824364736907843e-03
2.907999999999999829e+01,3.879580561909895444e-03
2.912000000000000099e+01,1.688939375197652439e-03
2.916000000000000014e+01,5.410804205801995198e-03
2.919999999999999929e+01,2.480470497046337926e-03
2.923999999999999844e+01,4.066565742796214578e-03
2.928000000000000114e+01,2.778087528880777979e-03
2.932000000000000028e+01,2.574816264566057709e-04
2.935999999999999943e+01,2.663917899343999467e-03
2.939999999999999858e+01,3.756105520595613961e-03
2.944000000000000128e+01,3.451922880532779132e-03
2.948000000000000043e+01,3.311693494081841514e-03
2.951999999999999957e+01,5.059985388629635768e-03
2.955999999999999872e+01,4.508564142985041837e-03
2.960000000000000142e+01,3.628364553225634382e-03
2.964000000000000057e+01,4.554565927889495276e-03
2.967999999999999972e+01,7.995106713385401187e-04
2.971999999999999886e+01,5.749127195654989315e-03
2.976000000000000156e+01,3.635942951182577227e-03
2.980000000000000071e+01,5.217974150635563274e-03
2.983999999999999986e+01,4.828785760678337528e-03
2.987999999999999901e+01,4.521434833618733461e-03
2.992000000000000171e+01,3.392577197475605232e-03
2.996000000000000085e+01,3.331025392096287775e-03
3.000000000000000000e+01,4.747391345183617044e-03
3.003999999999999915e+01,3.289196123085983119e-03
3.007999999999999829e+01,2.323452877795199531e-03
3.012000000000000099e+01,3.410485124237612378e-03
3.016000000000000014e+01,3.758136797136331798e-03
3.019999999999999929e+01,2.955797261891709299e-03
3.023999999999999844e+01,5.438069001488809312e-03
3.028000000000000114e+01,2.828482526993812089e-03
3.032000000000000028e+01,3.010775083062210578e-03
3.035999999999999943e+01,4.096135422949912820e-03
3.039999999999999858e+01,4.195752299912753995e-03
3.044000000000000128e+01,4.130848922804826809e-03
3.048000000000000043e+01,5.708115575243232973e-03
3.051999999999999957e+01,4.575073323576327872e-03
3.055999999999999872e+01,3.606001782414455011e-03
3.060000000000000142e+01,3.375757391920959291e-03
3.064000000000000057e+01,4.294952079798667124e-03
3.067999999999999972e+01,3.817796549461463778e-03
3.071999999999999886e+01,4.079470109447414644e-03
3.076000000000000156e+01,2.041449925788916750e-03
3.080000000000000071e+01,2.466827506392006448e-03
3.083999999999999986e+01,4.534380935505778060e-03
3.087999999999999901e+01,3.234653229636645731e-03
3.092000000000000171e+01,5.219547789986398074e-03
3.096000000000000085e+01,3.508673483535427323e-03
3.100000000000000000e+01,4.918178223946029735e-03
3.103999999999999915e+01,6.163172408559829812e-03
3.107999999999999829e+01,2.891177103725224573e-03
3.112000000000000099e+01,4.956863703623703293e-03
3.116000000000000014e+01,2.259195338486217654e-03
3.119999999999999929e+01,5.556188221027024907e-03
3.123999999999999844e+01,2.365260050799809343e-03
3.128000000000000114e+01,3.690793809209594670e-03
3.132000000000000028e+01,5.919410868677015686e-03
3.135999999999999943e+01,2.399209121103435243e-03
3.139999999999999858e+01,3.806082522972915102e-03
3.144000000000000128e+01,5.951796653094290970e-03
3.148000000000000043e+01,4.073261296664732606e-03
3.151999999999999957e+01,6.218458210800260552e-03
3.155999999999999872e+01,4.339406931488023512e-03
3.160000000000000142e+01,2.377976404331608520e-03
3.164000000000000057e+01,5.261502649697559139e-03
3.167999999999999972e+01,6.912939353099036878e-03
3.171999999999999886e+01,3.883152399417148619e-03
3.176000000000000156e+01,1.427966833939470345e-03
3.180000000000000071e+01,2.832273552427540080e-03
3.183999999999999986e+01,4.400571671071760484e-03
3.187999999999999901e+01,5.475883786581745016e-03
3.192000000000000171e+01,3.430298346141083272e-03
3.196000000000000085e+01,1.712950757971866671e-03
3.200000000000000000e+01,1.309308743388667377e-03
3.203999999999999915e+01,3.943940329778320916e-03
3.207999999999999829e+01,4.607388533647240568e-03
3.211999999999999744e+01,5.845443944684727659e-03
3.215999999999999659e+01,3.059260860548424898e-03
3.220000000000000284e+01,5.939266162959348609e-03
3.224000000000000199e+01,3.645322676076177999e-03
3.228000000000000114e+01,1.515377701416740054e-03
3.232000000000000028e+01,7.186801714945798350e-03
3.235999999999999943e+01,4.235144117165082905e-03
3.239999999999999858e+01,4.896621732933360144e-03
3.243999999999999773e+01,5.311489165980497543e-03
3.247999999999999687e+01,4.822769013016099671e-03
3.252000000000000313e+01,5.812007351268986231e-03
3.256000000000000227e+01,6.472515190225278103e-03
3.260000000000000142e+01,5.161848051831596437e-03
3.264000000000000057e+01,3.686696219705007382e-03
3.267999999999999972e+01,4.264361258613841646e-03
3.271999999999999886e+01,6.155743509037454528e-03
3.275999999999999801e+01,2.380451837956254306e-03
3.279999999999999716e+01,8.131104294517958742e-03
3.284000000000000341e+01,6.598365494951118635e-04
3.288000000000000256e+01,3.043003250139363070e-03
3.292000000000000171e+01,4.358344964379152163e-03
3.296000000000000085e+01,4.031006545154330704e-03
3.300000000000000000e+01,3.867678276081974384e-03
3.303999999999999915e+01,5.182316903397681494e-03
3.307999999999999829e+01,3.047587699838086826e-03
3.311999999999999744e+01,3.129926991841986902e-03
3.315999999999999659e+01,6.004191219572716648e-03
3.320000000000000284e+01,1.897832538182243900e-03
3.324000000000000199e+01,5.510735459436742235e-03
3.328000000000000114e+01,7.070352138488160409e-03
3.332000000000000028e+01,7.397905784190609776e-03
3.335999999999999943e+01,4.604585149799923782e-03
3.339999999999999858e+01,5.095926867827164052e-03
3.343999999999999773e+01,5.669163591844200885e-03
3.347999999999999687e+01,2.464549925580903928e-03
3.352000000000000313e+01,3.447945369923060503e-03
3.356000000000000227e+01,1.556836535620832003e-03
3.360000000000000142e+01,5.331938717171742607e-03
3.364000000000000057e+01,3.604625713813484639e-03
3.367999999999999972e+01,2.205578364445352508e-03
3.371999999999999886e+01,2.695120183993683204e-03
3.375999999999999801e+01,4.169907000477332190e-03
3.379999999999999716e+01,3.755660492389168575e-03
3.384000000000000341e+01,5.722738630253740473e-03
3.388000000000000256e+01,5.472295711728717912e-03
3.392000000000000171e+01,6.699833913726894151e-03
3.396000000000000085e+01,3.492551434221910587e-03
3.400000000000000000e+01,3.980552286560064788e-03
3.403999999999999915e+01,1.758301131333484544e-03
3.407999999999999829e+01,5.202268750579232791e-03
3.411999999999999744e+01,3.965051505837457677e-03
3.415999999999999659e+01,3.713085723546974155e-03
3.420000000000000284e+01,2.721804669424153240e-03
3.424000000000000199e+01,5.015199545302794805e-03
3.428000000000000114e+01,8.207225063348284151e-04
3.432000000000000028e+01,2.867323914760507974e-03
3.435999999999999943e+01,7.048891605618953261e-03
3.439999999999999858e+01,3.346510965371346253e-03
3.443999999999999773e+01,5.228232662330176139e-03
3.447999999999999687e+01,4.563953976252361003e-03
3.452000000000000313e+01,4.392199034208707324e-03
3.456000000000000227e+01,4.302357201599585693e-03
3.460000000000000142e+01,3.062595281522843653e-03
3.464000000000000057e+01,5.271760269424045908e-03
3.467999999999999972e+01,3.292482982441588373e-03
3.471999999999999886e+01,5.911845483763762329e-03
3.475999999999999801e+01,4.671256028226480547e-03
3.479999999999999716e+01,3.923194842584558188e-03
3.484000000000000341e+01,4.324640623231578579e-03
3.488000000000000256e+01,5.957716272949390574e-03
3.492000000000000171e+01,6.276632495151870765e-03
3.496000000000000085e+01,2.817722249483125933e-03
3.500000000000000000e+01,6.831735286038920218e-03
3.503999999999999915e+01,3.783032898616711399e-03
3.507999999999999829e+01,6.564809961917241615e-03
3.511999999999999744e+01,5.322396374862201247e-03
3.515999999999999659e+01,2.601582727140902031e-03
3.520000000000000284e+01,6.203984007178650964e-03
3.524000000000000199e+01,3.482773402068614285e-03
3.528000000000000114e+01,5.935067430597322155e-03
3.532000000000000028e+01,3.624073735456189230e-03
3.535999999999999943e+01,5.418996636063755194e-03
3.539999999999999858e+01,2.779122131025673140e-03
3.543999999999999773e+01,1.065070150079892169e-02
3.547999999999999687e+01,7.764071028300533785e-03
3.552000000000000313e+01,6.355447538389240487e-03
3.556000000000000227e+01,4.946631065472151083e-03
3.560000000000000142e+01,5.015822868245370207e-03
3.564000000000000057e+01,5.577556518497475864e-03
3.567999999999999972e+01,3.675431438491117385e-03
3.571999999999999886e+01,6.782573591730567397e-03
3.575999999999999801e+01,5.701290926979494383e-03
3.579999999999999716e+01,4.127085621150717622e-03
3.584000000000000341e+01,6.412437900999062683e-03
3.588000000000000256e+01,2.456310896755440482e-03
3.592000000000000171e+01,4.659165945739109256e-03
3.596000000000000085e+01,5.794245146239727744e-03
3.600000000000000000e+01,3.726370482822395462e-03
3.603999999999999915e+01,5.846545662761164393e-03
3.607999999999999829e+01,6.159846627799420160e-03
3.611999999999999744e+01,6.801452686475252009e-03
3.615999999999999659e+01,7.196508691728509440e-03
3.620000000000000284e+01,7.509259802571289708e-03
3.624000000000000199e+01,5.522405747338451736e-03
3.628000000000000114e+01,5.670549009015062557e-03
3.632000000000000028e+01,5.900633828396492642e-03
3.635999999999999943e+01,7.772983720409057731e-03
3.639999999999999858e+01,4.471452064493675049e-03
3.643999999999999773e+01,5.932832511062109161e-03
3.647999999999999687e+01,7.229790332850999195e-03
3.652000000000000313e+01,5.652291720813710195e-03
3.656000000000000227e+01,6.127672695316798736e-03
3.660000000000000142e+01,6.274388472234639080e-03
3.664000000000000057e+01,6.420928723039823552e-03
3.667999999999999972e+01,8.127616962658679167e-03
3.671999999999999886e+01,6.713485232518599799e-03
3.675999999999999801e+01,4.477957353618164556e-03
3.679999999999999716e+01,9.715381851764142221e-03
3.684000000000000341e+01,1.117501026996398777e-02
3.688000000000000256e+01,1.058141063560452851e-02
3.692000000000000171e+01,1.113735158821707594e-02
3.696000000000000085e+01,1.087189962482725675e-02
3.700000000000000000e+01,1.044203344182866033e-02
3.703999999999999915e+01,8.780164354779636249e-03
3.707999999999999829e+01,1.032089484666524892e-02
3.711999999999999744e+01,1.030113470268263429e-02
3.715999999999999659e+01,1.348397543073784864e-02
3.720000000000000284e+01,1.149294754189708091e-02
3.724000000000000199e+01,1.122632120605284584e-02
3.728000000000000114e+01,1.030255163907950987e-02
3.732000000000000028e+01,1.003559558721266523e-02
3.735999999999999943e+01,1.215002107783915743e-02
3.739999999999999858e+01,1.122575984631411262e-02
3.743999999999999773e+01,1.531079364975356134e-02
3.747999999999999687e+01,1.479681915576994307e-02
3.752000000000000313e+01,1.633573976556504728e-02
3.756000000000000227e+01,1.458960947072425636e-02
3.760000000000000142e+01,1.588184264752837138e-02
3.764000000000000057e+01,1.282143688180656209e-02
3.767999999999999972e+01,1.353849618690508398e-02
3.771999999999999886e+01,1.359841937294208915e-02
3.775999999999999801e+01,1.472577446730440921e-02
3.779999999999999716e+01,1.429264991717565589e-02
3.784000000000000341e+01,1.919731589244838207e-02
3.788000000000000256e+01,1.827114619236026513e-02
3.792000000000000171e+01,2.005485611140883639e-02
3.796000000000000085e+01,2.101718927824497429e-02
3.800000000000000000e+01,2.296483597648575625e-02
3.803999999999999915e+01,2.326988465331481307e-02
3.807999999999999829e+01,2.464237041088193983e-02
3.811999999999999744e+01,3.012081737625800504e-02
3.815999999999999659e+01,2.911145514229240838e-02
3.820000000000000284e+01,3.434323407122540778e-02
3.824000000000000199e+01,3.735756241789291165e-02
3.828000000000000114e+01,3.774382954769527065e-02
3.832000000000000028e+01,3.780145928163107516e-02
3.835999999999999943e+01,4.024048672185014108e-02
3.839999999999999858e+01,3.931235457878661660e-02
3.843999999999999773e+01,4.840299126452273643e-02
3.847999999999999687e+01,4.763881141788976065e-02
3.852000000000000313e+01,5.828948004907386765e-02
3.856000000000000227e+01,6.540874717072125977e-02
3.860000000000000142e+01,7.031056952906757085e-02
3.864000000000000057e+01,8.235688498091273124e-02
3.867999999999999972e+01,9.300697952486250419e-02
3.871999999999999886e+01,1.024250983199289505e-01
3.875999999999999801e+01,1.197268124542213430e-01
3.879999999999999716e+01,1.396562981755552768e-01
3.884000000000000341e+01,1.642666125362386431e-01
3.888000000000000256e+01,1.939683674639742783e-01
3.892000000000000171e+01,2.325391873919052665e-01
3.896000000000000085e+01,2.866309757212333054e-01
3.900000000000000000e+01,3.595286233477201221e-01
3.903999999999999915e+01,4.438411278571946506e-01
3.907999999999999829e+01,5.568962859607913263e-01
3.911999999999999744e+01,6.770959449165059318e-01
3.915999999999999659e+01,8.177439108801908274e-01
3.920000000000000284e+01,9.400784795577195041e-01
3.924000000000000199e+01,1.000000000000000000e+00
3.928000000000000114e+01,9.972621060848928520e-01
3.932000000000000028e+01,9.545305411784990035e-01
3.935999999999999943e+01,8.457725507023803324e-01
3.939999999999999858e+01,7.257636802086653294e-01
3.943999999999999773e+01,5.826783254467493567e-01
3.947999999999999687e+01,4.726881103246746707e-01
3.952000000000000313e+01,3.793685842429428412e-01
3.956000000000000227e+01,3.097001396276767848e-01
3.960000000000000142e+01,2.524320280218840251e-01
3.964000000000000057e+01,2.021441811609195338e-01
3.967999999999999972e+01,1.729616277629378585e-01
3.971999999999999886e+01,1.454213937479215402e-01
3.975999999999999801e+01,1.257647712359210579e-01
3.979999999999999716e+01,1.112817264178898868e-01
3.984000000000000341e+01,9.852312517870905062e-02
3.988000000000000256e+01,8.847443523969315826e-02
3.992000000000000171e+01,7.941108986655862068e-02
3.996000000000000085e+01,7.051186714355452134e-02
4.000000000000000000e+01,6.481529119775164549e-02
4.003999999999999915e+01,5.862586114534041465e-02
4.007999999999999829e+01,5.457148983224037464e-02
4.011999999999999744e+01,5.215944436762166153e-02
4.015999999999999659e+01,4.539480069322766181e-02
4.020000000000000284e+01,3.665910488628718045e-02
4.024000000000000199e+01,3.843494054034971713e-02
4.028000000000000114e+01,3.577605766806150889e-02
4.032000000000000028e+01,2.966792399073713352e-02
4.035999999999999943e+01,3.185402279585385077e-02
4.039999999999999858e+01,3.132997239510984522e-02
4.043999999999999773e+01,2.530361672322823524e-02
4.047999999999999687e+01,2.330113814946953299e-02
4.052000000000000313e+01,2.376221445201060975e-02
4.056000000000000227e+01,2.323771151573258628e-02
4.060000000000000142e+01,2.205611901210806011e-02
4.064000000000000057e+01,2.029955984391887056e-02
4.067999999999999972e+01,1.878925722001912116e-02
4.071999999999999886e+01,1.933190142402588588e-02
4.075999999999999801e+01,1.700015772867581251e-02
4.079999999999999716e+01,1.614650636072369888e-02
4.084000000000000341e+01,1.603184766064890202e-02
4.088000000000000256e+01,1.624557099385177603e-02
4.092000000000000171e+01,1.637706572573266461e-02
4.096000000000000085e+01,1.412690932839619912e-02
4.100000000000000000e+01,1.647549422796516089e-02
4.103999999999999915e+01,1.685304057257119154e-02
4.107999999999999829e+01,1.550591577745665320e-02
4.111999999999999744e+01,1.670447781314610483e-02
4.115999999999999659e+01,1.322196877792919216e-02
4.120000000000000284e+01,1.261363689154045876e-02
4.124000000000000199e+01,1.258005962608452384e-02
4.128000000000000114e+01,1.492792726517846828e-02
4.132000000000000028e+01,1.546900538763117117e-02
4.135999999999999943e+01,1.313570530900098898e-02
4.139999999999999858e+01,1.318385207457547191e-02
4.143999999999999773e+01,1.134308900693326363e-02
4.147999999999999687e+01,1.171952956413842284e-02
4.152000000000000313e+01,1.209587347452581278e-02
4.156000000000000227e+01,1.395032199679151381e-02
4.160000000000000142e+01,1.046672851037644750e-02
4.164000000000000057e+01,1.141764215323185991e-02
4.167999999999999972e+01,1.343605106646913669e-02
4.171999999999999886e+01,1.052703119183167300e-02
4.175999999999999801e+01,8.110652087067522775e-03
4.179999999999999716e+01,8.896948854326510586e-03
4.184000000000000341e+01,1.148984378424598891e-02
4.188000000000000256e+01,1.087987989333236670e-02
4.192000000000000171e+01,1.100892612718918327e-02
4.196000000000000085e+01,1.138424959498655041e-02
4.200000000000000000e+01,9.706427768829094249e-03
4.203999999999999915e+01,1.041006313170186361e-02
4.207999999999999829e+01,1.070299961832798380e-02
4.211999999999999744e+01,7.136103113588577324e-03
4.215999999999999659e+01,8.660700193132423591e-03
4.220000000000000284e+01,8.542766492630667410e-03
4.224000000000000199e+01,1.097053772637763235e-02
4.228000000000000114e+01,1.430156941631991613e-02
4.232000000000000028e+01,8.763313717609457973e-03
4.235999999999999943e+01,1.020536672923597586e-02
4.239999999999999858e+01,1.099035926833787091e-02
4.243999999999999773e+01,1.070768070031549897e-02
4.247999999999999687e+01,1.190312161485817914e-02
4.252000000000000313e+01,1.120967015307730054e-02
4.256000000000000227e+01,1.026977208612943511e-02
4.260000000000000142e+01,1.072587318517118429e-02
4.264000000000000057e+01,1.126401799707012728e-02
4.267999999999999972e+01,1.048812881246364605e-02
4.271999999999999886e+01,1.168309652711330658e-02
4.275999999999999801e+01,1.016795318244649061e-02
4.279999999999999716e+01,1.037730126144826084e-02
4.284000000000000341e+01,9.026251161460238301e-03
4.288000000000000256e+01,8.414226703481011635e-03
4.292000000000000171e+01,9.690940121285660652e-03
4.296000000000000085e+01,1.047484663074855354e-02
4.300000000000000000e+01,9.205624010046552924e-03
4.303999999999999915e+01,1.105697504823695623e-02
4.307999999999999829e+01,9.376997637221173160e-03
4.311999999999999744e+01,1.188518450919423888e-02
4.315999999999999659e+01,7.823520744545082312e-03
4.320000000000000284e+01,9.920956705513959625e-03
4.324000000000000199e+01,1.119710125908126089e-02
4.328000000000000114e+01,1.107709925818683820e-02
4.332000000000000028e+01,9.889440374303294298e-03
4.335999999999999943e+01,1.100113775942244965e-02
4.339999999999999858e+01,1.153791309203717509e-02
4.343999999999999773e+01,1.248523409346204843e-02
4.347999999999999687e+01,1.335036787286717971e-02
4.352000000000000313e+01,9.862957752831209152e-03
4.356000000000000227e+01,1.253465317737764359e-02
4.360000000000000142e+01,1.118229502050715508e-02
4.364000000000000057e+01,1.245778668342154352e-02
4.367999999999999972e+01,1.397958338199516669e-02
4.371999999999999886e+01,1.361250710079315619e-02
4.375999999999999801e+01,1.291688135474183818e-02
4.379999999999999716e+01,1.279605160892554813e-02
4.384000000000000341e+01,1.439973009711937799e-02
4.388000000000000256e+01,1.436090496043470645e-02
4.392000000000000171e+01,1.415777745756761213e-02
4.396000000000000085e+01,1.395459274753020097e-02
4.400000000000000000e+01,1.440832952671605195e-02
4.403999999999999915e+01,1.634021100397927209e-02
4.407999999999999829e+01,1.662959208912196882e-02
4.411999999999999744e+01,1.815075239675447219e-02
4.415999999999999659e+01,1.712606878683690936e-02
4.420000000000000284e+01,1.725104343628210135e-02
4.424000000000000199e+01,1.795082119802989332e-02
4.428000000000000114e+01,2.053935881831588442e-02
4.432000000000000028e+01,1.885748772642295915e-02
4.435999999999999943e+01,2.423807992867712396e-02
4.439999999999999858e+01,2.214549671887584489e-02
4.443999999999999773e+01,2.456958815318713643e-02
4.447999999999999687e+01,2.403722956120989823e-02
4.452000000000000313e+01,2.539363470708043066e-02
4.456000000000000227e+01,2.510754721944961562e-02
4.460000000000000142e+01,3.114482659920323263e-02
4.464000000000000057e+01,2.888771188390850189e-02
4.467999999999999972e+01,3.106515343580567440e-02
4.471999999999999886e+01,3.751290738898582777e-02
4.475999999999999801e+01,3.796569236121941082e-02
4.479999999999999716e+01,3.833631144763596788e-02
4.484000000000000341e+01,4.281300036252980862e-02
4.488000000000000256e+01,4.523659053518384182e-02
4.492000000000000171e+01,5.028805121727387278e-02
4.496000000000000085e+01,5.304004768153651461e-02
4.500000000000000000e+01,5.866628271702911679e-02
4.503999999999999915e+01,6.618128989554024344e-02
4.507999999999999829e+01,7.205381284572080769e-02
4.511999999999999744e+01,7.587324093297112548e-02
4.515999999999999659e+01,8.798697908885422247e-02
4.520000000000000284e+01,9.821186818737083490e-02
4.524000000000000199e+01,1.148422567543276318e-01
4.528000000000000114e+01,1.262167850515808765e-01
4.532000000000000028e+01,1.443253031352985383e-01
4.535999999999999943e+01,1.676896110398878037e-01
4.539999999999999858e+01,1.865371609205004888e-01
4.543999999999999773e+01,2.078483452032594825e-01
4.547999999999999687e+01,2.508397724925945926e-01
4.552000000000000313e+01,2.696051022023482346e-01
4.556000000000000227e+01,2.955971591152573019e-01
4.560000000000000142e+01,3.155942606248033910e-01
4.564000000000000057e+01,3.093122100886664394e-01
4.567999999999999972e+01,3.079574655208928702e-01
4.571999999999999886e+01,2.978977330338127838e-01
4.575999999999999801e+01,2.746984114375443653e-01
4.579999999999999716e+01,2.480499276138087295e-01
4.584000000000000341e+01,2.222226395331302617e-01
4.588000000000000256e+01,1.922070902120154301e-01
4.592000000000000171e+01,1.645730607954357938e-01
4.596000000000000085e+01,1.402238967484757126e-01
4.600000000000000000e+01,1.211305328672127035e-01
4.603999999999999915e+01,1.075393365668891738e-01
4.607999999999999829e+01,9.493358440139293419e-02
4.611999999999999744e+01,8.191719866136139283e-02
4.615999999999999659e+01,7.415661567323335313e-02
4.620000000000000284e+01,6.368597722922623994e-02
4.624000000000000199e+01,5.814265380530479060e-02
4.628000000000000114e+01,4.980715396237720555e-02
4.632000000000000028e+01,4.648109268886875534e-02
4.635999999999999943e+01,3.904890018977336119e-02
4.639999999999999858e+01,3.284852376660883644e-02
4.643999999999999773e+01,3.502460035795845056e-02
4.647999999999999687e+01,3.202695833238268508e-02
4.652000000000000313e+01,2.886505596647832850e-02
4.656000000000000227e+01,2.553889390679698126e-02
4.660000000000000142e+01,2.615458561140272115e-02
4.664000000000000057e+01,2.233566159136169890e-02
4.667999999999999972e+01,2.171949232263870391e-02
4.671999999999999886e+01,1.642234185368139990e-02
4.675999999999999801e+01,1.621675932244105375e-02
4.679999999999999716e+01,1.748936610133828770e-02
4.684000000000000341e+01,1.736588386886597432e-02
4.688000000000000256e+01,1.666753583387821716e-02
4.692000000000000171e+01,1.301277721224937053e-02
4.696000000000000085e+01,1.354624494256272127e-02
4.700000000000000000e+01,1.186240368541042860e-02
4.703999999999999915e+01,9.603699211949074874e-03
4.707999999999999829e+01,9.726533393019220347e-03
4.711999999999999744e+01,1.050633949433724644e-02
4.715999999999999659e+01,9.315205963086749252e-03
4.720000000000000284e+01,9.355901438799073266e-03
4.724000000000000199e+01,9.150225955881319956e-03
4.728000000000000114e+01,1.198307041009504144e-02
4.732000000000000028e+01,9.149476287585439974e-03
4.735999999999999943e+01,9.600770164001262014e-03
4.739999999999999858e+01,8.327495055848916500e-03
4.743999999999999773e+01,5.822385147061483017e-03
4.747999999999999687e+01,6.602165176854271796e-03
4.752000000000000313e+01,7.381945542568909939e-03
4.756000000000000227e+01,7.751115609605749822e-03
4.760000000000000142e+01,5.328130593839166575e-03
4.764000000000000057e+01,6.190038102859199594e-03
4.767999999999999972e+01,7.051948534007461238e-03
4.771999999999999886e+01,4.546850028395348423e-03
4.775999999999999801e+01,3.766323118849899346e-03
4.779999999999999716e+01,5.860080039146216800e-03
4.784000000000000341e+01,6.557764111862925821e-03
4.788000000000000256e+01,7.748187876847352669e-03
4.792000000000000171e+01,6.474950756362131063e-03
4.796000000000000085e+01,5.283843340096572305e-03
4.800000000000000000e+01,4.503355299523289536e-03
4.803999999999999915e+01,6.022299174489607713e-03
4.807999999999999829e+01,4.256362187890159673e-03
4.811999999999999744e+01,5.282591947315009966e-03
4.815999999999999659e+01,5.980343362566258210e-03
4.820000000000000284e+01,3.639582624597300243e-03
4.824000000000000199e+01,4.008868316077173616e-03
4.828000000000000114e+01,4.624533396649994216e-03
4.832000000000000028e+01,3.597766619571629316e-03
4.835999999999999943e+01,4.377703393064147352e-03
4.839999999999999858e+01,4.911287957922920097e-03
4.843999999999999773e+01,3.802442604785289185e-03
4.847999999999999687e+01,4.253935973182587822e-03
4.852000000000000313e+01,4.130590047679929405e-03
4.856000000000000227e+01,5.156972855664141223e-03
4.860000000000000142e+01,4.540928331858351194e-03
4.864000000000000057e+01,4.910369322182138105e-03
4.867999999999999972e+01,3.391017505128353718e-03
4.871999999999999886e+01,2.939274751537600781e-03
4.875999999999999801e+01,2.323307864507719034e-03
4.879999999999999716e+01,5.238619020951515610e-03
4.884000000000000341e+01,3.472983244395673203e-03
4.888000000000000256e+01,3.431937167351227849e-03
4.892000000000000171e+01,1.830591187159821397e-03
4.896000000000000085e+01,9.683691248200071520e-04
4.900000000000000000e+01,3.883795107402615229e-03
4.903999999999999915e+01,2.282521902204074499e-03
4.907999999999999829e+01,2.898575166656404845e-03
4.911999999999999744e+01,1.790087248259262642e-03
4.915999999999999659e+01,3.720149654918677301e-03
4.920000000000000284e+01,4.993261502825044329e-03
4.924000000000000199e+01,4.295467338845979782e-03
4.928000000000000114e+01,4.747413546282536374e-03
4.932000000000000028e+01,2.653599241325103972e-03
4.935999999999999943e+01,2.120137882037740826e-03
4.939999999999999858e+01,4.789475239577027990e-03
4.943999999999999773e+01,1.135430237785649450e-03
4.947999999999999687e+01,3.640586470213095800e-03
4.952000000000000313e+01,3.764229935465038344e-03
4.956000000000000227e+01,1.834850305014069189e-03
4.960000000000000142e+01,2.697661342996490220e-03
4.964000000000000057e+01,2.903528934293440195e-03
4.967999999999999972e+01,3.109431775298497885e-03
4.971999999999999886e+01,1.098069594346533706e-03
4.975999999999999801e+01,3.028612255257853453e-03
4.979999999999999716e+01,3.563113749617832782e-03
4.984000000000000341e+01,3.604919542510821254e-03
4.988000000000000256e+01,2.579174486876663168e-03
4.992000000000000171e+01,3.688647222246695632e-03
4.996000000000000085e+01,3.812692658423032146e-03
5.000000000000000000e+01,2.622822417036264377e-03
5.003999999999999915e+01,2.172093550394233602e-03
5.007999999999999829e+01,2.953240242430030249e-03
5.011999999999999744e+01,2.831084477708768581e-03
5.015999999999999659e+01,2.544727208854300708e-03
5.020000000000000284e+01,3.408125182102191963e-03
5.024000000000000199e+01,3.450344894478078565e-03
5.028000000000000114e+01,3.081998273684782592e-03
5.032000000000000028e+01,3.863408834648654477e-03
5.035999999999999943e+01,3.002420512092813468e-03
5.039999999999999858e+01,1.402378771101591998e-03
5.043999999999999773e+01,2.676663532357565715e-03
5.047999999999999687e+01,3.294018424511604808e-03
5.052000000000000313e+01,4.075666656417806753e-03
5.056000000000000227e+01,1.490351856727040441e-03
5.060000000000000142e+01,3.503933526325081482e-03
5.064000000000000057e+01,6.723528452848745148e-04
5.067999999999999972e+01,3.507259257629917817e-03
5.071999999999999886e+01,2.975205224584388710e-03
5.075999999999999801e+01,4.742627072587090979e-03
5.079999999999999716e+01,4.703412636677145597e-03
5.084000000000000341e+01,3.514540613248153672e-03
5.088000000000000256e+01,5.035757691673416539e-03
5.092000000000000171e+01,3.107895301235847306e-03
5.096000000000000085e+01,1.672822387539005685e-03
5.100000000000000000e+01,4.015429846344465044e-03
5.103999999999999915e+01,3.730182338244366833e-03
5.107999999999999829e+01,3.773481734079301656e-03
5.111999999999999744e+01,3.652595143019348334e-03
5.115999999999999659e+01,3.449645467846373069e-03
5.120000000000000284e+01,2.836144330190962324e-03
5.124000000000000199e+01,1.647847864144223002e-03
5.128000000000000114e+01,1.198712815941743422e-03
5.132000000000000028e+01,2.638451419358599486e-03
5.135999999999999943e+01,5.145841758643913272e-03
5.139999999999999858e+01,3.382937825383054362e-03
5.143999999999999773e+01,2.934053689784586923e-03
5.147999999999999687e+01,3.306456461018626638e-03
5.152000000000000313e+01,1.543745561347769496e-03
5.156000000000000227e+01,3.230235060980573593e-03
5.160000000000000142e+01,3.438590232653695403e-03
5.164000000000000057e+01,4.221868128674942378e-03
5.167999999999999972e+01,2.130934633925444816e-03
5.171999999999999886e+01,1.600392231390282763e-03
5.175999999999999801e+01,4.026319923535260845e-03
5.179999999999999716e+01,3.578038164564300086e-03
5.184000000000000341e+01,3.622560106469219655e-03
5.188000000000000256e+01,2.763808039887352078e-03
5.192000000000000171e+01,1.823005173672813698e-03
5.196000000000000085e+01,3.428064353745172241e-03
5.200000000000000000e+01,4.294095977446061967e-03
5.203999999999999915e+01,4.995956484938806307e-03
5.207999999999999829e+01,2.330878529795288572e-03
5.211999999999999744e+01,3.525621306829060473e-03
5.215999999999999659e+01,3.406483320085983840e-03
5.220000000000000284e+01,3.780154853183158650e-03
5.224000000000000199e+01,3.414802709218452831e-03
5.228000000000000114e+01,3.131650097045934802e-03
5.232000000000000028e+01,2.848575406986960518e-03
5.235999999999999943e+01,4.290146666428362905e-03
5.239999999999999858e+01,3.103884941718539417e-03
5.243999999999999773e+01,5.366837840447517306e-03
5.247999999999999687e+01,2.127680080069722836e-03
5.252000000000000313e+01,2.830471773615439272e-03
5.256000000000000227e+01,2.794244962512033598e-03
5.260000000000000142e+01,2.758100599383352721e-03
5.264000000000000057e+01,2.393550305860015631e-03
5.267999999999999972e+01,1.454227959802841365e-03
5.271999999999999886e+01,3.964124763045659069e-03
5.275999999999999801e+01,4.338927938483112638e-03
5.279999999999999716e+01,2.496515876436565615e-03
5.284000000000000341e+01,2.050268497588557219e-03
5.288000000000000256e+01,3.000186448490692673e-03
5.292000000000000171e+01,2.800480432556856809e-03
5.296000000000000085e+01,3.832696527015855888e-03
5.300000000000000000e+01,3.304678666590819998e-03
5.303999999999999915e+01,4.419195490813082779e-03
5.307999999999999829e+01,3.316501603412499131e-03
5.311999999999999744e+01,4.595443999834636362e-03
5.315999999999999659e+01,3.739299233967405094e-03
5.320000000000000284e+01,3.211735639269841340e-03
5.324000000000000199e+01,5.147932524280049958e-03
5.328000000000000114e+01,2.813865524669173154e-03
5.332000000000000028e+01,4.668127678704505137e-03
5.335999999999999943e+01,4.058816878287433913e-03
5.339999999999999858e+01,1.889278588502296035e-03
5.343999999999999773e+01,4.482927185629899738e-03
5.347999999999999687e+01,3.873904461887650152e-03
5.352000000000000313e+01,4.332568387800102977e-03
5.356000000000000227e+01,1.999173567097163422e-03
5.360000000000000142e+01,1.718933763915109084e-03
5.364000000000000057e+01,3.409727368575295701e-03
5.367999999999999972e+01,2.883319959886612542e-03
5.371999999999999886e+01,5.067047558215622902e-03
5.375999999999999801e+01,6.347531535982942931e-03
5.379999999999999716e+01,2.043803934615952191e-03
5.384000000000000341e+01,3.899348041591921710e-03
5.388000000000000256e+01,3.373449855516495038e-03
5.392000000000000171e+01,6.707401496440233528e-03
5.396000000000000085e+01,4.046532863284825823e-03
5.400000000000000000e+01,3.849436994317517562e-03
5.403999999999999915e+01,2.420613005728715957e-03
5.407999999999999829e+01,4.851641430345459208e-03
5.411999999999999744e+01,5.804576259753160480e-03
5.415999999999999659e+01,4.293951065740395610e-03
5.420000000000000284e+01,4.836490587522493043e-03
5.424000000000000199e+01,4.722161016052837772e-03
5.428000000000000114e+01,3.622473972961988073e-03
5.432000000000000028e+01,3.426241998097302299e-03
5.435999999999999943e+01,4.461954762931389686e-03
5.439999999999999858e+01,3.855333945957087685e-03
5.443999999999999773e+01,3.987925624403245058e-03
5.447999999999999687e+01,4.613363676130698837e-03
5.452000000000000313e+01,3.103736548323094129e-03
5.456000000000000227e+01,2.908179649202473349e-03
5.460000000000000142e+01,5.587016493695170886e-03
5.464000000000000057e+01,4.241978205011867273e-03
5.467999999999999972e+01,5.853457209275316105e-03
5.471999999999999886e+01,3.933795910847449895e-03
5.475999999999999801e+01,5.463386735851051730e-03
5.479999999999999716e+01,6.582484288015977812e-03
5.484000000000000341e+01,4.088321220914123595e-03
5.488000000000000256e+01,5.946757035431281604e-03
5.492000000000000171e+01,4.274055780015083468e-03
5.496000000000000085e+01,4.818776037334593192e-03
5.500000000000000000e+01,4.131783692270940209e-03
5.503999999999999915e+01,4.594624822052963305e-03
5.507999999999999829e+01,3.989999155015500586e-03
5.511999999999999744e+01,5.027941793308398320e-03
5.515999999999999659e+01,4.177196365582531469e-03
5.520000000000000284e+01,5.954487611053204191e-03
5.524000000000000199e+01,5.350358546226794201e-03
5.528000000000000114e+01,3.596643661108670474e-03
5.532000000000000028e+01,5.620678976065354888e-03
5.535999999999999943e+01,5.427540432840261692e-03
5.539999999999999858e+01,4.413307033899226302e-03
5.543999999999999773e+01,4.056180037938347284e-03
5.547999999999999687e+01,4.684649116430190940e-03
5.552000000000000313e+01,5.641736866084371381e-03
5.556000000000000227e+01,5.284998808847515828e-03
5.560000000000000142e+01,4.189291384882942726e-03
5.564000000000000057e+01,3.422204571735493021e-03
5.567999999999999972e+01,6.514996033857524751e-03
5.571999999999999886e+01,5.419685307236141517e-03
5.575999999999999801e+01,5.556341949619430197e-03
5.579999999999999716e+01,4.297054408191007709e-03
5.584000000000000341e+01,4.187613272640207905e-03
5.588000000000000256e+01,5.063774677058105814e-03
5.592000000000000171e+01,3.804893531246840953e-03
5.596000000000000085e+01,4.845572318191479488e-03
5.600000000000000000e+01,4.983043691463882180e-03
5.603999999999999915e+01,4.710041834997140756e-03
5.607999999999999829e+01,4.190811907803368951e-03
5.611999999999999744e+01,7.449345111716364036e-03
5.615999999999999659e+01,5.780682932881300515e-03
5.620000000000000284e+01,6.329462309881478226e-03
5.624000000000000199e+01,5.892915896288752724e-03
5.628000000000000114e+01,5.702878182108461758e-03
5.632000000000000028e+01,5.595105301431719386e-03
5.635999999999999943e+01,5.980209181961369802e-03
5.639999999999999858e+01,6.036967907946496487e-03
5.643999999999999773e+01,6.586604688241198650e-03
5.647999999999999687e+01,6.479408582173612138e-03
5.652000000000000313e+01,6.865091823518780327e-03
5.656000000000000227e+01,5.690598653072082361e-03
5.660000000000000142e+01,4.680497098220377621e-03
5.664000000000000057e+01,4.820254880278213548e-03
5.667999999999999972e+01,5.124405571034235801e-03
5.671999999999999886e+01,6.906905916723990631e-03
5.675999999999999801e+01,5.815276983695906281e-03
5.679999999999999716e+01,5.873509973783757471e-03
5.684000000000000341e+01,6.096138458776161236e-03
5.688000000000000256e+01,8.207730466059970018e-03
5.692000000000000171e+01,7.773684805753295138e-03
5.696000000000000085e+01,4.794002124407736182e-03
5.700000000000000000e+01,5.263607773383111033e-03
5.703999999999999915e+01,5.651245381330276436e-03
5.707999999999999829e+01,7.352993950715065209e-03
5.711999999999999744e+01,7.412452903800119744e-03
5.715999999999999659e+01,6.486600936979028571e-03
5.720000000000000284e+01,6.053639308947852092e-03
5.724000000000000199e+01,6.359935434948961984e-03
5.728000000000000114e+01,5.927289349389457986e-03
5.732000000000000028e+01,6.973002617037661263e-03
5.735999999999999943e+01,6.540674660156202934e-03
5.739999999999999858e+01,8.490052168118414691e-03
5.743999999999999773e+01,7.893800413660896631e-03
5.747999999999999687e+01,7.708321267624247165e-03
5.752000000000000313e+01,5.962681227034095574e-03
5.756000000000000227e+01,7.091482774875462053e-03
5.760000000000000142e+01,7.891958564720242056e-03
5.764000000000000057e+01,6.393175093594053587e-03
5.767999999999999972e+01,6.208512282179467524e-03
5.771999999999999886e+01,7.337970777028060901e-03
5.775999999999999801e+01,6.414538719251221092e-03
5.779999999999999716e+01,6.066128954768535558e-03
5.784000000000000341e+01,6.456986642592073798e-03
5.788000000000000256e+01,5.944667304668470841e-03
5.792000000000000171e+01,7.567695068068550079e-03
5.796000000000000085e+01,6.891468742910412427e-03
5.800000000000000000e+01,8.761202093330398150e-03
5.803999999999999915e+01,8.824416185676881713e-03
5.807999999999999829e+01,8.395067766185456207e-03
5.811999999999999744e+01,8.130135531249709294e-03
5.815999999999999659e+01,6.551419515276730304e-03
5.820000000000000284e+01,8.832622507323858313e-03
5.824000000000000199e+01,8.732453680443709454e-03
5.828000000000000114e+01,7.811236549562639367e-03
5.832000000000000028e+01,8.532639448139733504e-03
5.835999999999999943e+01,8.350873079588835499e-03
5.839999999999999858e+01,6.691082296849809596e-03
5.843999999999999773e+01,8.069991839137955619e-03
5.847999999999999687e+01,7.560266979189938716e-03
5.852000000000000313e+01,8.036187331616054252e-03
5.856000000000000227e+01,9.908364824119152495e-03
5.860000000000000142e+01,8.660076010587153608e-03
5.864000000000000057e+01,9.136534655156305917e-03
5.867999999999999972e+01,8.545584692549759026e-03
5.871999999999999886e+01,9.186649943766106788e-03
5.875999999999999801e+01,6.871495987614201391e-03
5.879999999999999716e+01,7.841414944144609392e-03
5.884000000000000341e+01,8.400905929547688999e-03
5.888000000000000256e+01,8.960580871526322572e-03
5.892000000000000171e+01,8.042239804487569949e-03
5.896000000000000085e+01,9.423507161574530902e-03
5.900000000000000000e+01,8.177048215523848029e-03
5.903999999999999915e+01,9.722932524083547495e-03
5.907999999999999829e+01,1.192598207181875224e-02
5.911999999999999744e+01,9.612495362775379595e-03
5.915999999999999659e+01,9.188009029464431349e-03
5.920000000000000284e+01,8.106733775299804906e-03
5.924000000000000199e+01,9.817805008503570005e-03
5.928000000000000114e+01,9.722377026733335093e-03
5.932000000000000028e+01,9.216528832454955536e-03
5.935999999999999943e+01,9.367850403213274016e-03
5.939999999999999858e+01,9.929975616869146648e-03
5.943999999999999773e+01,9.260459995369155553e-03
5.947999999999999687e+01,9.083871566100156641e-03
5.952000000000000313e+01,9.071721950692751557e-03
5.956000000000000227e+01,8.731278258317024324e-03
5.960000000000000142e+01,9.622864003899328847e-03
5.964000000000000057e+01,8.872200865932534236e-03
5.967999999999999972e+01,1.050328004625043256e-02
5.971999999999999886e+01,1.155970096711565753e-02
5.975999999999999801e+01,1.122024171277731866e-02
5.979999999999999716e+01,1.005975872339877342e-02
5.984000000000000341e+01,9.802820026366825673e-03
5.988000000000000256e+01,1.012093724331211177e-02
5.992000000000000171e+01,1.117835553324669079e-02
5.996000000000000085e+01,1.182536395549866649e-02
