2.003999999999999915e+01,6.205506326461118771e-02
2.007999999999999829e+01,7.574257519762001012e-02
2.012000000000000099e+01,1.976513872274636985e-01
2.016000000000000014e+01,8.666146528769973212e-02
2.019999999999999929e+01,1.539484697883028615e-02
2.023999999999999844e+01,1.633162911661996120e-01
2.028000000000000114e+01,9.477852506675442379e-02
2.032000000000000028e+01,2.084399045697640229e-01
2.035999999999999943e+01,2.919566338603039046e-01
2.039999999999999858e+01,4.667743829527339766e-02
2.044000000000000128e+01,9.867403067627000812e-02
2.048000000000000043e+01,2.109433355231751794e-01
2.051999999999999957e+01,1.492221973186672601e-01
2.055999999999999872e+01,1.066749747420863148e-01
2.060000000000000142e+01,2.576334987665449341e-02
2.064000000000000057e+01,6.951256181092080322e-02
2.067999999999999972e+01,1.091463735953307340e-01
2.071999999999999886e+01,1.076758670340979690e-01
2.076000000000000156e+01,2.747049205833578256e-01
2.080000000000000071e+01,1.677364615530587133e-01
2.083999999999999986e+01,9.501148706010000000e-02
2.087999999999999901e+01,9.488887788567507142e-02
2.092000000000000171e+01,9.613071629900718507e-02
2.096000000000000085e+01,1.850444824302729663e-01
2.100000000000000000e+01,2.177843795345220657e-01
2.103999999999999915e+01,1.505116895089705642e-01
2.107999999999999829e+01,1.640611312003639743e-01
2.112000000000000099e+01,9.677742810555610420e-02
2.116000000000000014e+01,1.007261394619001632e-01
2.119999999999999929e+01,1.238487872782183252e-01
2.123999999999999844e+01,1.908046525217027001e-01
2.128000000000000114e+01,2.221360575731825826e-01
2.132000000000000028e+01,3.289840624572322458e-02
2.135999999999999943e+01,6.010893390778201950e-02
2.139999999999999858e+01,1.421123640562164114e-01
2.144000000000000128e+01,1.268431400576778556e-01
2.148000000000000043e+01,1.499273013727261961e-01
2.151999999999999957e+01,1.113577706611954821e-01
2.155999999999999872e+01,2.330680662118161939e-01
2.160000000000000142e+01,7.667099527873502685e-02
2.164000000000000057e+01,1.285023525607962014e-01
2.167999999999999972e+01,6.525158374970746467e-02
2.171999999999999886e+01,7.460320759921129641e-02
2.176000000000000156e+01,1.044987461181261790e-01
2.180000000000000071e+01,8.233032159427962349e-02
2.183999999999999986e+01,2.382512122047985015e-01
2.187999999999999901e+01,2.612805034739875687e-01
2.192000000000000171e+01,1.815573162946408359e-01
2.196000000000000085e+01,1.525171698855096458e-01
2.200000000000000000e+01,1.782699454927964278e-01
2.203999999999999915e+01,2.410061646603088581e-01
2.207999999999999829e+01,2.105796304570929922e-01
2.212000000000000099e+01,1.842575028645206947e-01
2.216000000000000014e+01,2.414974621057667248e-01
2.219999999999999929e+01,1.192671930541214370e-01
2.223999999999999844e+01,1.504669724916782025e-01
2.228000000000000114e+01,1.556320441570986646e-01
2.232000000000000028e+01,1.772311687757725795e-01
2.235999999999999943e+01,2.234841075380980535e-01
2.239999999999999858e+01,2.039735029737110572e-01
2.244000000000000128e+01,1.515783959381994950e-01
2.248000000000000043e+01,1.567161465059387637e-01
2.251999999999999957e+01,1.686982366671491984e-01
2.255999999999999872e+01,2.039641875006265592e-01
2.260000000000000142e+01,1.433274819266126821e-01
2.264000000000000057e+01,1.237841193870680145e-01
2.267999999999999972e+01,1.878028606073774975e-01
2.271999999999999886e+01,2.655157478381698910e-01
2.276000000000000156e+01,3.514429424558492832e-01
2.280000000000000071e+01,1.140541302637264054e-01
2.283999999999999986e+01,2.040803037285910393e-01
2.287999999999999901e+01,1.927239899743868334e-01
2.292000000000000171e+01,3.046586272526430883e-01
2.296000000000000085e+01,2.234234611620657118e-01
2.300000000000000000e+01,2.791788485219499072e-01
2.303999999999999915e+01,5.819687625163454808e-02
2.307999999999999829e+01,2.961460556646806075e-01
2.312000000000000099e+01,2.121491986653467332e-01
2.316000000000000014e+01,1.706156616079173571e-01
2.319999999999999929e+01,8.797788692902108743e-02
2.323999999999999844e+01,1.738397530847932415e-01
2.328000000000000114e+01,1.405096652833301707e-01
2.332000000000000028e+01,1.962215419993683929e-01
2.335999999999999943e+01,1.560307870459688717e-01
2.339999999999999858e+01,2.418709187118620874e-01
2.344000000000000128e+01,2.126289815727313015e-01
2.348000000000000043e+01,3.135278136010985484e-01
2.351999999999999957e+01,1.842679409908841437e-01
2.355999999999999872e+01,2.509069192593515463e-01
2.360000000000000142e+01,3.613791917731533077e-01
2.364000000000000057e+01,2.608722032939769231e-01
2.367999999999999972e+01,1.603597922593528180e-01
2.371999999999999886e+01,2.598561172556228538e-01
2.376000000000000156e+01,3.155083028956666147e-01
2.380000000000000071e+01,2.231993918951212241e-01
2.383999999999999986e+01,3.295292608500775544e-01
2.387999999999999901e+01,1.714514373494895605e-01
2.392000000000000171e+01,3.380487146971654644e-01
2.396000000000000085e+01,1.895497828815202734e-01
2.400000000000000000e+01,2.410595962107862089e-01
2.403999999999999915e+01,3.158533183864237204e-01
2.407999999999999829e+01,2.646053127378866776e-01
2.412000000000000099e+01,2.174617788001342311e-01
2.416000000000000014e+01,3.278582357919179180e-01
2.419999999999999929e+01,2.354952099071597749e-01
2.423999999999999844e+01,2.869725777419490087e-01
2.428000000000000114e+01,2.096683042997771751e-01
2.432000000000000028e+01,2.748344671997585698e-01
2.435999999999999943e+01,1.810798718359949988e-01
2.439999999999999858e+01,3.544620737257498377e-01
2.444000000000000128e+01,2.743962812391948503e-01
2.448000000000000043e+01,2.107646120140468371e-01
2.451999999999999957e+01,2.032959068128943059e-01
2.455999999999999872e+01,3.944660050032935406e-01
2.460000000000000142e+01,4.075359130023713528e-01
2.464000000000000057e+01,3.192233910705050692e-01
2.467999999999999972e+01,3.254327178498322426e-01
2.471999999999999886e+01,2.946477364280001843e-01
2.476000000000000156e+01,2.857767273071926684e-01
2.480000000000000071e+01,3.358086112871987994e-01
2.483999999999999986e+01,4.241939899490294041e-01
2.487999999999999901e+01,3.481787873475544748e-01
2.492000000000000171e+01,3.365463216785002376e-01
2.496000000000000085e+01,3.112088753040954114e-01
2.500000000000000000e+01,3.502541684661184540e-01
2.503999999999999915e+01,2.248988855728458747e-01
2.507999999999999829e+01,3.173618627367560951e-01
2.512000000000000099e+01,2.824131859471640249e-01
2.516000000000000014e+01,4.241839723767744652e-01
2.519999999999999929e+01,2.508585900051495399e-01
2.523999999999999844e+01,3.569996720616988584e-01
2.528000000000000114e+01,4.384761039777234637e-01
2.532000000000000028e+01,3.528120489896737211e-01
2.535999999999999943e+01,2.876920258512914441e-01
2.539999999999999858e+01,3.212037548043532587e-01
2.544000000000000128e+01,2.889520393829159151e-01
2.548000000000000043e+01,4.060205979687112054e-01
2.551999999999999957e+01,3.710182359558419907e-01
2.555999999999999872e+01,3.565599123026543804e-01
2.560000000000000142e+01,2.256496301711949648e-01
2.564000000000000057e+01,4.262643047811206509e-01
2.567999999999999972e+01,3.186326261208433097e-01
2.571999999999999886e+01,3.123726299308317578e-01
2.576000000000000156e+01,2.471989996893422803e-01
2.580000000000000071e+01,3.765543332572927060e-01
2.583999999999999986e+01,3.976774760473872905e-01
2.587999999999999901e+01,2.434403902730498115e-01
2.592000000000000171e+01,3.029117119537551583e-01
2.596000000000000085e+01,4.445752841771499209e-01
2.600000000000000000e+01,3.149814330441532140e-01
2.603999999999999915e+01,2.826493948532459166e-01
2.607999999999999829e+01,2.968906515946488356e-01
2.612000000000000099e+01,4.070237639007463493e-01
2.616000000000000014e+01,3.239871769982384242e-01
2.619999999999999929e+01,2.930037288596466505e-01
2.623999999999999844e+01,2.921540610845816399e-01
2.628000000000000114e+01,3.419875746960373553e-01
2.632000000000000028e+01,3.657865120376443957e-01
2.635999999999999943e+01,3.183421950252193766e-01
2.639999999999999858e+01,3.284308632123227323e-01
2.644000000000000128e+01,3.028952391657873666e-01
2.648000000000000043e+01,2.924238434994012592e-01
2.651999999999999957e+01,3.203059971989577481e-01
2.655999999999999872e+01,1.961172641519232651e-01
2.660000000000000142e+01,2.678274809357857889e-01
2.664000000000000057e+01,3.176130118100194966e-01
2.667999999999999972e+01,3.016351386718423289e-01
2.671999999999999886e+01,4.185380601261918798e-01
2.676000000000000156e+01,2.491140231668083627e-01
2.680000000000000071e+01,3.180577019717221732e-01
2.683999999999999986e+01,3.774063412096176351e-01
2.687999999999999901e+01,3.189331036519331142e-01
2.692000000000000171e+01,3.234727081454122355e-01
2.696000000000000085e+01,2.663587976846986671e-01
2.700000000000000000e+01,2.654079319721570629e-01
2.703999999999999915e+01,4.877552300405346153e-01
2.707999999999999829e+01,3.936364605204115130e-01
2.712000000000000099e+01,3.419811398404721259e-01
2.716000000000000014e+01,3.766279887075075217e-01
2.719999999999999929e+01,3.592110503021624379e-01
2.723999999999999844e+01,3.787777247174129447e-01
2.728000000000000114e+01,3.832695339620781350e-01
2.732000000000000028e+01,4.466643183337357659e-01
2.735999999999999943e+01,3.922372415338487572e-01
2.739999999999999858e+01,4.104127422789555224e-01
2.744000000000000128e+01,3.915940233590959885e-01
2.748000000000000043e+01,5.029162038070169594e-01
2.751999999999999957e+01,5.265556478821942221e-01
2.755999999999999872e+01,5.282704359938077410e-01
2.760000000000000142e+01,6.477964875466153405e-01
2.764000000000000057e+01,4.851054892739510294e-01
2.767999999999999972e+01,5.306431158188559261e-01
2.771999999999999886e+01,6.611129701573745798e-01
2.776000000000000156e+01,5.504645780184160841e-01
2.780000000000000071e+01,5.343381361468733104e-01
2.783999999999999986e+01,6.168435257889468559e-01
2.787999999999999901e+01,4.637105127851505193e-01
2.792000000000000171e+01,6.051136112391128918e-01
2.796000000000000085e+01,7.341817866193373066e-01
2.800000000000000000e+01,6.152819234271033055e-01
2.803999999999999915e+01,7.457094962124515281e-01
2.807999999999999829e+01,6.898172321923273786e-01
2.812000000000000099e+01,8.846223667351905684e-01
2.816000000000000014e+01,7.889907084902212375e-01
2.819999999999999929e+01,8.906280121376610737e-01
2.823999999999999844e+01,8.360846037784305240e-01
2.828000000000000114e+01,8.651034814594538158e-01
2.832000000000000028e+01,8.434285683055769978e-01
2.835999999999999943e+01,8.354479847445822616e-01
2.839999999999999858e+01,7.617040531572980555e-01
2.844000000000000128e+01,9.537270903444183823e-01
2.848000000000000043e+01,8.457236252899317241e-01
2.851999999999999957e+01,8.993701730274904493e-01
2.855999999999999872e+01,9.694509768307439934e-01
2.860000000000000142e+01,8.847210403267518064e-01
2.864000000000000057e+01,1.000000000000000000e+00
2.867999999999999972e+01,9.878674215979987849e-01
2.871999999999999886e+01,8.894221058647389100e-01
2.876000000000000156e+01,8.717991718329666240e-01
2.880000000000000071e+01,8.884199814370997705e-01
2.883999999999999986e+01,8.502371371881719542e-01
2.887999999999999901e+01,8.079391596999689895e-01
2.892000000000000171e+01,7.231671707953055694e-01
2.896000000000000085e+01,7.027780503253499012e-01
2.900000000000000000e+01,6.755338805593287255e-01
2.903999999999999915e+01,7.208923417204176065e-01
2.907999999999999829e+01,5.018432796863313561e-01
2.912000000000000099e+01,7.074765664030447931e-01
2.916000000000000014e+01,6.761015321565800873e-01
2.919999999999999929e+01,5.830730558680808917e-01
2.923999999999999844e+01,6.160756562912890200e-01
2.928000000000000114e+01,6.107141369602618886e-01
2.932000000000000028e+01,5.779481790281983944e-01
2.935999999999999943e+01,6.218947423834662036e-01
2.939999999999999858e+01,5.493894709507325391e-01
2.944000000000000128e+01,5.015382441161541083e-01
2.948000000000000043e+01,4.947805829585273374e-01
2.951999999999999957e+01,4.140398503422934584e-01
2.955999999999999872e+01,3.634330061558213587e-01
2.960000000000000142e+01,4.703663299712719237e-01
2.964000000000000057e+01,4.855071064759290400e-01
2.967999999999999972e+01,5.074924556325641767e-01
2.971999999999999886e+01,4.486449399336090438e-01
2.976000000000000156e+01,4.144514792488312449e-01
2.980000000000000071e+01,3.816227551964411768e-01
2.983999999999999986e+01,4.268765280368166382e-01
2.987999999999999901e+01,4.433559205227962652e-01
2.992000000000000171e+01,3.269439753700155160e-01
2.996000000000000085e+01,4.475298888583573720e-01
3.000000000000000000e+01,4.831730666609298508e-01
3.003999999999999915e+01,3.009873918839789941e-01
3.007999999999999829e+01,3.434699398215628197e-01
3.012000000000000099e+01,4.311559542123423183e-01
3.016000000000000014e+01,3.352621194645968861e-01
3.019999999999999929e+01,2.790919138484548312e-01
3.023999999999999844e+01,4.366302563036619788e-01
3.028000000000000114e+01,2.626330755352010993e-01
3.032000000000000028e+01,3.297436450700856891e-01
3.035999999999999943e+01,3.256110904512219961e-01
3.039999999999999858e+01,2.762646526272045655e-01
3.044000000000000128e+01,2.570521318770102592e-01
3.048000000000000043e+01,2.775632493724399796e-01
3.051999999999999957e+01,2.966992069735097659e-01
3.055999999999999872e+01,3.487090055172109571e-01
3.060000000000000142e+01,3.733144071239659634e-01
3.064000000000000057e+01,3.321565336165908100e-01
3.067999999999999972e+01,2.334551461854855181e-01
3.071999999999999886e+01,3.594220023009598863e-01
3.076000000000000156e+01,3.278382684545426140e-01
3.080000000000000071e+01,3.483078231023675198e-01
3.083999999999999986e+01,2.715050295738865582e-01
3.087999999999999901e+01,3.001839664182360257e-01
3.092000000000000171e+01,3.507770760720460013e-01
3.096000000000000085e+01,2.506694021809760531e-01
3.100000000000000000e+01,2.012450633127632615e-01
3.103999999999999915e+01,3.449798988349629392e-01
3.107999999999999829e+01,3.585633544392849426e-01
3.112000000000000099e+01,1.241788730273699626e-01
3.116000000000000014e+01,2.089898882006355485e-01
3.119999999999999929e+01,2.746162858553945485e-01
3.123999999999999844e+01,2.922889076842601352e-01
3.128000000000000114e+01,2.222789155286480356e-01
3.132000000000000028e+01,5.910647076496276797e-02
3.135999999999999943e+01,1.712908096916856415e-01
3.139999999999999858e+01,2.615506176471175670e-01
3.144000000000000128e+01,2.723475767144806214e-01
3.148000000000000043e+01,1.242240092746032115e-01
3.151999999999999957e+01,2.130983512539585956e-01
3.155999999999999872e+01,2.471691279164446864e-01
3.160000000000000142e+01,2.236964206012661827e-01
3.164000000000000057e+01,2.070683497362041658e-01
3.167999999999999972e+01,2.192042763256544236e-01
3.171999999999999886e+01,1.806465227504456261e-01
3.176000000000000156e+01,2.955191275411142571e-01
3.180000000000000071e+01,2.487312962777659120e-01
3.183999999999999986e+01,2.731762271003272402e-01
3.187999999999999901e+01,1.647298840822682686e-01
3.192000000000000171e+01,2.275233843962915503e-01
3.196000000000000085e+01,1.533157335295016188e-01
3.200000000000000000e+01,1.640404497706279829e-01
3.203999999999999915e+01,2.021592152028931222e-01
3.207999999999999829e+01,2.169835118165154841e-01
3.211999999999999744e+01,1.304256219737240929e-01
3.215999999999999659e+01,2.315471030518266582e-01
3.220000000000000284e+01,1.641583611889438077e-01
3.224000000000000199e+01,2.255407136507790733e-01
3.228000000000000114e+01,1.691013650874180207e-01
3.232000000000000028e+01,1.414260348106145260e-01
3.235999999999999943e+01,1.507344840107684991e-01
3.239999999999999858e+01,1.024994752733143361e-01
3.243999999999999773e+01,2.172845669055822326e-01
3.247999999999999687e+01,2.649364833344505232e-01
3.252000000000000313e+01,2.125761863083330538e-01
3.256000000000000227e+01,2.081593551203838321e-01
3.260000000000000142e+01,1.448291125234408838e-01
3.264000000000000057e+01,1.349221782942703340e-01
3.267999999999999972e+01,1.743286737906760142e-01
3.271999999999999886e+01,2.246897208354737552e-01
3.275999999999999801e+01,2.133974417164894999e-01
3.279999999999999716e+01,1.733308772893163707e-01
3.284000000000000341e+01,1.702481079631348315e-01
3.288000000000000256e+01,1.630503355979613100e-01
3.292000000000000171e+01,1.010490421840154751e-01
3.296000000000000085e+01,1.650789465680410351e-01
3.300000000000000000e+01,1.441662129165094675e-01
3.303999999999999915e+01,1.492776010247874874e-01
3.307999999999999829e+01,2.338415514694606734e-01
3.311999999999999744e+01,1.677047886774065411e-01
3.315999999999999659e+01,1.467715912907645304e-01
3.320000000000000284e+01,1.778917605185351969e-01
3.324000000000000199e+01,1.542084191135559279e-01
3.328000000000000114e+01,1.839484069083943130e-01
3.332000000000000028e+01,1.643647266000865248e-01
3.335999999999999943e+01,1.927245381700040949e-01
3.339999999999999858e+01,1.758705641849802048e-01
3.343999999999999773e+01,1.973703648123902310e-01
3.347999999999999687e+01,1.024184634560880436e-01
3.352000000000000313e+01,1.718566576049834205e-01
3.356000000000000227e+01,1.467625120765652658e-01
3.360000000000000142e+01,1.682419062569895096e-01
3.364000000000000057e+01,2.239652016156633008e-01
3.367999999999999972e+01,2.084454808868236864e-01
3.371999999999999886e+01,1.038732656142802163e-01
3.375999999999999801e+01,1.308121141053624759e-01
3.379999999999999716e+01,1.495261095593191925e-01
3.384000000000000341e+01,1.463156534641581186e-01
3.388000000000000256e+01,9.378154749389089329e-02
3.392000000000000171e+01,1.453593108672701362e-01
3.396000000000000085e+01,1.667928667091425066e-01
3.400000000000000000e+01,7.725457741893729247e-02
3.403999999999999915e+01,1.644360403925637371e-01
3.407999999999999829e+01,1.255761010427229596e-01
3.411999999999999744e+01,1.168501985509670382e-01
3.415999999999999659e+01,7.661013505631865395e-02
3.420000000000000284e+01,2.322692687731068018e-01
3.424000000000000199e+01,1.317408071414820081e-01
3.428000000000000114e+01,1.887526658461119444e-01
3.432000000000000028e+01,1.060235302252961892e-01
3.435999999999999943e+01,0.000000000000000000e+00
3.439999999999999858e+01,1.775531123057250971e-01
3.443999999999999773e+01,5.233999640546727755e-02
3.447999999999999687e+01,1.586450463470533978e-01
3.452000000000000313e+01,1.293189884174070492e-01
3.456000000000000227e+01,1.082076219654839189e-01
3.460000000000000142e+01,2.323069464332419842e-01
3.464000000000000057e+01,9.884872859121629496e-02
3.467999999999999972e+01,5.032296509129714074e-02
3.471999999999999886e+01,1.346782565844713286e-01
3.475999999999999801e+01,1.573802870140055543e-01
3.479999999999999716e+01,6.226069844452167268e-02
3.484000000000000341e+01,1.548205680301222853e-01
3.488000000000000256e+01,6.106082215073219133e-02
3.492000000000000171e+01,6.182325829526272298e-02
3.496000000000000085e+01,1.351885180633234096e-01
3.500000000000000000e+01,1.619700843751567254e-01
3.503999999999999915e+01,1.312082786815685631e-01
3.507999999999999829e+01,6.345250200555564712e-02
3.511999999999999744e+01,1.477572330822582991e-01
3.515999999999999659e+01,5.807199764058634806e-02
3.520000000000000284e+01,1.163373926114373569e-01
3.524000000000000199e+01,1.211693020310795205e-01
3.528000000000000114e+01,1.588752060296882707e-01
3.532000000000000028e+01,1.088986275461057557e-01
3.535999999999999943e+01,1.986529247946594301e-01
3.539999999999999858e+01,6.235878404367296152e-02
3.543999999999999773e+01,1.041544011080163118e-01
3.547999999999999687e+01,1.856738191683376393e-01
3.552000000000000313e+01,1.671811214238856924e-01
3.556000000000000227e+01,1.980019471492146521e-01
3.560000000000000142e+01,1.493600593947693178e-01
3.564000000000000057e+01,2.377091365236813914e-01
3.567999999999999972e+01,1.986469034278403600e-01
3.571999999999999886e+01,1.677993995678048467e-01
3.575999999999999801e+01,1.972251055387610474e-01
3.579999999999999716e+01,9.649958522817324302e-02
3.584000000000000341e+01,1.300251163481581373e-01
3.588000000000000256e+01,1.416262623211693161e-01
3.592000000000000171e+01,1.134935446910166068e-01
3.596000000000000085e+01,1.017953239970831592e-01
3.600000000000000000e+01,1.311908812065644414e-01
3.603999999999999915e+01,1.235924986816885618e-01
3.607999999999999829e+01,1.762673364038263857e-01
3.611999999999999744e+01,1.179703980000368913e-01
3.615999999999999659e+01,1.199466824472676107e-01
3.620000000000000284e+01,2.315147503779041160e-01
3.624000000000000199e+01,1.499134472046490529e-01
3.628000000000000114e+01,2.148928496165933844e-01
3.632000000000000028e+01,1.017724433240475707e-01
3.635999999999999943e+01,1.256430253509100148e-01
3.639999999999999858e+01,1.453987189150300896e-01
3.643999999999999773e+01,1.610395253184104258e-01
3.647999999999999687e+01,1.629757259932578806e-01
3.652000000000000313e+01,1.183282826879849398e-01
3.656000000000000227e+01,2.010821143423379975e-01
3.660000000000000142e+01,1.509448257924053127e-01
3.664000000000000057e+01,1.775202954943206346e-01
3.667999999999999972e+01,9.175404731694894456e-02
3.671999999999999886e+01,9.914007977222576151e-02
3.675999999999999801e+01,1.243305951851789160e-01
3.679999999999999716e+01,1.467761951368173057e-01
3.684000000000000341e+01,1.500373611523495854e-01
3.688000000000000256e+01,1.409638944407765881e-01
3.692000000000000171e+01,1.962735552624755297e-01
3.696000000000000085e+01,1.008826278397196713e-01
3.700000000000000000e+01,9.590407020083324685e-02
3.703999999999999915e+01,1.525687240384281662e-01
3.707999999999999829e+01,1.640197121053427187e-01
3.711999999999999744e+01,1.823155149967624344e-01
3.715999999999999659e+01,1.238885751493169624e-01
3.720000000000000284e+01,2.476613303495253660e-01
3.724000000000000199e+01,1.549754273121205783e-01
3.728000000000000114e+01,2.527089818147719158e-01
3.732000000000000028e+01,1.586431603490076059e-01
3.735999999999999943e+01,1.015612811105562202e-01
3.739999999999999858e+01,1.417415845829994858e-01
3.743999999999999773e+01,1.586275937051804807e-01
3.747999999999999687e+01,1.289299900953098932e-01
3.752000000000000313e+01,1.896447731953455063e-01
3.756000000000000227e+01,1.708969066137452919e-01
3.760000000000000142e+01,8.912591142930746668e-02
3.764000000000000057e+01,1.553056260795654675e-01
3.767999999999999972e+01,1.913412542845803199e-01
3.771999999999999886e+01,1.314747182391765579e-01
3.775999999999999801e+01,1.209217772737094798e-01
3.779999999999999716e+01,9.666427354580210685e-02
3.784000000000000341e+01,1.915883265532142554e-01
3.788000000000000256e+01,1.399217012064363219e-01
3.792000000000000171e+01,2.225061949943774875e-01
3.796000000000000085e+01,7.493245416676201642e-02
3.800000000000000000e+01,1.040785945012577540e-01
3.803999999999999915e+01,1.880181789553080907e-01
3.807999999999999829e+01,9.385801199299263764e-02
3.811999999999999744e+01,1.462786105080071120e-01
3.815999999999999659e+01,1.712950581646116577e-01
3.820000000000000284e+01,1.264385968414236117e-01
3.824000000000000199e+01,1.021265866128150263e-01
3.828000000000000114e+01,1.312380683343787047e-01
3.832000000000000028e+01,8.225688509376040403e-02
3.835999999999999943e+01,1.250580758865073583e-01
3.839999999999999858e+01,1.966234828702431714e-01
3.843999999999999773e+01,1.339278695604237679e-01
3.847999999999999687e+01,1.465751144131832717e-01
3.852000000000000313e+01,1.318182201255587160e-01
3.856000000000000227e+01,1.608951070323290933e-01
3.860000000000000142e+01,1.653077773655201310e-01
3.864000000000000057e+01,1.272467526689401163e-01
3.867999999999999972e+01,1.234297932029665840e-01
3.871999999999999886e+01,1.428972204184063288e-01
3.875999999999999801e+01,1.185209965286841971e-01
3.879999999999999716e+01,7.770032246379411645e-02
3.884000000000000341e+01,1.081126383353096798e-01
3.888000000000000256e+01,1.220805066356631940e-01
3.892000000000000171e+01,1.935817676624324302e-01
3.896000000000000085e+01,1.801405846520676424e-01
3.900000000000000000e+01,1.447751180509505298e-01
3.903999999999999915e+01,1.162545287704747493e-01
3.907999999999999829e+01,1.562270172756228814e-01
3.911999999999999744e+01,1.071471870074493377e-01
3.915999999999999659e+01,1.991683161430816418e-01
3.920000000000000284e+01,1.596683696860116686e-01
3.924000000000000199e+01,1.133137072456016081e-01
3.928000000000000114e+01,2.039501281708074043e-01
3.932000000000000028e+01,1.822449171489134712e-01
3.935999999999999943e+01,1.468351941426897511e-01
3.939999999999999858e+01,1.771786393753138067e-01
3.943999999999999773e+01,2.157369349300070904e-01
3.947999999999999687e+01,1.570231635410070103e-01
3.952000000000000313e+01,1.120040850036799762e-01
3.956000000000000227e+01,1.025990603224214287e-01
3.960000000000000142e+01,1.383978106690313126e-01
3.964000000000000057e+01,1.906311777361218707e-01
3.967999999999999972e+01,2.045007635697140003e-01
3.971999999999999886e+01,1.142484903646316108e-01
3.975999999999999801e+01,1.239983966514114633e-01
3.979999999999999716e+01,8.853472570370321537e-02
3.984000000000000341e+01,2.640399953452256532e-01
3.988000000000000256e+01,1.710282133881398381e-01
3.992000000000000171e+01,1.191103369307463244e-01
3.996000000000000085e+01,9.732668742385160165e-02
4.000000000000000000e+01,2.687025039560050343e-01
4.003999999999999915e+01,1.838909139301568851e-01
4.007999999999999829e+01,1.716823141842020173e-01
4.011999999999999744e+01,9.782062784298796443e-02
4.015999999999999659e+01,1.773895732882458109e-01
4.020000000000000284e+01,2.117449545190446814e-01
4.024000000000000199e+01,2.296559324467770113e-01
4.028000000000000114e+01,1.626245093034691391e-01
4.032000000000000028e+01,2.545035630802431337e-01
4.035999999999999943e+01,2.011619792084022862e-01
4.039999999999999858e+01,1.341159172043054626e-01
4.043999999999999773e+01,2.328301359332969334e-01
4.047999999999999687e+01,1.904336008638805866e-01
4.052000000000000313e+01,1.672116311218063145e-01
4.056000000000000227e+01,1.617942680276770739e-01
4.060000000000000142e+01,4.403531465053926730e-02
4.064000000000000057e+01,2.413622864890544450e-01
4.067999999999999972e+01,2.633295115041872636e-01
4.071999999999999886e+01,2.606325889518910088e-01
4.075999999999999801e+01,2.223118402829715179e-01
4.079999999999999716e+01,1.798763463716219480e-01
4.084000000000000341e+01,2.470327869760074457e-01
4.088000000000000256e+01,3.374736845699591314e-01
4.092000000000000171e+01,2.840639227247350185e-01
4.096000000000000085e+01,2.881876200080713546e-01
4.100000000000000000e+01,3.142258182055835403e-01
4.103999999999999915e+01,3.238196391400856577e-01
4.107999999999999829e+01,2.895698844855908449e-01
4.111999999999999744e+01,3.772417132934466344e-01
4.115999999999999659e+01,4.018905293767167097e-01
4.120000000000000284e+01,4.881826923447639688e-01
4.124000000000000199e+01,3.333570476102895030e-01
4.128000000000000114e+01,3.073027914531746840e-01
4.132000000000000028e+01,3.250824063286509857e-01
4.135999999999999943e+01,3.771061736689242383e-01
4.139999999999999858e+01,2.770595373056576327e-01
4.143999999999999773e+01,3.208538545231576777e-01
4.147999999999999687e+01,3.125848492832913328e-01
4.152000000000000313e+01,2.125236834274748521e-01
4.156000000000000227e+01,1.741058761744598560e-01
4.160000000000000142e+01,1.740421091424574351e-01
4.164000000000000057e+01,1.958928638566755920e-01
4.167999999999999972e+01,1.780099424561373267e-01
4.171999999999999886e+01,1.436826659266381145e-01
4.175999999999999801e+01,2.586761933195260710e-01
4.179999999999999716e+01,2.681779693964880251e-01
4.184000000000000341e+01,2.091769149573143305e-01
4.188000000000000256e+01,1.953797097601704669e-01
4.192000000000000171e+01,2.391159949396557960e-01
4.196000000000000085e+01,2.129794935276143053e-01
4.200000000000000000e+01,2.457464450776070120e-01
4.203999999999999915e+01,2.031607727144805475e-01
4.207999999999999829e+01,2.085188760661974561e-01
4.211999999999999744e+01,1.522239579227963047e-01
4.215999999999999659e+01,2.178506570938201492e-01
4.220000000000000284e+01,1.834654578945437986e-01
4.224000000000000199e+01,1.723647599529303520e-01
4.228000000000000114e+01,1.434497651289965703e-01
4.232000000000000028e+01,1.419291541109288513e-01
4.235999999999999943e+01,1.924622078659239399e-01
4.239999999999999858e+01,2.197011287190077655e-01
4.243999999999999773e+01,1.181589994044183328e-01
4.247999999999999687e+01,1.659376974482675571e-01
4.252000000000000313e+01,2.013819463474107729e-01
4.256000000000000227e+01,2.464111071062440317e-01
4.260000000000000142e+01,1.941683024776053312e-01
4.264000000000000057e+01,1.980890516802466805e-01
4.267999999999999972e+01,2.554334360533719317e-01
4.271999999999999886e+01,1.976963791868394105e-01
4.275999999999999801e+01,1.481742807086118274e-01
4.279999999999999716e+01,1.808449809162670785e-01
4.284000000000000341e+01,1.258334434182638017e-01
4.288000000000000256e+01,8.177678817737293882e-02
4.292000000000000171e+01,1.925208145425499340e-01
4.296000000000000085e+01,2.210624470336748360e-01
4.300000000000000000e+01,1.687716469341510594e-01
4.303999999999999915e+01,1.246958143369512884e-01
4.307999999999999829e+01,2.299408286282326463e-01
4.311999999999999744e+01,1.461265757043087310e-01
4.315999999999999659e+01,1.540948530540904027e-01
4.320000000000000284e+01,2.195966624445912230e-01
4.324000000000000199e+01,2.165956868890561993e-01
4.328000000000000114e+01,1.259124879498938476e-01
4.332000000000000028e+01,1.667406639530353563e-01
4.335999999999999943e+01,2.294834176885193477e-01
4.339999999999999858e+01,2.031739919649855342e-01
4.343999999999999773e+01,1.549404271730138449e-01
4.347999999999999687e+01,2.382182425313576490e-01
4.352000000000000313e+01,1.392866036015221465e-01
4.356000000000000227e+01,2.006355070353980086e-01
4.360000000000000142e+01,2.030713571110601690e-01
4.364000000000000057e+01,2.082423542934909166e-01
4.367999999999999972e+01,2.161484998846930350e-01
4.371999999999999886e+01,1.459621562840964504e-01
4.375999999999999801e+01,1.182398031568639291e-01
4.379999999999999716e+01,2.014794408749756849e-01
4.384000000000000341e+01,1.052495546837304841e-01
4.388000000000000256e+01,1.391611016814291446e-01
4.392000000000000171e+01,1.182694856811351003e-01
4.396000000000000085e+01,1.069628271106305012e-01
4.400000000000000000e+01,1.751090863232946104e-01
4.403999999999999915e+01,1.500933069647875651e-01
4.407999999999999829e+01,1.716514084398657602e-01
4.411999999999999744e+01,1.644355930735570959e-01
4.415999999999999659e+01,1.695446616098512660e-01
4.420000000000000284e+01,1.787588554623529558e-01
4.424000000000000199e+01,2.879753746310341200e-01
4.428000000000000114e+01,1.053856657376261718e-01
4.432000000000000028e+01,2.173326021231393457e-01
4.435999999999999943e+01,1.484400715439324614e-01
4.439999999999999858e+01,2.699672302612864394e-01
4.443999999999999773e+01,1.572264853433440746e-01
4.447999999999999687e+01,2.992935514517468532e-01
4.452000000000000313e+01,1.276350376076849369e-01
4.456000000000000227e+01,1.696855379519875417e-01
4.460000000000000142e+01,1.569328974323458137e-01
4.464000000000000057e+01,1.222561569043516122e-01
4.467999999999999972e+01,1.327833567585863239e-01
4.471999999999999886e+01,2.227634978320407744e-01
4.475999999999999801e+01,1.825927042725871974e-01
4.479999999999999716e+01,2.177649745921604318e-01
4.484000000000000341e+01,1.885443919900098297e-01
4.488000000000000256e+01,2.004178763359033277e-01
4.492000000000000171e+01,2.287261492666516072e-01
4.496000000000000085e+01,2.131909729026773836e-01
4.500000000000000000e+01,1.140835090853969253e-01
4.503999999999999915e+01,2.012858754525239657e-01
4.507999999999999829e+01,2.487546763751359857e-01
4.511999999999999744e+01,1.784021942154609131e-01
4.515999999999999659e+01,1.505137480992494725e-01
4.520000000000000284e+01,1.828988190866983055e-01
4.524000000000000199e+01,2.330886490564244296e-01
4.528000000000000114e+01,1.476477213936812638e-01
4.532000000000000028e+01,2.786557526201553503e-01
4.535999999999999943e+01,2.233445095063823493e-01
4.539999999999999858e+01,2.255668700434849128e-01
4.543999999999999773e+01,2.044951966308922175e-01
4.547999999999999687e+01,1.204006511100203652e-01
4.552000000000000313e+01,1.719274320858068528e-01
4.556000000000000227e+01,1.165926241525340190e-01
4.560000000000000142e+01,1.927692653757268892e-01
4.564000000000000057e+01,1.401649605914732089e-01
4.567999999999999972e+01,1.683835882559073238e-01
4.571999999999999886e+01,9.111059220069307740e-02
4.575999999999999801e+01,1.494589304541542596e-01
4.579999999999999716e+01,1.913630463829436579e-01
4.584000000000000341e+01,2.031233414750683863e-01
4.588000000000000256e+01,1.587105773859402436e-01
4.592000000000000171e+01,2.170401132599096006e-01
4.596000000000000085e+01,2.383760322962249212e-01
4.600000000000000000e+01,1.761396964293050482e-01
4.603999999999999915e+01,2.371950641524840087e-01
4.607999999999999829e+01,2.297477393718283800e-01
4.611999999999999744e+01,1.853068029615303480e-01
4.615999999999999659e+01,1.764801352377685928e-01
4.620000000000000284e+01,1.909380976699505406e-01
4.624000000000000199e+01,1.505929726203042718e-01
4.628000000000000114e+01,1.705213998283951760e-01
4.632000000000000028e+01,1.986649013030429844e-01
4.635999999999999943e+01,1.199468399086881520e-01
4.639999999999999858e+01,2.302785729296367989e-01
4.643999999999999773e+01,1.241519471736243635e-01
4.647999999999999687e+01,1.824158387717292051e-01
4.652000000000000313e+01,2.160157715928158473e-01
4.656000000000000227e+01,1.071351885385257857e-01
4.660000000000000142e+01,2.229233659259415024e-01
4.664000000000000057e+01,1.880112701535888164e-01
4.667999999999999972e+01,1.736439001984148578e-01
4.671999999999999886e+01,1.798212573624221045e-01
4.675999999999999801e+01,1.777741833382226189e-01
4.679999999999999716e+01,1.579129595580227863e-01
4.684000000000000341e+01,1.613363867658118289e-01
4.688000000000000256e+01,2.496926654265722578e-01
4.692000000000000171e+01,1.161107610088079611e-01
4.696000000000000085e+01,1.592490294017901153e-01
4.700000000000000000e+01,1.955328343999825913e-01
4.703999999999999915e+01,2.208522973611894147e-01
4.707999999999999829e+01,2.461670994386097322e-01
4.711999999999999744e+01,2.166788426782643717e-01
4.715999999999999659e+01,2.748633664477092009e-01
4.720000000000000284e+01,2.248163947088118453e-01
4.724000000000000199e+01,2.775117658991055336e-01
4.728000000000000114e+01,1.877266446500733821e-01
4.732000000000000028e+01,2.253431485994303596e-01
4.735999999999999943e+01,2.040467215788397126e-01
4.739999999999999858e+01,2.265843634952710017e-01
4.743999999999999773e+01,2.724066759297337770e-01
4.747999999999999687e+01,2.456164614862620665e-01
4.752000000000000313e+01,2.393710002020283112e-01
4.756000000000000227e+01,3.057287726722182630e-01
4.760000000000000142e+01,2.583752227284958902e-01
4.764000000000000057e+01,2.808849891804039989e-01
4.767999999999999972e+01,2.129727555061975974e-01
4.771999999999999886e+01,2.354732405526205052e-01
4.775999999999999801e+01,2.757785666074991648e-01
4.779999999999999716e+01,2.955298554936494071e-01
4.784000000000000341e+01,2.837674286618770969e-01
4.788000000000000256e+01,2.089822078419956430e-01
4.792000000000000171e+01,2.328294721411550139e-01
4.796000000000000085e+01,2.498223042935923399e-01
4.800000000000000000e+01,2.024223863825297398e-01
4.803999999999999915e+01,2.673545573105117201e-01
4.807999999999999829e+01,3.487216196815728919e-01
4.811999999999999744e+01,2.245900578109885637e-01
4.815999999999999659e+01,1.799115491318683258e-01
4.820000000000000284e+01,2.530449744254020805e-01
4.824000000000000199e+01,1.658884587694844925e-01
4.828000000000000114e+01,2.403825990950121116e-01
4.832000000000000028e+01,1.586966810192928234e-01
4.835999999999999943e+01,1.687934624776472048e-01
4.839999999999999858e+01,1.610761462601147664e-01
4.843999999999999773e+01,2.122624926270729739e-01
4.847999999999999687e+01,2.278252641639551268e-01
4.852000000000000313e+01,2.255739419309593097e-01
4.856000000000000227e+01,2.794863662256634185e-01
4.860000000000000142e+01,1.333800218283541783e-01
4.864000000000000057e+01,1.845433046469045213e-01
4.867999999999999972e+01,2.329620586989823161e-01
4.871999999999999886e+01,1.827390865886227289e-01
4.875999999999999801e+01,2.338885469021623476e-01
4.879999999999999716e+01,2.357148429876532170e-01
4.884000000000000341e+01,1.745183763331036864e-01
4.888000000000000256e+01,1.352366670872874876e-01
4.892000000000000171e+01,2.041771953803800110e-01
4.896000000000000085e+01,1.676262054160539972e-01
4.900000000000000000e+01,2.447772955202399126e-01
4.903999999999999915e+01,1.575285907708327826e-01
4.907999999999999829e+01,1.922017285823405808e-01
4.911999999999999744e+01,9.261419373505060115e-02
4.915999999999999659e+01,2.039959028436524324e-01
4.920000000000000284e+01,1.907066617672588671e-01
4.924000000000000199e+01,1.965922698548259184e-01
4.928000000000000114e+01,2.312424482781525459e-01
4.932000000000000028e+01,1.521813602736891979e-01
4.935999999999999943e+01,1.977820439069599423e-01
4.939999999999999858e+01,1.652904232328341327e-01
4.943999999999999773e+01,1.875926177490714886e-01
4.947999999999999687e+01,1.345424305247168439e-01
4.952000000000000313e+01,2.499927395508936834e-01
4.956000000000000227e+01,2.065231105751119400e-01
4.960000000000000142e+01,1.890781423883135248e-01
4.964000000000000057e+01,1.688886766831115271e-01
4.967999999999999972e+01,1.719839544080993265e-01
4.971999999999999886e+01,1.641149773302916781e-01
4.975999999999999801e+01,1.439117867702913722e-01
4.979999999999999716e+01,1.976818628582730775e-01
4.984000000000000341e+01,1.541802092212958275e-01
4.988000000000000256e+01,1.380731854687217708e-01
4.992000000000000171e+01,1.164817533489642537e-01
4.996000000000000085e+01,9.899563403382327653e-02
5.000000000000000000e+01,2.417902667048499599e-01
5.003999999999999915e+01,2.530641766259433822e-01
5.007999999999999829e+01,2.369343236854715429e-01
5.011999999999999744e+01,1.646315495760474756e-01
5.015999999999999659e+01,2.471296927352044648e-01
5.020000000000000284e+01,1.720778787058477588e-01
5.024000000000000199e+01,1.531898658883103226e-01
5.028000000000000114e+01,2.164948952311860075e-01
5.032000000000000028e+01,1.770483705475389968e-01
5.035999999999999943e+01,2.115751307399136583e-01
5.039999999999999858e+01,2.036285786913506757e-01
5.043999999999999773e+01,2.367762745692264803e-01
5.047999999999999687e+01,1.260736221866037843e-01
5.052000000000000313e+01,1.729118187533867090e-01
5.056000000000000227e+01,1.759067483058443238e-01
5.060000000000000142e+01,1.405382520715775241e-01
5.064000000000000057e+01,1.668134099947564675e-01
5.067999999999999972e+01,1.602049846608147587e-01
5.071999999999999886e+01,1.823611765347354363e-01
5.075999999999999801e+01,2.223223070673245871e-01
5.079999999999999716e+01,1.513121393090272326e-01
5.084000000000000341e+01,2.337329509719597576e-01
5.088000000000000256e+01,1.613437475432257240e-01
5.092000000000000171e+01,1.533381273487566809e-01
5.096000000000000085e+01,1.864267720067625811e-01
5.100000000000000000e+01,2.249907233028579090e-01
5.103999999999999915e+01,2.608102226506484600e-01
5.107999999999999829e+01,2.007279926169676931e-01
5.111999999999999744e+01,1.584507129599811159e-01
5.115999999999999659e+01,2.243957437540614608e-01
5.120000000000000284e+01,1.930690890912794555e-01
5.124000000000000199e+01,1.562580690274076867e-01
5.128000000000000114e+01,1.208124847714468347e-01
5.132000000000000028e+01,2.209884158025552103e-01
5.135999999999999943e+01,1.745741072544290395e-01
5.139999999999999858e+01,1.226754385132244329e-01
5.143999999999999773e+01,1.543398096719146295e-01
5.147999999999999687e+01,1.243514640041509939e-01
5.152000000000000313e+01,1.409372413424998804e-01
5.156000000000000227e+01,2.082070229331632327e-01
5.160000000000000142e+01,2.083442516777828657e-01
5.164000000000000057e+01,2.029971280413408186e-01
5.167999999999999972e+01,2.592936924144182975e-01
5.171999999999999886e+01,2.895565072894469849e-01
5.175999999999999801e+01,2.102180151030565991e-01
5.179999999999999716e+01,2.267722143671830615e-01
5.184000000000000341e+01,2.159227080578697000e-01
5.188000000000000256e+01,1.721896575515206862e-01
5.192000000000000171e+01,2.161295425132992443e-01
5.196000000000000085e+01,2.107463661052535464e-01
5.200000000000000000e+01,1.916590891457752022e-01
5.203999999999999915e+01,1.629775928810646979e-01
5.207999999999999829e+01,1.795002778691071887e-01
5.211999999999999744e+01,2.193077857095132588e-01
5.215999999999999659e+01,2.015724788017115576e-01
5.220000000000000284e+01,1.578034380198948816e-01
5.224000000000000199e+01,1.770480634570373024e-01
5.228000000000000114e+01,1.319000781449827520e-01
5.232000000000000028e+01,1.949744410420773955e-01
5.235999999999999943e+01,1.196783567984053970e-01
5.239999999999999858e+01,2.553516219728549363e-01
5.243999999999999773e+01,1.745667236707691694e-01
5.247999999999999687e+01,1.622753393252568399e-01
5.252000000000000313e+01,2.499865498105111050e-01
5.256000000000000227e+01,1.842577598696177599e-01
5.260000000000000142e+01,1.952422476797039952e-01
5.264000000000000057e+01,1.432040964400188299e-01
5.267999999999999972e+01,1.486997858157249330e-01
5.271999999999999886e+01,1.624107577784418832e-01
5.275999999999999801e+01,1.665275338719779952e-01
5.279999999999999716e+01,2.089987147473211238e-01
5.284000000000000341e+01,1.541982635479172969e-01
5.288000000000000256e+01,2.309094984694952113e-01
5.292000000000000171e+01,1.308914249991590117e-01
5.296000000000000085e+01,2.391027992121843582e-01
5.300000000000000000e+01,1.979840672652922184e-01
5.303999999999999915e+01,1.719304282284313257e-01
5.307999999999999829e+01,1.486122435710078848e-01
5.311999999999999744e+01,1.677583540556125963e-01
5.315999999999999659e+01,1.690905218026676760e-01
5.320000000000000284e+01,2.087771073515575504e-01
5.324000000000000199e+01,2.306497527669030545e-01
5.328000000000000114e+01,1.949796198901209976e-01
5.332000000000000028e+01,1.867042288699858055e-01
5.335999999999999943e+01,2.099334609526988249e-01
5.339999999999999858e+01,1.810997585748904959e-01
5.343999999999999773e+01,1.974702817179318781e-01
5.347999999999999687e+01,1.727375528556539530e-01
5.352000000000000313e+01,1.808794122856350606e-01
5.356000000000000227e+01,2.561448608448672615e-01
5.360000000000000142e+01,2.272889021604092841e-01
5.364000000000000057e+01,1.970585361392302726e-01
5.367999999999999972e+01,9.421584505055638492e-02
5.371999999999999886e+01,1.680935468111092457e-01
5.375999999999999801e+01,1.789486459779696392e-01
5.379999999999999716e+01,1.719898232393257120e-01
5.384000000000000341e+01,1.554368397855777073e-01
5.388000000000000256e+01,1.840880961747104194e-01
5.392000000000000171e+01,2.305443940807356817e-01
5.396000000000000085e+01,1.879488562564918530e-01
5.400000000000000000e+01,1.097299232785630685e-01
5.403999999999999915e+01,1.959017537332877201e-01
5.407999999999999829e+01,1.971316323079497224e-01
5.411999999999999744e+01,2.476756384817086210e-01
5.415999999999999659e+01,2.132776953794104924e-01
5.420000000000000284e+01,2.158642426476184428e-01
5.424000000000000199e+01,1.609080428717669931e-01
5.428000000000000114e+01,2.333536948427971103e-01
5.432000000000000028e+01,2.331870425783779122e-01
5.435999999999999943e+01,2.056167667666975174e-01
5.439999999999999858e+01,1.807819883005483963e-01
5.443999999999999773e+01,1.614226284447328741e-01
5.447999999999999687e+01,2.119268076270323375e-01
5.452000000000000313e+01,2.514668882468768518e-01
5.456000000000000227e+01,1.759259130199025412e-01
5.460000000000000142e+01,2.086073602162392127e-01
5.464000000000000057e+01,1.810061534257458860e-01
5.467999999999999972e+01,1.821696927413946898e-01
5.471999999999999886e+01,1.627794201348058134e-01
5.475999999999999801e+01,1.666740563127671604e-01
5.479999999999999716e+01,2.048132824284779885e-01
5.484000000000000341e+01,1.484208615323832636e-01
5.488000000000000256e+01,1.468224328990376248e-01
5.492000000000000171e+01,2.328970373840319741e-01
5.496000000000000085e+01,2.586889982982183978e-01
5.500000000000000000e+01,2.735168762739833559e-01
5.503999999999999915e+01,1.362747945291763740e-01
5.507999999999999829e+01,1.935626296598859930e-01
5.511999999999999744e+01,2.042674262417943643e-01
5.515999999999999659e+01,2.204476648700876562e-01
5.520000000000000284e+01,1.283966683906053452e-01
5.524000000000000199e+01,2.240257940876531628e-01
5.528000000000000114e+01,1.333359683411574903e-01
5.532000000000000028e+01,1.577183883610212278e-01
5.535999999999999943e+01,1.478474174766970239e-01
5.539999999999999858e+01,1.626313361903677368e-01
5.543999999999999773e+01,2.143997856366330335e-01
5.547999999999999687e+01,1.647868089961403437e-01
5.552000000000000313e+01,1.918872051528341949e-01
5.556000000000000227e+01,1.121263379011784717e-01
5.560000000000000142e+01,1.501776454927006288e-01
5.564000000000000057e+01,1.608253712010526137e-01
5.567999999999999972e+01,1.331098364770409714e-01
5.571999999999999886e+01,2.355361203348116661e-01
5.575999999999999801e+01,2.201414674430503537e-01
5.579999999999999716e+01,1.609037180993348193e-01
5.584000000000000341e+01,2.208481113922154404e-01
5.588000000000000256e+01,1.520118919903749588e-01
5.592000000000000171e+01,2.119475376989326254e-01
5.596000000000000085e+01,1.759816128703652061e-01
5.600000000000000000e+01,1.797401569652302689e-01
5.603999999999999915e+01,2.177433313599326792e-01
5.607999999999999829e+01,2.256030182306969778e-01
5.611999999999999744e+01,2.238686186005184597e-01
5.615999999999999659e+01,1.673314543852153224e-01
5.620000000000000284e+01,2.190167646733370554e-01
5.624000000000000199e+01,2.830273520689173261e-01
5.628000000000000114e+01,1.237301010732364398e-01
5.632000000000000028e+01,1.986916467757471882e-01
5.635999999999999943e+01,2.284401542729446177e-01
5.639999999999999858e+01,1.869463852202392640e-01
5.643999999999999773e+01,1.605178197478061008e-01
5.647999999999999687e+01,1.888832986182353568e-01
5.652000000000000313e+01,1.761456244355603107e-01
5.656000000000000227e+01,1.579237580181728495e-01
5.660000000000000142e+01,1.410675005750735567e-01
5.664000000000000057e+01,1.598258529432534936e-01
5.667999999999999972e+01,2.073490165177181987e-01
5.671999999999999886e+01,1.466409944605153448e-01
5.675999999999999801e+01,1.749760253951831990e-01
5.679999999999999716e+01,1.868671920559588362e-01
5.684000000000000341e+01,2.151935352984345740e-01
5.688000000000000256e+01,1.955669372988344812e-01
5.692000000000000171e+01,1.978553584105381402e-01
5.696000000000000085e+01,1.535608008655710843e-01
5.700000000000000000e+01,1.366611049615119866e-01
5.703999999999999915e+01,2.266139509215370218e-01
5.707999999999999829e+01,2.288850226889135031e-01
5.711999999999999744e+01,1.284047617702488708e-01
5.715999999999999659e+01,1.060078870122873607e-01
5.720000000000000284e+01,1.521046798472337203e-01
5.724000000000000199e+01,1.338090233813349073e-01
5.728000000000000114e+01,1.168789980237727316e-01
5.732000000000000028e+01,1.657027242023283164e-01
5.735999999999999943e+01,1.912328044280334760e-01
5.739999999999999858e+01,1.044218412119212597e-01
5.743999999999999773e+01,1.463827925823143472e-01
5.747999999999999687e+01,1.376509022778746594e-01
5.752000000000000313e+01,2.042624898893644625e-01
5.756000000000000227e+01,2.311409182812233232e-01
5.760000000000000142e+01,1.566379895924751575e-01
5.764000000000000057e+01,1.985773421676506056e-01
5.767999999999999972e+01,1.651645799128162728e-01
5.771999999999999886e+01,2.344945017119154373e-01
5.775999999999999801e+01,1.887434718244231091e-01
5.779999999999999716e+01,2.183359289668799497e-01
5.784000000000000341e+01,1.588766766733421820e-01
5.788000000000000256e+01,1.309221946089730859e-01
5.792000000000000171e+01,1.509120038525706420e-01
5.796000000000000085e+01,1.571979065431569622e-01
5.800000000000000000e+01,2.032083432573180692e-01
5.803999999999999915e+01,1.272880374919097834e-01
5.807999999999999829e+01,2.335681064196352963e-01
5.811999999999999744e+01,1.754486760484109120e-01
5.815999999999999659e+01,1.871929044995624680e-01
5.820000000000000284e+01,1.468743547305331743e-01
5.824000000000000199e+01,1.942289461460794120e-01
5.828000000000000114e+01,2.484290411456309133e-01
5.832000000000000028e+01,1.779584828168343513e-01
5.835999999999999943e+01,1.773515898204275076e-01
5.839999999999999858e+01,1.822202443326347843e-01
5.843999999999999773e+01,1.596854081018700133e-01
5.847999999999999687e+01,2.207138409234997989e-01
5.852000000000000313e+01,1.954305064059822794e-01
5.856000000000000227e+01,1.632930847724943790e-01
5.860000000000000142e+01,1.640304167856262985e-01
5.864000000000000057e+01,1.716132641007886150e-01
5.867999999999999972e+01,1.668621882803908718e-01
5.871999999999999886e+01,1.648467504218310564e-01
5.875999999999999801e+01,1.559772319573149435e-01
5.879999999999999716e+01,1.292939543376491196e-01
5.884000000000000341e+01,1.176759584184252222e-01
5.888000000000000256e+01,1.211232455016473253e-01
5.892000000000000171e+01,1.752547764057049706e-01
5.896000000000000085e+01,1.759535938462358784e-01
5.900000000000000000e+01,2.506259773954015446e-01
5.903999999999999915e+01,1.280198520380931571e-01
5.907999999999999829e+01,1.793943740355915528e-01
5.911999999999999744e+01,1.280176284471914727e-01
5.915999999999999659e+01,1.300650544544432463e-01
5.920000000000000284e+01,1.540275737871606154e-01
5.924000000000000199e+01,1.272973087331706332e-01
5.928000000000000114e+01,1.567311391436400081e-01
5.932000000000000028e+01,1.478018276040035939e-01
5.935999999999999943e+01,1.470880147838482810e-01
5.939999999999999858e+01,1.367802222269834667e-01
5.943999999999999773e+01,1.470175708262014547e-01
5.947999999999999687e+01,1.928696216789002604e-01
5.952000000000000313e+01,1.921387772031102059e-01
5.956000000000000227e+01,1.667443984032259963e-01
5.960000000000000142e+01,1.331260063580459729e-01
5.964000000000000057e+01,1.844408811047421881e-01
5.967999999999999972e+01,1.508139862517725305e-01
5.971999999999999886e+01,1.678713612596958171e-01
5.975999999999999801e+01,1.287561288813502958e-01
5.979999999999999716e+01,1.622445286702963729e-01
5.984000000000000341e+01,1.765492431747665292e-01
5.988000000000000256e+01,1.209817543849811966e-01
5.992000000000000171e+01,1.188384619289018368e-01
5.996000000000000085e+01,1.303905276479441211e-01
