2.003999999999999915e+01,4.149472958249056376e-02
2.007999999999999829e+01,3.095131423950846922e-02
2.012000000000000099e+01,2.689052567440232064e-02
2.016000000000000014e+01,2.710539162010077580e-02
2.019999999999999929e+01,3.780302124981108763e-02
2.023999999999999844e+01,7.119568222665231469e-03
2.028000000000000114e+01,4.043795409814265884e-02
2.032000000000000028e+01,2.892686311182850883e-02
2.035999999999999943e+01,2.472601295518990494e-02
2.039999999999999858e+01,1.969719362456085962e-02
2.044000000000000128e+01,9.702332194441927113e-03
2.048000000000000043e+01,8.121197426477743883e-03
2.051999999999999957e+01,4.543759248550860441e-02
2.055999999999999872e+01,3.930386777980996588e-02
2.060000000000000142e+01,1.951414766764160771e-02
2.064000000000000057e+01,4.000131473757959771e-02
2.067999999999999972e+01,3.524588227846289779e-02
2.071999999999999886e+01,1.890349057456830115e-02
2.076000000000000156e+01,1.056101764676471884e-02
2.080000000000000071e+01,3.684006534304169050e-02
2.083999999999999986e+01,5.461609256915838512e-03
2.087999999999999901e+01,2.773980868445854314e-02
2.092000000000000171e+01,3.112045308738776647e-02
2.096000000000000085e+01,4.857018933423359192e-02
2.100000000000000000e+01,2.229393334753611983e-02
2.103999999999999915e+01,2.208718026722225961e-02
2.107999999999999829e+01,2.339736449301106289e-02
2.112000000000000099e+01,1.574136807886248809e-02
2.116000000000000014e+01,2.780982929250792532e-02
2.119999999999999929e+01,1.808408389178630185e-02
2.123999999999999844e+01,3.125531845709580286e-02
2.128000000000000114e+01,3.628798660629856121e-02
2.132000000000000028e+01,2.766465780073452257e-02
2.135999999999999943e+01,3.752436434103693236e-02
2.139999999999999858e+01,3.193490885743015262e-02
2.144000000000000128e+01,3.379362764236934491e-02
2.148000000000000043e+01,3.427263188560802920e-02
2.151999999999999957e+01,2.109563874399729769e-02
2.155999999999999872e+01,2.267741496263585288e-02
2.160000000000000142e+01,3.625924522918551329e-02
2.164000000000000057e+01,2.073627258543375707e-02
2.167999999999999972e+01,7.006107480168928189e-03
2.171999999999999886e+01,2.224209480664525104e-02
2.176000000000000156e+01,2.464969880006961239e-02
2.180000000000000071e+01,2.719488093813841531e-02
2.183999999999999986e+01,2.932589808957074620e-02
2.187999999999999901e+01,2.152518263753959785e-02
2.192000000000000171e+01,2.131057618317239513e-02
2.196000000000000085e+01,1.406088794094672613e-02
2.200000000000000000e+01,2.460455486174292078e-02
2.203999999999999915e+01,3.018217624238906868e-02
2.207999999999999829e+01,3.244898113266164036e-02
2.212000000000000099e+01,3.512923500207889432e-02
2.216000000000000014e+01,3.422280068645740941e-02
2.219999999999999929e+01,1.455674435501039081e-02
2.223999999999999844e+01,2.358096781445759987e-02
2.228000000000000114e+01,3.619116241925353361e-02
2.232000000000000028e+01,1.362737915355918643e-02
2.235999999999999943e+01,2.416781978282471488e-02
2.239999999999999858e+01,1.263817969459584203e-02
2.244000000000000128e+01,3.573005670377076698e-02
2.248000000000000043e+01,1.978575418153881785e-02
2.251999999999999957e+01,3.515251031309140489e-02
2.255999999999999872e+01,3.272519398388250289e-02
2.260000000000000142e+01,4.436696597191343988e-02
2.264000000000000057e+01,2.180030973053467477e-02
2.267999999999999972e+01,3.744149986467915775e-02
2.271999999999999886e+01,1.252921657684063703e-02
2.276000000000000156e+01,3.879074105620509971e-02
2.280000000000000071e+01,2.532640650945027286e-02
2.283999999999999986e+01,3.144859021647983949e-02
2.287999999999999901e+01,3.963945040413342780e-02
2.292000000000000171e+01,2.493261418818161837e-02
2.296000000000000085e+01,9.673674815815025071e-03
2.300000000000000000e+01,3.138115927899469415e-02
2.303999999999999915e+01,1.984576498181229304e-02
2.307999999999999829e+01,4.182840031524086982e-02
2.312000000000000099e+01,1.980916733361912443e-02
2.316000000000000014e+01,5.789847967097840921e-03
2.319999999999999929e+01,6.115487150200844130e-03
2.323999999999999844e+01,2.520002915902679400e-02
2.328000000000000114e+01,4.883609049200144520e-02
2.332000000000000028e+01,2.253904534325104625e-02
2.335999999999999943e+01,3.058764379089259910e-02
2.339999999999999858e+01,2.967005669565613013e-02
2.344000000000000128e+01,3.854554751051383205e-02
2.348000000000000043e+01,2.631650561464416935e-02
2.351999999999999957e+01,2.788067853500244067e-02
2.355999999999999872e+01,3.978967215266977775e-02
2.360000000000000142e+01,1.817991428311183794e-02
2.364000000000000057e+01,3.574355105389359633e-02
2.367999999999999972e+01,2.571967390200899373e-02
2.371999999999999886e+01,1.459194891413162672e-02
2.376000000000000156e+01,1.422285147742907013e-02
2.380000000000000071e+01,3.440582055932754624e-02
2.383999999999999986e+01,3.224283430450519683e-02
2.387999999999999901e+01,4.621797003413580240e-02
2.392000000000000171e+01,2.446738140735164879e-02
2.396000000000000085e+01,2.892422516906216490e-02
2.400000000000000000e+01,3.517387148030237665e-02
2.403999999999999915e+01,2.100866268316461255e-02
2.407999999999999829e+01,2.463680457619038533e-02
2.412000000000000099e+01,3.143710637385721540e-02
2.416000000000000014e+01,3.340929383381526646e-02
2.419999999999999929e+01,1.813914835159932334e-02
2.423999999999999844e+01,2.769707704260189474e-02
2.428000000000000114e+01,2.470248850414463043e-02
2.432000000000000028e+01,2.956987532499316673e-02
2.435999999999999943e+01,2.947121161673423029e-02
2.439999999999999858e+01,2.675140523572481360e-02
2.444000000000000128e+01,5.258393815338573141e-02
2.448000000000000043e+01,2.462116077799236802e-02
2.451999999999999957e+01,2.493485100660416953e-02
2.455999999999999872e+01,3.145528694262949426e-02
2.460000000000000142e+01,3.935471685398856528e-02
2.464000000000000057e+01,2.587374003750951557e-02
2.467999999999999972e+01,1.197859212722193235e-02
2.471999999999999886e+01,3.808445110272488249e-02
2.476000000000000156e+01,2.267128194019035065e-02
2.480000000000000071e+01,1.636150895660840043e-02
2.483999999999999986e+01,3.432806581073274965e-02
2.487999999999999901e+01,3.132802270486800822e-02
2.492000000000000171e+01,2.032734111671076829e-02
2.496000000000000085e+01,2.298193548687099338e-02
2.500000000000000000e+01,1.404956140848716978e-02
2.503999999999999915e+01,2.553131542087646103e-02
2.507999999999999829e+01,2.859862332295875012e-02
2.512000000000000099e+01,3.014827309452223700e-02
2.516000000000000014e+01,2.231792625453316373e-02
2.519999999999999929e+01,1.986670917779695053e-02
2.523999999999999844e+01,3.038108865068225167e-02
2.528000000000000114e+01,2.930849907290794532e-02
2.532000000000000028e+01,3.209774562585997193e-02
2.535999999999999943e+01,4.095580040457929422e-02
2.539999999999999858e+01,5.408949842594029667e-02
2.544000000000000128e+01,2.639384565356361553e-02
2.548000000000000043e+01,3.938887693924437300e-02
2.551999999999999957e+01,2.589987643602828168e-02
2.555999999999999872e+01,4.565302870776745403e-02
2.560000000000000142e+01,3.174948943013992941e-02
2.564000000000000057e+01,3.205296769381365402e-02
2.567999999999999972e+01,1.428649526480635541e-02
2.571999999999999886e+01,2.231364415561912923e-02
2.576000000000000156e+01,2.689203288122381241e-02
2.580000000000000071e+01,2.333184547085651733e-02
2.583999999999999986e+01,2.418523611826528183e-02
2.587999999999999901e+01,2.683142527242795422e-02
2.592000000000000171e+01,3.016692675679924843e-02
2.596000000000000085e+01,2.274307229612674772e-02
2.600000000000000000e+01,2.814687698944613042e-02
2.603999999999999915e+01,2.968811363149344643e-02
2.607999999999999829e+01,3.895338608680411902e-02
2.612000000000000099e+01,3.676962344642451669e-02
2.616000000000000014e+01,4.644796928675817838e-02
2.619999999999999929e+01,3.626319841908678260e-02
2.623999999999999844e+01,3.697498553088283957e-02
2.628000000000000114e+01,3.713466234689417889e-02
2.632000000000000028e+01,3.894920096216153427e-02
2.635999999999999943e+01,3.621149203144450462e-02
2.639999999999999858e+01,3.195612221768036332e-02
2.644000000000000128e+01,9.906671599553626070e-03
2.648000000000000043e+01,1.640955589325535785e-02
2.651999999999999957e+01,3.132615386061932128e-02
2.655999999999999872e+01,3.465578002479537123e-02
2.660000000000000142e+01,2.295004026686468107e-02
2.664000000000000057e+01,3.745172713432292494e-02
2.667999999999999972e+01,4.202167107633677373e-02
2.671999999999999886e+01,4.700505410559687597e-02
2.676000000000000156e+01,3.998765761763833221e-02
2.680000000000000071e+01,3.862525897490458326e-02
2.683999999999999986e+01,3.422790512846515115e-02
2.687999999999999901e+01,2.762321056020022522e-02
2.692000000000000171e+01,2.074227584251855244e-02
2.696000000000000085e+01,3.799973064235222936e-02
2.700000000000000000e+01,3.042837960647149995e-02
2.703999999999999915e+01,3.251216297788319526e-02
2.707999999999999829e+01,2.880227540316823709e-02
2.712000000000000099e+01,2.288504659052882292e-02
2.716000000000000014e+01,3.476116184478197230e-02
2.719999999999999929e+01,3.946424828169795701e-02
2.723999999999999844e+01,3.644256276999617572e-02
2.728000000000000114e+01,3.659303036763147943e-02
2.732000000000000028e+01,3.867422913674237878e-02
2.735999999999999943e+01,3.703079277735261965e-02
2.739999999999999858e+01,4.587010461900330877e-02
2.744000000000000128e+01,3.829469111903980455e-02
2.748000000000000043e+01,3.706395280860088487e-02
2.751999999999999957e+01,4.355724721483104911e-02
2.755999999999999872e+01,3.722214581561576752e-02
2.760000000000000142e+01,3.736965510919179612e-02
2.764000000000000057e+01,4.248248163506542635e-02
2.767999999999999972e+01,4.387067234430642310e-02
2.771999999999999886e+01,4.332739204800734045e-02
2.776000000000000156e+01,4.057676913751967485e-02
2.780000000000000071e+01,3.948100484367726704e-02
2.783999999999999986e+01,3.562615471834883196e-02
2.787999999999999901e+01,4.473689546555245644e-02
2.792000000000000171e+01,5.095061444792090000e-02
2.796000000000000085e+01,5.757776985102394662e-02
2.800000000000000000e+01,3.772088813220664250e-02
2.803999999999999915e+01,5.855468496639033849e-02
2.807999999999999829e+01,4.890430742845396084e-02
2.812000000000000099e+01,4.366750304535282207e-02
2.816000000000000014e+01,6.767270876796736834e-02
2.819999999999999929e+01,7.733222393439530273e-02
2.823999999999999844e+01,3.623100747117149328e-02
2.828000000000000114e+01,4.906230213119449485e-02
2.832000000000000028e+01,5.941038145016556971e-02
2.835999999999999943e+01,7.306854731734405139e-02
2.839999999999999858e+01,6.824294935877062152e-02
2.844000000000000128e+01,5.362354045134275909e-02
2.848000000000000043e+01,6.065967408911324132e-02
2.851999999999999957e+01,5.900548269652503702e-02
2.855999999999999872e+01,6.673055091996987764e-02
2.860000000000000142e+01,5.500630455836758720e-02
2.864000000000000057e+01,5.500622558313891797e-02
2.867999999999999972e+01,5.500577419639936239e-02
2.871999999999999886e+01,5.983270195819574699e-02
2.876000000000000156e+01,5.072774524352280379e-02
2.880000000000000071e+01,3.376007746427209244e-02
2.883999999999999986e+01,4.906900507741050743e-02
2.887999999999999901e+01,5.085985523997822721e-02
2.892000000000000171e+01,5.278826823625221154e-02
2.896000000000000085e+01,5.112997842468132437e-02
2.900000000000000000e+01,3.485012481396151246e-02
2.903999999999999915e+01,4.105342711210565460e-02
2.907999999999999829e+01,3.525594490407363280e-02
2.912000000000000099e+01,4.559657341233219752e-02
2.916000000000000014e+01,6.255774502005433113e-02
2.919999999999999929e+01,2.710295379793528636e-02
2.923999999999999844e+01,2.958012332200013819e-02
2.928000000000000114e+01,3.012581848588122280e-02
2.932000000000000028e+01,4.460265175491280598e-02
2.935999999999999943e+01,4.211301250827334530e-02
2.939999999999999858e+01,3.010543177101541318e-02
2.944000000000000128e+01,3.189105311954238547e-02
2.948000000000000043e+01,2.167588910172812966e-02
2.951999999999999957e+01,2.980580712109691735e-02
2.955999999999999872e+01,4.207342367607452144e-02
2.960000000000000142e+01,3.834011752849462995e-02
2.964000000000000057e+01,1.846795283102480034e-02
2.967999999999999972e+01,4.080375653435613231e-02
2.971999999999999886e+01,3.762106974627008049e-02
2.976000000000000156e+01,3.567943007607232708e-02
2.980000000000000071e+01,3.608232352827509676e-02
2.983999999999999986e+01,3.179502618974109490e-02
2.987999999999999901e+01,3.426620616368963868e-02
2.992000000000000171e+01,2.721944352880507206e-02
2.996000000000000085e+01,2.182753486567461099e-02
3.000000000000000000e+01,3.202199198120717766e-02
3.003999999999999915e+01,2.387061750562715842e-02
3.007999999999999829e+01,3.268496624983803500e-02
3.012000000000000099e+01,3.639531631724834959e-02
3.016000000000000014e+01,1.293194581126654724e-02
3.019999999999999929e+01,2.822814855496898895e-02
3.023999999999999844e+01,3.400640800170634526e-02
3.028000000000000114e+01,3.343924657573225934e-02
3.032000000000000028e+01,2.928537941735202127e-02
3.035999999999999943e+01,3.589012561742302432e-02
3.039999999999999858e+01,2.525252554276159397e-02
3.044000000000000128e+01,3.640839955980583464e-02
3.048000000000000043e+01,2.645972581323403211e-02
3.051999999999999957e+01,2.161429886708752385e-02
3.055999999999999872e+01,1.814785307981528137e-02
3.060000000000000142e+01,2.806079959990093534e-02
3.064000000000000057e+01,2.224869270363218771e-02
3.067999999999999972e+01,3.229882164637805364e-02
3.071999999999999886e+01,2.634802547810428941e-02
3.076000000000000156e+01,3.239726365996146301e-02
3.080000000000000071e+01,2.713539244351325860e-02
3.083999999999999986e+01,1.718332828591555977e-02
3.087999999999999901e+01,1.261038167722683921e-02
3.092000000000000171e+01,1.603733199643626872e-02
3.096000000000000085e+01,2.539514273778601186e-02
3.100000000000000000e+01,3.820097011156980971e-02
3.103999999999999915e+01,1.679835119247756470e-02
3.107999999999999829e+01,2.463773609989596339e-02
3.112000000000000099e+01,9.579406970324959650e-03
3.116000000000000014e+01,1.907326561048440158e-02
3.119999999999999929e+01,1.532491333374804039e-02
3.123999999999999844e+01,2.826641025969171134e-02
3.128000000000000114e+01,1.665496366878689224e-02
3.132000000000000028e+01,2.297478796037392273e-02
3.135999999999999943e+01,2.667345461233836673e-02
3.139999999999999858e+01,2.568192711892229238e-02
3.144000000000000128e+01,2.137956300727007417e-02
3.148000000000000043e+01,1.197319729425609137e-02
3.151999999999999957e+01,1.870493713654226148e-02
3.155999999999999872e+01,1.674634541121512721e-02
3.160000000000000142e+01,1.037343063305710793e-02
3.164000000000000057e+01,0.000000000000000000e+00
3.167999999999999972e+01,1.266146264398170310e-02
3.171999999999999886e+01,1.842575827339331881e-02
3.176000000000000156e+01,2.612077552644833517e-02
3.180000000000000071e+01,3.629825736239471190e-02
3.183999999999999986e+01,1.088793357197389081e-02
3.187999999999999901e+01,1.113328209351510320e-02
3.192000000000000171e+01,2.903402868466845033e-02
3.196000000000000085e+01,3.603747066698594070e-02
3.200000000000000000e+01,2.166049009442795950e-02
3.203999999999999915e+01,1.969734840342099447e-02
3.207999999999999829e+01,2.173396406766678682e-02
3.211999999999999744e+01,2.128735621929243177e-02
3.215999999999999659e+01,2.277146913439643400e-02
3.220000000000000284e+01,2.384139478458867367e-02
3.224000000000000199e+01,2.339364699332389594e-02
3.228000000000000114e+01,2.446281242353969335e-02
3.232000000000000028e+01,2.939379893159312085e-02
3.235999999999999943e+01,1.735830647273748154e-02
3.239999999999999858e+01,5.046562080203700548e-03
3.243999999999999773e+01,1.770080998882037765e-02
3.247999999999999687e+01,2.249233891934068752e-02
3.252000000000000313e+01,1.790385541127107252e-02
3.256000000000000227e+01,7.521689172813476876e-03
3.260000000000000142e+01,1.189826855404942443e-02
3.264000000000000057e+01,2.330919083526108299e-02
3.267999999999999972e+01,1.099478115694305091e-02
3.271999999999999886e+01,1.068040161394713874e-02
3.275999999999999801e+01,1.160706273760150550e-02
3.279999999999999716e+01,1.998187370111386557e-02
3.284000000000000341e+01,1.318336956262831927e-02
3.288000000000000256e+01,1.493650118249650882e-02
3.292000000000000171e+01,1.903415921547768272e-02
3.296000000000000085e+01,1.940717007764723029e-02
3.300000000000000000e+01,2.102122109036806338e-02
3.303999999999999915e+01,1.711745986313499557e-02
3.307999999999999829e+01,2.314469157733405058e-02
3.311999999999999744e+01,2.006778108532777938e-02
3.315999999999999659e+01,3.243929381536441586e-02
3.320000000000000284e+01,1.115409865289801288e-02
3.324000000000000199e+01,1.262792189019441846e-02
3.328000000000000114e+01,2.941223233016811156e-02
3.332000000000000028e+01,1.281570614222140442e-02
3.335999999999999943e+01,1.152966698491894940e-02
3.339999999999999858e+01,2.196778497802582414e-02
3.343999999999999773e+01,1.999130180520905173e-02
3.347999999999999687e+01,1.746269285363621915e-02
3.352000000000000313e+01,1.645099445703221072e-02
3.356000000000000227e+01,3.185326875151869158e-02
3.360000000000000142e+01,2.559924552783718332e-02
3.364000000000000057e+01,2.210355445291985882e-02
3.367999999999999972e+01,2.495252523496865188e-02
3.371999999999999886e+01,2.683556243821403134e-02
3.375999999999999801e+01,2.458014346636937589e-02
3.379999999999999716e+01,3.004874370660223434e-02
3.384000000000000341e+01,3.206856640629247163e-02
3.388000000000000256e+01,2.208759427782581650e-02
3.392000000000000171e+01,2.989995167946195645e-02
3.396000000000000085e+01,2.157344124142539926e-02
3.400000000000000000e+01,3.039300614291585469e-03
3.403999999999999915e+01,2.326472497925737709e-02
3.407999999999999829e+01,1.093692564988569746e-02
3.411999999999999744e+01,7.850438218936550694e-03
3.415999999999999659e+01,2.214347251804290456e-02
3.420000000000000284e+01,3.064282056008449037e-02
3.424000000000000199e+01,1.831348427559059341e-02
3.428000000000000114e+01,1.536339530676923346e-02
3.432000000000000028e+01,1.365434364995440041e-02
3.435999999999999943e+01,2.573848349889413731e-02
3.439999999999999858e+01,2.182169032329562067e-02
3.443999999999999773e+01,2.452542889298174253e-02
3.447999999999999687e+01,4.607317722924121270e-03
3.452000000000000313e+01,1.613817516301502969e-02
3.456000000000000227e+01,1.621997935793275877e-02
3.460000000000000142e+01,1.326681166194258396e-02
3.464000000000000057e+01,2.631380705064886513e-02
3.467999999999999972e+01,1.798037412137374128e-02
3.471999999999999886e+01,1.737095842579642127e-02
3.475999999999999801e+01,1.400244201787734059e-02
3.479999999999999716e+01,2.401330888558298599e-02
3.484000000000000341e+01,2.795461659732754664e-02
3.488000000000000256e+01,2.306764984077266586e-02
3.492000000000000171e+01,1.997346215124103444e-02
3.496000000000000085e+01,1.784443887481965141e-02
3.500000000000000000e+01,1.447360774443449960e-02
3.503999999999999915e+01,2.393041632831061430e-02
3.507999999999999829e+01,2.497275729775300449e-02
3.511999999999999744e+01,2.104902459964756375e-02
3.515999999999999659e+01,1.671109827140884393e-02
3.520000000000000284e+01,2.120067423519868960e-02
3.524000000000000199e+01,2.596573520340270461e-02
3.528000000000000114e+01,2.190252084314221054e-02
3.532000000000000028e+01,2.845997341396994465e-02
3.535999999999999943e+01,1.253351011400686069e-02
3.539999999999999858e+01,7.779456618363347203e-03
3.543999999999999773e+01,1.612891349944824484e-02
3.547999999999999687e+01,1.454660853145735636e-02
3.552000000000000313e+01,1.130868730733979206e-02
3.556000000000000227e+01,1.551890998794125572e-02
3.560000000000000142e+01,3.076360628146371928e-02
3.564000000000000057e+01,1.828282717206820146e-02
3.567999999999999972e+01,2.704376784095157554e-02
3.571999999999999886e+01,6.148132276458673391e-03
3.575999999999999801e+01,2.083953549508543376e-02
3.579999999999999716e+01,2.270252518886642021e-02
3.584000000000000341e+01,2.428925555154957602e-02
3.588000000000000256e+01,8.909499377871062109e-03
3.592000000000000171e+01,2.359935119060243419e-02
3.596000000000000085e+01,3.097821958706571330e-02
3.600000000000000000e+01,1.297651974883609269e-02
3.603999999999999915e+01,1.263020912051837814e-02
3.607999999999999829e+01,2.152520617581431261e-02
3.611999999999999744e+01,2.862664992341987236e-02
3.615999999999999659e+01,1.876160653254823479e-02
3.620000000000000284e+01,3.455222616385594109e-02
3.624000000000000199e+01,3.130732206491196323e-02
3.628000000000000114e+01,1.744097558998162698e-02
3.632000000000000028e+01,1.212625747598540180e-02
3.635999999999999943e+01,2.722564311009093366e-02
3.639999999999999858e+01,2.080666096618909514e-02
3.643999999999999773e+01,1.824949104042471876e-02
3.647999999999999687e+01,2.548537098337329623e-02
3.652000000000000313e+01,2.320329412476512809e-02
3.656000000000000227e+01,3.223156033731398862e-02
3.660000000000000142e+01,1.463783517307752462e-02
3.664000000000000057e+01,3.290701842222969881e-02
3.667999999999999972e+01,2.579563197440837286e-02
3.671999999999999886e+01,2.944284520841364966e-02
3.675999999999999801e+01,3.860709910821739227e-02
3.679999999999999716e+01,2.239078305299812069e-02
3.684000000000000341e+01,2.658856971368246669e-02
3.688000000000000256e+01,3.299293851052956944e-02
3.692000000000000171e+01,2.325843310248233708e-02
3.696000000000000085e+01,2.924821426754210460e-02
3.700000000000000000e+01,3.744457731071502288e-02
3.703999999999999915e+01,3.295045992384652844e-02
3.707999999999999829e+01,3.949081296728822882e-02
3.711999999999999744e+01,3.499591454444862804e-02
3.715999999999999659e+01,5.188066847859323233e-02
3.720000000000000284e+01,3.772948538358986831e-02
3.724000000000000199e+01,5.957914517304369745e-02
3.728000000000000114e+01,3.949594261734514639e-02
3.732000000000000028e+01,3.720606228034632756e-02
3.735999999999999943e+01,3.643308424073176538e-02
3.739999999999999858e+01,3.648732960590433949e-02
3.743999999999999773e+01,2.509251553271523230e-02
3.747999999999999687e+01,4.059478358102210777e-02
3.752000000000000313e+01,4.437212049630206989e-02
3.756000000000000227e+01,4.525241491676872119e-02
3.760000000000000142e+01,4.571851046009516722e-02
3.764000000000000057e+01,6.328824872740886065e-02
3.767999999999999972e+01,5.244282839838231014e-02
3.771999999999999886e+01,6.518403140316637867e-02
3.775999999999999801e+01,6.826933917856593814e-02
3.779999999999999716e+01,6.238843044514499198e-02
3.784000000000000341e+01,9.499120700962331021e-02
3.788000000000000256e+01,1.150414370990296004e-01
3.792000000000000171e+01,1.131594888578530134e-01
3.796000000000000085e+01,1.486577395659974821e-01
3.800000000000000000e+01,1.805692680265664485e-01
3.803999999999999915e+01,2.087561383922275360e-01
3.807999999999999829e+01,2.952894431692062449e-01
3.811999999999999744e+01,4.037541412840375821e-01
3.815999999999999659e+01,5.387021127741357107e-01
3.820000000000000284e+01,6.558559781710183723e-01
3.824000000000000199e+01,7.816994035613589187e-01
3.828000000000000114e+01,8.686445512050885442e-01
3.832000000000000028e+01,9.122774766540755476e-01
3.835999999999999943e+01,9.112188222091425205e-01
3.839999999999999858e+01,9.563682544915790285e-01
3.843999999999999773e+01,1.000000000000000000e+00
3.847999999999999687e+01,9.695598481961236192e-01
3.852000000000000313e+01,9.661547120386297927e-01
3.856000000000000227e+01,9.826119318530656122e-01
3.860000000000000142e+01,9.556189931093271861e-01
3.864000000000000057e+01,9.028316731698581288e-01
3.867999999999999972e+01,8.667341864339987989e-01
3.871999999999999886e+01,8.598786870954973072e-01
3.875999999999999801e+01,7.988140394721006121e-01
3.879999999999999716e+01,7.606463340534879158e-01
3.884000000000000341e+01,6.896495231819416150e-01
3.888000000000000256e+01,6.157556669770369862e-01
3.892000000000000171e+01,5.447580673280338903e-01
3.896000000000000085e+01,5.136235081816287185e-01
3.900000000000000000e+01,4.364180101518786437e-01
3.903999999999999915e+01,4.074896338929751560e-01
3.907999999999999829e+01,3.385594920766018534e-01
3.911999999999999744e+01,2.842501460979153238e-01
3.915999999999999659e+01,2.550447137309222456e-01
3.920000000000000284e+01,2.164592545605826535e-01
3.924000000000000199e+01,1.977361498998918554e-01
3.928000000000000114e+01,1.808058149304251072e-01
3.932000000000000028e+01,1.489780224469184899e-01
3.935999999999999943e+01,1.451507941326607154e-01
3.939999999999999858e+01,1.144256968978299843e-01
3.943999999999999773e+01,1.221842815202382471e-01
3.947999999999999687e+01,9.407917256449435661e-02
3.952000000000000313e+01,9.838857179604827696e-02
3.956000000000000227e+01,8.973161365588866456e-02
3.960000000000000142e+01,8.176393842829227099e-02
3.964000000000000057e+01,8.579627845516234197e-02
3.967999999999999972e+01,7.562083900042446127e-02
3.971999999999999886e+01,5.703092195333806652e-02
3.975999999999999801e+01,5.085482718661688689e-02
3.979999999999999716e+01,6.412727844136513478e-02
3.984000000000000341e+01,4.788108036435301945e-02
3.988000000000000256e+01,6.501494002970287234e-02
3.992000000000000171e+01,6.394088261917900418e-02
3.996000000000000085e+01,4.424510076281664567e-02
4.000000000000000000e+01,5.296368898338735948e-02
4.003999999999999915e+01,3.547408571370141289e-02
4.007999999999999829e+01,3.301908350125435515e-02
4.011999999999999744e+01,3.290859221894906067e-02
4.015999999999999659e+01,4.548779387947606001e-02
4.020000000000000284e+01,5.089393876730140265e-02
4.024000000000000199e+01,3.160918510926449126e-02
4.028000000000000114e+01,4.694591018526934195e-02
4.032000000000000028e+01,3.372953522652841901e-02
4.035999999999999943e+01,2.754748656657734010e-02
4.039999999999999858e+01,3.171022239098598289e-02
4.043999999999999773e+01,2.249279166736962987e-02
4.047999999999999687e+01,4.362083064691351514e-02
4.052000000000000313e+01,2.157457846212314928e-02
4.056000000000000227e+01,3.635677659031642112e-02
4.060000000000000142e+01,3.762087206510256882e-02
4.064000000000000057e+01,3.157397405968931370e-02
4.067999999999999972e+01,2.580254936044536901e-02
4.071999999999999886e+01,1.837549722292884657e-02
4.075999999999999801e+01,2.570717315773842632e-02
4.079999999999999716e+01,3.124528572092631282e-02
4.084000000000000341e+01,2.795511099935525656e-02
4.088000000000000256e+01,2.935435351598596546e-02
4.092000000000000171e+01,2.689099598320401560e-02
4.096000000000000085e+01,3.159989922028051679e-02
4.100000000000000000e+01,3.161858766801484838e-02
4.103999999999999915e+01,3.039545527329283806e-02
4.107999999999999829e+01,2.875811651799455027e-02
4.111999999999999744e+01,2.587895674820688344e-02
4.115999999999999659e+01,1.830958184501105951e-02
4.120000000000000284e+01,2.729209896506896646e-02
4.124000000000000199e+01,3.834325308417427247e-02
4.128000000000000114e+01,2.470350642098822699e-02
4.132000000000000028e+01,3.189166012380532933e-02
4.135999999999999943e+01,1.852698571178086270e-02
4.139999999999999858e+01,3.026622009452549847e-02
4.143999999999999773e+01,1.648693878301617233e-02
4.147999999999999687e+01,2.229413564159914846e-02
4.152000000000000313e+01,2.851473976132080229e-02
4.156000000000000227e+01,1.749297360770465590e-02
4.160000000000000142e+01,2.260929133322889945e-02
4.164000000000000057e+01,3.172534585606078678e-02
4.167999999999999972e+01,2.815090997093645103e-02
4.171999999999999886e+01,2.112767960001760842e-02
4.175999999999999801e+01,1.893180033625352018e-02
4.179999999999999716e+01,3.094290386312192886e-02
4.184000000000000341e+01,3.040145239928417065e-02
4.188000000000000256e+01,3.565290211376426904e-02
4.192000000000000171e+01,2.752418209760854398e-02
4.196000000000000085e+01,2.256758362273186477e-02
4.200000000000000000e+01,2.036929931916945519e-02
4.203999999999999915e+01,1.623951321615753340e-02
4.207999999999999829e+01,1.735088481611653591e-02
4.211999999999999744e+01,2.770355111119661776e-02
4.215999999999999659e+01,2.950379880560521223e-02
4.220000000000000284e+01,2.178607748411314632e-02
4.224000000000000199e+01,1.986125656679034110e-02
4.228000000000000114e+01,2.193617107051104922e-02
4.232000000000000028e+01,2.456242687635640590e-02
4.235999999999999943e+01,2.829176694357430841e-02
4.239999999999999858e+01,2.595153159771136642e-02
4.243999999999999773e+01,1.602442737827405525e-02
4.247999999999999687e+01,3.147710115379224322e-02
4.252000000000000313e+01,2.968740259157646652e-02
4.256000000000000227e+01,2.569032958906443051e-02
4.260000000000000142e+01,2.693441317130873883e-02
4.264000000000000057e+01,2.555731485727548435e-02
4.267999999999999972e+01,2.293839217410910056e-02
4.271999999999999886e+01,2.804346952133921281e-02
4.275999999999999801e+01,2.666516339739161481e-02
4.279999999999999716e+01,3.576957235812938674e-02
4.284000000000000341e+01,2.749367253168501918e-02
4.288000000000000256e+01,2.901080881131246764e-02
4.292000000000000171e+01,3.659671555546082505e-02
4.296000000000000085e+01,3.011277152596370313e-02
4.300000000000000000e+01,3.549089976423042830e-02
4.303999999999999915e+01,2.845440619261176488e-02
4.307999999999999829e+01,3.976296549858028551e-02
4.311999999999999744e+01,2.169080418075100894e-02
4.315999999999999659e+01,4.086089486878068805e-02
4.320000000000000284e+01,2.968471443176688013e-02
4.324000000000000199e+01,3.685358652827418896e-02
4.328000000000000114e+01,3.229751510537759440e-02
4.332000000000000028e+01,3.587924970657820067e-02
4.335999999999999943e+01,2.387383929949129721e-02
4.339999999999999858e+01,3.945517709003780460e-02
4.343999999999999773e+01,3.655271871262583128e-02
4.347999999999999687e+01,3.930522231155528928e-02
4.352000000000000313e+01,4.660920171028092029e-02
4.356000000000000227e+01,4.522282373644119502e-02
4.360000000000000142e+01,4.080145451797950740e-02
4.364000000000000057e+01,3.458651582072416047e-02
4.367999999999999972e+01,3.816461150921054285e-02
4.371999999999999886e+01,4.532863223819796200e-02
4.375999999999999801e+01,5.538889911508931840e-02
4.379999999999999716e+01,4.337903925565520652e-02
4.384000000000000341e+01,5.136945977528774993e-02
4.388000000000000256e+01,5.660075997081495669e-02
4.392000000000000171e+01,5.755564638174324316e-02
4.396000000000000085e+01,6.085503546522869067e-02
4.400000000000000000e+01,6.636099137393861036e-02
4.403999999999999915e+01,7.765984381607493603e-02
4.407999999999999829e+01,8.095801657401181795e-02
4.411999999999999744e+01,8.853179231886511291e-02
4.415999999999999659e+01,1.125195179604345924e-01
4.420000000000000284e+01,1.228511974457952016e-01
4.424000000000000199e+01,1.399413233637123721e-01
4.428000000000000114e+01,1.643416386734339873e-01
4.432000000000000028e+01,1.949486571984147820e-01
4.435999999999999943e+01,2.279001775357876458e-01
4.439999999999999858e+01,2.699550519040245788e-01
4.443999999999999773e+01,2.833188816164994850e-01
4.447999999999999687e+01,3.195796413194147423e-01
4.452000000000000313e+01,3.190111462768855377e-01
4.456000000000000227e+01,3.315461419993211423e-01
4.460000000000000142e+01,3.478049966312105057e-01
4.464000000000000057e+01,3.875125239547388967e-01
4.467999999999999972e+01,3.668037810037044766e-01
4.471999999999999886e+01,3.776819204899254379e-01
4.475999999999999801e+01,3.601448861548844360e-01
4.479999999999999716e+01,3.437109308342090053e-01
4.484000000000000341e+01,3.621743159643257548e-01
4.488000000000000256e+01,3.617400945459415262e-01
4.492000000000000171e+01,3.534431273983271171e-01
4.496000000000000085e+01,3.483182753407538246e-01
4.500000000000000000e+01,3.285718250774290472e-01
4.503999999999999915e+01,2.937899692383876271e-01
4.507999999999999829e+01,2.874224725521830059e-01
4.511999999999999744e+01,2.818821826695795951e-01
4.515999999999999659e+01,2.738586412329749864e-01
4.520000000000000284e+01,2.381096038355072497e-01
4.524000000000000199e+01,2.044291948354362010e-01
4.528000000000000114e+01,2.166809862452631630e-01
4.532000000000000028e+01,1.876895768272004161e-01
4.535999999999999943e+01,1.676635836142894298e-01
4.539999999999999858e+01,1.499820899773413874e-01
4.543999999999999773e+01,1.357485819208684164e-01
4.547999999999999687e+01,1.326874619925553223e-01
4.552000000000000313e+01,1.031422672670919277e-01
4.556000000000000227e+01,1.009079445717383505e-01
4.560000000000000142e+01,8.639693032275917728e-02
4.564000000000000057e+01,8.554114756156348809e-02
4.567999999999999972e+01,7.902958961788168757e-02
4.571999999999999886e+01,7.486253056203068246e-02
4.575999999999999801e+01,7.497107096641926482e-02
4.579999999999999716e+01,6.349259819368019420e-02
4.584000000000000341e+01,6.084160483257879809e-02
4.588000000000000256e+01,4.715534116758107047e-02
4.592000000000000171e+01,4.312417131008460663e-02
4.596000000000000085e+01,4.943777398065334061e-02
4.600000000000000000e+01,5.133702263244874914e-02
4.603999999999999915e+01,5.089095359919565409e-02
4.607999999999999829e+01,5.030653897593517776e-02
4.611999999999999744e+01,4.806648530217371568e-02
4.615999999999999659e+01,3.754987594872221529e-02
4.620000000000000284e+01,3.696423132328861133e-02
4.624000000000000199e+01,3.320565401482742512e-02
4.628000000000000114e+01,4.365404986315009339e-02
4.632000000000000028e+01,3.810148705401545516e-02
4.635999999999999943e+01,3.668658665355671589e-02
4.639999999999999858e+01,3.127113865810786375e-02
4.643999999999999773e+01,4.061440652064113310e-02
4.647999999999999687e+01,3.795685245981780115e-02
4.652000000000000313e+01,2.647099889989154922e-02
4.656000000000000227e+01,2.546785233909895987e-02
4.660000000000000142e+01,2.777475310298671909e-02
4.664000000000000057e+01,4.277133287503266657e-02
4.667999999999999972e+01,2.893892741307602448e-02
4.671999999999999886e+01,2.545129284487097909e-02
4.675999999999999801e+01,2.044595361121688201e-02
4.679999999999999716e+01,2.895790760955153920e-02
4.684000000000000341e+01,2.602078195564542021e-02
4.688000000000000256e+01,2.970416129589030160e-02
4.692000000000000171e+01,2.911112040029830914e-02
4.696000000000000085e+01,2.700037440917475717e-02
4.700000000000000000e+01,3.013077554099174646e-02
4.703999999999999915e+01,3.229521445050857753e-02
4.707999999999999829e+01,3.197639767723169796e-02
4.711999999999999744e+01,1.910501455906974191e-02
4.715999999999999659e+01,2.306138217033417565e-02
4.720000000000000284e+01,2.563797993128416261e-02
4.724000000000000199e+01,2.200705610983984609e-02
4.728000000000000114e+01,2.265172848000787664e-02
4.732000000000000028e+01,2.702025391050739966e-02
4.735999999999999943e+01,2.531919326187918526e-02
4.739999999999999858e+01,1.906583982258381466e-02
4.743999999999999773e+01,1.626046766293819112e-02
4.747999999999999687e+01,1.897211311666722328e-02
4.752000000000000313e+01,1.464862181798988819e-02
4.756000000000000227e+01,2.798049495647044610e-02
4.760000000000000142e+01,1.703526100599987714e-02
4.764000000000000057e+01,1.753828206142997448e-02
4.767999999999999972e+01,1.735121104092795727e-02
4.771999999999999886e+01,2.295702864033378685e-02
4.775999999999999801e+01,3.339018444441821387e-02
4.779999999999999716e+01,2.547747046606104598e-02
4.784000000000000341e+01,2.790952497299326041e-02
4.788000000000000256e+01,3.116878034838784298e-02
4.792000000000000171e+01,2.987574181490068592e-02
4.796000000000000085e+01,2.375453776388303240e-02
4.800000000000000000e+01,2.259860716276111681e-02
4.803999999999999915e+01,3.013221548105291664e-02
4.807999999999999829e+01,1.656123818846561013e-02
4.811999999999999744e+01,2.933557709171909569e-02
4.815999999999999659e+01,1.328092757835920047e-02
4.820000000000000284e+01,3.226154705172094850e-02
4.824000000000000199e+01,2.255111369775245067e-02
4.828000000000000114e+01,2.456480549605271138e-02
4.832000000000000028e+01,1.706051511792674308e-02
4.835999999999999943e+01,2.762539474057681965e-02
4.839999999999999858e+01,2.343073308475610017e-02
4.843999999999999773e+01,2.806354524950014848e-02
4.847999999999999687e+01,2.400598946164848521e-02
4.852000000000000313e+01,3.029320069680562985e-02
4.856000000000000227e+01,2.044151269626498860e-02
4.860000000000000142e+01,1.900349088827478841e-02
4.864000000000000057e+01,2.653087823208289536e-02
4.867999999999999972e+01,2.964390579401168790e-02
4.871999999999999886e+01,2.241133575145264761e-02
4.875999999999999801e+01,3.228238452029195266e-02
4.879999999999999716e+01,1.980742427811018475e-02
4.884000000000000341e+01,2.553956876582249430e-02
4.888000000000000256e+01,1.899501464655561911e-02
4.892000000000000171e+01,1.493288829511509215e-02
4.896000000000000085e+01,3.059515978999614860e-02
4.900000000000000000e+01,2.515284369561848754e-02
4.903999999999999915e+01,2.012391869127623523e-02
4.907999999999999829e+01,2.199136547280929402e-02
4.911999999999999744e+01,3.434151374841964283e-02
4.915999999999999659e+01,2.448358800017648440e-02
4.920000000000000284e+01,2.524629933529364337e-02
4.924000000000000199e+01,2.228432849088091486e-02
4.928000000000000114e+01,1.670116147145045415e-02
4.932000000000000028e+01,2.504908954891707507e-02
4.935999999999999943e+01,1.836160276088458221e-02
4.939999999999999858e+01,3.346754929273346169e-02
4.943999999999999773e+01,2.388257749492360416e-02
4.947999999999999687e+01,1.719383954465729045e-02
4.952000000000000313e+01,2.705697572621129296e-02
4.956000000000000227e+01,2.464341183850551203e-02
4.960000000000000142e+01,2.816066828924778179e-02
4.964000000000000057e+01,2.491865495134100786e-02
4.967999999999999972e+01,2.195209556588945121e-02
4.971999999999999886e+01,2.408874169293988288e-02
4.975999999999999801e+01,3.284588662095283551e-02
4.979999999999999716e+01,2.132605680727346978e-02
4.984000000000000341e+01,2.028892693937424385e-02
4.988000000000000256e+01,1.125110491488207597e-02
4.992000000000000171e+01,1.531676212914281562e-02
4.996000000000000085e+01,2.172690911348465481e-02
5.000000000000000000e+01,3.144709611110367564e-02
5.003999999999999915e+01,3.095961842700624064e-02
5.007999999999999829e+01,2.550603490518738026e-02
5.011999999999999744e+01,2.074171167359044332e-02
5.015999999999999659e+01,2.273582214410704849e-02
5.020000000000000284e+01,2.955726557229536311e-02
5.024000000000000199e+01,2.465375051420766808e-02
5.028000000000000114e+01,1.781871593727003475e-02
5.032000000000000028e+01,1.760417895706386376e-02
5.035999999999999943e+01,1.725128718308399992e-02
5.039999999999999858e+01,1.731178357457831274e-02
5.043999999999999773e+01,2.026851174922000842e-02
5.047999999999999687e+01,3.315619544811334446e-02
5.052000000000000313e+01,2.576690285701728478e-02
5.056000000000000227e+01,2.251526364286389470e-02
5.060000000000000142e+01,2.022875520936652169e-02
5.064000000000000057e+01,2.318338607130759205e-02
5.067999999999999972e+01,1.827525881764165486e-02
5.071999999999999886e+01,1.957382101659381132e-02
5.075999999999999801e+01,2.238925669740036289e-02
5.079999999999999716e+01,1.044514593874567090e-02
5.084000000000000341e+01,2.553602433338971953e-02
5.088000000000000256e+01,2.090166870916014899e-02
5.092000000000000171e+01,2.178432330088565100e-02
5.096000000000000085e+01,2.514940127359568608e-02
5.100000000000000000e+01,3.127277406390586989e-02
5.103999999999999915e+01,1.849852705917295892e-02
5.107999999999999829e+01,2.379344420609369112e-02
5.111999999999999744e+01,1.653578640647862530e-02
5.115999999999999659e+01,2.638174225727149200e-02
5.120000000000000284e+01,2.533035212528869998e-02
5.124000000000000199e+01,2.248537617137592870e-02
5.128000000000000114e+01,2.143314410373515708e-02
5.132000000000000028e+01,2.562204986925218503e-02
5.135999999999999943e+01,3.187957087164040859e-02
5.139999999999999858e+01,2.889497459696351023e-02
5.143999999999999773e+01,2.508234239948676017e-02
5.147999999999999687e+01,1.657947287634310013e-02
5.152000000000000313e+01,1.166251162048155890e-02
5.156000000000000227e+01,2.329742010959847537e-02
5.160000000000000142e+01,3.038002677631505832e-02
5.164000000000000057e+01,2.297895671985589541e-02
5.167999999999999972e+01,1.185319923685989804e-02
5.171999999999999886e+01,2.141738399425919398e-02
5.175999999999999801e+01,1.925660699675515661e-02
5.179999999999999716e+01,2.564742507179711140e-02
5.184000000000000341e+01,2.665832624044308860e-02
5.188000000000000256e+01,2.822054815326855912e-02
5.192000000000000171e+01,2.509253179424546926e-02
5.196000000000000085e+01,2.141234991684012878e-02
5.200000000000000000e+01,1.814555276424877420e-02
5.203999999999999915e+01,1.832672699940881417e-02
5.207999999999999829e+01,2.650775265973492542e-02
5.211999999999999744e+01,2.103271513258388181e-02
5.215999999999999659e+01,2.452307918777853202e-02
5.220000000000000284e+01,3.353045070640000430e-02
5.224000000000000199e+01,2.391607137211543624e-02
5.228000000000000114e+01,1.526681920579359489e-02
5.232000000000000028e+01,2.565227885382624987e-02
5.235999999999999943e+01,2.624387611513331192e-02
5.239999999999999858e+01,2.586949962792833152e-02
5.243999999999999773e+01,2.908102942962580151e-02
5.247999999999999687e+01,2.525741181287000439e-02
5.252000000000000313e+01,3.274410294668501920e-02
5.256000000000000227e+01,3.333358225132982550e-02
5.260000000000000142e+01,1.737034634866137586e-02
5.264000000000000057e+01,1.823484939115794720e-02
5.267999999999999972e+01,2.461635886488322891e-02
5.271999999999999886e+01,2.548001377853329960e-02
5.275999999999999801e+01,2.703292330531582507e-02
5.279999999999999716e+01,3.051650921105919512e-02
5.284000000000000341e+01,2.406829593656274399e-02
5.288000000000000256e+01,2.424057475374127857e-02
5.292000000000000171e+01,1.986054890997472622e-02
5.296000000000000085e+01,3.189445403929278694e-02
5.300000000000000000e+01,1.868569013821859415e-02
5.303999999999999915e+01,2.368402193530529110e-02
5.307999999999999829e+01,3.033715798660503726e-02
5.311999999999999744e+01,2.540326511975632071e-02
5.315999999999999659e+01,2.405527699351300841e-02
5.320000000000000284e+01,2.367241405685274747e-02
5.324000000000000199e+01,2.163389675875328211e-02
5.328000000000000114e+01,2.856077863453731699e-02
5.332000000000000028e+01,2.155572321971683039e-02
5.335999999999999943e+01,2.406780985201116205e-02
5.339999999999999858e+01,2.037236165536915333e-02
5.343999999999999773e+01,2.426295467538373482e-02
5.347999999999999687e+01,2.498059944338298921e-02
5.352000000000000313e+01,3.259460644942530766e-02
5.356000000000000227e+01,2.875951935245372668e-02
5.360000000000000142e+01,3.113111551491170095e-02
5.364000000000000057e+01,2.191568164100662214e-02
5.367999999999999972e+01,2.138977455818781917e-02
5.371999999999999886e+01,2.196692730805360760e-02
5.375999999999999801e+01,2.199191066879436010e-02
5.379999999999999716e+01,1.870600932807164538e-02
5.384000000000000341e+01,2.245440529857607032e-02
5.388000000000000256e+01,2.923696141612432825e-02
5.392000000000000171e+01,3.008785310915385036e-02
5.396000000000000085e+01,1.921377831637222436e-02
5.400000000000000000e+01,2.420188921498163739e-02
5.403999999999999915e+01,1.912026259153997917e-02
5.407999999999999829e+01,1.734866720769183759e-02
5.411999999999999744e+01,2.702531289507030532e-02
5.415999999999999659e+01,2.014924002049170784e-02
5.420000000000000284e+01,2.761805903274465110e-02
5.424000000000000199e+01,3.039663478419168952e-02
5.428000000000000114e+01,2.807115990486795665e-02
5.432000000000000028e+01,2.546938595482023740e-02
5.435999999999999943e+01,3.417791679858397935e-02
5.439999999999999858e+01,3.143735173298711078e-02
5.443999999999999773e+01,2.800668005466850838e-02
5.447999999999999687e+01,2.733429571051396167e-02
5.452000000000000313e+01,3.176510655688061235e-02
5.456000000000000227e+01,2.750553637614252742e-02
5.460000000000000142e+01,2.972851882705354262e-02
5.464000000000000057e+01,2.188176246566587990e-02
5.467999999999999972e+01,2.989719033338866794e-02
5.471999999999999886e+01,1.984260506044633124e-02
5.475999999999999801e+01,3.351254223959883316e-02
5.479999999999999716e+01,2.442265022130593599e-02
5.484000000000000341e+01,2.843622686173561537e-02
5.488000000000000256e+01,2.265593569639977670e-02
5.492000000000000171e+01,1.977186668036251191e-02
5.496000000000000085e+01,3.137062367815923042e-02
5.500000000000000000e+01,1.855432191263493846e-02
5.503999999999999915e+01,3.084189961025091131e-02
5.507999999999999829e+01,2.340423425725996973e-02
5.511999999999999744e+01,2.575957868928982833e-02
5.515999999999999659e+01,2.880417257346174278e-02
5.520000000000000284e+01,2.977930059743734773e-02
5.524000000000000199e+01,2.923670572046443983e-02
5.528000000000000114e+01,2.621083752731397445e-02
5.532000000000000028e+01,2.208105354513023588e-02
5.535999999999999943e+01,3.795152516925920372e-02
5.539999999999999858e+01,2.692409346621241206e-02
5.543999999999999773e+01,3.300026620980731074e-02
5.547999999999999687e+01,2.238578179158435405e-02
5.552000000000000313e+01,1.715036193610208412e-02
5.556000000000000227e+01,3.025996812105686065e-02
5.560000000000000142e+01,2.460988046640284060e-02
5.564000000000000057e+01,2.944248028513546042e-02
5.567999999999999972e+01,2.075694502223791524e-02
5.571999999999999886e+01,3.400276524992976862e-02
5.575999999999999801e+01,2.600604759025711143e-02
5.579999999999999716e+01,3.138866804754306128e-02
5.584000000000000341e+01,1.870127295570168588e-02
5.588000000000000256e+01,3.208330584986653078e-02
5.592000000000000171e+01,2.711945150023880105e-02
5.596000000000000085e+01,1.981025813346896230e-02
5.600000000000000000e+01,2.436310907909812473e-02
5.603999999999999915e+01,2.684649235818431165e-02
5.607999999999999829e+01,3.070880191761340278e-02
5.611999999999999744e+01,3.194990059320209491e-02
5.615999999999999659e+01,2.932836644708907217e-02
5.620000000000000284e+01,2.463736429036707948e-02
5.624000000000000199e+01,2.573923243203690703e-02
5.628000000000000114e+01,2.959938403712799801e-02
5.632000000000000028e+01,2.711405877276165666e-02
5.635999999999999943e+01,2.104197177924327367e-02
5.639999999999999858e+01,3.207348716797039229e-02
5.643999999999999773e+01,3.331113139628820441e-02
5.647999999999999687e+01,2.723774808186993357e-02
5.652000000000000313e+01,2.902627088346932185e-02
5.656000000000000227e+01,2.640041695793757248e-02
5.660000000000000142e+01,3.191234049902271636e-02
5.664000000000000057e+01,2.445786993934584083e-02
5.667999999999999972e+01,2.955512103636787763e-02
5.671999999999999886e+01,2.334120699638796148e-02
5.675999999999999801e+01,2.567887736290724171e-02
5.679999999999999716e+01,2.374010624751239293e-02
5.684000000000000341e+01,3.352544187685381483e-02
5.688000000000000256e+01,3.379277692223658230e-02
5.692000000000000171e+01,2.674908347870160949e-02
5.696000000000000085e+01,3.142949652185340892e-02
5.700000000000000000e+01,2.562635839378437502e-02
5.703999999999999915e+01,2.699544645693795902e-02
5.707999999999999829e+01,2.477777124264235117e-02
5.711999999999999744e+01,2.573218496936965569e-02
5.715999999999999659e+01,2.254809220135043160e-02
5.720000000000000284e+01,2.212228091837277130e-02
5.724000000000000199e+01,3.107566757759273185e-02
5.728000000000000114e+01,3.575261172270054189e-02
5.732000000000000028e+01,3.118742586030023162e-02
5.735999999999999943e+01,3.158749331993301879e-02
5.739999999999999858e+01,2.260749483870863261e-02
5.743999999999999773e+01,2.507573028934072593e-02
5.747999999999999687e+01,2.230197246656542842e-02
5.752000000000000313e+01,2.766599013202737656e-02
5.756000000000000227e+01,3.275370175942830808e-02
5.760000000000000142e+01,2.680611788009636121e-02
5.764000000000000057e+01,3.368612511569935714e-02
5.767999999999999972e+01,2.497895654910537236e-02
5.771999999999999886e+01,2.868557164146497834e-02
5.775999999999999801e+01,3.473665973068682661e-02
5.779999999999999716e+01,2.823515850861628082e-02
5.784000000000000341e+01,2.863001023480600885e-02
5.788000000000000256e+01,2.378286782742332003e-02
5.792000000000000171e+01,2.293542720862999651e-02
5.796000000000000085e+01,2.429452339530020766e-02
5.800000000000000000e+01,2.923951391457849103e-02
5.803999999999999915e+01,3.625310530597126990e-02
5.807999999999999829e+01,2.588635513789281847e-02
5.811999999999999744e+01,3.345081822124668092e-02
5.815999999999999659e+01,2.570397599283762852e-02
5.820000000000000284e+01,2.830187997144273729e-02
5.824000000000000199e+01,2.510604599706242612e-02
5.828000000000000114e+01,2.522023423054239877e-02
5.832000000000000028e+01,2.340288565585468133e-02
5.835999999999999943e+01,2.310239421988495578e-02
5.839999999999999858e+01,2.928444724399617907e-02
5.843999999999999773e+01,2.443120295502793429e-02
5.847999999999999687e+01,2.743986056726855499e-02
5.852000000000000313e+01,2.658588028283355789e-02
5.856000000000000227e+01,2.724875670703407610e-02
5.860000000000000142e+01,2.460073810779040901e-02
5.864000000000000057e+01,3.119397867885045222e-02
5.867999999999999972e+01,3.309696644127230192e-02
5.871999999999999886e+01,2.382672052718302555e-02
5.875999999999999801e+01,1.786649578875595251e-02
5.879999999999999716e+01,2.459592390946897800e-02
5.884000000000000341e+01,2.484193398036854683e-02
5.888000000000000256e+01,2.370814908413365618e-02
5.892000000000000171e+01,2.464296316765007822e-02
5.896000000000000085e+01,2.888779799674617843e-02
5.900000000000000000e+01,2.554572834143407564e-02
5.903999999999999915e+01,3.034143090573190871e-02
5.907999999999999829e+01,2.630880696174366790e-02
5.911999999999999744e+01,3.358647757560254826e-02
5.915999999999999659e+01,2.775981290834335022e-02
5.920000000000000284e+01,2.496729694793265245e-02
5.924000000000000199e+01,2.148466405281936747e-02
5.928000000000000114e+01,2.710535319042963950e-02
5.932000000000000028e+01,2.210455040654555475e-02
5.935999999999999943e+01,2.675881252861640747e-02
5.939999999999999858e+01,2.589520572585539762e-02
5.943999999999999773e+01,2.723813254594719194e-02
5.947999999999999687e+01,3.368424389051330459e-02
5.952000000000000313e+01,3.143996354192787890e-02
5.956000000000000227e+01,2.988492318366872680e-02
5.960000000000000142e+01,2.653627902602971253e-02
5.964000000000000057e+01,2.304926011878741243e-02
5.967999999999999972e+01,2.411368226067247753e-02
5.971999999999999886e+01,2.241895001591547726e-02
5.975999999999999801e+01,2.996547453300008046e-02
5.979999999999999716e+01,2.164894716638068872e-02
5.984000000000000341e+01,2.395303400273078240e-02
5.988000000000000256e+01,3.204998330997061579e-02
5.992000000000000171e+01,2.911163212152017427e-02
5.996000000000000085e+01,2.437967635954128853e-02
