2.003999999999999915e+01,1.393544876457039443e-02
2.007999999999999829e+01,1.768491578038565437e-02
2.012000000000000099e+01,1.983818149476819503e-02
2.016000000000000014e+01,1.784158462448141511e-02
2.019999999999999929e+01,9.035061341969647525e-03
2.023999999999999844e+01,6.931734555961134060e-03
2.028000000000000114e+01,1.876697706044246419e-02
2.032000000000000028e+01,1.847216527797351099e-02
2.035999999999999943e+01,1.285706182527014511e-02
2.039999999999999858e+01,1.139149292698988895e-02
2.044000000000000128e+01,4.180021741976426390e-03
2.048000000000000043e+01,1.420559762322957942e-02
2.051999999999999957e+01,1.348435119559141665e-02
2.055999999999999872e+01,1.606141808937864082e-02
2.060000000000000142e+01,1.565904797023530762e-02
2.064000000000000057e+01,1.473505663343623582e-04
2.067999999999999972e+01,1.368338154988938717e-02
2.071999999999999886e+01,8.811605935611296903e-03
2.076000000000000156e+01,1.851681224235967455e-02
2.080000000000000071e+01,1.194226239839973197e-02
2.083999999999999986e+01,2.185993983395585760e-02
2.087999999999999901e+01,1.751950902161095169e-02
2.092000000000000171e+01,6.475550388304595999e-03
2.096000000000000085e+01,1.415827180634273742e-02
2.100000000000000000e+01,2.088320235734473368e-02
2.103999999999999915e+01,8.349104199059334541e-03
2.107999999999999829e+01,1.315845235714658765e-02
2.112000000000000099e+01,1.456275047004920720e-02
2.116000000000000014e+01,7.241871102270201407e-03
2.119999999999999929e+01,1.088028473296200407e-02
2.123999999999999844e+01,1.866822830618058635e-02
2.128000000000000114e+01,1.517733267625136218e-02
2.132000000000000028e+01,1.306950039736154943e-02
2.135999999999999943e+01,2.404901112483927295e-02
2.139999999999999858e+01,1.587589371082035947e-02
2.144000000000000128e+01,1.834286034463459419e-02
2.148000000000000043e+01,1.559593170333700533e-02
2.151999999999999957e+01,1.316803987183166186e-02
2.155999999999999872e+01,9.037536288469007889e-03
2.160000000000000142e+01,1.948401001423639631e-02
2.164000000000000057e+01,2.131170616827051181e-02
2.167999999999999972e+01,1.718068813889866292e-02
2.171999999999999886e+01,2.358335007574354630e-02
2.176000000000000156e+01,1.594070402181226032e-02
2.180000000000000071e+01,2.138539855849326890e-02
2.183999999999999986e+01,6.826242183381093891e-03
2.187999999999999901e+01,9.610527732359392533e-03
2.192000000000000171e+01,3.314313640397895111e-02
2.196000000000000085e+01,1.081607523577228329e-02
2.200000000000000000e+01,1.072697237142589306e-02
2.203999999999999915e+01,1.404257724710035113e-02
2.207999999999999829e+01,2.108209727613448783e-02
2.212000000000000099e+01,1.365069716059493822e-02
2.216000000000000014e+01,1.877462293755228356e-02
2.219999999999999929e+01,2.666484031016813985e-02
2.223999999999999844e+01,2.146736995549743121e-02
2.228000000000000114e+01,1.073679230047964138e-02
2.232000000000000028e+01,1.351916255836137573e-02
2.235999999999999943e+01,2.555837873682214462e-02
2.239999999999999858e+01,2.557393175271653260e-02
2.244000000000000128e+01,2.250363510911350048e-02
2.248000000000000043e+01,1.762431911821088146e-02
2.251999999999999957e+01,1.700092858650107189e-02
2.255999999999999872e+01,2.212309891481700069e-02
2.260000000000000142e+01,2.458502888244982337e-02
2.264000000000000057e+01,2.151384957320862101e-02
2.267999999999999972e+01,3.993580702416412581e-02
2.271999999999999886e+01,2.856487465459159325e-02
2.276000000000000156e+01,1.198003998225556817e-02
2.280000000000000071e+01,2.242127371579220874e-02
2.283999999999999986e+01,3.307513446753772984e-02
2.287999999999999901e+01,3.308856249747696432e-02
2.292000000000000171e+01,2.799448989051407308e-02
2.296000000000000085e+01,2.502828944063551289e-02
2.300000000000000000e+01,2.035946933279151466e-02
2.303999999999999915e+01,2.888438555184008952e-02
2.307999999999999829e+01,3.091856717940040522e-02
2.312000000000000099e+01,3.380378955377683764e-02
2.316000000000000014e+01,2.604857766904816047e-02
2.319999999999999929e+01,3.106149105548500905e-02
2.323999999999999844e+01,3.352056311173048919e-02
2.328000000000000114e+01,4.236360734085366231e-02
2.332000000000000028e+01,3.599090702675616926e-02
2.335999999999999943e+01,3.653419116789648202e-02
2.339999999999999858e+01,4.250382392421332006e-02
2.344000000000000128e+01,4.581321170795062125e-02
2.348000000000000043e+01,4.497271867904706344e-02
2.351999999999999957e+01,4.274881077014759667e-02
2.355999999999999872e+01,4.020551320481477453e-02
2.360000000000000142e+01,4.638704203043524099e-02
2.364000000000000057e+01,3.969368053091055365e-02
2.367999999999999972e+01,5.236539941487668853e-02
2.371999999999999886e+01,4.450124434359808284e-02
2.376000000000000156e+01,5.036283436774625921e-02
2.380000000000000071e+01,4.760563496099901731e-02
2.383999999999999986e+01,5.229643009570865420e-02
2.387999999999999901e+01,3.347207915582264132e-02
2.392000000000000171e+01,4.135458283966115395e-02
2.396000000000000085e+01,4.242713946754799598e-02
2.400000000000000000e+01,3.317846485738647905e-02
2.403999999999999915e+01,3.095217351334049113e-02
2.407999999999999829e+01,3.755710846919620149e-02
2.412000000000000099e+01,3.022312502136076384e-02
2.416000000000000014e+01,3.831732518189349262e-02
2.419999999999999929e+01,2.715247928362402724e-02
2.423999999999999844e+01,3.513990560561258691e-02
2.428000000000000114e+01,3.642378565905417948e-02
2.432000000000000028e+01,4.664529323903044561e-02
2.435999999999999943e+01,3.760775388174805028e-02
2.439999999999999858e+01,2.846362534477125603e-02
2.444000000000000128e+01,2.655468296640415421e-02
2.448000000000000043e+01,3.145531634976216073e-02
2.451999999999999957e+01,2.337465203214683304e-02
2.455999999999999872e+01,3.848955486194755027e-02
2.460000000000000142e+01,2.221551938459203485e-02
2.464000000000000057e+01,3.062668623587148573e-02
2.467999999999999972e+01,2.009801202593238661e-02
2.471999999999999886e+01,1.957098858956336437e-02
2.476000000000000156e+01,2.893921316283266931e-02
2.480000000000000071e+01,2.468772323192390539e-02
2.483999999999999986e+01,3.203392158050772515e-02
2.487999999999999901e+01,2.331314646637923718e-02
2.492000000000000171e+01,2.491322866070323772e-02
2.496000000000000085e+01,2.598110842346456131e-02
2.500000000000000000e+01,3.162410766229660497e-02
2.503999999999999915e+01,1.524159007817111472e-02
2.507999999999999829e+01,2.375707749556068421e-02
2.512000000000000099e+01,1.844004356322396718e-02
2.516000000000000014e+01,2.035819183644306876e-02
2.519999999999999929e+01,1.876486511952041650e-02
2.523999999999999844e+01,2.355549981438397403e-02
2.528000000000000114e+01,3.590052368891397117e-02
2.532000000000000028e+01,1.792063074641031886e-02
2.535999999999999943e+01,2.537075398971127757e-02
2.539999999999999858e+01,2.473409173914063730e-02
2.544000000000000128e+01,2.005394045915534496e-02
2.548000000000000043e+01,2.080012637441268700e-02
2.551999999999999957e+01,2.048209406192161644e-02
2.555999999999999872e+01,1.952545347933852191e-02
2.560000000000000142e+01,1.335489500139002209e-02
2.564000000000000057e+01,1.707957970156941466e-02
2.567999999999999972e+01,2.016565547281446921e-02
2.571999999999999886e+01,2.484757552618182055e-02
2.576000000000000156e+01,2.218752591937430199e-02
2.580000000000000071e+01,1.410075223049556473e-02
2.583999999999999986e+01,2.463422925572193029e-02
2.587999999999999901e+01,2.239920620173048438e-02
2.592000000000000171e+01,1.335422533069597663e-02
2.596000000000000085e+01,1.558771895700596620e-02
2.600000000000000000e+01,2.207711893608090004e-02
2.603999999999999915e+01,1.590442050179929553e-02
2.607999999999999829e+01,2.069098827306689592e-02
2.612000000000000099e+01,2.196607600306815788e-02
2.616000000000000014e+01,2.217694199149510687e-02
2.619999999999999929e+01,2.611170051302820483e-02
2.623999999999999844e+01,1.812917733335780990e-02
2.628000000000000114e+01,2.110591926116600278e-02
2.632000000000000028e+01,1.748550626442528511e-02
2.635999999999999943e+01,2.088746379618164339e-02
2.639999999999999858e+01,1.545781253349004514e-02
2.644000000000000128e+01,1.002796343510190674e-02
2.648000000000000043e+01,2.119671319495775377e-02
2.651999999999999957e+01,1.768171356405212613e-02
2.655999999999999872e+01,1.065523147612496523e-02
2.660000000000000142e+01,7.884652446751044819e-03
2.664000000000000057e+01,2.139346376421170925e-02
2.667999999999999972e+01,1.681364339428949653e-02
2.671999999999999886e+01,2.319308571609058137e-02
2.676000000000000156e+01,1.722963330443405203e-02
2.680000000000000071e+01,2.339587113276694885e-02
2.683999999999999986e+01,1.519756544637847206e-02
2.687999999999999901e+01,1.849053429484524835e-02
2.692000000000000171e+01,2.518818409041117395e-02
2.696000000000000085e+01,2.273501438397856206e-02
2.700000000000000000e+01,1.602554199454570699e-02
2.703999999999999915e+01,3.038357225010072590e-02
2.707999999999999829e+01,1.888558288694271170e-02
2.712000000000000099e+01,1.589959550006087366e-02
2.716000000000000014e+01,2.791616507321819513e-02
2.719999999999999929e+01,2.003525685060892833e-02
2.723999999999999844e+01,2.055994740111583355e-02
2.728000000000000114e+01,2.576614745400688730e-02
2.732000000000000028e+01,1.511816573635994809e-02
2.735999999999999943e+01,1.457822284206933793e-02
2.739999999999999858e+01,2.616796689355650046e-02
2.744000000000000128e+01,2.775566845313456529e-02
2.748000000000000043e+01,2.891755628977856971e-02
2.751999999999999957e+01,2.507832077821517056e-02
2.755999999999999872e+01,3.198553825784345578e-02
2.760000000000000142e+01,1.644161468194033776e-02
2.764000000000000057e+01,2.643409731815506841e-02
2.767999999999999972e+01,1.993398094139895230e-02
2.771999999999999886e+01,2.449952431033107850e-02
2.776000000000000156e+01,2.938407022925393006e-02
2.780000000000000071e+01,2.150010552748164022e-02
2.783999999999999986e+01,3.127875766025001170e-02
2.787999999999999901e+01,3.339622086034253062e-02
2.792000000000000171e+01,2.348999059112116122e-02
2.796000000000000085e+01,3.124637649759804542e-02
2.800000000000000000e+01,3.059675500233315429e-02
2.803999999999999915e+01,3.228778286179571216e-02
2.807999999999999829e+01,4.270361251543109554e-02
2.812000000000000099e+01,3.513720511989311401e-02
2.816000000000000014e+01,5.214957818263068340e-02
2.819999999999999929e+01,3.298487867864736273e-02
2.823999999999999844e+01,3.435566250964028345e-02
2.828000000000000114e+01,3.966313254244089453e-02
2.832000000000000028e+01,4.401277151882278943e-02
2.835999999999999943e+01,3.942438839534764816e-02
2.839999999999999858e+01,4.515684347389722908e-02
2.844000000000000128e+01,4.195127601336142570e-02
2.848000000000000043e+01,3.810708425090351958e-02
2.851999999999999957e+01,3.841238246120388250e-02
2.855999999999999872e+01,4.180314498147184865e-02
2.860000000000000142e+01,3.827753242623356533e-02
2.864000000000000057e+01,2.985719291791032876e-02
2.867999999999999972e+01,4.303635977198477791e-02
2.871999999999999886e+01,3.674365066222698428e-02
2.876000000000000156e+01,3.640927346094304656e-02
2.880000000000000071e+01,2.905211754176458688e-02
2.883999999999999986e+01,3.967678059972697818e-02
2.887999999999999901e+01,3.231920243584789076e-02
2.892000000000000171e+01,3.336721382129231861e-02
2.896000000000000085e+01,3.292537791490399851e-02
2.900000000000000000e+01,3.493058863682207277e-02
2.903999999999999915e+01,2.491209974023110563e-02
2.907999999999999829e+01,3.372664885763757697e-02
2.912000000000000099e+01,3.402878187978938818e-02
2.916000000000000014e+01,3.039380799273178752e-02
2.919999999999999929e+01,2.228971425526231342e-02
2.923999999999999844e+01,2.642169990563911219e-02
2.928000000000000114e+01,2.427572201297566526e-02
2.932000000000000028e+01,1.776702615537567240e-02
2.935999999999999943e+01,2.860173115402711921e-02
2.939999999999999858e+01,2.975359053263094966e-02
2.944000000000000128e+01,1.930735827385523032e-02
2.948000000000000043e+01,2.301244988295893940e-02
2.951999999999999957e+01,2.331244532791439811e-02
2.955999999999999872e+01,2.488905633908455525e-02
2.960000000000000142e+01,1.997489696166625250e-02
2.964000000000000057e+01,2.133827229416422611e-02
2.967999999999999972e+01,2.036057602723417154e-02
2.971999999999999886e+01,2.587321911962746010e-02
2.976000000000000156e+01,1.776612047569286340e-02
2.980000000000000071e+01,1.476612767572388872e-02
2.983999999999999986e+01,2.453422369097773073e-02
2.987999999999999901e+01,2.302343328604977007e-02
2.992000000000000171e+01,2.087401067309159822e-02
2.996000000000000085e+01,1.797955308817144812e-02
3.000000000000000000e+01,2.327787403435842284e-02
3.003999999999999915e+01,8.253091414906319964e-03
3.007999999999999829e+01,1.887110415542885694e-02
3.012000000000000099e+01,7.357169637683848643e-03
3.016000000000000014e+01,2.333572063507035037e-03
3.019999999999999929e+01,9.865256239390716650e-03
3.023999999999999844e+01,2.048239550144930268e-02
3.028000000000000114e+01,2.471516318579718152e-02
3.032000000000000028e+01,1.596660132512549637e-02
3.035999999999999943e+01,6.366599752033096950e-03
3.039999999999999858e+01,1.272676024909563317e-02
3.044000000000000128e+01,1.621383225247372342e-02
3.048000000000000043e+01,4.910730578975648977e-03
3.051999999999999957e+01,2.329371853376797571e-02
3.055999999999999872e+01,1.465023977592535068e-02
3.060000000000000142e+01,1.132666755840139317e-02
3.064000000000000057e+01,1.396141692748796050e-02
3.067999999999999972e+01,1.351027139657007270e-02
3.071999999999999886e+01,8.057984948315817172e-03
3.076000000000000156e+01,9.734447415323969899e-03
3.080000000000000071e+01,2.045490437569826014e-02
3.083999999999999986e+01,1.670439331562235952e-02
3.087999999999999901e+01,1.561372365062492669e-02
3.092000000000000171e+01,1.899173841449201816e-02
3.096000000000000085e+01,1.736861094333807046e-02
3.100000000000000000e+01,1.053153592891361776e-02
3.103999999999999915e+01,1.944181438218302652e-02
3.107999999999999829e+01,1.175307261096444726e-02
3.112000000000000099e+01,1.257631085461080427e-02
3.116000000000000014e+01,1.148407955037757805e-02
3.119999999999999929e+01,1.124284463090977765e-02
3.123999999999999844e+01,1.547029238339362248e-02
3.128000000000000114e+01,1.533501140984946595e-02
3.132000000000000028e+01,2.169006101106419823e-02
3.135999999999999943e+01,1.772383896523389152e-02
3.139999999999999858e+01,1.045891297770979583e-02
3.144000000000000128e+01,1.330200341290264932e-02
3.148000000000000043e+01,1.242077928990285331e-02
3.151999999999999957e+01,1.260335488339089406e-02
3.155999999999999872e+01,1.576497577147049564e-02
3.160000000000000142e+01,1.786234505045653301e-02
3.164000000000000057e+01,1.325612765189910190e-02
3.167999999999999972e+01,1.279938287658511503e-02
3.171999999999999886e+01,5.958258617452411379e-03
3.176000000000000156e+01,1.401326351841826988e-02
3.180000000000000071e+01,1.398144778725466178e-02
3.183999999999999986e+01,7.246044280477015841e-03
3.187999999999999901e+01,1.146987513520231379e-02
3.192000000000000171e+01,9.202922863720678845e-03
3.196000000000000085e+01,1.587355617247825437e-02
3.200000000000000000e+01,1.924548224533036492e-02
3.203999999999999915e+01,2.368120517968685945e-02
3.207999999999999829e+01,2.034931357756807405e-02
3.211999999999999744e+01,1.276109118184257790e-02
3.215999999999999659e+01,1.208880492625027253e-02
3.220000000000000284e+01,1.609800116050623744e-02
3.224000000000000199e+01,2.053257789229003330e-02
3.228000000000000114e+01,1.751874662248100595e-02
3.232000000000000028e+01,1.939920227231320751e-02
3.235999999999999943e+01,2.596113953353723983e-02
3.239999999999999858e+01,1.688167222186644570e-02
3.243999999999999773e+01,2.025107181754824334e-02
3.247999999999999687e+01,2.255621497262604372e-02
3.252000000000000313e+01,8.794342718696028169e-03
3.256000000000000227e+01,1.514231990414759317e-02
3.260000000000000142e+01,1.978762472424688140e-02
3.264000000000000057e+01,2.230464678210913529e-02
3.267999999999999972e+01,2.428942402288509356e-02
3.271999999999999886e+01,1.818737558040705096e-02
3.275999999999999801e+01,1.485156075546187338e-02
3.279999999999999716e+01,1.236673353071759962e-02
3.284000000000000341e+01,1.658503362403131176e-02
3.288000000000000256e+01,2.761286336010650502e-02
3.292000000000000171e+01,1.991361188309139982e-02
3.296000000000000085e+01,1.795986416643301567e-02
3.300000000000000000e+01,1.909155638257578613e-02
3.303999999999999915e+01,1.203001861423395359e-02
3.307999999999999829e+01,1.943899258145437986e-02
3.311999999999999744e+01,1.620747760565587059e-02
3.315999999999999659e+01,1.829585511487288874e-02
3.320000000000000284e+01,1.293581957137245227e-02
3.324000000000000199e+01,1.959903636567173271e-02
3.328000000000000114e+01,1.849463203507236905e-02
3.332000000000000028e+01,2.164609386785549400e-02
3.335999999999999943e+01,2.352048933988882401e-02
3.339999999999999858e+01,1.656323758500465038e-02
3.343999999999999773e+01,1.811795310736689923e-02
3.347999999999999687e+01,2.722701278850258103e-02
3.352000000000000313e+01,2.335472535548975548e-02
3.356000000000000227e+01,8.629141475067434938e-03
3.360000000000000142e+01,2.529207102173140070e-02
3.364000000000000057e+01,3.291054693515782503e-02
3.367999999999999972e+01,2.244035272873177306e-02
3.371999999999999886e+01,1.665163266681772558e-02
3.375999999999999801e+01,2.767427658201446553e-02
3.379999999999999716e+01,1.965062681965746433e-02
3.384000000000000341e+01,1.492521746684060020e-02
3.388000000000000256e+01,2.147823912777403060e-02
3.392000000000000171e+01,1.973162342839475739e-02
3.396000000000000085e+01,2.309209073311341981e-02
3.400000000000000000e+01,1.389681846558488490e-02
3.403999999999999915e+01,1.800162467538570302e-02
3.407999999999999829e+01,1.699886897594704571e-02
3.411999999999999744e+01,1.652788599649061482e-02
3.415999999999999659e+01,1.456702717536689957e-02
3.420000000000000284e+01,1.462757625544440152e-02
3.424000000000000199e+01,1.830557118187391141e-02
3.428000000000000114e+01,1.900405398734652737e-02
3.432000000000000028e+01,2.502242290902543381e-02
3.435999999999999943e+01,1.656980448421225410e-02
3.439999999999999858e+01,1.375627936933009401e-02
3.443999999999999773e+01,1.104891504024667348e-02
3.447999999999999687e+01,2.472730055794943732e-02
3.452000000000000313e+01,1.648651974846768870e-02
3.456000000000000227e+01,1.899215349770802183e-02
3.460000000000000142e+01,1.415576905205466474e-02
3.464000000000000057e+01,1.729933257363611837e-02
3.467999999999999972e+01,1.746338177811956535e-02
3.471999999999999886e+01,2.071286147199737776e-02
3.475999999999999801e+01,1.651391954820737029e-02
3.479999999999999716e+01,1.731565347230132682e-02
3.484000000000000341e+01,1.503146965652316612e-02
3.488000000000000256e+01,1.232143148920025223e-02
3.492000000000000171e+01,2.142183134724898880e-02
3.496000000000000085e+01,2.243539322365341315e-02
3.500000000000000000e+01,9.616379505645932663e-03
3.503999999999999915e+01,1.477915072459188607e-02
3.507999999999999829e+01,1.217429093600420030e-02
3.511999999999999744e+01,3.717045717986510508e-03
3.515999999999999659e+01,1.079432625877383561e-02
3.520000000000000284e+01,3.613419929808057030e-03
3.524000000000000199e+01,3.348432830688834703e-03
3.528000000000000114e+01,5.743262969095772226e-03
3.532000000000000028e+01,1.058510503677940334e-02
3.535999999999999943e+01,1.297944177551346202e-02
3.539999999999999858e+01,7.963829134708656733e-04
3.543999999999999773e+01,1.806992297946047711e-03
3.547999999999999687e+01,2.604549125300087420e-03
3.552000000000000313e+01,6.593934594083865515e-03
3.556000000000000227e+01,8.987033990388760760e-03
3.560000000000000142e+01,6.591770765070926151e-03
3.564000000000000057e+01,1.451730599162349630e-02
3.567999999999999972e+01,5.843795738065206760e-03
3.571999999999999886e+01,6.427058053972564515e-03
3.575999999999999801e+01,4.030800123200937481e-03
3.579999999999999716e+01,1.184893722152562980e-02
3.584000000000000341e+01,9.452180620342412118e-03
3.588000000000000256e+01,1.599298807721544202e-02
3.592000000000000171e+01,8.594812344234285459e-03
3.596000000000000085e+01,1.481591218005811478e-02
3.600000000000000000e+01,1.124772761518817200e-02
3.603999999999999915e+01,1.002014848222328690e-02
3.607999999999999829e+01,9.005123675196208266e-03
3.611999999999999744e+01,1.660845397558772044e-02
3.615999999999999659e+01,6.229503084369471429e-03
3.620000000000000284e+01,0.000000000000000000e+00
3.624000000000000199e+01,1.324191088460777849e-02
3.628000000000000114e+01,1.211922642556380846e-02
3.632000000000000028e+01,1.333714586112609395e-02
3.635999999999999943e+01,1.689566897168053028e-02
3.639999999999999858e+01,2.045393956262457971e-02
3.643999999999999773e+01,4.221084171259856070e-03
3.647999999999999687e+01,1.618465006523567978e-02
3.652000000000000313e+01,1.325160657628671190e-02
3.656000000000000227e+01,1.446800891765951357e-02
3.660000000000000142e+01,1.770580598338685960e-02
3.664000000000000057e+01,1.360157365390077949e-02
3.667999999999999972e+01,9.816294900458469655e-03
3.671999999999999886e+01,1.103168145342272449e-02
3.675999999999999801e+01,8.097114281860936374e-03
3.679999999999999716e+01,1.558974173767803569e-02
3.684000000000000341e+01,1.818759721951727221e-02
3.688000000000000256e+01,1.323061689982309684e-02
3.692000000000000171e+01,1.859442800434777873e-02
3.696000000000000085e+01,1.682901304538144890e-02
3.700000000000000000e+01,1.548895244986367783e-02
3.703999999999999915e+01,1.638308925158049947e-02
3.707999999999999829e+01,1.961782577523545762e-02
3.711999999999999744e+01,1.380808955922510801e-02
3.715999999999999659e+01,1.491426203158398127e-02
3.720000000000000284e+01,1.357291907274406524e-02
3.724000000000000199e+01,7.656009576738131289e-03
3.728000000000000114e+01,1.301751242728297654e-02
3.732000000000000028e+01,1.380344830143357543e-02
3.735999999999999943e+01,2.246291466474171009e-02
3.739999999999999858e+01,1.026722433182583605e-02
3.743999999999999773e+01,1.137159380903977716e-02
3.747999999999999687e+01,2.737206104153432421e-02
3.752000000000000313e+01,1.294114193037332154e-02
3.756000000000000227e+01,1.659839646479438838e-02
3.760000000000000142e+01,2.706515472751177404e-02
3.764000000000000057e+01,2.369932290128580823e-02
3.767999999999999972e+01,2.756860454139855796e-02
3.771999999999999886e+01,3.505531292143554412e-02
3.775999999999999801e+01,3.711523155478178848e-02
3.779999999999999716e+01,3.896208489338837122e-02
3.784000000000000341e+01,5.070411442781867090e-02
3.788000000000000256e+01,5.201843397378598521e-02
3.792000000000000171e+01,6.673921323883141854e-02
3.796000000000000085e+01,8.763107898974020760e-02
3.800000000000000000e+01,1.059690223728503577e-01
3.803999999999999915e+01,1.446295901968439879e-01
3.807999999999999829e+01,2.136146214079668038e-01
3.811999999999999744e+01,3.222875396865584885e-01
3.815999999999999659e+01,5.069316124253261391e-01
3.820000000000000284e+01,7.167928257651331458e-01
3.824000000000000199e+01,9.223976747103741491e-01
3.828000000000000114e+01,1.000000000000000000e+00
3.832000000000000028e+01,9.821589799755995331e-01
3.835999999999999943e+01,8.715346780254999981e-01
3.839999999999999858e+01,7.074960353276206204e-01
3.843999999999999773e+01,5.560126291392947229e-01
3.847999999999999687e+01,3.984640139853181662e-01
3.852000000000000313e+01,2.949676271855529719e-01
3.856000000000000227e+01,2.111554467057820128e-01
3.860000000000000142e+01,1.611790107206394207e-01
3.864000000000000057e+01,1.234386025140266907e-01
3.867999999999999972e+01,9.718940405610616839e-02
3.871999999999999886e+01,8.275062276021667718e-02
3.875999999999999801e+01,6.118260551820114274e-02
3.879999999999999716e+01,5.812836529100083582e-02
3.884000000000000341e+01,4.400799453869291139e-02
3.888000000000000256e+01,3.988919681655944682e-02
3.892000000000000171e+01,4.130306504364464337e-02
3.896000000000000085e+01,4.048221326514547802e-02
3.900000000000000000e+01,3.753304380576546334e-02
3.903999999999999915e+01,3.639245058564385266e-02
3.907999999999999829e+01,2.961225528293045736e-02
3.911999999999999744e+01,2.378941542570597867e-02
3.915999999999999659e+01,3.616114297381671505e-02
3.920000000000000284e+01,2.512404287944462050e-02
3.924000000000000199e+01,2.770620034552028974e-02
3.928000000000000114e+01,1.922222487073312058e-02
3.932000000000000028e+01,2.127183273195342589e-02
3.935999999999999943e+01,1.491537082102415736e-02
3.939999999999999858e+01,2.537024192161585132e-02
3.943999999999999773e+01,2.986630133013584362e-02
3.947999999999999687e+01,2.052976054746338819e-02
3.952000000000000313e+01,2.608930631975175593e-02
3.956000000000000227e+01,3.037175169110297931e-02
3.960000000000000142e+01,1.826793514879564845e-02
3.964000000000000057e+01,2.574191645258372060e-02
3.967999999999999972e+01,1.927689392279113151e-02
3.971999999999999886e+01,2.291984235559425820e-02
3.975999999999999801e+01,1.794391373147133026e-02
3.979999999999999716e+01,2.360796835230417889e-02
3.984000000000000341e+01,2.639888287013626017e-02
3.988000000000000256e+01,2.450781381195326486e-02
3.992000000000000171e+01,3.155428663080118989e-02
3.996000000000000085e+01,3.030108892760548581e-02
4.000000000000000000e+01,2.883481385089396720e-02
4.003999999999999915e+01,3.641248253668868257e-02
4.007999999999999829e+01,3.228559862343242243e-02
4.011999999999999744e+01,3.294655626074791122e-02
4.015999999999999659e+01,4.180023664718604537e-02
4.020000000000000284e+01,5.384571998020283579e-02
4.024000000000000199e+01,4.876012007551164262e-02
4.028000000000000114e+01,5.474011095767756380e-02
4.032000000000000028e+01,6.901922625482730111e-02
4.035999999999999943e+01,7.265781285880386353e-02
4.039999999999999858e+01,9.172449390781910183e-02
4.043999999999999773e+01,8.504148453132556740e-02
4.047999999999999687e+01,1.109173787957852819e-01
4.052000000000000313e+01,1.378570233635575959e-01
4.056000000000000227e+01,1.292579427697543859e-01
4.060000000000000142e+01,1.644964348557337586e-01
4.064000000000000057e+01,1.714315743545100357e-01
4.067999999999999972e+01,1.862402261144725235e-01
4.071999999999999886e+01,1.975373176740178593e-01
4.075999999999999801e+01,2.169207261441564449e-01
4.079999999999999716e+01,2.324733663416967133e-01
4.084000000000000341e+01,2.507921957947191749e-01
4.088000000000000256e+01,2.491070697996311811e-01
4.092000000000000171e+01,2.561466751025859301e-01
4.096000000000000085e+01,2.834024862702764214e-01
4.100000000000000000e+01,2.811845148867425648e-01
4.103999999999999915e+01,2.900321301173976463e-01
4.107999999999999829e+01,3.048380096153800456e-01
4.111999999999999744e+01,3.163451318054393280e-01
4.115999999999999659e+01,3.115723860612074625e-01
4.120000000000000284e+01,3.152051624447665956e-01
4.124000000000000199e+01,3.066013671388771455e-01
4.128000000000000114e+01,3.209802420930696898e-01
4.132000000000000028e+01,2.980115444596182495e-01
4.135999999999999943e+01,2.986639319129264503e-01
4.139999999999999858e+01,2.996352470278131896e-01
4.143999999999999773e+01,2.986910361539935610e-01
4.147999999999999687e+01,2.764660360060399169e-01
4.152000000000000313e+01,2.533895348733282704e-01
4.156000000000000227e+01,2.376545284487040499e-01
4.160000000000000142e+01,2.086189229149277291e-01
4.164000000000000057e+01,1.780934004716450969e-01
4.167999999999999972e+01,1.404386260504062733e-01
4.171999999999999886e+01,1.168287057508108351e-01
4.175999999999999801e+01,9.204807551581979663e-02
4.179999999999999716e+01,7.843943026666722051e-02
4.184000000000000341e+01,5.695671435087835965e-02
4.188000000000000256e+01,4.739080079192332928e-02
4.192000000000000171e+01,3.644137133048089283e-02
4.196000000000000085e+01,3.230142165939654114e-02
4.200000000000000000e+01,2.613954038069058947e-02
4.203999999999999915e+01,3.168165549172675260e-02
4.207999999999999829e+01,2.849847826390067979e-02
4.211999999999999744e+01,2.169733060484581658e-02
4.215999999999999659e+01,1.819437767559582350e-02
4.220000000000000284e+01,9.583818255441606260e-03
4.224000000000000199e+01,2.182787293827744002e-02
4.228000000000000114e+01,2.109053241147420057e-02
4.232000000000000028e+01,2.056571195080731870e-02
4.235999999999999943e+01,1.599730956395632037e-02
4.239999999999999858e+01,1.398228277900190331e-02
4.243999999999999773e+01,1.483983900928290134e-02
4.247999999999999687e+01,1.484588898406719037e-02
4.252000000000000313e+01,1.357482230647006141e-02
4.256000000000000227e+01,2.390134661931388529e-02
4.260000000000000142e+01,1.975683834515857759e-02
4.264000000000000057e+01,1.146234406320271494e-02
4.267999999999999972e+01,1.146696123899812458e-02
4.271999999999999886e+01,1.232251155069469424e-02
4.275999999999999801e+01,1.339057951277235377e-02
4.279999999999999716e+01,1.722482596924077361e-02
4.284000000000000341e+01,2.297403034594456411e-02
4.288000000000000256e+01,1.063451409155005863e-02
4.292000000000000171e+01,1.308466318059925762e-02
4.296000000000000085e+01,1.883300260717100591e-02
4.300000000000000000e+01,1.149354032673204594e-02
4.303999999999999915e+01,1.894374273089443131e-02
4.307999999999999829e+01,1.873267274901839127e-02
4.311999999999999744e+01,1.788289808645517065e-02
4.315999999999999659e+01,1.905448213153206408e-02
4.320000000000000284e+01,1.767211525897576657e-02
4.324000000000000199e+01,1.331018707190147025e-02
4.328000000000000114e+01,1.320407036429579149e-02
4.332000000000000028e+01,1.384248095406192224e-02
4.335999999999999943e+01,1.809828731816249398e-02
4.339999999999999858e+01,1.575684498248830848e-02
4.343999999999999773e+01,2.352335318529738539e-02
4.347999999999999687e+01,1.798925195709114716e-02
4.352000000000000313e+01,1.500852018158628856e-02
4.356000000000000227e+01,2.032689503232219808e-02
4.360000000000000142e+01,1.479191831250653739e-02
4.364000000000000057e+01,1.766245032402110476e-02
4.367999999999999972e+01,1.883024913707434869e-02
4.371999999999999886e+01,2.244501376044077956e-02
4.375999999999999801e+01,3.286924829153026195e-02
4.379999999999999716e+01,2.339591388699671995e-02
4.384000000000000341e+01,2.669059143274677900e-02
4.388000000000000256e+01,2.955936521377685103e-02
4.392000000000000171e+01,3.072540447866092816e-02
4.396000000000000085e+01,3.391279805890293902e-02
4.400000000000000000e+01,4.007916863374764299e-02
4.403999999999999915e+01,4.613884219836885542e-02
4.407999999999999829e+01,4.645248368431667552e-02
4.411999999999999744e+01,5.995974576051995436e-02
4.415999999999999659e+01,6.655054733132735600e-02
4.420000000000000284e+01,7.931240112819663846e-02
4.424000000000000199e+01,1.019693959826316332e-01
4.428000000000000114e+01,1.176035271285108125e-01
4.432000000000000028e+01,1.554754940335757174e-01
4.435999999999999943e+01,1.921767367283277184e-01
4.439999999999999858e+01,2.511158147430372356e-01
4.443999999999999773e+01,2.884548795992154524e-01
4.447999999999999687e+01,3.238784017760147349e-01
4.452000000000000313e+01,3.463205164447847317e-01
4.456000000000000227e+01,3.148162438236133398e-01
4.460000000000000142e+01,2.854397245482915291e-01
4.464000000000000057e+01,2.618086449060058607e-01
4.467999999999999972e+01,2.039156480137029603e-01
4.471999999999999886e+01,1.681540821401270036e-01
4.475999999999999801e+01,1.299449593282850923e-01
4.479999999999999716e+01,1.020565846766820217e-01
4.484000000000000341e+01,8.246730962366813356e-02
4.488000000000000256e+01,7.021951105077046951e-02
4.492000000000000171e+01,6.627081163723379242e-02
4.496000000000000085e+01,5.402241424988944024e-02
4.500000000000000000e+01,4.017767896113574183e-02
4.503999999999999915e+01,3.665369051493619357e-02
4.507999999999999829e+01,3.664068585534661221e-02
4.511999999999999744e+01,3.545695281277593675e-02
4.515999999999999659e+01,2.778236395172724305e-02
4.520000000000000284e+01,2.351235567412852598e-02
4.524000000000000199e+01,2.041247432969489281e-02
4.528000000000000114e+01,2.688852069990708624e-02
4.532000000000000028e+01,2.495846457546697927e-02
4.535999999999999943e+01,2.164487366172582195e-02
4.539999999999999858e+01,2.194866732199939399e-02
4.543999999999999773e+01,1.671922652535503748e-02
4.547999999999999687e+01,1.744802583848566180e-02
4.552000000000000313e+01,2.551829811790669658e-02
4.556000000000000227e+01,2.348002587590821560e-02
4.560000000000000142e+01,1.654693356444131291e-02
4.564000000000000057e+01,1.535927539565761293e-02
4.567999999999999972e+01,2.161949185902552542e-02
4.571999999999999886e+01,2.511293848043584520e-02
4.575999999999999801e+01,2.626522521754505804e-02
4.579999999999999716e+01,2.518275439505674590e-02
4.584000000000000341e+01,2.697284792060430578e-02
4.588000000000000256e+01,1.780317481327821708e-02
4.592000000000000171e+01,2.150790478061960151e-02
4.596000000000000085e+01,2.414830429740119286e-02
4.600000000000000000e+01,1.550972888951384840e-02
4.603999999999999915e+01,1.389341595998043292e-02
4.607999999999999829e+01,2.525790777097570994e-02
4.611999999999999744e+01,2.076811459280042751e-02
4.615999999999999659e+01,1.744844329666562013e-02
4.620000000000000284e+01,2.093822851179298963e-02
4.624000000000000199e+01,2.144843594134402884e-02
4.628000000000000114e+01,2.227754423955192672e-02
4.632000000000000028e+01,1.714780307206083959e-02
4.635999999999999943e+01,1.904032262601082146e-02
4.639999999999999858e+01,1.561240754093951716e-02
4.643999999999999773e+01,2.027077818125762321e-02
4.647999999999999687e+01,2.290719261717359678e-02
4.652000000000000313e+01,2.011676921090831474e-02
4.656000000000000227e+01,1.977329602235427045e-02
4.660000000000000142e+01,1.996152703417954782e-02
4.664000000000000057e+01,2.153268238131124390e-02
4.667999999999999972e+01,1.820901172939354273e-02
4.671999999999999886e+01,1.520423953037747418e-02
4.675999999999999801e+01,1.964733603393199399e-02
4.679999999999999716e+01,2.494134327274823495e-02
4.684000000000000341e+01,2.491491345678795502e-02
4.688000000000000256e+01,3.169793641864997874e-02
4.692000000000000171e+01,2.635075905017719364e-02
4.696000000000000085e+01,2.185449153850968149e-02
4.700000000000000000e+01,2.576371431058697634e-02
4.703999999999999915e+01,3.414153300704170224e-02
4.707999999999999829e+01,3.475165481172911436e-02
4.711999999999999744e+01,3.270140163228263397e-02
4.715999999999999659e+01,4.416395998537209211e-02
4.720000000000000284e+01,4.466674445832218010e-02
4.724000000000000199e+01,4.836129322576723788e-02
4.728000000000000114e+01,5.631163151126967331e-02
4.732000000000000028e+01,5.819671229640267784e-02
4.735999999999999943e+01,6.423117961604717097e-02
4.739999999999999858e+01,6.707325769267073745e-02
4.743999999999999773e+01,7.108545062368322454e-02
4.747999999999999687e+01,8.297111848148289170e-02
4.752000000000000313e+01,8.464182851245390105e-02
4.756000000000000227e+01,9.376040285371323169e-02
4.760000000000000142e+01,9.383444691640996371e-02
4.764000000000000057e+01,1.011435497615314760e-01
4.767999999999999972e+01,9.472640993888517547e-02
4.771999999999999886e+01,1.059717778025658919e-01
4.775999999999999801e+01,1.057253559899213879e-01
4.779999999999999716e+01,1.205877803607518506e-01
4.784000000000000341e+01,1.104452914876864478e-01
4.788000000000000256e+01,1.143476229156912133e-01
4.792000000000000171e+01,1.228249479808805611e-01
4.796000000000000085e+01,1.313019570579811168e-01
4.800000000000000000e+01,1.204133868615651637e-01
4.803999999999999915e+01,1.191007292264213840e-01
4.807999999999999829e+01,1.156597040579933067e-01
4.811999999999999744e+01,1.237098368093269285e-01
4.815999999999999659e+01,1.161184784598056352e-01
4.820000000000000284e+01,1.186350445146883009e-01
4.824000000000000199e+01,1.163631785498888543e-01
4.828000000000000114e+01,1.065364141935340320e-01
4.832000000000000028e+01,1.053279379622936579e-01
4.835999999999999943e+01,9.762858834344625980e-02
4.839999999999999858e+01,7.886305571171851880e-02
4.843999999999999773e+01,8.222893367460532010e-02
4.847999999999999687e+01,7.218777221039508751e-02
4.852000000000000313e+01,6.544477055734587712e-02
4.856000000000000227e+01,5.816943690040789899e-02
4.860000000000000142e+01,4.546725398135481599e-02
4.864000000000000057e+01,4.340500577253875170e-02
4.867999999999999972e+01,3.985280200213270341e-02
4.871999999999999886e+01,3.342740937439298010e-02
4.875999999999999801e+01,2.678889127764693193e-02
4.879999999999999716e+01,2.759823068315172753e-02
4.884000000000000341e+01,2.138468134409191382e-02
4.888000000000000256e+01,2.144856108056047983e-02
4.892000000000000171e+01,2.236333991274284255e-02
4.896000000000000085e+01,2.593786087442502900e-02
4.900000000000000000e+01,2.717120416306307434e-02
4.903999999999999915e+01,2.308409831814845284e-02
4.907999999999999829e+01,1.889026779163222383e-02
4.911999999999999744e+01,2.033544975705381744e-02
4.915999999999999659e+01,2.167390660164558724e-02
4.920000000000000284e+01,1.481904473765147459e-02
4.924000000000000199e+01,1.647606340332959454e-02
4.928000000000000114e+01,1.313183925072331816e-02
4.932000000000000028e+01,1.989553335332588935e-02
4.935999999999999943e+01,1.516742899503876335e-02
4.939999999999999858e+01,2.107925517432052837e-02
4.943999999999999773e+01,1.177519340236640386e-02
4.947999999999999687e+01,9.706180310587906104e-03
4.952000000000000313e+01,1.380819023619437799e-02
4.956000000000000227e+01,1.290895580621769130e-02
4.960000000000000142e+01,1.264781164987956522e-02
4.964000000000000057e+01,8.023837964635991554e-03
4.967999999999999972e+01,1.457180600125080466e-02
4.971999999999999886e+01,9.840778689084275430e-03
4.975999999999999801e+01,1.362162905160648092e-02
4.979999999999999716e+01,1.208202610790784677e-02
4.984000000000000341e+01,1.501100371559878875e-02
4.988000000000000256e+01,1.038507414716990235e-02
4.992000000000000171e+01,1.661187734996176155e-02
4.996000000000000085e+01,1.017645081015804663e-02
5.000000000000000000e+01,9.592837019416952313e-03
5.003999999999999915e+01,1.932994261946598819e-02
5.007999999999999829e+01,1.342554657718269227e-02
5.011999999999999744e+01,1.060649647286063604e-02
5.015999999999999659e+01,1.502249131527430386e-02
5.020000000000000284e+01,1.284120012351415603e-02
5.024000000000000199e+01,1.640531781881432102e-02
5.028000000000000114e+01,1.507458974979498066e-02
5.032000000000000028e+01,1.768042687520754788e-02
5.035999999999999943e+01,2.166916791181416890e-02
5.039999999999999858e+01,1.693257092982323672e-02
5.043999999999999773e+01,1.538772067319833271e-02
5.047999999999999687e+01,1.458735840301915616e-02
5.052000000000000313e+01,1.304184827922442308e-02
5.056000000000000227e+01,8.410334107211555818e-03
5.060000000000000142e+01,1.399313370707360067e-02
5.064000000000000057e+01,1.436187793313614507e-02
5.067999999999999972e+01,1.121900727486758141e-02
5.071999999999999886e+01,1.265111488079577982e-02
5.075999999999999801e+01,1.089081479611763228e-02
5.079999999999999716e+01,1.061981875119592973e-02
5.084000000000000341e+01,1.215733415936956496e-02
5.088000000000000256e+01,1.497134807943608856e-02
5.092000000000000171e+01,1.193288982249840480e-02
5.096000000000000085e+01,1.570386194274359104e-02
5.100000000000000000e+01,1.394156907970928519e-02
5.103999999999999915e+01,1.515821455919396862e-02
5.107999999999999829e+01,7.543115742323588425e-03
5.111999999999999744e+01,1.727129831162767248e-02
5.115999999999999659e+01,1.550767253740705474e-02
5.120000000000000284e+01,1.214767482158968584e-02
5.124000000000000199e+01,2.176845351608053258e-02
5.128000000000000114e+01,1.351327054914489012e-02
5.132000000000000028e+01,1.355715160331228894e-02
5.135999999999999943e+01,1.253667255901484180e-02
5.139999999999999858e+01,6.727744145520367369e-03
5.143999999999999773e+01,9.324281638604254782e-03
5.147999999999999687e+01,1.458054742549897732e-02
5.152000000000000313e+01,1.802763442524874318e-02
5.156000000000000227e+01,1.509023301258017973e-02
5.160000000000000142e+01,1.566377958942135121e-02
5.164000000000000057e+01,1.347052382141632719e-02
5.167999999999999972e+01,1.744827921163421072e-02
5.171999999999999886e+01,1.631837584278924072e-02
5.175999999999999801e+01,1.763539414182092868e-02
5.179999999999999716e+01,1.671762193913830380e-02
5.184000000000000341e+01,1.345865647080955393e-02
5.188000000000000256e+01,1.030575603652668024e-02
5.192000000000000171e+01,1.545191632913518742e-02
5.196000000000000085e+01,1.676724707680804505e-02
5.200000000000000000e+01,1.595418876901366287e-02
5.203999999999999915e+01,1.843927094633843883e-02
5.207999999999999829e+01,1.847675599601474386e-02
5.211999999999999744e+01,1.330017754616943937e-02
5.215999999999999659e+01,1.354978980895407518e-02
5.220000000000000284e+01,1.688473658976611183e-02
5.224000000000000199e+01,1.606964465539077042e-02
5.228000000000000114e+01,1.940391224299114689e-02
5.232000000000000028e+01,1.465124653642256233e-02
5.235999999999999943e+01,1.851684677394310405e-02
5.239999999999999858e+01,1.461472091101946764e-02
5.243999999999999773e+01,1.337231807116789732e-02
5.247999999999999687e+01,1.500244312340962179e-02
5.252000000000000313e+01,1.982430348108352516e-02
5.256000000000000227e+01,1.815526739166865161e-02
5.260000000000000142e+01,1.776272037073986856e-02
5.264000000000000057e+01,1.736983166687120980e-02
5.267999999999999972e+01,2.059428756724887566e-02
5.271999999999999886e+01,2.094553264888166649e-02
5.275999999999999801e+01,1.799795651488485596e-02
5.279999999999999716e+01,1.951894468083333056e-02
5.284000000000000341e+01,1.720909847033566184e-02
5.288000000000000256e+01,1.649494742397827896e-02
5.292000000000000171e+01,1.631246587897051958e-02
5.296000000000000085e+01,1.091591622254474425e-02
5.300000000000000000e+01,1.860653585772389582e-02
5.303999999999999915e+01,2.406235818315125008e-02
5.307999999999999829e+01,2.026081505424727133e-02
5.311999999999999744e+01,1.507569453090451192e-02
5.315999999999999659e+01,1.680639485028614932e-02
5.320000000000000284e+01,1.874955550076561062e-02
5.324000000000000199e+01,2.175639661727005528e-02
5.328000000000000114e+01,1.986837549839659892e-02
5.332000000000000028e+01,2.127848783699072890e-02
5.335999999999999943e+01,1.779373750097868259e-02
5.339999999999999858e+01,2.058639142410038231e-02
5.343999999999999773e+01,1.624972880271693954e-02
5.347999999999999687e+01,1.787126236828602902e-02
5.352000000000000313e+01,1.300189421602766446e-02
5.356000000000000227e+01,1.877243376147056525e-02
5.360000000000000142e+01,1.379596937715149227e-02
5.364000000000000057e+01,2.424752674560000376e-02
5.367999999999999972e+01,1.150298205989243316e-02
5.371999999999999886e+01,1.876176809338352819e-02
5.375999999999999801e+01,1.452873150843260464e-02
5.379999999999999716e+01,1.699870716374489790e-02
5.384000000000000341e+01,1.946833454769398425e-02
5.388000000000000256e+01,2.342724906111287239e-02
5.392000000000000171e+01,2.664099705371666613e-02
5.396000000000000085e+01,1.889493405139619844e-02
5.400000000000000000e+01,1.934151781171561391e-02
5.403999999999999915e+01,2.202220563327200037e-02
5.407999999999999829e+01,1.831839120672103943e-02
5.411999999999999744e+01,1.929593892148497025e-02
5.415999999999999659e+01,1.665545010117239211e-02
5.420000000000000284e+01,1.901553061589940710e-02
5.424000000000000199e+01,1.946001486540425290e-02
5.428000000000000114e+01,2.224500440277905541e-02
5.432000000000000028e+01,2.002872345049135083e-02
5.435999999999999943e+01,2.015294734684540401e-02
5.439999999999999858e+01,1.921279445406204670e-02
5.443999999999999773e+01,2.093235360364517628e-02
5.447999999999999687e+01,2.680126019642789514e-02
5.452000000000000313e+01,1.809266621288842594e-02
5.456000000000000227e+01,2.396086857645070289e-02
5.460000000000000142e+01,1.972047678580415506e-02
5.464000000000000057e+01,1.920382138263013530e-02
5.467999999999999972e+01,2.634779628706781368e-02
5.471999999999999886e+01,2.189354075800712882e-02
5.475999999999999801e+01,2.318466929961210052e-02
5.479999999999999716e+01,2.788032571728014247e-02
5.484000000000000341e+01,2.119055613124281451e-02
5.488000000000000256e+01,2.099098776725240659e-02
5.492000000000000171e+01,2.579198478524759308e-02
5.496000000000000085e+01,2.303804673613072188e-02
5.500000000000000000e+01,2.656150416158312155e-02
5.503999999999999915e+01,1.635867851027114628e-02
5.507999999999999829e+01,2.169026924993634406e-02
5.511999999999999744e+01,2.287180546219810123e-02
5.515999999999999659e+01,2.139292254788946815e-02
5.520000000000000284e+01,1.310392105900772854e-02
5.524000000000000199e+01,1.949811472810546523e-02
5.528000000000000114e+01,2.280627843451988115e-02
5.532000000000000028e+01,1.366498805868297285e-02
5.535999999999999943e+01,1.505719295359462043e-02
5.539999999999999858e+01,1.495940539174542110e-02
5.543999999999999773e+01,2.582072283868722118e-02
5.547999999999999687e+01,2.104050899539152558e-02
5.552000000000000313e+01,2.636817936711729343e-02
5.556000000000000227e+01,1.594791546505975807e-02
5.560000000000000142e+01,1.733797604787794613e-02
5.564000000000000057e+01,1.755725048920361159e-02
5.567999999999999972e+01,1.500970040465781502e-02
5.571999999999999886e+01,1.873954184162723857e-02
5.575999999999999801e+01,1.991536340213223566e-02
5.579999999999999716e+01,2.417649971539454976e-02
5.584000000000000341e+01,1.769061980050466720e-02
5.588000000000000256e+01,1.620529999686166206e-02
5.592000000000000171e+01,1.716687902122769616e-02
5.596000000000000085e+01,1.855370831195317718e-02
5.600000000000000000e+01,2.153621563691817883e-02
5.603999999999999915e+01,2.334793462424953475e-02
5.607999999999999829e+01,1.845593274981498569e-02
5.611999999999999744e+01,1.803247694735436724e-02
5.615999999999999659e+01,1.856628303477090430e-02
5.620000000000000284e+01,1.580124901974424428e-02
5.624000000000000199e+01,1.484469680990773560e-02
5.628000000000000114e+01,1.197253713452929753e-02
5.632000000000000028e+01,1.505855805350147375e-02
5.635999999999999943e+01,1.261128456090316284e-02
5.639999999999999858e+01,1.888865737568630118e-02
5.643999999999999773e+01,1.580224374423505607e-02
5.647999999999999687e+01,1.867400982867801346e-02
5.652000000000000313e+01,1.494845517991739633e-02
5.656000000000000227e+01,1.792589761804632559e-02
5.660000000000000142e+01,1.600845959282606173e-02
5.664000000000000057e+01,1.355864520166636528e-02
5.667999999999999972e+01,1.898225522604814544e-02
5.671999999999999886e+01,2.163903501459146783e-02
5.675999999999999801e+01,1.706007748634068982e-02
5.679999999999999716e+01,1.737527247389455964e-02
5.684000000000000341e+01,2.598950117580404659e-02
5.688000000000000256e+01,1.885578835666452263e-02
5.692000000000000171e+01,1.406256633086353826e-02
5.696000000000000085e+01,1.927081806965833671e-02
5.700000000000000000e+01,1.734973371829201527e-02
5.703999999999999915e+01,1.393864790598624802e-02
5.707999999999999829e+01,1.797537413581015361e-02
5.711999999999999744e+01,1.913886538933685932e-02
5.715999999999999659e+01,1.530107056059917467e-02
5.720000000000000284e+01,1.901748965946643485e-02
5.724000000000000199e+01,1.720060951525274190e-02
5.728000000000000114e+01,2.027787925147440246e-02
5.732000000000000028e+01,2.101392563491658039e-02
5.735999999999999943e+01,1.802551536983564018e-02
5.739999999999999858e+01,1.929283906044177224e-02
5.743999999999999773e+01,1.768692601783779239e-02
5.747999999999999687e+01,1.927272104851609005e-02
5.752000000000000313e+01,2.053893997037986585e-02
5.756000000000000227e+01,1.648466298088508211e-02
5.760000000000000142e+01,1.423886032970068591e-02
5.764000000000000057e+01,1.997287936763668392e-02
5.767999999999999972e+01,1.921597384787759530e-02
5.771999999999999886e+01,1.473460970306834580e-02
5.775999999999999801e+01,1.355135463856023230e-02
5.779999999999999716e+01,1.683663642223339613e-02
5.784000000000000341e+01,1.373739531407262848e-02
5.788000000000000256e+01,1.648992369099446312e-02
5.792000000000000171e+01,1.605000506638389751e-02
5.796000000000000085e+01,1.592892318310949046e-02
5.800000000000000000e+01,1.814832616359263184e-02
5.803999999999999915e+01,1.728168402801868661e-02
5.807999999999999829e+01,2.205400519082147126e-02
5.811999999999999744e+01,2.214424263357407663e-02
5.815999999999999659e+01,1.861642157983896262e-02
5.820000000000000284e+01,1.966353772246166864e-02
5.824000000000000199e+01,2.198711196798065759e-02
5.828000000000000114e+01,2.037341942521661564e-02
5.832000000000000028e+01,2.301545578701508568e-02
5.835999999999999943e+01,1.544247480656052787e-02
5.839999999999999858e+01,1.329565027893447014e-02
5.843999999999999773e+01,2.200151174472328094e-02
5.847999999999999687e+01,2.038595266509912740e-02
5.852000000000000313e+01,2.302612139196684796e-02
5.856000000000000227e+01,1.800493274213479586e-02
5.860000000000000142e+01,2.064435287773151023e-02
5.864000000000000057e+01,2.243217803373021360e-02
5.867999999999999972e+01,1.538821716669256344e-02
5.871999999999999886e+01,1.855852548986508532e-02
5.875999999999999801e+01,2.109004326323261208e-02
5.879999999999999716e+01,1.351294382290956116e-02
5.884000000000000341e+01,1.753334599008386785e-02
5.888000000000000256e+01,1.995733404975197356e-02
5.892000000000000171e+01,1.812484417435826847e-02
5.896000000000000085e+01,2.480418146240755822e-02
5.900000000000000000e+01,2.211971824891931573e-02
5.903999999999999915e+01,1.730682732788007758e-02
5.907999999999999829e+01,1.579203823987628680e-02
5.911999999999999744e+01,2.129943981641185466e-02
5.915999999999999659e+01,1.829426036749465939e-02
5.920000000000000284e+01,1.933199990299415763e-02
5.924000000000000199e+01,2.079497169649593274e-02
5.928000000000000114e+01,1.821426866704420680e-02
5.932000000000000028e+01,2.095331449497873921e-02
5.935999999999999943e+01,2.464960464366147339e-02
5.939999999999999858e+01,1.855648191739492359e-02
5.943999999999999773e+01,2.480567531463763811e-02
5.947999999999999687e+01,1.700935362499657322e-02
5.952000000000000313e+01,1.878888146737747039e-02
5.956000000000000227e+01,1.907839401312989153e-02
5.960000000000000142e+01,2.543247168919339149e-02
5.964000000000000057e+01,1.678341050105774251e-02
5.967999999999999972e+01,2.430715571418232135e-02
5.971999999999999886e+01,1.884940996591499829e-02
5.975999999999999801e+01,2.286110988766735727e-02
5.979999999999999716e+01,2.282913213148277803e-02
5.984000000000000341e+01,2.364799351635938837e-02
5.988000000000000256e+01,1.925274879657663460e-02
5.992000000000000171e+01,2.528457176721600475e-02
5.996000000000000085e+01,2.599588564965008702e-02
