2.003999999999999915e+01,3.951475880022738141e-03
2.007999999999999829e+01,8.304284983317101673e-03
2.012000000000000099e+01,6.882132876617797455e-03
2.016000000000000014e+01,3.764160254451825397e-03
2.019999999999999929e+01,5.091994739318694667e-03
2.023999999999999844e+01,5.274004985696474634e-03
2.028000000000000114e+01,3.118531761071337803e-03
2.032000000000000028e+01,3.483877488315356707e-03
2.035999999999999943e+01,4.261722078038016927e-03
2.039999999999999858e+01,4.214573254881601172e-03
2.044000000000000128e+01,4.740338707008812796e-03
2.048000000000000043e+01,7.122343515472775305e-03
2.051999999999999957e+01,6.548118063096799828e-03
2.055999999999999872e+01,4.736401337950398895e-03
2.060000000000000142e+01,3.176767113883972177e-03
2.064000000000000057e+01,4.665030885797117645e-03
2.067999999999999972e+01,6.749124742970557048e-03
2.071999999999999886e+01,5.945737310698755336e-03
2.076000000000000156e+01,6.081927547867568146e-03
2.080000000000000071e+01,4.499378850960449733e-03
2.083999999999999986e+01,8.508461434994630743e-03
2.087999999999999901e+01,5.803003177826628577e-03
2.092000000000000171e+01,4.999616015522920752e-03
2.096000000000000085e+01,5.502470272539448232e-03
2.100000000000000000e+01,5.042830209532265552e-03
2.103999999999999915e+01,6.416511321400981092e-03
2.107999999999999829e+01,6.438117011924963766e-03
2.112000000000000099e+01,6.299306276469699740e-03
2.116000000000000014e+01,3.616760768581623372e-03
2.119999999999999929e+01,3.065450739757544230e-03
2.123999999999999844e+01,6.249532570957383286e-03
2.128000000000000114e+01,7.783623609456527710e-03
2.132000000000000028e+01,1.709428166982474321e-03
2.135999999999999943e+01,6.474745869603888530e-03
2.139999999999999858e+01,5.877595953451478575e-03
2.144000000000000128e+01,5.097112141304207915e-03
2.148000000000000043e+01,2.597887379319464840e-03
2.151999999999999957e+01,5.850707532467858130e-03
2.155999999999999872e+01,5.826463041940023110e-03
2.160000000000000142e+01,6.764710252216309637e-03
2.164000000000000057e+01,4.380059538824128060e-03
2.167999999999999972e+01,5.134969824169731238e-03
2.171999999999999886e+01,5.844044512032519310e-03
2.176000000000000156e+01,8.707269540342251965e-03
2.180000000000000071e+01,5.955944028495022656e-03
2.183999999999999986e+01,6.298345998244905472e-03
2.187999999999999901e+01,4.188677146913869984e-03
2.192000000000000171e+01,4.072742511779554354e-03
2.196000000000000085e+01,3.773472439185651325e-03
2.200000000000000000e+01,4.780440702982559700e-03
2.203999999999999915e+01,3.679085492730447930e-03
2.207999999999999829e+01,6.542284866663038850e-03
2.212000000000000099e+01,7.205494443710560269e-03
2.216000000000000014e+01,5.416632369657684888e-03
2.219999999999999929e+01,7.019411488518974111e-03
2.223999999999999844e+01,8.943017811183378435e-03
2.228000000000000114e+01,5.045823478003039556e-03
2.232000000000000028e+01,7.496501245441458856e-03
2.235999999999999943e+01,4.768040719700389861e-03
2.239999999999999858e+01,2.910403437591589908e-03
2.244000000000000128e+01,7.996467457348764921e-03
2.248000000000000043e+01,3.732585929414966499e-03
2.251999999999999957e+01,1.622852489018178964e-03
2.255999999999999872e+01,8.542223444159141588e-03
2.260000000000000142e+01,4.736657210571506432e-03
2.264000000000000057e+01,3.612318701502313916e-03
2.267999999999999972e+01,5.215040841221190576e-03
2.271999999999999886e+01,5.855263562225313488e-03
2.276000000000000156e+01,3.882997203562511476e-03
2.280000000000000071e+01,8.212768479784134795e-03
2.283999999999999986e+01,5.346746154807077191e-03
2.287999999999999901e+01,4.932785628684032211e-03
2.292000000000000171e+01,4.793817247758703007e-03
2.296000000000000085e+01,6.167333050240372296e-03
2.300000000000000000e+01,4.195030376108525166e-03
2.303999999999999915e+01,3.414380348328447529e-03
2.307999999999999829e+01,5.200374133640896755e-03
2.312000000000000099e+01,7.834272506827949165e-03
2.316000000000000014e+01,6.091108465118382637e-03
2.319999999999999929e+01,4.668768781430890705e-03
2.323999999999999844e+01,3.933917679941959823e-03
2.328000000000000114e+01,5.628210670143014675e-03
2.332000000000000028e+01,4.137099885090302250e-03
2.335999999999999943e+01,5.945960768611982354e-03
2.339999999999999858e+01,4.042337647027376135e-03
2.344000000000000128e+01,1.064073631964384745e-02
2.348000000000000043e+01,6.720443887696361286e-03
2.351999999999999957e+01,5.848040914385356157e-03
2.355999999999999872e+01,5.433960360460059202e-03
2.360000000000000142e+01,7.540689035318755458e-03
2.364000000000000057e+01,7.309924278940909195e-03
2.367999999999999972e+01,7.812479843289127542e-03
2.371999999999999886e+01,6.642120860487951348e-03
2.376000000000000156e+01,6.755078475390437383e-03
2.380000000000000071e+01,3.522215242195191835e-03
2.383999999999999986e+01,4.345567461607101334e-03
2.387999999999999901e+01,6.452235923000039855e-03
2.392000000000000171e+01,4.273505802274040963e-03
2.396000000000000085e+01,4.523917757476477938e-03
2.400000000000000000e+01,4.888903006419566266e-03
2.403999999999999915e+01,5.551793601904419714e-03
2.407999999999999829e+01,5.664678132745910866e-03
2.412000000000000099e+01,8.665034693657345383e-03
2.416000000000000014e+01,4.859174604593747421e-03
2.419999999999999929e+01,5.430360200876251792e-03
2.423999999999999844e+01,6.620281850736311688e-03
2.428000000000000114e+01,3.295638637090382225e-03
2.432000000000000028e+01,2.927216424909082591e-03
2.435999999999999943e+01,4.690020324429210533e-03
2.439999999999999858e+01,5.673651996493145853e-03
2.444000000000000128e+01,5.763528715417074941e-03
2.448000000000000043e+01,5.417980791065141535e-03
2.451999999999999957e+01,5.966166347334295184e-03
2.455999999999999872e+01,7.958081779776325637e-03
2.460000000000000142e+01,5.802095742869353874e-03
2.464000000000000057e+01,6.648162801677189905e-03
2.467999999999999972e+01,5.775479424710771789e-03
2.471999999999999886e+01,5.613196764119052738e-03
2.476000000000000156e+01,5.061321673075829149e-03
2.480000000000000071e+01,4.051104468741149010e-03
2.483999999999999986e+01,4.438783267716037671e-03
2.487999999999999901e+01,6.774354465552294424e-03
2.492000000000000171e+01,5.534936280993813136e-03
2.496000000000000085e+01,6.610074600898924006e-03
2.500000000000000000e+01,7.983115421564778574e-03
2.503999999999999915e+01,7.660321260710413645e-03
2.507999999999999829e+01,5.664608521183541433e-03
2.512000000000000099e+01,9.168848289469856347e-03
2.516000000000000014e+01,7.585607550069669788e-03
2.519999999999999929e+01,4.352364397696246653e-03
2.523999999999999844e+01,8.933642061026977194e-03
2.528000000000000114e+01,8.129524082463628759e-03
2.532000000000000028e+01,6.019151156533203428e-03
2.535999999999999943e+01,7.987905698811859079e-03
2.539999999999999858e+01,6.954582471353163917e-03
2.544000000000000128e+01,7.571235204231995843e-03
2.548000000000000043e+01,7.454545550994789646e-03
2.551999999999999957e+01,6.444097743113942969e-03
2.555999999999999872e+01,6.258630768658979618e-03
2.560000000000000142e+01,4.400243674066771880e-03
2.564000000000000057e+01,5.704322360787529578e-03
2.567999999999999972e+01,5.656311990129479945e-03
2.571999999999999886e+01,7.395775878320972642e-03
2.576000000000000156e+01,4.712336601448396424e-03
2.580000000000000071e+01,5.443444367233025646e-03
2.583999999999999986e+01,5.830789543906316104e-03
2.587999999999999901e+01,5.416041584455752803e-03
2.592000000000000171e+01,5.024195141496104293e-03
2.596000000000000085e+01,4.128170103749083560e-03
2.600000000000000000e+01,5.913362830286879313e-03
2.603999999999999915e+01,3.963147204398651847e-03
2.607999999999999829e+01,2.746244784783924160e-03
2.612000000000000099e+01,5.081387587764217215e-03
2.616000000000000014e+01,5.239445139286167362e-03
2.619999999999999929e+01,6.497479884109669604e-03
2.623999999999999844e+01,3.813856990838825501e-03
2.628000000000000114e+01,3.948950160364843483e-03
2.632000000000000028e+01,5.413185381688932242e-03
2.635999999999999943e+01,5.410746922763060539e-03
2.639999999999999858e+01,6.164537242938921899e-03
2.644000000000000128e+01,6.368314502593047828e-03
2.648000000000000043e+01,7.030405525715601248e-03
2.651999999999999957e+01,7.761229329559748112e-03
2.655999999999999872e+01,8.331620581332117512e-03
2.660000000000000142e+01,8.260332212598267554e-03
2.664000000000000057e+01,1.174108752499473420e-02
2.667999999999999972e+01,1.671139947197479783e-02
2.671999999999999886e+01,3.364411822478015346e-02
2.676000000000000156e+01,5.706219504499855655e-02
2.680000000000000071e+01,8.164899684417106784e-02
2.683999999999999986e+01,8.469425077460410178e-02
2.687999999999999901e+01,6.477713238956465946e-02
2.692000000000000171e+01,3.842045351568038059e-02
2.696000000000000085e+01,2.439284507892679893e-02
2.700000000000000000e+01,1.529227054145067266e-02
2.703999999999999915e+01,9.629155892253157129e-03
2.707999999999999829e+01,6.670172327258727316e-03
2.712000000000000099e+01,4.352832799920677495e-03
2.716000000000000014e+01,6.022949319264645635e-03
2.719999999999999929e+01,6.043057496924893711e-03
2.723999999999999844e+01,3.565245921716326833e-03
2.728000000000000114e+01,4.524893523341123359e-03
2.732000000000000028e+01,2.711622877885671613e-03
2.735999999999999943e+01,6.856628528526010312e-03
2.739999999999999858e+01,5.982896595589849709e-03
2.744000000000000128e+01,4.788313851995883337e-03
2.748000000000000043e+01,3.410379307701435787e-03
2.751999999999999957e+01,6.111565828608750417e-03
2.755999999999999872e+01,4.710675148519398274e-03
2.760000000000000142e+01,2.668101883568587199e-03
2.764000000000000057e+01,5.965058006302324627e-03
2.767999999999999972e+01,4.128693108330533032e-03
2.771999999999999886e+01,3.094386119355391641e-03
2.776000000000000156e+01,4.947540370197109350e-03
2.780000000000000071e+01,2.675700187174976947e-03
2.783999999999999986e+01,1.893413200084376191e-03
2.787999999999999901e+01,5.579827075200248683e-03
2.792000000000000171e+01,3.743338353992722422e-03
2.796000000000000085e+01,4.335979851292685872e-03
2.800000000000000000e+01,6.532756677336916395e-03
2.803999999999999915e+01,4.421206186696717555e-03
2.807999999999999829e+01,3.386710794948276284e-03
2.812000000000000099e+01,3.498019947783135609e-03
2.816000000000000014e+01,5.259296997909286564e-03
2.819999999999999929e+01,4.385152320854045389e-03
2.823999999999999844e+01,2.204744040514424949e-03
2.828000000000000114e+01,7.380517135800660281e-03
2.832000000000000028e+01,3.756323885687358737e-03
2.835999999999999943e+01,2.469593582651766640e-03
2.839999999999999858e+01,4.253654793620996119e-03
2.844000000000000128e+01,4.800201372700542771e-03
2.848000000000000043e+01,5.598807093740744249e-03
2.851999999999999957e+01,2.089084075206011290e-03
2.855999999999999872e+01,3.002226860272350951e-03
2.860000000000000142e+01,5.221588416984894628e-03
2.864000000000000057e+01,7.074262562969536872e-03
2.867999999999999972e+01,5.672767480490541019e-03
2.871999999999999886e+01,3.858751707291392229e-03
2.876000000000000156e+01,2.869707281581345033e-03
2.880000000000000071e+01,4.768121012758723930e-03
2.883999999999999986e+01,4.351942419474220253e-03
2.887999999999999901e+01,2.744080932827537306e-03
2.892000000000000171e+01,5.879915482520884674e-03
2.896000000000000085e+01,3.401178267273724347e-03
2.900000000000000000e+01,4.039063830262105449e-03
2.903999999999999915e+01,4.195678189670881859e-03
2.907999999999999829e+01,5.887675112054518642e-03
2.912000000000000099e+01,3.981753680329470912e-03
2.916000000000000014e+01,1.732059817833709594e-03
2.919999999999999929e+01,1.453162069606584198e-03
2.923999999999999844e+01,3.099227274230075685e-03
2.928000000000000114e+01,6.074425756160124583e-03
2.932000000000000028e+01,2.082976642088698455e-03
2.935999999999999943e+01,2.537307481556084435e-03
2.939999999999999858e+01,4.779101671045737215e-03
2.944000000000000128e+01,1.772987015455029141e-03
2.948000000000000043e+01,6.237632785373500507e-03
2.951999999999999957e+01,3.735630366419445333e-03
2.955999999999999872e+01,5.312742965382499273e-03
2.960000000000000142e+01,4.575260986973677529e-03
2.964000000000000057e+01,5.693991211407616049e-03
2.967999999999999972e+01,4.521043142743191162e-03
2.971999999999999886e+01,2.110576647814361474e-03
2.976000000000000156e+01,4.145888920682240866e-03
2.980000000000000071e+01,2.720779952211384821e-03
2.983999999999999986e+01,3.931044322057405775e-03
2.987999999999999901e+01,3.032961977309348717e-03
2.992000000000000171e+01,2.327814921902451775e-04
2.996000000000000085e+01,3.345036552999471752e-03
3.000000000000000000e+01,3.019786301020819814e-03
3.003999999999999915e+01,5.100743580268842121e-03
3.007999999999999829e+01,3.010866624079240172e-03
3.012000000000000099e+01,1.058461341198121530e-03
3.016000000000000014e+01,3.047670169089468275e-03
3.019999999999999929e+01,5.678513904423047355e-03
3.023999999999999844e+01,4.321855101397490545e-03
3.028000000000000114e+01,7.044309181953269626e-03
3.032000000000000028e+01,5.183430930031657745e-03
3.035999999999999943e+01,5.339178396570442263e-03
3.039999999999999858e+01,3.409494128472353308e-03
3.044000000000000128e+01,3.588101427373911224e-03
3.048000000000000043e+01,3.125017604070914716e-03
3.051999999999999957e+01,3.303567739616476012e-03
3.055999999999999872e+01,3.894586501217226805e-03
3.060000000000000142e+01,4.829324206033214217e-03
3.064000000000000057e+01,4.549457278799887497e-03
3.067999999999999972e+01,2.894569950989621301e-03
3.071999999999999886e+01,5.089628988225210551e-03
3.076000000000000156e+01,3.526349159856109489e-03
3.080000000000000071e+01,5.079686773883092948e-03
3.083999999999999986e+01,4.891339170285649920e-03
3.087999999999999901e+01,4.405047080070297223e-03
3.092000000000000171e+01,0.000000000000000000e+00
3.096000000000000085e+01,4.394867200664291824e-03
3.100000000000000000e+01,3.679320060385559213e-03
3.103999999999999915e+01,3.582488816068743389e-03
3.107999999999999829e+01,3.050213363731482403e-03
3.112000000000000099e+01,3.938731819974806807e-03
3.116000000000000014e+01,3.337645845641095971e-03
3.119999999999999929e+01,2.942777907377971958e-03
3.123999999999999844e+01,2.799960929455057399e-03
3.128000000000000114e+01,1.305038293763978972e-03
3.132000000000000028e+01,5.401715872571274425e-03
3.135999999999999943e+01,6.129633671333310774e-03
3.139999999999999858e+01,5.001281985322397240e-03
3.144000000000000128e+01,2.749989381465641619e-03
3.148000000000000043e+01,6.915291288999420374e-03
3.151999999999999957e+01,4.205605164637861784e-03
3.155999999999999872e+01,4.612534229762418024e-03
3.160000000000000142e+01,4.973598409574378834e-03
3.164000000000000057e+01,6.090875835266627500e-03
3.167999999999999972e+01,4.824802953462362445e-03
3.171999999999999886e+01,3.008701359340715080e-03
3.176000000000000156e+01,1.605064834047959833e-03
3.180000000000000071e+01,2.859712358357734043e-03
3.183999999999999986e+01,5.374736006958907159e-03
3.187999999999999901e+01,5.575158319458272532e-03
3.192000000000000171e+01,2.658900927514537028e-03
3.196000000000000085e+01,5.975904452695487631e-03
3.200000000000000000e+01,3.013748080060418486e-03
3.203999999999999915e+01,3.374454166818197966e-03
3.207999999999999829e+01,3.872626116748204526e-03
3.211999999999999744e+01,7.556161160391146152e-03
3.215999999999999659e+01,6.358443638658133404e-03
3.220000000000000284e+01,7.979424630738977259e-03
3.224000000000000199e+01,4.558737170342041026e-03
3.228000000000000114e+01,7.394226199898033293e-03
3.232000000000000028e+01,9.152604745819413121e-03
3.235999999999999943e+01,9.329709218249795238e-03
3.239999999999999858e+01,9.919276862321732557e-03
3.243999999999999773e+01,1.007339626685009072e-02
3.247999999999999687e+01,1.187747076265506518e-02
3.252000000000000313e+01,1.116069333237364875e-02
3.256000000000000227e+01,1.548551592666409099e-02
3.260000000000000142e+01,1.664782375790604604e-02
3.264000000000000057e+01,1.952883577039353155e-02
3.267999999999999972e+01,2.289105968876885625e-02
3.271999999999999886e+01,3.111155098604388367e-02
3.275999999999999801e+01,3.887367657375974395e-02
3.279999999999999716e+01,4.496286069798063195e-02
3.284000000000000341e+01,6.150194307232625945e-02
3.288000000000000256e+01,7.806390633125033507e-02
3.292000000000000171e+01,8.976753129331041525e-02
3.296000000000000085e+01,1.035336073093511139e-01
3.300000000000000000e+01,1.069872126929632128e-01
3.303999999999999915e+01,1.038866568387668554e-01
3.307999999999999829e+01,9.808191522706978527e-02
3.311999999999999744e+01,8.368344173386528528e-02
3.315999999999999659e+01,7.292865867988260198e-02
3.320000000000000284e+01,5.752178519181368188e-02
3.324000000000000199e+01,4.312320194229773279e-02
3.328000000000000114e+01,3.543912264681780416e-02
3.332000000000000028e+01,2.821333683861644223e-02
3.335999999999999943e+01,2.421874349117134756e-02
3.339999999999999858e+01,2.602199288516297143e-02
3.343999999999999773e+01,1.913984336336578898e-02
3.347999999999999687e+01,1.773470504595007699e-02
3.352000000000000313e+01,1.293788402405987407e-02
3.356000000000000227e+01,1.068475922739739979e-02
3.360000000000000142e+01,1.196074095853085113e-02
3.364000000000000057e+01,1.002837180084251677e-02
3.367999999999999972e+01,9.195957663078528979e-03
3.371999999999999886e+01,1.120515405473032286e-02
3.375999999999999801e+01,1.085391049444864656e-02
3.379999999999999716e+01,1.043387900585092572e-02
3.384000000000000341e+01,1.154921596989712078e-02
3.388000000000000256e+01,5.927057034701119914e-03
3.392000000000000171e+01,5.575659306773027291e-03
3.396000000000000085e+01,5.751302733201898304e-03
3.400000000000000000e+01,5.926907202709435531e-03
3.403999999999999915e+01,8.073293439006257177e-03
3.407999999999999829e+01,4.719675339973331170e-03
3.411999999999999744e+01,5.330576134288019137e-03
3.415999999999999659e+01,3.672701876614791177e-03
3.420000000000000284e+01,2.289786326212178182e-03
3.424000000000000199e+01,4.985971920544136210e-03
3.428000000000000114e+01,5.711296885650458607e-03
3.432000000000000028e+01,5.703253259740443705e-03
3.435999999999999943e+01,4.870174838552203921e-03
3.439999999999999858e+01,4.426637138873123697e-03
3.443999999999999773e+01,3.295563535298895973e-03
3.447999999999999687e+01,3.447774751540153265e-03
3.452000000000000313e+01,4.608272411959684310e-03
3.456000000000000227e+01,3.981240784509448329e-03
3.460000000000000142e+01,3.652083200009649446e-03
3.464000000000000057e+01,1.306230876272499678e-03
3.467999999999999972e+01,4.208220985471365465e-03
3.471999999999999886e+01,3.764357875813290240e-03
3.475999999999999801e+01,3.389203120589650599e-03
3.479999999999999716e+01,3.655669636774148881e-03
3.484000000000000341e+01,1.905440820850255170e-03
3.488000000000000256e+01,6.159299051914562950e-03
3.492000000000000171e+01,3.102745265259317618e-03
3.496000000000000085e+01,4.583620917441199455e-03
3.500000000000000000e+01,2.558226870793262834e-03
3.503999999999999915e+01,2.916109012173868746e-03
3.507999999999999829e+01,1.257295110000820155e-03
3.511999999999999744e+01,5.992148407543311690e-03
3.515999999999999659e+01,6.716568060676973012e-03
3.520000000000000284e+01,4.851378278986441528e-03
3.524000000000000199e+01,4.934050185436986667e-03
3.528000000000000114e+01,6.529169754437989109e-03
3.532000000000000028e+01,5.924260397064745436e-03
3.535999999999999943e+01,5.754721958263454666e-03
3.539999999999999858e+01,2.583076106172419503e-03
3.543999999999999773e+01,4.659270434107411554e-03
3.547999999999999687e+01,6.093758818061650873e-03
3.552000000000000313e+01,4.663638561535007193e-03
3.556000000000000227e+01,5.410544258774937880e-03
3.560000000000000142e+01,6.707402770251153987e-03
3.564000000000000057e+01,6.147979228088192895e-03
3.567999999999999972e+01,7.284334334108923635e-03
3.571999999999999886e+01,6.518574106498225239e-03
3.575999999999999801e+01,6.394432304514639440e-03
3.579999999999999716e+01,4.459841017438874108e-03
3.584000000000000341e+01,5.321020932501961155e-03
3.588000000000000256e+01,4.830081553762779513e-03
3.592000000000000171e+01,5.714088811855203703e-03
3.596000000000000085e+01,6.070971310185947767e-03
3.600000000000000000e+01,4.548654166287702423e-03
3.603999999999999915e+01,3.347123318090272463e-03
3.607999999999999829e+01,3.726787325224856229e-03
3.611999999999999744e+01,4.702235647974833434e-03
3.615999999999999659e+01,3.156821254385325497e-03
3.620000000000000284e+01,4.705091774251707673e-03
3.624000000000000199e+01,3.434584562145262705e-03
3.628000000000000114e+01,6.014007233269533063e-03
3.632000000000000028e+01,7.287142349119073853e-03
3.635999999999999943e+01,4.526923741911577717e-03
3.639999999999999858e+01,6.235380740603916304e-03
3.643999999999999773e+01,6.362551571235896403e-03
3.647999999999999687e+01,5.183434372296291670e-03
3.652000000000000313e+01,5.493844638684726098e-03
3.656000000000000227e+01,7.614613551733834945e-03
3.660000000000000142e+01,6.297857587250488276e-03
3.664000000000000057e+01,7.616454803468388976e-03
3.667999999999999972e+01,7.376681661602578662e-03
3.671999999999999886e+01,5.991035428673355950e-03
3.675999999999999801e+01,3.872013371700998643e-03
3.679999999999999716e+01,6.817495291856211746e-03
3.684000000000000341e+01,7.196279437066549489e-03
3.688000000000000256e+01,6.727104795401553892e-03
3.692000000000000171e+01,8.526618161667665063e-03
3.696000000000000085e+01,7.621934268734768293e-03
3.700000000000000000e+01,4.150552126560145237e-03
3.703999999999999915e+01,8.310323649322512093e-03
3.707999999999999829e+01,6.351335865297660400e-03
3.711999999999999744e+01,9.044353724212203863e-03
3.715999999999999659e+01,8.964424166790949458e-03
3.720000000000000284e+01,9.044861816464999302e-03
3.724000000000000199e+01,7.727343097969828663e-03
3.728000000000000114e+01,9.663921741380299829e-03
3.732000000000000028e+01,8.277555980032127309e-03
3.735999999999999943e+01,1.239110644278901101e-02
3.739999999999999858e+01,9.744234050351335136e-03
3.743999999999999773e+01,1.223061330211963095e-02
3.747999999999999687e+01,1.105029985350369087e-02
3.752000000000000313e+01,1.481990564056996640e-02
3.756000000000000227e+01,1.581656282555835014e-02
3.760000000000000142e+01,1.713400168185335096e-02
3.764000000000000057e+01,1.829097514102054345e-02
3.767999999999999972e+01,2.008956133425278401e-02
3.771999999999999886e+01,2.124643494334852931e-02
3.775999999999999801e+01,2.249492453523491142e-02
3.779999999999999716e+01,3.116831684635103239e-02
3.784000000000000341e+01,3.502918931881920939e-02
3.788000000000000256e+01,3.930250871826222736e-02
3.792000000000000171e+01,4.444660535454419970e-02
3.796000000000000085e+01,5.247813299421957151e-02
3.800000000000000000e+01,6.832414362442623679e-02
3.803999999999999915e+01,9.432212231162546978e-02
3.807999999999999829e+01,1.447261452616752375e-01
3.811999999999999744e+01,2.153424889357906380e-01
3.815999999999999659e+01,3.062628193010849542e-01
3.820000000000000284e+01,5.099094671335739903e-01
3.824000000000000199e+01,8.123491872901580368e-01
3.828000000000000114e+01,1.000000000000000000e+00
3.832000000000000028e+01,9.805541568570450561e-01
3.835999999999999943e+01,8.459985747302928294e-01
3.839999999999999858e+01,6.948742956154102535e-01
3.843999999999999773e+01,4.719754192884261235e-01
3.847999999999999687e+01,3.018532395588834349e-01
3.852000000000000313e+01,2.062326186161845820e-01
3.856000000000000227e+01,1.327263883712540837e-01
3.860000000000000142e+01,1.002635954000209162e-01
3.864000000000000057e+01,7.795276870716716378e-02
3.867999999999999972e+01,5.995019521152989556e-02
3.871999999999999886e+01,5.237458601418664567e-02
3.875999999999999801e+01,4.445517592826234848e-02
3.879999999999999716e+01,4.350233516877423379e-02
3.884000000000000341e+01,3.883696463453493314e-02
3.888000000000000256e+01,4.077149884683272524e-02
3.892000000000000171e+01,3.337895529886131946e-02
3.896000000000000085e+01,3.061549541799376759e-02
3.900000000000000000e+01,3.009780085777649661e-02
3.903999999999999915e+01,2.811339502928483086e-02
3.907999999999999829e+01,2.351645174284871034e-02
3.911999999999999744e+01,2.056944386437042221e-02
3.915999999999999659e+01,1.720988434730327116e-02
3.920000000000000284e+01,1.889190517148920181e-02
3.924000000000000199e+01,1.690722807802567604e-02
3.928000000000000114e+01,2.168287019531056278e-02
3.932000000000000028e+01,2.109599157257574520e-02
3.935999999999999943e+01,1.862990334737834458e-02
3.939999999999999858e+01,2.051789922790547838e-02
3.943999999999999773e+01,1.825794964805185425e-02
3.947999999999999687e+01,1.437087184565410611e-02
3.952000000000000313e+01,1.231706043684742229e-02
3.956000000000000227e+01,1.007986141792895259e-02
3.960000000000000142e+01,9.996759855359966043e-03
3.964000000000000057e+01,1.076151390951700544e-02
3.967999999999999972e+01,1.097621565508895801e-02
3.971999999999999886e+01,9.334623252452349182e-03
3.975999999999999801e+01,1.243669475254497413e-02
3.979999999999999716e+01,1.191789971779304465e-02
3.984000000000000341e+01,1.013863973607976275e-02
3.988000000000000256e+01,9.184318138225336034e-03
3.992000000000000171e+01,8.229940034466561374e-03
3.996000000000000085e+01,8.398414855903138174e-03
4.000000000000000000e+01,7.214758170393856945e-03
4.003999999999999915e+01,7.406035908572597415e-03
4.007999999999999829e+01,8.216002744941891187e-03
4.011999999999999744e+01,5.153020362231872445e-03
4.015999999999999659e+01,6.925366782196652575e-03
4.020000000000000284e+01,8.055993266423951485e-03
4.024000000000000199e+01,9.049063167621719875e-03
4.028000000000000114e+01,1.625245280108665244e-02
4.032000000000000028e+01,1.768082134458214688e-02
4.035999999999999943e+01,1.232584173696965775e-02
4.039999999999999858e+01,1.155410848494562402e-02
4.043999999999999773e+01,1.082815022839635037e-02
4.047999999999999687e+01,7.650066013758708219e-03
4.052000000000000313e+01,9.078144320408810392e-03
4.056000000000000227e+01,8.374927731728961169e-03
4.060000000000000142e+01,7.946650878446193805e-03
4.064000000000000057e+01,6.395405835249385121e-03
4.067999999999999972e+01,8.029498510884656992e-03
4.071999999999999886e+01,6.615634960016465206e-03
4.075999999999999801e+01,5.064213284654025746e-03
4.079999999999999716e+01,6.927294186620200703e-03
4.084000000000000341e+01,5.307004599343867653e-03
4.088000000000000256e+01,5.588726938401230443e-03
4.092000000000000171e+01,5.251643728807258750e-03
4.096000000000000085e+01,6.381158301382141955e-03
4.100000000000000000e+01,3.454388874869772624e-03
4.103999999999999915e+01,9.304587326969256805e-03
4.107999999999999829e+01,7.019360729731902171e-03
4.111999999999999744e+01,5.948649704725481394e-03
4.115999999999999659e+01,8.934102789693464455e-03
4.120000000000000284e+01,1.116325036745913560e-02
4.124000000000000199e+01,9.336113234692291693e-03
4.128000000000000114e+01,8.746407721281469760e-03
4.132000000000000028e+01,7.858726773384033804e-03
4.135999999999999943e+01,7.039734615176451195e-03
4.139999999999999858e+01,7.847754584774853728e-03
4.143999999999999773e+01,6.684892700364093547e-03
4.147999999999999687e+01,2.771987115024814388e-03
4.152000000000000313e+01,6.742303649952124944e-03
4.156000000000000227e+01,4.914678897687578367e-03
4.160000000000000142e+01,7.166133472503035708e-03
4.164000000000000057e+01,5.223803022512381669e-03
4.167999999999999972e+01,6.398057762732824345e-03
4.171999999999999886e+01,6.174342854472560614e-03
4.175999999999999801e+01,4.621407743423136538e-03
4.179999999999999716e+01,3.687156631873262074e-03
4.184000000000000341e+01,5.296577200689709872e-03
4.188000000000000256e+01,4.293452011367045011e-03
4.192000000000000171e+01,6.269412172278714980e-03
4.196000000000000085e+01,5.197412430886430915e-03
4.200000000000000000e+01,7.333663016799219815e-03
4.203999999999999915e+01,6.651118677478799757e-03
4.207999999999999829e+01,7.847666185843878150e-03
4.211999999999999744e+01,7.417077645766986978e-03
4.215999999999999659e+01,3.846862524827427982e-03
4.220000000000000284e+01,5.730716237669735737e-03
4.224000000000000199e+01,4.864523996673534439e-03
4.228000000000000114e+01,3.792019561097361054e-03
4.232000000000000028e+01,4.369441047542258275e-03
4.235999999999999943e+01,4.946798795056018064e-03
4.239999999999999858e+01,4.217850964015187540e-03
4.243999999999999773e+01,3.236757421253706225e-03
4.247999999999999687e+01,2.874345862230212514e-03
4.252000000000000313e+01,6.086847431797742791e-03
4.256000000000000227e+01,4.188900392475674098e-03
4.260000000000000142e+01,4.536708002125035798e-03
4.264000000000000057e+01,4.357371050119710106e-03
4.267999999999999972e+01,5.896708517233320915e-03
4.271999999999999886e+01,5.075579471790488822e-03
4.275999999999999801e+01,5.079380272863427692e-03
4.279999999999999716e+01,5.633112544814925828e-03
4.284000000000000341e+01,5.018037062427014444e-03
4.288000000000000256e+01,5.640388456426739805e-03
4.292000000000000171e+01,4.383519694859229834e-03
4.296000000000000085e+01,3.241168022857018795e-03
4.300000000000000000e+01,3.977905471333488194e-03
4.303999999999999915e+01,4.829159772226835831e-03
4.307999999999999829e+01,3.319946493395853522e-03
4.311999999999999744e+01,2.979409815241508986e-03
4.315999999999999659e+01,5.549205247255242085e-03
4.320000000000000284e+01,4.521040587038526772e-03
4.324000000000000199e+01,4.249054786181309662e-03
4.328000000000000114e+01,3.472839047903965217e-03
4.332000000000000028e+01,4.598628002933534929e-03
4.335999999999999943e+01,4.670190269268564322e-03
4.339999999999999858e+01,2.656282264348590154e-03
4.343999999999999773e+01,4.217284660812815021e-03
4.347999999999999687e+01,5.663637391158452862e-03
4.352000000000000313e+01,4.382856894712790913e-03
4.356000000000000227e+01,4.637416037378123274e-03
4.360000000000000142e+01,5.029406893843310286e-03
4.364000000000000057e+01,3.840090238890412223e-03
4.367999999999999972e+01,5.469438066953204343e-03
4.371999999999999886e+01,7.304966817358983858e-03
4.375999999999999801e+01,3.777961666007791704e-03
4.379999999999999716e+01,3.940448455982499196e-03
4.384000000000000341e+01,4.263282769733726593e-03
4.388000000000000256e+01,3.738137546122941024e-03
4.392000000000000171e+01,4.771247415877173138e-03
4.396000000000000085e+01,4.910544468277135144e-03
4.400000000000000000e+01,8.006004183630616514e-03
4.403999999999999915e+01,4.341021360470737923e-03
4.407999999999999829e+01,4.915526162743295326e-03
4.411999999999999744e+01,5.810793308726329084e-03
4.415999999999999659e+01,5.628914873108703011e-03
4.420000000000000284e+01,6.065713322538049575e-03
4.424000000000000199e+01,7.281604188393572125e-03
4.428000000000000114e+01,5.518277838906735996e-03
4.432000000000000028e+01,5.106956704245576954e-03
4.435999999999999943e+01,4.076819823551044823e-03
4.439999999999999858e+01,5.384098341676183362e-03
4.443999999999999773e+01,5.201733062586707569e-03
4.447999999999999687e+01,4.538050810272736130e-03
4.452000000000000313e+01,4.378461887302471239e-03
4.456000000000000227e+01,6.464621803167380082e-03
4.460000000000000142e+01,3.990323576983990581e-03
4.464000000000000057e+01,5.480513059131099547e-03
4.467999999999999972e+01,6.535218018026503657e-03
4.471999999999999886e+01,3.373212300479740047e-03
4.475999999999999801e+01,3.992361764165502404e-03
4.479999999999999716e+01,2.892701149249598050e-03
4.484000000000000341e+01,4.634618100119225481e-03
4.488000000000000256e+01,3.741063878362103304e-03
4.492000000000000171e+01,4.405761785614751430e-03
4.496000000000000085e+01,4.772473468127726853e-03
4.500000000000000000e+01,3.053710136417318258e-03
4.503999999999999915e+01,4.245273341887138320e-03
4.507999999999999829e+01,4.955517795519322720e-03
4.511999999999999744e+01,5.505274678646489804e-03
4.515999999999999659e+01,2.984145652111012438e-03
4.520000000000000284e+01,4.725417452352020410e-03
4.524000000000000199e+01,4.931210041050386288e-03
4.528000000000000114e+01,5.480678056229050174e-03
4.532000000000000028e+01,5.663409215234407879e-03
4.535999999999999943e+01,4.379410371240253196e-03
4.539999999999999858e+01,4.103665719239354102e-03
4.543999999999999773e+01,4.515343840750680668e-03
4.547999999999999687e+01,4.789449846011017628e-03
4.552000000000000313e+01,5.453063609150244316e-03
4.556000000000000227e+01,4.260365912246315279e-03
4.560000000000000142e+01,4.923833107075531457e-03
4.564000000000000057e+01,4.166402511729577589e-03
4.567999999999999972e+01,4.806806142530012371e-03
4.571999999999999886e+01,2.536737853582290200e-03
4.575999999999999801e+01,2.856162667572195203e-03
4.579999999999999716e+01,4.550504830563935690e-03
4.584000000000000341e+01,4.251035574961551690e-03
4.588000000000000256e+01,2.920248681911344520e-03
4.592000000000000171e+01,4.797700495893672708e-03
4.596000000000000085e+01,2.825102300384000134e-03
4.600000000000000000e+01,5.871147767089875298e-03
4.603999999999999915e+01,3.577569094730737205e-03
4.607999999999999829e+01,2.681823462775892973e-03
4.611999999999999744e+01,6.735971573048199490e-03
4.615999999999999659e+01,4.442168245968551761e-03
4.620000000000000284e+01,5.700350617230722124e-03
4.624000000000000199e+01,5.835548198189509372e-03
4.628000000000000114e+01,7.941491262229455339e-03
4.632000000000000028e+01,1.000152580564767253e-02
4.635999999999999943e+01,1.022816303896046698e-02
4.639999999999999858e+01,7.888074158092291122e-03
4.643999999999999773e+01,7.014566814726261139e-03
4.647999999999999687e+01,4.101413112734928965e-03
4.652000000000000313e+01,5.427739803149240691e-03
4.656000000000000227e+01,6.364409440167816817e-03
4.660000000000000142e+01,6.613507126731548239e-03
4.664000000000000057e+01,4.845874501795046502e-03
4.667999999999999972e+01,4.155241838742851704e-03
4.671999999999999886e+01,4.312443804781592935e-03
4.675999999999999801e+01,3.438325524739891618e-03
4.679999999999999716e+01,3.549540765172210215e-03
4.684000000000000341e+01,3.706512029205744074e-03
4.688000000000000256e+01,3.175910512764959070e-03
4.692000000000000171e+01,4.088972589513894043e-03
4.696000000000000085e+01,4.154045998686664923e-03
4.700000000000000000e+01,4.104459307210410295e-03
4.703999999999999915e+01,3.413132403806824061e-03
4.707999999999999829e+01,5.242545126126201861e-03
4.711999999999999744e+01,4.711478292726088007e-03
4.715999999999999659e+01,4.753246527037595891e-03
4.720000000000000284e+01,5.574098403283780923e-03
4.724000000000000199e+01,6.142790338904169888e-03
4.728000000000000114e+01,1.095096041402022526e-02
4.732000000000000028e+01,1.672154594672365172e-02
4.735999999999999943e+01,1.838999558419665559e-02
4.739999999999999858e+01,1.662088832910062555e-02
4.743999999999999773e+01,1.572253009018166614e-02
4.747999999999999687e+01,1.186786167140549235e-02
4.752000000000000313e+01,1.133600982380306155e-02
4.756000000000000227e+01,9.108256237400413902e-03
4.760000000000000142e+01,8.117915535628668008e-03
4.764000000000000057e+01,4.515012001031627580e-03
4.767999999999999972e+01,7.718235819442810855e-03
4.771999999999999886e+01,1.456856662727200888e-03
4.775999999999999801e+01,6.241161084925979721e-03
4.779999999999999716e+01,4.815008336761710493e-03
4.784000000000000341e+01,5.107514711643339374e-03
4.788000000000000256e+01,2.856207106520155040e-03
4.792000000000000171e+01,4.088130536782029999e-03
4.796000000000000085e+01,3.761650171033090965e-03
4.800000000000000000e+01,3.137174568904551025e-03
4.803999999999999915e+01,4.850103575342608331e-03
4.807999999999999829e+01,3.652553666154141187e-03
4.811999999999999744e+01,4.356994221367437720e-03
4.815999999999999659e+01,3.480113866276956375e-03
4.820000000000000284e+01,3.794811574360404220e-03
4.824000000000000199e+01,3.834429856040904704e-03
4.828000000000000114e+01,4.378130321089414648e-03
4.832000000000000028e+01,4.234253736992056247e-03
4.835999999999999943e+01,4.411126927738956427e-03
4.839999999999999858e+01,2.937928932471074121e-03
4.843999999999999773e+01,3.916716967137278023e-03
4.847999999999999687e+01,4.116261392673107103e-03
4.852000000000000313e+01,3.834476868989278395e-03
4.856000000000000227e+01,2.933864148980072639e-03
4.860000000000000142e+01,3.981073513325945890e-03
4.864000000000000057e+01,2.965713594617281224e-03
4.867999999999999972e+01,3.921092044537194399e-03
4.871999999999999886e+01,4.578473123741726505e-03
4.875999999999999801e+01,4.639941935171757598e-03
4.879999999999999716e+01,5.205491388505072321e-03
4.884000000000000341e+01,3.662637923068963117e-03
4.888000000000000256e+01,2.692614426653468489e-03
4.892000000000000171e+01,4.518323358610297144e-03
4.896000000000000085e+01,4.235629016075077337e-03
4.900000000000000000e+01,4.777846022478922025e-03
4.903999999999999915e+01,5.159563838105212658e-03
4.907999999999999829e+01,4.762036265987988452e-03
4.911999999999999744e+01,3.195682323380456130e-03
4.915999999999999659e+01,2.660487948212406171e-03
4.920000000000000284e+01,2.973120850534293706e-03
4.924000000000000199e+01,3.904415697552747391e-03
4.928000000000000114e+01,2.841888928595051426e-03
4.932000000000000028e+01,4.345928188048419488e-03
4.935999999999999943e+01,5.391552529645633751e-03
4.939999999999999858e+01,4.764186199450910764e-03
4.943999999999999773e+01,4.113818621268033535e-03
4.947999999999999687e+01,6.786261804122627021e-03
4.952000000000000313e+01,5.952392245709318269e-03
4.956000000000000227e+01,5.003854997897565215e-03
4.960000000000000142e+01,5.567722963069235247e-03
4.964000000000000057e+01,4.756514323488627259e-03
4.967999999999999972e+01,3.968136767318437667e-03
4.971999999999999886e+01,3.110924090296799706e-03
4.975999999999999801e+01,5.439022215761669769e-03
4.979999999999999716e+01,3.252479827374828766e-03
4.984000000000000341e+01,5.053326254093159185e-03
4.988000000000000256e+01,4.447851900627698349e-03
4.992000000000000171e+01,4.575620083206823237e-03
4.996000000000000085e+01,5.047049819083737100e-03
5.000000000000000000e+01,5.128812304182895840e-03
5.003999999999999915e+01,4.408410034335600095e-03
5.007999999999999829e+01,6.002489804348287369e-03
5.011999999999999744e+01,5.648578511170272362e-03
5.015999999999999659e+01,4.377919500213577238e-03
5.020000000000000284e+01,3.771752631016247678e-03
5.024000000000000199e+01,4.746738641880745950e-03
5.028000000000000114e+01,4.254980065117936437e-03
5.032000000000000028e+01,4.977709788517867620e-03
5.035999999999999943e+01,4.233694687142075530e-03
5.039999999999999858e+01,3.352092884887516219e-03
5.043999999999999773e+01,4.028726848401819119e-03
5.047999999999999687e+01,4.246942573982101510e-03
5.052000000000000313e+01,5.427564271212995811e-03
5.056000000000000227e+01,3.353951879887617175e-03
5.060000000000000142e+01,3.480237379847922821e-03
5.064000000000000057e+01,5.302257181237540057e-03
5.067999999999999972e+01,4.580454702427677952e-03
5.071999999999999886e+01,2.437739374518041978e-03
5.075999999999999801e+01,4.946989255742331552e-03
5.079999999999999716e+01,4.408253029762348833e-03
5.084000000000000341e+01,3.365264455836630784e-03
5.088000000000000256e+01,4.270091207536042335e-03
5.092000000000000171e+01,3.639421910155050174e-03
5.096000000000000085e+01,4.223239015749447045e-03
5.100000000000000000e+01,4.577801556164260745e-03
5.103999999999999915e+01,5.665603312545795626e-03
5.107999999999999829e+01,4.507496381470669881e-03
5.111999999999999744e+01,5.847200578701416095e-03
5.115999999999999659e+01,3.016008051886089752e-03
5.120000000000000284e+01,4.332615958606218440e-03
5.124000000000000199e+01,4.755389467465930171e-03
5.128000000000000114e+01,4.880158016860852883e-03
5.132000000000000028e+01,6.058996252109853480e-03
5.135999999999999943e+01,3.639850205989651147e-03
5.139999999999999858e+01,3.328933593983266284e-03
5.143999999999999773e+01,5.355411511735666888e-03
5.147999999999999687e+01,3.692238706708569733e-03
5.152000000000000313e+01,3.243550644617915896e-03
5.156000000000000227e+01,3.986430685467584611e-03
5.160000000000000142e+01,4.866718725275203522e-03
5.164000000000000057e+01,4.944837267167977515e-03
5.167999999999999972e+01,2.983294035788195374e-03
5.171999999999999886e+01,3.909141018273737216e-03
5.175999999999999801e+01,5.064061611108045154e-03
5.179999999999999716e+01,4.889732239026591855e-03
5.184000000000000341e+01,3.202820612079833752e-03
5.188000000000000256e+01,5.709540445750794710e-03
5.192000000000000171e+01,2.716203059994531412e-03
5.196000000000000085e+01,5.635236004351325788e-03
5.200000000000000000e+01,4.979199291573476426e-03
5.203999999999999915e+01,3.704324066514017976e-03
5.207999999999999829e+01,4.125178874212322502e-03
5.211999999999999744e+01,4.866772310779187219e-03
5.215999999999999659e+01,5.081192965029477336e-03
5.220000000000000284e+01,4.562192025591742771e-03
5.224000000000000199e+01,3.997265016549269613e-03
5.228000000000000114e+01,5.563481354409925347e-03
5.232000000000000028e+01,7.587934856799591517e-03
5.235999999999999943e+01,5.899818506355221891e-03
5.239999999999999858e+01,6.617843404154361009e-03
5.243999999999999773e+01,4.562875590269628405e-03
5.247999999999999687e+01,3.836972280649897545e-03
5.252000000000000313e+01,6.090122899098959243e-03
5.256000000000000227e+01,5.226532628812774299e-03
5.260000000000000142e+01,5.394091728584043954e-03
5.264000000000000057e+01,4.553229673287985911e-03
5.267999999999999972e+01,4.056021108243457532e-03
5.271999999999999886e+01,5.323290243035090803e-03
5.275999999999999801e+01,3.015487467782098936e-03
5.279999999999999716e+01,3.938819526219522471e-03
5.284000000000000341e+01,4.862056779282889103e-03
5.288000000000000256e+01,5.418534765647325946e-03
5.292000000000000171e+01,4.164512517157886382e-03
5.296000000000000085e+01,5.041631599810011098e-03
5.300000000000000000e+01,4.108250210459830909e-03
5.303999999999999915e+01,5.328926436524723809e-03
5.307999999999999829e+01,4.578686303485473945e-03
5.311999999999999744e+01,3.874183577896539010e-03
5.315999999999999659e+01,6.263315490298630890e-03
5.320000000000000284e+01,3.335718560274116701e-03
5.324000000000000199e+01,5.426743830533206810e-03
5.328000000000000114e+01,5.523935627395193740e-03
5.332000000000000028e+01,5.552281631726870524e-03
5.335999999999999943e+01,4.938868689406100687e-03
5.339999999999999858e+01,6.433679252488675240e-03
5.343999999999999773e+01,3.895085461326734579e-03
5.347999999999999687e+01,5.733450559189464009e-03
5.352000000000000313e+01,4.409238879692084154e-03
5.356000000000000227e+01,5.880745873958719352e-03
5.360000000000000142e+01,4.900088017796234464e-03
5.364000000000000057e+01,5.752654698528839212e-03
5.367999999999999972e+01,5.482214534155082156e-03
5.371999999999999886e+01,3.813769149037745092e-03
5.375999999999999801e+01,5.880619223111955250e-03
5.379999999999999716e+01,5.289055161088751685e-03
5.384000000000000341e+01,6.897379385840258538e-03
5.388000000000000256e+01,6.305619665784264680e-03
5.392000000000000171e+01,5.599179331740982042e-03
5.396000000000000085e+01,7.138459971593613500e-03
5.400000000000000000e+01,7.852647596231117355e-03
5.403999999999999915e+01,6.389667323186197338e-03
5.407999999999999829e+01,5.774499861577648413e-03
5.411999999999999744e+01,5.342565971595680287e-03
5.415999999999999659e+01,6.193858562918073268e-03
5.420000000000000284e+01,5.853393203403626545e-03
5.424000000000000199e+01,7.094068866530047618e-03
5.428000000000000114e+01,8.632560234095788820e-03
5.432000000000000028e+01,7.352220274145972005e-03
5.435999999999999943e+01,6.598860995706229936e-03
5.439999999999999858e+01,8.732883986659759415e-03
5.443999999999999773e+01,7.108497916076523745e-03
5.447999999999999687e+01,8.371493877738141534e-03
5.452000000000000313e+01,7.915650947265163648e-03
5.456000000000000227e+01,9.109697655105121125e-03
5.460000000000000142e+01,8.676571319349722991e-03
5.464000000000000057e+01,9.778751777649261415e-03
5.467999999999999972e+01,1.147666153313094128e-02
5.471999999999999886e+01,1.237239266048363595e-02
5.475999999999999801e+01,1.271802677677422860e-02
5.479999999999999716e+01,1.494271503415165597e-02
5.484000000000000341e+01,1.583814431497339303e-02
5.488000000000000256e+01,1.852096141404589377e-02
5.492000000000000171e+01,2.001201842794577551e-02
5.496000000000000085e+01,2.583419690078074538e-02
5.500000000000000000e+01,3.002920114427826831e-02
5.503999999999999915e+01,3.445326927503938180e-02
5.507999999999999829e+01,4.435428458010879510e-02
5.511999999999999744e+01,5.773850957720553373e-02
5.515999999999999659e+01,7.268095634831439611e-02
5.520000000000000284e+01,9.621699685138959679e-02
5.524000000000000199e+01,1.022905461111376646e-01
5.528000000000000114e+01,1.070577516114356725e-01
5.532000000000000028e+01,9.566870735230739720e-02
5.535999999999999943e+01,9.443157980753892622e-02
5.539999999999999858e+01,8.425690651409950549e-02
5.543999999999999773e+01,6.901757947371883750e-02
5.547999999999999687e+01,5.710104540824419150e-02
5.552000000000000313e+01,4.481774425017279878e-02
5.556000000000000227e+01,3.500932453724808768e-02
5.560000000000000142e+01,2.779036875800546327e-02
5.564000000000000057e+01,2.286296201538577308e-02
5.567999999999999972e+01,2.105209896200382555e-02
5.571999999999999886e+01,1.706406303082264736e-02
5.575999999999999801e+01,1.394675145238295777e-02
5.579999999999999716e+01,1.621471882822811406e-02
5.584000000000000341e+01,1.199720694323109724e-02
5.588000000000000256e+01,1.206498074711851408e-02
5.592000000000000171e+01,1.036807846593016010e-02
5.596000000000000085e+01,1.004606341589441010e-02
5.600000000000000000e+01,8.234370300697466463e-03
5.603999999999999915e+01,9.310054593351204874e-03
5.607999999999999829e+01,7.727317991177588830e-03
5.611999999999999744e+01,8.963208995440480331e-03
5.615999999999999659e+01,7.586511910571427930e-03
5.620000000000000284e+01,8.043031773848061117e-03
5.624000000000000199e+01,8.339031102989407154e-03
5.628000000000000114e+01,8.566175865108927728e-03
5.632000000000000028e+01,8.564050291678995327e-03
5.635999999999999943e+01,9.203482078158244442e-03
5.639999999999999858e+01,8.765731999328701951e-03
5.643999999999999773e+01,8.304959922024327326e-03
5.647999999999999687e+01,8.141997027577755827e-03
5.652000000000000313e+01,7.474764947647676537e-03
5.656000000000000227e+01,7.128258334848894436e-03
5.660000000000000142e+01,5.796235349557946233e-03
5.664000000000000057e+01,6.068262793877203173e-03
5.667999999999999972e+01,5.515189278509292220e-03
5.671999999999999886e+01,5.237007713131994549e-03
5.675999999999999801e+01,5.921213621828615332e-03
5.679999999999999716e+01,5.871984300803095337e-03
5.684000000000000341e+01,6.212229181155156515e-03
5.688000000000000256e+01,6.414868151606498842e-03
5.692000000000000171e+01,5.792405450925411196e-03
5.696000000000000085e+01,5.559416595899269349e-03
5.700000000000000000e+01,6.105482332126450223e-03
5.703999999999999915e+01,4.428538234761658990e-03
5.707999999999999829e+01,6.349380626397513674e-03
5.711999999999999744e+01,4.924303397619058872e-03
5.715999999999999659e+01,4.965775928454594854e-03
5.720000000000000284e+01,4.434227693779314167e-03
5.724000000000000199e+01,5.598394195788756328e-03
5.728000000000000114e+01,4.814548409823981266e-03
5.732000000000000028e+01,5.222253652113336905e-03
5.735999999999999943e+01,4.254859404827963411e-03
5.739999999999999858e+01,7.343581126387900213e-03
5.743999999999999773e+01,5.917639686422096826e-03
5.747999999999999687e+01,6.233245314539596731e-03
5.752000000000000313e+01,5.334166628738946751e-03
5.756000000000000227e+01,6.612048680889600488e-03
5.760000000000000142e+01,5.987750539316176804e-03
5.764000000000000057e+01,4.561265113696473354e-03
5.767999999999999972e+01,5.174240941773940172e-03
5.771999999999999886e+01,6.130855319752536239e-03
5.775999999999999801e+01,5.895701193789636835e-03
5.779999999999999716e+01,4.858359309483620617e-03
5.784000000000000341e+01,4.760485176325936554e-03
5.788000000000000256e+01,4.250003911849291847e-03
5.792000000000000171e+01,4.426908425731485019e-03
5.796000000000000085e+01,5.566196856461293196e-03
5.800000000000000000e+01,5.284550857585189332e-03
5.803999999999999915e+01,5.369458981438451038e-03
5.807999999999999829e+01,4.308430695600380493e-03
5.811999999999999744e+01,3.843121509562427100e-03
5.815999999999999659e+01,5.646437368550290790e-03
5.820000000000000284e+01,6.074651247905028459e-03
5.824000000000000199e+01,4.646516079192168289e-03
5.828000000000000114e+01,5.234923864141420580e-03
5.832000000000000028e+01,4.929476263595166004e-03
5.835999999999999943e+01,4.142670544573679760e-03
5.839999999999999858e+01,3.791167445379431920e-03
5.843999999999999773e+01,5.593705954081952363e-03
5.847999999999999687e+01,5.631560788959297931e-03
5.852000000000000313e+01,4.179730088500244016e-03
5.856000000000000227e+01,4.767358033105755302e-03
5.860000000000000142e+01,5.286124533385289613e-03
5.864000000000000057e+01,5.140199913794794850e-03
5.867999999999999972e+01,3.321257113195734238e-03
5.871999999999999886e+01,4.687598554460234088e-03
5.875999999999999801e+01,3.533010284956829890e-03
5.879999999999999716e+01,4.394963427650813194e-03
5.884000000000000341e+01,3.790146607836641143e-03
5.888000000000000256e+01,3.872712720600275139e-03
5.892000000000000171e+01,3.955166004710001029e-03
5.896000000000000085e+01,3.900007213060106923e-03
5.900000000000000000e+01,5.265559683766725917e-03
5.903999999999999915e+01,3.812266835201055370e-03
5.907999999999999829e+01,3.069272847764055630e-03
5.911999999999999744e+01,4.503234973884192964e-03
5.915999999999999659e+01,4.264177496105242028e-03
5.920000000000000284e+01,2.993762895666664606e-03
5.924000000000000199e+01,3.900304053062589749e-03
5.928000000000000114e+01,4.440066971886056334e-03
5.932000000000000028e+01,4.613051533562850109e-03
5.935999999999999943e+01,4.625506312316015646e-03
5.939999999999999858e+01,5.417008567869929098e-03
5.943999999999999773e+01,4.970904296521705575e-03
5.947999999999999687e+01,4.341353365105310620e-03
5.952000000000000313e+01,4.376266947657449224e-03
5.956000000000000227e+01,4.319399718680658196e-03
5.960000000000000142e+01,4.331167209554150424e-03
5.964000000000000057e+01,4.709484080188629934e-03
5.967999999999999972e+01,4.698105005086635269e-03
5.971999999999999886e+01,3.884532480079455358e-03
5.975999999999999801e+01,3.025011593516134870e-03
5.979999999999999716e+01,3.425783947871718568e-03
5.984000000000000341e+01,4.353520739070653248e-03
5.988000000000000256e+01,5.716555762851068673e-03
5.992000000000000171e+01,4.696156765743003669e-03
5.996000000000000085e+01,4.317304456865246262e-03
