2.003999999999999915e+01,2.609201428379473095e-02
2.007999999999999829e+01,4.133199787753345095e-02
2.012000000000000099e+01,3.799167131395827374e-02
2.016000000000000014e+01,4.119337723336657930e-02
2.019999999999999929e+01,3.078690158784714789e-02
2.023999999999999844e+01,3.791348183751466761e-02
2.028000000000000114e+01,4.634827012129672658e-02
2.032000000000000028e+01,3.803458102426318654e-02
2.035999999999999943e+01,3.600122855372882985e-02
2.039999999999999858e+01,3.004225966844075932e-02
2.044000000000000128e+01,1.701738046345571340e-02
2.048000000000000043e+01,2.492753544941698693e-02
2.051999999999999957e+01,2.210810309702068016e-02
2.055999999999999872e+01,4.545752460707788017e-02
2.060000000000000142e+01,2.039384147418170715e-02
2.064000000000000057e+01,5.604223273697462454e-02
2.067999999999999972e+01,5.594002052218727435e-03
2.071999999999999886e+01,9.577257953265255405e-03
2.076000000000000156e+01,3.057017517011354976e-02
2.080000000000000071e+01,2.382357821733091172e-02
2.083999999999999986e+01,4.089060872659251722e-02
2.087999999999999901e+01,3.780716444983295982e-02
2.092000000000000171e+01,3.262992889103801669e-02
2.096000000000000085e+01,3.294794238929017044e-02
2.100000000000000000e+01,4.216318801771042069e-02
2.103999999999999915e+01,3.986376064926558382e-02
2.107999999999999829e+01,4.436803486706376171e-02
2.112000000000000099e+01,5.018049705405851213e-02
2.116000000000000014e+01,2.197285057322978519e-02
2.119999999999999929e+01,4.034594683885884409e-02
2.123999999999999844e+01,8.735776699242565543e-03
2.128000000000000114e+01,2.867847789846847753e-02
2.132000000000000028e+01,1.957319711131085341e-02
2.135999999999999943e+01,0.000000000000000000e+00
2.139999999999999858e+01,1.732497093025008733e-02
2.144000000000000128e+01,5.532326204098940436e-02
2.148000000000000043e+01,2.344975900033376484e-02
2.151999999999999957e+01,3.946544645797043366e-02
2.155999999999999872e+01,2.172270677218336721e-02
2.160000000000000142e+01,4.506518761655719379e-02
2.164000000000000057e+01,3.935967883076891410e-02
2.167999999999999972e+01,7.029064031911304300e-02
2.171999999999999886e+01,1.538664609675153075e-02
2.176000000000000156e+01,2.799866757404187098e-02
2.180000000000000071e+01,4.218055185662254042e-02
2.183999999999999986e+01,4.013730460868594752e-02
2.187999999999999901e+01,4.097237365070807019e-02
2.192000000000000171e+01,5.018127068879052466e-02
2.196000000000000085e+01,3.217400800679072470e-02
2.200000000000000000e+01,5.682210277496464040e-02
2.203999999999999915e+01,4.169286411422766514e-02
2.207999999999999829e+01,5.979810214430682225e-02
2.212000000000000099e+01,5.801452684784671326e-02
2.216000000000000014e+01,3.608044619025254501e-02
2.219999999999999929e+01,2.435202439427068197e-02
2.223999999999999844e+01,5.056851489142222267e-02
2.228000000000000114e+01,2.915693385315221500e-02
2.232000000000000028e+01,4.830717398829662002e-02
2.235999999999999943e+01,6.614866168177112316e-02
2.239999999999999858e+01,5.886750777794893391e-02
2.244000000000000128e+01,6.231538916115027249e-02
2.248000000000000043e+01,7.047341005608419306e-02
2.251999999999999957e+01,6.659334044343316605e-02
2.255999999999999872e+01,5.878760282052487157e-02
2.260000000000000142e+01,4.443928544066138436e-02
2.264000000000000057e+01,5.756822763430528844e-02
2.267999999999999972e+01,8.064112614477143837e-02
2.271999999999999886e+01,6.576851253715620960e-02
2.276000000000000156e+01,6.214830873103196346e-02
2.280000000000000071e+01,6.480838326759712220e-02
2.283999999999999986e+01,7.793579245734066907e-02
2.287999999999999901e+01,6.253856455552644911e-02
2.292000000000000171e+01,5.891712479155913895e-02
2.296000000000000085e+01,8.120279048258524646e-02
2.300000000000000000e+01,6.946830355406266588e-02
2.303999999999999915e+01,9.489363657186000722e-02
2.307999999999999829e+01,7.713962728987384943e-02
2.312000000000000099e+01,1.182657956104368191e-01
2.316000000000000014e+01,9.894100849818157628e-02
2.319999999999999929e+01,9.531736902230582287e-02
2.323999999999999844e+01,9.849737953716952710e-02
2.328000000000000114e+01,1.409307328984998886e-01
2.332000000000000028e+01,1.417548847019485248e-01
2.335999999999999943e+01,1.501677568670876650e-01
2.339999999999999858e+01,1.745434629703673246e-01
2.344000000000000128e+01,1.732731204758254928e-01
2.348000000000000043e+01,1.678153969160411929e-01
2.351999999999999957e+01,2.000408639951543888e-01
2.355999999999999872e+01,2.539863649312157912e-01
2.360000000000000142e+01,2.519296482693477168e-01
2.364000000000000057e+01,2.681909795248895723e-01
2.367999999999999972e+01,2.813116892543179870e-01
2.371999999999999886e+01,2.714032544888445031e-01
2.376000000000000156e+01,2.300915597410746749e-01
2.380000000000000071e+01,2.453048066407220174e-01
2.383999999999999986e+01,2.084411963964445669e-01
2.387999999999999901e+01,2.205134845940851240e-01
2.392000000000000171e+01,1.951636141677207392e-01
2.396000000000000085e+01,2.119456722151425998e-01
2.400000000000000000e+01,1.729871941890347153e-01
2.403999999999999915e+01,1.963108558182067864e-01
2.407999999999999829e+01,1.730531672321946324e-01
2.412000000000000099e+01,1.793662315001959551e-01
2.416000000000000014e+01,2.026888758688546177e-01
2.419999999999999929e+01,1.605884094590867006e-01
2.423999999999999844e+01,1.648069221007602558e-01
2.428000000000000114e+01,1.572489932731908069e-01
2.432000000000000028e+01,1.371295487835384463e-01
2.435999999999999943e+01,1.253838740061372359e-01
2.439999999999999858e+01,1.115443248206113708e-01
2.444000000000000128e+01,1.257053743705851545e-01
2.448000000000000043e+01,1.364640922058770744e-01
2.451999999999999957e+01,1.058752708982413082e-01
2.455999999999999872e+01,9.752984171899134469e-02
2.460000000000000142e+01,9.441788356968797147e-02
2.464000000000000057e+01,9.209064714977470423e-02
2.467999999999999972e+01,5.338799826837330176e-02
2.471999999999999886e+01,8.036945682781664047e-02
2.476000000000000156e+01,6.731182590711135005e-02
2.480000000000000071e+01,9.795624987000975392e-02
2.483999999999999986e+01,7.521533740656337341e-02
2.487999999999999901e+01,7.681133806070557235e-02
2.492000000000000171e+01,6.715426411629328574e-02
2.496000000000000085e+01,5.959035965310584271e-02
2.500000000000000000e+01,4.993256644970955199e-02
2.503999999999999915e+01,8.005145621024474523e-02
2.507999999999999829e+01,3.297111561144686759e-02
2.512000000000000099e+01,6.779971980437063395e-02
2.516000000000000014e+01,4.400915834471998134e-02
2.519999999999999929e+01,6.339726005570499312e-02
2.523999999999999844e+01,8.095315837276993720e-02
2.528000000000000114e+01,6.422715852924329449e-02
2.532000000000000028e+01,7.419328100521321856e-02
2.535999999999999943e+01,5.720485362507875954e-02
2.539999999999999858e+01,6.717023773261884823e-02
2.544000000000000128e+01,4.965768791486510625e-02
2.548000000000000043e+01,7.453872134207327471e-02
2.551999999999999957e+01,8.895173907601050534e-02
2.555999999999999872e+01,5.887689987526949220e-02
2.560000000000000142e+01,6.098968896729303757e-02
2.564000000000000057e+01,4.818571115454504949e-02
2.567999999999999972e+01,2.648386030137236252e-02
2.571999999999999886e+01,3.330595976683127513e-02
2.576000000000000156e+01,5.478238140195289957e-02
2.580000000000000071e+01,6.186541446865890387e-02
2.583999999999999986e+01,6.580777441374802139e-02
2.587999999999999901e+01,6.556269596525736432e-02
2.592000000000000171e+01,6.270032464245010873e-02
2.596000000000000085e+01,7.239874207896375424e-02
2.600000000000000000e+01,4.990877278936503569e-02
2.603999999999999915e+01,8.577552919459331682e-02
2.607999999999999829e+01,5.334052804384929736e-02
2.612000000000000099e+01,7.455181125278136089e-02
2.616000000000000014e+01,5.441551614442177026e-02
2.619999999999999929e+01,5.704595614832964900e-02
2.623999999999999844e+01,7.590085333096824316e-02
2.628000000000000114e+01,5.471662472551133694e-02
2.632000000000000028e+01,7.487919498360784409e-02
2.635999999999999943e+01,7.567623279334800834e-02
2.639999999999999858e+01,5.187391561680770175e-02
2.644000000000000128e+01,5.554876724390754583e-02
2.648000000000000043e+01,6.131675204428513326e-02
2.651999999999999957e+01,4.798089165353975477e-02
2.655999999999999872e+01,3.726154468337274789e-02
2.660000000000000142e+01,6.867406312582091665e-02
2.664000000000000057e+01,6.004744718092303035e-02
2.667999999999999972e+01,3.885925920107728693e-02
2.671999999999999886e+01,4.331639578270762847e-02
2.676000000000000156e+01,5.510048043176139082e-02
2.680000000000000071e+01,4.751902212226341571e-02
2.683999999999999986e+01,5.328340478906345296e-02
2.687999999999999901e+01,6.297274862827660635e-02
2.692000000000000171e+01,5.539007527550182663e-02
2.696000000000000085e+01,3.943288046543443753e-02
2.700000000000000000e+01,3.812997820538886057e-02
2.703999999999999915e+01,7.581863789829237921e-02
2.707999999999999829e+01,5.253286636384851133e-02
2.712000000000000099e+01,5.541579199440292008e-02
2.716000000000000014e+01,7.635499038168355734e-02
2.719999999999999929e+01,7.426496114797352666e-02
2.723999999999999844e+01,7.452973801269051346e-02
2.728000000000000114e+01,7.086873412142032091e-02
2.732000000000000028e+01,6.746900578465196696e-02
2.735999999999999943e+01,7.872356139865485658e-02
2.739999999999999858e+01,6.878072216816373541e-02
2.744000000000000128e+01,9.495083346555052706e-02
2.748000000000000043e+01,6.197834153472506907e-02
2.751999999999999957e+01,7.689489678134900363e-02
2.755999999999999872e+01,7.401603739018322581e-02
2.760000000000000142e+01,9.652079046098056836e-02
2.764000000000000057e+01,7.584609230815367309e-02
2.767999999999999972e+01,6.223662916776497023e-02
2.771999999999999886e+01,6.511327893275511980e-02
2.776000000000000156e+01,7.845714582783236413e-02
2.780000000000000071e+01,8.264139796333103138e-02
2.783999999999999986e+01,9.258242589376611265e-02
2.787999999999999901e+01,6.797980247878820936e-02
2.792000000000000171e+01,8.498563078759480138e-02
2.796000000000000085e+01,8.393434382476633315e-02
2.800000000000000000e+01,1.004159273955009118e-01
2.803999999999999915e+01,1.030274510496169693e-01
2.807999999999999829e+01,9.203060491076479888e-02
2.812000000000000099e+01,9.359449593572975734e-02
2.816000000000000014e+01,1.095509607228977861e-01
2.819999999999999929e+01,1.043100115561258479e-01
2.823999999999999844e+01,1.103213412911413643e-01
2.828000000000000114e+01,1.066496626426659405e-01
2.832000000000000028e+01,8.910791738926598926e-02
2.835999999999999943e+01,1.102960114791072394e-01
2.839999999999999858e+01,1.170906548948342923e-01
2.844000000000000128e+01,1.335674259602516178e-01
2.848000000000000043e+01,1.157622224272944478e-01
2.851999999999999957e+01,1.186301699562316153e-01
2.855999999999999872e+01,9.820716629899763073e-02
2.860000000000000142e+01,1.029060601377969481e-01
2.864000000000000057e+01,9.582840836087426484e-02
2.867999999999999972e+01,1.167512540393886855e-01
2.871999999999999886e+01,1.321781380901781155e-01
2.876000000000000156e+01,1.046872352432419301e-01
2.880000000000000071e+01,1.206366006535582042e-01
2.883999999999999986e+01,9.733185236292016262e-02
2.887999999999999901e+01,1.030743610668481414e-01
2.892000000000000171e+01,8.317069027325155184e-02
2.896000000000000085e+01,1.069689749941405976e-01
2.900000000000000000e+01,8.209226334377349443e-02
2.903999999999999915e+01,7.213148659346413361e-02
2.907999999999999829e+01,8.022693673721133234e-02
2.912000000000000099e+01,8.413487109412347287e-02
2.916000000000000014e+01,1.026970464055541182e-01
2.919999999999999929e+01,8.383693697063780703e-02
2.923999999999999844e+01,8.041613981666306810e-02
2.928000000000000114e+01,8.484561269360292590e-02
2.932000000000000028e+01,6.493735191390793970e-02
2.935999999999999943e+01,8.245045119503403852e-02
2.939999999999999858e+01,7.065368440525170157e-02
2.944000000000000128e+01,6.539872842888207194e-02
2.948000000000000043e+01,5.281595511695590106e-02
2.951999999999999957e+01,6.116800005923927336e-02
2.955999999999999872e+01,8.652949611342125591e-02
2.960000000000000142e+01,5.902892419830176735e-02
2.964000000000000057e+01,6.502433946885845251e-02
2.967999999999999972e+01,6.107502183527160899e-02
2.971999999999999886e+01,7.204162285871382188e-02
2.976000000000000156e+01,6.730628532637092376e-02
2.980000000000000071e+01,5.367297633995796180e-02
2.983999999999999986e+01,5.574065638152466556e-02
2.987999999999999901e+01,5.335911140316050572e-02
2.992000000000000171e+01,5.542583713956070190e-02
2.996000000000000085e+01,4.859458760000172350e-02
3.000000000000000000e+01,7.630608096335877999e-02
3.003999999999999915e+01,4.670674750213513887e-02
3.007999999999999829e+01,6.159441603954104311e-02
3.012000000000000099e+01,4.350852619982147063e-02
3.016000000000000014e+01,1.704803846502625161e-02
3.019999999999999929e+01,4.894417705594025780e-02
3.023999999999999844e+01,4.053940418787957412e-02
3.028000000000000114e+01,3.318090940673936590e-02
3.032000000000000028e+01,4.780397808685316746e-02
3.035999999999999943e+01,4.279972769225923873e-02
3.039999999999999858e+01,4.381388302149768349e-02
3.044000000000000128e+01,4.194894642892856712e-02
3.048000000000000043e+01,5.185961738994399051e-02
3.051999999999999957e+01,5.705935696434932813e-02
3.055999999999999872e+01,3.347258491739513869e-02
3.060000000000000142e+01,4.154993957092457252e-02
3.064000000000000057e+01,3.340195249003354017e-02
3.067999999999999972e+01,4.540368271728809774e-02
3.071999999999999886e+01,4.432036224864853435e-02
3.076000000000000156e+01,3.747934034407499060e-02
3.080000000000000071e+01,5.104972396035259430e-02
3.083999999999999986e+01,4.499277703625491343e-02
3.087999999999999901e+01,4.809451731979318134e-02
3.092000000000000171e+01,5.041068284883707534e-02
3.096000000000000085e+01,2.498709151828888350e-02
3.100000000000000000e+01,3.829327646981094124e-02
3.103999999999999915e+01,3.668256552780270463e-02
3.107999999999999829e+01,5.260465154799124493e-02
3.112000000000000099e+01,5.805858810878879173e-02
3.116000000000000014e+01,2.530511986772977784e-02
3.119999999999999929e+01,4.201075737540506394e-02
3.123999999999999844e+01,4.301442097482094384e-02
3.128000000000000114e+01,6.050411244258195598e-02
3.132000000000000028e+01,4.842220089764236179e-02
3.135999999999999943e+01,5.204124207273549269e-02
3.139999999999999858e+01,1.980809242524169886e-02
3.144000000000000128e+01,4.357631977171296661e-02
3.148000000000000043e+01,4.771720129025233681e-02
3.151999999999999957e+01,3.877301300345195600e-02
3.155999999999999872e+01,5.207204963738736037e-02
3.160000000000000142e+01,5.123925023854823679e-02
3.164000000000000057e+01,4.935916780759092709e-02
3.167999999999999972e+01,4.669349246816597437e-02
3.171999999999999886e+01,5.344817535058132146e-02
3.176000000000000156e+01,4.921131132780390272e-02
3.180000000000000071e+01,6.931119512590917797e-02
3.183999999999999986e+01,6.167130104403206747e-02
3.187999999999999901e+01,7.941491718858344206e-02
3.192000000000000171e+01,8.512021828956256586e-02
3.196000000000000085e+01,4.790765605503295027e-02
3.200000000000000000e+01,6.250940017189524078e-02
3.203999999999999915e+01,7.475539630630362309e-02
3.207999999999999829e+01,7.286954494227004808e-02
3.211999999999999744e+01,6.941301692220572250e-02
3.215999999999999659e+01,7.747036524676727265e-02
3.220000000000000284e+01,6.380682191191516806e-02
3.224000000000000199e+01,6.113377085249925569e-02
3.228000000000000114e+01,8.253576506917598143e-02
3.232000000000000028e+01,6.180496058846122326e-02
3.235999999999999943e+01,6.200890652342377213e-02
3.239999999999999858e+01,3.787504523038535964e-02
3.243999999999999773e+01,5.351769013890509546e-02
3.247999999999999687e+01,5.476678691513740121e-02
3.252000000000000313e+01,5.392181532237094038e-02
3.256000000000000227e+01,5.621659598758503573e-02
3.260000000000000142e+01,7.918443025652001366e-02
3.264000000000000057e+01,6.577666192498192455e-02
3.267999999999999972e+01,2.332064025293054815e-02
3.271999999999999886e+01,5.125897435147288433e-02
3.275999999999999801e+01,7.945845406028587132e-02
3.279999999999999716e+01,6.055299310271104046e-02
3.284000000000000341e+01,6.258227109514588604e-02
3.288000000000000256e+01,4.210556794777052525e-02
3.292000000000000171e+01,7.161131162206639533e-02
3.296000000000000085e+01,5.348872864983999359e-02
3.300000000000000000e+01,7.461925634431462728e-02
3.303999999999999915e+01,4.733638224395470689e-02
3.307999999999999829e+01,7.108271545986716289e-02
3.311999999999999744e+01,8.305239604716127544e-02
3.315999999999999659e+01,7.801160146791320804e-02
3.320000000000000284e+01,9.312046400205666041e-02
3.324000000000000199e+01,7.577907579048133446e-02
3.328000000000000114e+01,8.617638407590753891e-02
3.332000000000000028e+01,8.767563682570231332e-02
3.335999999999999943e+01,8.943602085368358712e-02
3.339999999999999858e+01,7.078393995369551550e-02
3.343999999999999773e+01,8.144069820355533118e-02
3.347999999999999687e+01,9.026505623220408558e-02
3.352000000000000313e+01,7.789187322909890687e-02
3.356000000000000227e+01,9.770612837977311893e-02
3.360000000000000142e+01,1.135944518098388339e-01
3.364000000000000057e+01,8.996685580315336161e-02
3.367999999999999972e+01,1.205087457301268622e-01
3.371999999999999886e+01,7.725318294434702082e-02
3.375999999999999801e+01,1.106725369858231889e-01
3.379999999999999716e+01,9.227648704989785400e-02
3.384000000000000341e+01,9.874051836401380455e-02
3.388000000000000256e+01,1.148865473835892215e-01
3.392000000000000171e+01,9.230172351547522025e-02
3.396000000000000085e+01,1.000724906925595514e-01
3.400000000000000000e+01,8.743077860959032332e-02
3.403999999999999915e+01,1.069764932147330705e-01
3.407999999999999829e+01,8.020230981574236195e-02
3.411999999999999744e+01,9.425135680496411761e-02
3.415999999999999659e+01,9.155159581995911400e-02
3.420000000000000284e+01,9.356169439330624948e-02
3.424000000000000199e+01,8.327173142656593696e-02
3.428000000000000114e+01,6.015832380602065960e-02
3.432000000000000028e+01,5.954976625774600213e-02
3.435999999999999943e+01,8.982017235819209078e-02
3.439999999999999858e+01,6.879854230739747278e-02
3.443999999999999773e+01,8.545984205156620384e-02
3.447999999999999687e+01,6.469873092704619966e-02
3.452000000000000313e+01,5.074100035008074355e-02
3.456000000000000227e+01,4.934385310589427948e-02
3.460000000000000142e+01,3.015112306079564472e-02
3.464000000000000057e+01,5.596866824873085455e-02
3.467999999999999972e+01,4.017674052465482898e-02
3.471999999999999886e+01,3.773046554883627973e-02
3.475999999999999801e+01,2.795624711511946262e-02
3.479999999999999716e+01,2.289187390767058114e-02
3.484000000000000341e+01,4.896814396239759087e-02
3.488000000000000256e+01,7.399705359175130781e-02
3.492000000000000171e+01,4.668715033223429234e-02
3.496000000000000085e+01,4.371391941128934672e-02
3.500000000000000000e+01,2.451524260944487957e-02
3.503999999999999915e+01,4.352286342872433572e-02
3.507999999999999829e+01,5.075378480124341507e-02
3.511999999999999744e+01,3.364683397364606754e-02
3.515999999999999659e+01,3.407258265007243742e-02
3.520000000000000284e+01,4.705889937172107185e-02
3.524000000000000199e+01,3.806256073893973801e-02
3.528000000000000114e+01,2.357010378097835340e-02
3.532000000000000028e+01,3.053570869199009191e-02
3.535999999999999943e+01,3.802408818669655161e-02
3.539999999999999858e+01,4.080141972717384741e-02
3.543999999999999773e+01,1.950256250287903809e-02
3.547999999999999687e+01,2.725080462022288694e-02
3.552000000000000313e+01,1.589498656517915678e-02
3.556000000000000227e+01,2.652060680451982788e-02
3.560000000000000142e+01,2.196753114736696780e-02
3.564000000000000057e+01,2.840486655050580497e-02
3.567999999999999972e+01,2.908438299461918106e-02
3.571999999999999886e+01,2.191255089125430239e-02
3.575999999999999801e+01,4.012413633350594977e-02
3.579999999999999716e+01,2.196004369297383657e-02
3.584000000000000341e+01,1.530973949361711349e-02
3.588000000000000256e+01,3.273439457784736023e-02
3.592000000000000171e+01,1.509182410848976946e-02
3.596000000000000085e+01,1.864560914142624273e-02
3.600000000000000000e+01,1.879678728366207877e-02
3.603999999999999915e+01,2.496623642813781616e-02
3.607999999999999829e+01,3.375197159078768827e-02
3.611999999999999744e+01,2.683561627755907605e-02
3.615999999999999659e+01,5.184494593328858175e-02
3.620000000000000284e+01,3.472138421081475551e-02
3.624000000000000199e+01,1.262506339007125888e-02
3.628000000000000114e+01,3.004346596642370679e-02
3.632000000000000028e+01,2.914286249831048864e-02
3.635999999999999943e+01,1.463369145446558918e-02
3.639999999999999858e+01,2.315270295657755051e-02
3.643999999999999773e+01,1.963329144674876361e-02
3.647999999999999687e+01,2.108537611247447013e-02
3.652000000000000313e+01,4.530394937861743909e-02
3.656000000000000227e+01,1.718367058152609622e-02
3.660000000000000142e+01,1.941891976846231091e-02
3.664000000000000057e+01,2.531720591345087978e-02
3.667999999999999972e+01,3.016808863681323671e-02
3.671999999999999886e+01,2.507407029290946790e-02
3.675999999999999801e+01,2.547492359449924845e-02
3.679999999999999716e+01,1.985624010471700313e-02
3.684000000000000341e+01,1.266676721317416647e-02
3.688000000000000256e+01,2.850546540192080286e-02
3.692000000000000171e+01,1.974455731517554130e-02
3.696000000000000085e+01,2.197402875813650805e-02
3.700000000000000000e+01,1.635212107850598021e-02
3.703999999999999915e+01,3.009470554955961941e-02
3.707999999999999829e+01,3.206054280023855341e-02
3.711999999999999744e+01,1.937103000472194247e-02
3.715999999999999659e+01,3.232659239241464366e-02
3.720000000000000284e+01,2.408452584490280990e-02
3.724000000000000199e+01,3.573032882895895573e-02
3.728000000000000114e+01,1.701931319757588046e-02
3.732000000000000028e+01,1.296234360436465498e-02
3.735999999999999943e+01,3.010169607191726451e-02
3.739999999999999858e+01,1.400562518726557529e-02
3.743999999999999773e+01,1.256359747436880045e-02
3.747999999999999687e+01,2.656068521512229205e-02
3.752000000000000313e+01,5.128644802984754641e-02
3.756000000000000227e+01,3.963649072100834669e-02
3.760000000000000142e+01,2.222866859047394408e-02
3.764000000000000057e+01,4.616737492483578842e-02
3.767999999999999972e+01,2.430947942080365423e-02
3.771999999999999886e+01,3.359215838494276213e-02
3.775999999999999801e+01,4.679953863303282224e-02
3.779999999999999716e+01,2.232273762911182041e-02
3.784000000000000341e+01,2.165915801151309383e-02
3.788000000000000256e+01,1.837799983338397891e-02
3.792000000000000171e+01,3.681653249765193953e-02
3.796000000000000085e+01,3.301065375625174270e-02
3.800000000000000000e+01,2.082998984720770691e-02
3.803999999999999915e+01,1.911629751187308296e-02
3.807999999999999829e+01,2.786957579477546479e-02
3.811999999999999744e+01,4.133261999974598144e-02
3.815999999999999659e+01,2.496220672713223357e-02
3.820000000000000284e+01,3.502191703281589547e-02
3.824000000000000199e+01,4.141727586222829910e-02
3.828000000000000114e+01,2.844681751254263258e-02
3.832000000000000028e+01,2.123288462405395136e-02
3.835999999999999943e+01,4.332767336232189181e-02
3.839999999999999858e+01,1.988753414281712803e-02
3.843999999999999773e+01,1.999891089842776790e-02
3.847999999999999687e+01,4.470856699017176222e-02
3.852000000000000313e+01,4.560365182490010855e-02
3.856000000000000227e+01,2.791798602959215739e-02
3.860000000000000142e+01,2.383957138085239513e-02
3.864000000000000057e+01,3.964899282215049447e-02
3.867999999999999972e+01,3.870949832085343600e-02
3.871999999999999886e+01,4.195637325129491363e-02
3.875999999999999801e+01,1.013595478961637660e-02
3.879999999999999716e+01,3.065306240728596365e-02
3.884000000000000341e+01,4.619734882098715939e-02
3.888000000000000256e+01,1.908529768159664131e-02
3.892000000000000171e+01,5.268488428705995347e-02
3.896000000000000085e+01,4.703011545708037783e-02
3.900000000000000000e+01,4.189803426281744902e-02
3.903999999999999915e+01,2.027871960583128158e-02
3.907999999999999829e+01,5.701581915970654890e-02
3.911999999999999744e+01,4.664782708257251415e-02
3.915999999999999659e+01,1.979259867629847361e-02
3.920000000000000284e+01,3.663908118360480193e-02
3.924000000000000199e+01,4.380229350801342209e-02
3.928000000000000114e+01,4.259069008966491487e-02
3.932000000000000028e+01,3.117243241922908192e-02
3.935999999999999943e+01,3.911861148208480715e-02
3.939999999999999858e+01,4.784915970505680682e-02
3.943999999999999773e+01,4.872827052162771733e-02
3.947999999999999687e+01,4.280270729281565600e-02
3.952000000000000313e+01,5.310128402593495417e-02
3.956000000000000227e+01,5.659518480272670432e-02
3.960000000000000142e+01,6.636896262384740786e-02
3.964000000000000057e+01,8.189923437557962427e-02
3.967999999999999972e+01,7.099799637037411404e-02
3.971999999999999886e+01,5.276869642870673366e-02
3.975999999999999801e+01,6.358639359314331718e-02
3.979999999999999716e+01,8.644116676524407628e-02
3.984000000000000341e+01,6.925649024414400057e-02
3.988000000000000256e+01,6.018352163292489676e-02
3.992000000000000171e+01,5.320336515629523616e-02
3.996000000000000085e+01,6.427917568525989833e-02
4.000000000000000000e+01,8.974727715663056993e-02
4.003999999999999915e+01,7.753114386954203241e-02
4.007999999999999829e+01,8.781972306671484430e-02
4.011999999999999744e+01,5.728377264501305355e-02
4.015999999999999659e+01,8.719773926940148356e-02
4.020000000000000284e+01,8.989511047834486401e-02
4.024000000000000199e+01,1.190225565364989163e-01
4.028000000000000114e+01,1.251204625342245691e-01
4.032000000000000028e+01,1.539847663625002472e-01
4.035999999999999943e+01,2.082323778570795147e-01
4.039999999999999858e+01,2.085708990883493597e-01
4.043999999999999773e+01,2.630787447784617705e-01
4.047999999999999687e+01,3.369510004486415133e-01
4.052000000000000313e+01,3.775877582397785814e-01
4.056000000000000227e+01,4.132516537416388580e-01
4.060000000000000142e+01,4.491765075812018115e-01
4.064000000000000057e+01,4.984468727591236381e-01
4.067999999999999972e+01,4.783683673171980621e-01
4.071999999999999886e+01,5.101039599337058306e-01
4.075999999999999801e+01,5.318945549802462924e-01
4.079999999999999716e+01,6.191071822886495823e-01
4.084000000000000341e+01,6.636634252258191147e-01
4.088000000000000256e+01,7.262756131927202707e-01
4.092000000000000171e+01,7.990930128602035110e-01
4.096000000000000085e+01,8.169545445712749210e-01
4.100000000000000000e+01,9.007614859250929751e-01
4.103999999999999915e+01,8.995180833124581943e-01
4.107999999999999829e+01,9.841086104449413563e-01
4.111999999999999744e+01,9.907144508363364688e-01
4.115999999999999659e+01,9.805713160458546795e-01
4.120000000000000284e+01,9.722592717357265713e-01
4.124000000000000199e+01,9.396092090382222040e-01
4.128000000000000114e+01,9.820637370644484943e-01
4.132000000000000028e+01,9.844787800449991133e-01
4.135999999999999943e+01,9.612473463761437298e-01
4.139999999999999858e+01,9.668011795599061875e-01
4.143999999999999773e+01,9.556060308734855013e-01
4.147999999999999687e+01,9.925612869838086327e-01
4.152000000000000313e+01,9.525786111148113466e-01
4.156000000000000227e+01,1.000000000000000000e+00
4.160000000000000142e+01,9.689133085201880879e-01
4.164000000000000057e+01,9.668735692392829151e-01
4.167999999999999972e+01,9.266261738673097215e-01
4.171999999999999886e+01,8.858546368424470296e-01
4.175999999999999801e+01,8.416803553388745307e-01
4.179999999999999716e+01,8.037858983286554349e-01
4.184000000000000341e+01,8.294816111841613049e-01
4.188000000000000256e+01,7.675100492170706667e-01
4.192000000000000171e+01,7.013506657120133214e-01
4.196000000000000085e+01,6.644999178412068774e-01
4.200000000000000000e+01,6.103767925653600379e-01
4.203999999999999915e+01,5.839921545380841739e-01
4.207999999999999829e+01,5.262038189222040252e-01
4.211999999999999744e+01,4.969390418813181554e-01
4.215999999999999659e+01,4.930575295104828726e-01
4.220000000000000284e+01,4.692867241660201860e-01
4.224000000000000199e+01,4.209161854682513804e-01
4.228000000000000114e+01,4.081348606598969586e-01
4.232000000000000028e+01,4.144562108007622259e-01
4.235999999999999943e+01,3.922524585350660176e-01
4.239999999999999858e+01,3.875812328329094059e-01
4.243999999999999773e+01,3.611888708704335538e-01
4.247999999999999687e+01,3.269449988856628631e-01
4.252000000000000313e+01,3.494873124664015784e-01
4.256000000000000227e+01,3.011105640453598520e-01
4.260000000000000142e+01,2.828275092083799569e-01
4.264000000000000057e+01,2.493655903117839301e-01
4.267999999999999972e+01,2.161645800683315022e-01
4.271999999999999886e+01,2.101786586721758610e-01
4.275999999999999801e+01,1.625830713586068621e-01
4.279999999999999716e+01,1.508383765924350139e-01
4.284000000000000341e+01,1.610749462246915120e-01
4.288000000000000256e+01,1.087665607433116882e-01
4.292000000000000171e+01,1.069637653737765121e-01
4.296000000000000085e+01,1.069920184438143546e-01
4.300000000000000000e+01,8.686926835165652283e-02
4.303999999999999915e+01,8.140042766513332084e-02
4.307999999999999829e+01,9.006211327052748850e-02
4.311999999999999744e+01,8.511506982537347943e-02
4.315999999999999659e+01,7.179311795665063722e-02
4.320000000000000284e+01,8.149918620359571098e-02
4.324000000000000199e+01,7.079255447638885257e-02
4.328000000000000114e+01,8.887114469460216659e-02
4.332000000000000028e+01,7.162064151773203657e-02
4.335999999999999943e+01,7.399617060604726793e-02
4.339999999999999858e+01,9.782956855793359385e-02
4.343999999999999773e+01,5.702446938659106596e-02
4.347999999999999687e+01,7.300553284942293275e-02
4.352000000000000313e+01,3.376897612649412683e-02
4.356000000000000227e+01,4.556137638609843860e-02
4.360000000000000142e+01,4.557687368334520372e-02
4.364000000000000057e+01,5.658259094642632131e-02
4.367999999999999972e+01,3.880148319323777073e-02
4.371999999999999886e+01,3.070213809932624202e-02
4.375999999999999801e+01,2.731242420589020947e-02
4.379999999999999716e+01,4.982931796638633004e-02
4.384000000000000341e+01,2.000718576769168477e-02
4.388000000000000256e+01,4.278414938248752131e-02
4.392000000000000171e+01,3.127876958660579659e-02
4.396000000000000085e+01,3.913771664470259287e-02
4.400000000000000000e+01,3.836004413518991768e-02
4.403999999999999915e+01,3.522633700153725983e-02
4.407999999999999829e+01,2.947490320914983308e-02
4.411999999999999744e+01,4.073257273674853879e-02
4.415999999999999659e+01,6.141030333430644306e-02
4.420000000000000284e+01,4.414200872516477886e-02
4.424000000000000199e+01,1.378834047049607575e-02
4.428000000000000114e+01,2.347258667671116988e-02
4.432000000000000028e+01,3.760475962766732239e-02
4.435999999999999943e+01,5.618485836789215843e-02
4.439999999999999858e+01,3.524878064932062544e-02
4.443999999999999773e+01,4.519142580045355101e-02
4.447999999999999687e+01,1.744973013570344164e-02
4.452000000000000313e+01,3.890513096829360112e-02
4.456000000000000227e+01,4.047118245439149109e-02
4.460000000000000142e+01,4.622346291780176503e-02
4.464000000000000057e+01,2.894609917430423368e-02
4.467999999999999972e+01,2.972458969067122772e-02
4.471999999999999886e+01,3.573607063442402892e-02
4.475999999999999801e+01,3.782135328080030168e-02
4.479999999999999716e+01,3.545705451608259506e-02
4.484000000000000341e+01,3.649390575847587248e-02
4.488000000000000256e+01,2.810904317550159612e-02
4.492000000000000171e+01,3.385466293271940236e-02
4.496000000000000085e+01,2.782334724152193614e-02
4.500000000000000000e+01,2.623994205203656130e-02
4.503999999999999915e+01,4.375914683965541341e-02
4.507999999999999829e+01,4.217406309700996031e-02
4.511999999999999744e+01,5.184085504684669832e-02
4.515999999999999659e+01,4.318842979284238937e-02
4.520000000000000284e+01,4.081574781704675609e-02
4.524000000000000199e+01,3.922729550241357832e-02
4.528000000000000114e+01,4.025490944732847132e-02
4.532000000000000028e+01,3.814138495562249820e-02
4.535999999999999943e+01,5.382200740162958880e-02
4.539999999999999858e+01,4.621127640763277034e-02
4.543999999999999773e+01,5.691807259864952590e-02
4.547999999999999687e+01,5.767975847396930589e-02
4.552000000000000313e+01,5.556199221442937458e-02
4.556000000000000227e+01,3.852698322491882044e-02
4.560000000000000142e+01,6.467015011517758538e-02
4.564000000000000057e+01,7.432592588978574610e-02
4.567999999999999972e+01,6.775600067239360980e-02
4.571999999999999886e+01,8.264388890117999042e-02
4.575999999999999801e+01,8.470805825561497637e-02
4.579999999999999716e+01,8.572460634074233199e-02
4.584000000000000341e+01,9.014228054617345887e-02
4.588000000000000256e+01,8.095115977346867275e-02
4.592000000000000171e+01,9.609644953992926841e-02
4.596000000000000085e+01,8.952051896450947954e-02
4.600000000000000000e+01,1.038790129887170177e-01
4.603999999999999915e+01,1.035819438964091510e-01
4.607999999999999829e+01,1.056392308750810638e-01
4.611999999999999744e+01,8.728374908559631551e-02
4.615999999999999659e+01,9.509650965630123132e-02
4.620000000000000284e+01,8.197311738965980255e-02
4.624000000000000199e+01,9.423289233489570704e-02
4.628000000000000114e+01,8.372467497798272151e-02
4.632000000000000028e+01,9.258072810218330451e-02
4.635999999999999943e+01,7.526680298469676234e-02
4.639999999999999858e+01,6.554104787686319822e-02
4.643999999999999773e+01,6.366515290233305813e-02
4.647999999999999687e+01,8.926594803982712545e-02
4.652000000000000313e+01,6.540625507183574217e-02
4.656000000000000227e+01,6.771479490931112122e-02
4.660000000000000142e+01,7.263936947574919922e-02
4.664000000000000057e+01,7.285262760024543982e-02
4.667999999999999972e+01,6.573765753610183449e-02
4.671999999999999886e+01,5.993026393889114983e-02
4.675999999999999801e+01,6.537470685979898666e-02
4.679999999999999716e+01,7.945407455212731562e-02
4.684000000000000341e+01,5.637242721395289979e-02
4.688000000000000256e+01,8.065598244639572700e-02
4.692000000000000171e+01,6.856359397475894624e-02
4.696000000000000085e+01,7.112502127247277706e-02
4.700000000000000000e+01,7.682585590267153319e-02
4.703999999999999915e+01,7.127308755814122654e-02
4.707999999999999829e+01,7.435523729672539883e-02
4.711999999999999744e+01,6.880069294086162135e-02
4.715999999999999659e+01,7.685319526049674832e-02
4.720000000000000284e+01,1.003445808540164297e-01
4.724000000000000199e+01,9.478736531511040841e-02
4.728000000000000114e+01,1.146132921458023340e-01
4.732000000000000028e+01,1.085309088825948398e-01
4.735999999999999943e+01,1.194575515461182985e-01
4.739999999999999858e+01,1.358788116995069406e-01
4.743999999999999773e+01,1.486355006179984617e-01
4.747999999999999687e+01,1.519704136054236820e-01
4.752000000000000313e+01,1.589681036624392974e-01
4.756000000000000227e+01,1.921340026381146149e-01
4.760000000000000142e+01,2.051487885722811100e-01
4.764000000000000057e+01,2.129288520194535517e-01
4.767999999999999972e+01,2.500174144683397492e-01
4.771999999999999886e+01,2.721886825917518293e-01
4.775999999999999801e+01,2.642645728451081810e-01
4.779999999999999716e+01,2.780599179392067022e-01
4.784000000000000341e+01,3.046772202284074305e-01
4.788000000000000256e+01,3.294617783263738553e-01
4.792000000000000171e+01,3.212723528620469726e-01
4.796000000000000085e+01,3.520739896386631540e-01
4.800000000000000000e+01,3.624628127399250332e-01
4.803999999999999915e+01,3.252229489816127472e-01
4.807999999999999829e+01,3.476477398485100512e-01
4.811999999999999744e+01,3.480895676989008702e-01
4.815999999999999659e+01,3.561195235181641161e-01
4.820000000000000284e+01,3.607465810276792584e-01
4.824000000000000199e+01,3.509797139488259332e-01
4.828000000000000114e+01,3.846526498122210258e-01
4.832000000000000028e+01,3.594441757254649428e-01
4.835999999999999943e+01,3.457491910170583105e-01
4.839999999999999858e+01,3.375487999117099402e-01
4.843999999999999773e+01,3.688628417398822079e-01
4.847999999999999687e+01,3.457442181410980697e-01
4.852000000000000313e+01,3.558594396659481296e-01
4.856000000000000227e+01,3.371877196069096860e-01
4.860000000000000142e+01,3.049071395976196142e-01
4.864000000000000057e+01,3.058604018455471363e-01
4.867999999999999972e+01,3.070744294257751750e-01
4.871999999999999886e+01,3.114278232531797475e-01
4.875999999999999801e+01,2.767883186335538537e-01
4.879999999999999716e+01,2.489518534578759323e-01
4.884000000000000341e+01,2.587979741071379514e-01
4.888000000000000256e+01,2.348850150254040148e-01
4.892000000000000171e+01,2.298128821608398931e-01
4.896000000000000085e+01,2.291885652062314871e-01
4.900000000000000000e+01,2.283016237819001371e-01
4.903999999999999915e+01,1.983660382288902069e-01
4.907999999999999829e+01,1.956453896030832251e-01
4.911999999999999744e+01,1.848113812674592182e-01
4.915999999999999659e+01,2.095664224800162234e-01
4.920000000000000284e+01,1.890479688364055666e-01
4.924000000000000199e+01,1.975762858519669041e-01
4.928000000000000114e+01,1.747007332939126689e-01
4.932000000000000028e+01,1.758998189807569057e-01
4.935999999999999943e+01,1.600880425347826763e-01
4.939999999999999858e+01,1.434902499061174452e-01
4.943999999999999773e+01,1.334337903547211934e-01
4.947999999999999687e+01,1.513773314131728609e-01
4.952000000000000313e+01,1.491697135674460162e-01
4.956000000000000227e+01,1.493163686666100221e-01
4.960000000000000142e+01,1.442282544606378059e-01
4.964000000000000057e+01,1.318118413610766260e-01
4.967999999999999972e+01,1.314322682675246323e-01
4.971999999999999886e+01,1.124716779671682265e-01
4.975999999999999801e+01,1.099966741069603043e-01
4.979999999999999716e+01,9.391278163233232612e-02
4.984000000000000341e+01,7.887470001867627478e-02
4.988000000000000256e+01,8.189234845348734859e-02
4.992000000000000171e+01,8.203043965148716643e-02
4.996000000000000085e+01,7.510191539124215498e-02
5.000000000000000000e+01,5.744309960956399397e-02
5.003999999999999915e+01,6.569074242814110232e-02
5.007999999999999829e+01,5.431059512417285573e-02
5.011999999999999744e+01,6.072448105671546248e-02
5.015999999999999659e+01,6.687571481083884328e-02
5.020000000000000284e+01,4.816533399354840095e-02
5.024000000000000199e+01,5.012758541670033624e-02
5.028000000000000114e+01,6.831371977973850484e-02
5.032000000000000028e+01,5.561934188512677318e-02
5.035999999999999943e+01,4.894289293367617977e-02
5.039999999999999858e+01,4.095702175448236171e-02
5.043999999999999773e+01,5.128855832626616484e-02
5.047999999999999687e+01,5.978728860111703208e-02
5.052000000000000313e+01,5.049005579708542440e-02
5.056000000000000227e+01,4.485552744675032344e-02
5.060000000000000142e+01,4.837921525621356744e-02
5.064000000000000057e+01,3.750892114897100976e-02
5.067999999999999972e+01,4.966646848407875459e-02
5.071999999999999886e+01,4.926186954539419488e-02
5.075999999999999801e+01,4.650107546322544000e-02
5.079999999999999716e+01,4.609452470630661519e-02
5.084000000000000341e+01,3.731288207513980271e-02
5.088000000000000256e+01,3.952128646932332595e-02
5.092000000000000171e+01,3.806503650252068827e-02
5.096000000000000085e+01,5.100081567871733029e-02
5.100000000000000000e+01,4.273863628177056867e-02
5.103999999999999915e+01,3.133518181566589955e-02
5.107999999999999829e+01,4.348294139543393971e-02
5.111999999999999744e+01,5.065758644124133264e-02
5.115999999999999659e+01,4.369992822832585028e-02
5.120000000000000284e+01,3.961988594418250353e-02
5.124000000000000199e+01,4.836171963999703893e-02
5.128000000000000114e+01,4.558815800189747192e-02
5.132000000000000028e+01,3.810316813159849575e-02
5.135999999999999943e+01,3.872961195063419348e-02
5.139999999999999858e+01,4.485057771230636231e-02
5.143999999999999773e+01,3.422232273572378691e-02
5.147999999999999687e+01,5.342585814923281329e-02
5.152000000000000313e+01,4.227223479916853571e-02
5.156000000000000227e+01,4.001511359844511784e-02
5.160000000000000142e+01,3.461670395195180772e-02
5.164000000000000057e+01,5.695655224068026795e-02
5.167999999999999972e+01,4.684570931096572466e-02
5.171999999999999886e+01,5.034180413290927775e-02
5.175999999999999801e+01,3.996727244316809757e-02
5.179999999999999716e+01,5.419070191728870417e-02
5.184000000000000341e+01,4.224402225001894912e-02
5.188000000000000256e+01,3.762369061357626054e-02
5.192000000000000171e+01,3.012375396670791822e-02
5.196000000000000085e+01,3.204369207270278685e-02
5.200000000000000000e+01,4.207504858047566437e-02
5.203999999999999915e+01,3.378702354317399820e-02
5.207999999999999829e+01,5.454570132651190978e-02
5.211999999999999744e+01,3.604970932402456335e-02
5.215999999999999659e+01,4.974071118070313990e-02
5.220000000000000284e+01,5.793519054742428398e-02
5.224000000000000199e+01,3.891278690154186676e-02
5.228000000000000114e+01,5.129230101104081258e-02
5.232000000000000028e+01,4.195044285856564664e-02
5.235999999999999943e+01,4.569212501194688109e-02
5.239999999999999858e+01,4.890941040133828938e-02
5.243999999999999773e+01,5.474259102073831401e-02
5.247999999999999687e+01,4.958372980030085336e-02
5.252000000000000313e+01,6.248053556715957996e-02
5.256000000000000227e+01,5.313258118096540750e-02
5.260000000000000142e+01,4.456868064903271587e-02
5.264000000000000057e+01,4.856493157640536656e-02
5.267999999999999972e+01,7.035515459006237704e-02
5.271999999999999886e+01,5.943297046387424620e-02
5.275999999999999801e+01,6.080924385145194955e-02
5.279999999999999716e+01,6.244618415768467268e-02
5.284000000000000341e+01,4.079159330606804690e-02
5.288000000000000256e+01,4.870706832389042756e-02
5.292000000000000171e+01,6.080857358078963631e-02
5.296000000000000085e+01,6.767522927288043000e-02
5.300000000000000000e+01,5.674586264680699793e-02
5.303999999999999915e+01,5.131097878900637427e-02
5.307999999999999829e+01,4.796859271541269870e-02
5.311999999999999744e+01,5.823311095194710907e-02
5.315999999999999659e+01,5.253344060228619383e-02
5.320000000000000284e+01,5.363670459462171330e-02
5.324000000000000199e+01,5.316878744155902753e-02
5.328000000000000114e+01,5.086799710850326700e-02
5.332000000000000028e+01,5.641690256751748234e-02
5.335999999999999943e+01,4.992698084981345846e-02
5.339999999999999858e+01,5.547381027919608826e-02
5.343999999999999773e+01,6.049621810230938757e-02
5.347999999999999687e+01,3.987185976791358943e-02
5.352000000000000313e+01,4.724740554066476222e-02
5.356000000000000227e+01,6.979999158808439241e-02
5.360000000000000142e+01,5.388294573457172443e-02
5.364000000000000057e+01,5.366632040302810741e-02
5.367999999999999972e+01,5.554217852360714830e-02
5.371999999999999886e+01,4.851949381768840691e-02
5.375999999999999801e+01,5.693553568819922223e-02
5.379999999999999716e+01,5.802317929600301488e-02
5.384000000000000341e+01,7.036249030333058263e-02
5.388000000000000256e+01,6.307392041824551321e-02
5.392000000000000171e+01,6.075643012279768190e-02
5.396000000000000085e+01,5.451252177134734839e-02
5.400000000000000000e+01,6.213718778875729903e-02
5.403999999999999915e+01,5.353595312045896643e-02
5.407999999999999829e+01,6.403711249252799775e-02
5.411999999999999744e+01,7.139692322407301117e-02
5.415999999999999659e+01,6.645619659033152882e-02
5.420000000000000284e+01,6.020595695897945632e-02
5.424000000000000199e+01,5.735664279875104382e-02
5.428000000000000114e+01,5.450626912558031306e-02
5.432000000000000028e+01,5.715034764556917862e-02
5.435999999999999943e+01,7.837343135937417660e-02
5.439999999999999858e+01,7.944523960138166752e-02
5.443999999999999773e+01,7.632892724259658646e-02
5.447999999999999687e+01,7.556677030561095854e-02
5.452000000000000313e+01,8.579457344599765445e-02
5.456000000000000227e+01,7.482433297620735835e-02
5.460000000000000142e+01,7.772265254319306316e-02
5.464000000000000057e+01,8.637710773868273462e-02
5.467999999999999972e+01,7.331013429933334880e-02
5.471999999999999886e+01,7.960723069191726065e-02
5.475999999999999801e+01,7.805252373221428785e-02
5.479999999999999716e+01,7.100123217685512522e-02
5.484000000000000341e+01,7.206129118474158268e-02
5.488000000000000256e+01,7.024167447725322699e-02
5.492000000000000171e+01,8.255230124188510377e-02
5.496000000000000085e+01,7.575840347459779356e-02
5.500000000000000000e+01,6.058931446394459630e-02
5.503999999999999915e+01,7.184994677775606575e-02
5.507999999999999829e+01,5.929561226902495957e-02
5.511999999999999744e+01,7.003070422434296005e-02
5.515999999999999659e+01,6.244634010774807731e-02
5.520000000000000284e+01,6.114148040129018663e-02
5.524000000000000199e+01,5.852708285494222229e-02
5.528000000000000114e+01,4.727579629779991160e-02
5.532000000000000028e+01,5.172489013279039927e-02
5.535999999999999943e+01,6.088333808129332836e-02
5.539999999999999858e+01,6.009643875697205651e-02
5.543999999999999773e+01,5.041095552084467329e-02
5.547999999999999687e+01,5.354724698461262034e-02
5.552000000000000313e+01,4.595311507177182730e-02
5.556000000000000227e+01,5.248921134349478212e-02
5.560000000000000142e+01,5.980928980905771825e-02
5.564000000000000057e+01,5.273526692387892068e-02
5.567999999999999972e+01,5.560441209088585329e-02
5.571999999999999886e+01,4.015408780936775834e-02
5.575999999999999801e+01,6.264787513520646278e-02
5.579999999999999716e+01,5.321425498720164932e-02
5.584000000000000341e+01,3.933078971775161997e-02
5.588000000000000256e+01,4.010092714733213409e-02
5.592000000000000171e+01,5.761819495345153752e-02
5.596000000000000085e+01,4.006775851436746722e-02
5.600000000000000000e+01,5.470422420910965589e-02
5.603999999999999915e+01,6.096547381820652256e-02
5.607999999999999829e+01,5.911319746530844382e-02
5.611999999999999744e+01,5.071754066967847085e-02
5.615999999999999659e+01,4.938643859021828175e-02
5.620000000000000284e+01,5.040945084724941100e-02
5.624000000000000199e+01,4.305724224127363553e-02
5.628000000000000114e+01,3.936760145645738784e-02
5.632000000000000028e+01,4.431265804065730174e-02
5.635999999999999943e+01,4.585462139876261140e-02
5.639999999999999858e+01,3.378753848952040229e-02
5.643999999999999773e+01,5.887947770723831603e-02
5.647999999999999687e+01,4.105296788493575932e-02
5.652000000000000313e+01,5.515165669619718353e-02
5.656000000000000227e+01,4.595872549068664298e-02
5.660000000000000142e+01,4.278357417466054774e-02
5.664000000000000057e+01,5.086002337509802629e-02
5.667999999999999972e+01,4.244881774953375431e-02
5.671999999999999886e+01,4.084046238440469656e-02
5.675999999999999801e+01,4.577326524511608763e-02
5.679999999999999716e+01,4.337759818269894263e-02
5.684000000000000341e+01,3.129824052957785874e-02
5.688000000000000256e+01,5.768634988883471204e-02
5.692000000000000171e+01,3.199681192858554873e-02
5.696000000000000085e+01,3.378371374662147292e-02
5.700000000000000000e+01,4.080331266205124152e-02
5.703999999999999915e+01,4.913024153256381754e-02
5.707999999999999829e+01,4.672670976304839352e-02
5.711999999999999744e+01,4.406035956293576084e-02
5.715999999999999659e+01,4.191626321412150052e-02
5.720000000000000284e+01,4.736007889744266869e-02
5.724000000000000199e+01,3.683960853639516031e-02
5.728000000000000114e+01,3.783241448337738150e-02
5.732000000000000028e+01,4.091761693450406828e-02
5.735999999999999943e+01,4.792705248816105101e-02
5.739999999999999858e+01,4.342094652064411309e-02
5.743999999999999773e+01,2.818437131384854064e-02
5.747999999999999687e+01,4.644311828401759268e-02
5.752000000000000313e+01,5.240124762922814677e-02
5.756000000000000227e+01,5.783485695452370012e-02
5.760000000000000142e+01,3.893005710427750038e-02
5.764000000000000057e+01,5.064197373875852642e-02
5.767999999999999972e+01,5.424032619235302777e-02
5.771999999999999886e+01,4.815496703485325214e-02
5.775999999999999801e+01,5.672316566918653158e-02
5.779999999999999716e+01,4.095295035061672501e-02
5.784000000000000341e+01,3.878952659644508555e-02
5.788000000000000256e+01,4.656921834348329986e-02
5.792000000000000171e+01,3.916968104049173977e-02
5.796000000000000085e+01,3.595605358706873561e-02
5.800000000000000000e+01,5.655516596193528589e-02
5.803999999999999915e+01,5.726460699614874250e-02
5.807999999999999829e+01,4.802863674089485890e-02
5.811999999999999744e+01,3.460445798139791251e-02
5.815999999999999659e+01,4.394625091181105642e-02
5.820000000000000284e+01,4.595954047756574401e-02
5.824000000000000199e+01,3.698065061547350235e-02
5.828000000000000114e+01,5.521647792195827353e-02
5.832000000000000028e+01,4.047807324335520041e-02
5.835999999999999943e+01,5.400114813887488957e-02
5.839999999999999858e+01,4.815792525273607239e-02
5.843999999999999773e+01,4.859412938347902611e-02
5.847999999999999687e+01,4.641226288546387163e-02
5.852000000000000313e+01,5.600533415495993067e-02
5.856000000000000227e+01,4.806394137476641126e-02
5.860000000000000142e+01,4.116815020711403483e-02
5.864000000000000057e+01,3.950501696249163891e-02
5.867999999999999972e+01,4.412130500191722982e-02
5.871999999999999886e+01,4.952150070834454576e-02
5.875999999999999801e+01,3.424693463824982770e-02
5.879999999999999716e+01,3.388759259683130076e-02
5.884000000000000341e+01,5.132207549896503768e-02
5.888000000000000256e+01,5.985789231867600507e-02
5.892000000000000171e+01,5.530798483453048392e-02
5.896000000000000085e+01,3.950418964491439477e-02
5.900000000000000000e+01,4.123252449783888079e-02
5.903999999999999915e+01,4.191292182012862355e-02
5.907999999999999829e+01,5.593839000805306966e-02
5.911999999999999744e+01,4.771894134546966065e-02
5.915999999999999659e+01,5.624654566616981571e-02
5.920000000000000284e+01,4.357599554190765695e-02
5.924000000000000199e+01,4.346543922402341248e-02
5.928000000000000114e+01,5.146612741196090329e-02
5.932000000000000028e+01,4.847461037429977304e-02
5.935999999999999943e+01,4.783713219081914964e-02
5.939999999999999858e+01,5.243229377639508498e-02
5.943999999999999773e+01,5.100737777328448463e-02
5.947999999999999687e+01,5.350664423267298409e-02
5.952000000000000313e+01,4.004157018577248622e-02
5.956000000000000227e+01,6.818419208407756893e-02
5.960000000000000142e+01,5.000630638693009944e-02
5.964000000000000057e+01,3.758443688425068541e-02
5.967999999999999972e+01,4.557328305143122649e-02
5.971999999999999886e+01,5.303755760319329993e-02
5.975999999999999801e+01,5.107976289389711683e-02
5.979999999999999716e+01,5.487798055717975354e-02
5.984000000000000341e+01,5.762824158038194755e-02
5.988000000000000256e+01,5.304995910908961998e-02
5.992000000000000171e+01,5.841474340992047071e-02
5.996000000000000085e+01,4.598333914040905052e-02
