2.003999999999999915e+01,2.655937249846589132e-02
2.007999999999999829e+01,1.952530198667836586e-02
2.012000000000000099e+01,2.072567660163199960e-02
2.016000000000000014e+01,1.648197448914538038e-02
2.019999999999999929e+01,1.837906730952774265e-02
2.023999999999999844e+01,2.516076482621871016e-02
2.028000000000000114e+01,1.979870295106473874e-02
2.032000000000000028e+01,3.062696451420986177e-02
2.035999999999999943e+01,1.786617358847766152e-02
2.039999999999999858e+01,1.361898551722463303e-02
2.044000000000000128e+01,1.286063755067732087e-02
2.048000000000000043e+01,2.354700559568331450e-02
2.051999999999999957e+01,1.483162634897710122e-02
2.055999999999999872e+01,2.481895582310496978e-02
2.060000000000000142e+01,2.978094546198049516e-02
2.064000000000000057e+01,8.362351625243616068e-03
2.067999999999999972e+01,1.876668372924000100e-02
2.071999999999999886e+01,3.140366930844171178e-02
2.076000000000000156e+01,2.463891120299131071e-02
2.080000000000000071e+01,1.396543034616106772e-02
2.083999999999999986e+01,9.432754041027125932e-03
2.087999999999999901e+01,1.606564623971615952e-02
2.092000000000000171e+01,3.204960966667300126e-02
2.096000000000000085e+01,2.221130146642536982e-02
2.100000000000000000e+01,1.725760938484353565e-02
2.103999999999999915e+01,1.718853402310407605e-02
2.107999999999999829e+01,2.326026682012120525e-02
2.112000000000000099e+01,2.137555564246241407e-02
2.116000000000000014e+01,3.191260801460090585e-02
2.119999999999999929e+01,5.042521307460837501e-03
2.123999999999999844e+01,1.613674638646639750e-02
2.128000000000000114e+01,2.415971648670404981e-02
2.132000000000000028e+01,2.855312517035606470e-02
2.135999999999999943e+01,3.043358711658787630e-02
2.139999999999999858e+01,2.240353465990017195e-02
2.144000000000000128e+01,2.232879364929120022e-02
2.148000000000000043e+01,2.155560558152413292e-02
2.151999999999999957e+01,1.087190491436753996e-02
2.155999999999999872e+01,3.061537581634547062e-02
2.160000000000000142e+01,2.355954739170605661e-02
2.164000000000000057e+01,2.110919118506220452e-02
2.167999999999999972e+01,2.787034086929475810e-02
2.171999999999999886e+01,2.723336263549631583e-02
2.176000000000000156e+01,2.338555987730168984e-02
2.180000000000000071e+01,2.121211978708884352e-02
2.183999999999999986e+01,3.034383938868827346e-02
2.187999999999999901e+01,3.068166587947742177e-02
2.192000000000000171e+01,1.859660410716899859e-02
2.196000000000000085e+01,2.088739254467253045e-02
2.200000000000000000e+01,3.350630576045482423e-02
2.203999999999999915e+01,2.100084737954661246e-02
2.207999999999999829e+01,1.924224525851647022e-02
2.212000000000000099e+01,1.915801061488173543e-02
2.216000000000000014e+01,3.652031790141154616e-02
2.219999999999999929e+01,1.661507789782885186e-02
2.223999999999999844e+01,1.694791622173637269e-02
2.228000000000000114e+01,4.017079190953416756e-02
2.232000000000000028e+01,4.078168188435320890e-02
2.235999999999999943e+01,3.204037892348786387e-02
2.239999999999999858e+01,2.455471736900902494e-02
2.244000000000000128e+01,2.153496329631123668e-02
2.248000000000000043e+01,2.912249473550983930e-02
2.251999999999999957e+01,3.531371094940163879e-02
2.255999999999999872e+01,3.019866259701185426e-02
2.260000000000000142e+01,3.192232904683630496e-02
2.264000000000000057e+01,3.238925883463245753e-02
2.267999999999999972e+01,2.420188429490081894e-02
2.271999999999999886e+01,3.122783194582986685e-02
2.276000000000000156e+01,2.234148496465709552e-02
2.280000000000000071e+01,3.606602964317444371e-02
2.283999999999999986e+01,1.908314435859096228e-02
2.287999999999999901e+01,1.996554210459853401e-02
2.292000000000000171e+01,3.773618616413353111e-02
2.296000000000000085e+01,3.373231468800864941e-02
2.300000000000000000e+01,3.014663307742890958e-02
2.303999999999999915e+01,3.870358975245428990e-02
2.307999999999999829e+01,2.771926085132749365e-02
2.312000000000000099e+01,1.813016093751626881e-02
2.316000000000000014e+01,2.891872993800785260e-02
2.319999999999999929e+01,2.449289471808425295e-02
2.323999999999999844e+01,3.402419866638098367e-02
2.328000000000000114e+01,3.783231925952108832e-02
2.332000000000000028e+01,2.726349799426784973e-02
2.335999999999999943e+01,3.176843177875378343e-02
2.339999999999999858e+01,2.371092278393160599e-02
2.344000000000000128e+01,3.826431506762680707e-02
2.348000000000000043e+01,3.620753974165759337e-02
2.351999999999999957e+01,2.549647271287136183e-02
2.355999999999999872e+01,2.357820955102047505e-02
2.360000000000000142e+01,3.017359733778463005e-02
2.364000000000000057e+01,2.295035511456332625e-02
2.367999999999999972e+01,4.503770224485263013e-02
2.371999999999999886e+01,3.599890235868281885e-02
2.376000000000000156e+01,2.500549884468915296e-02
2.380000000000000071e+01,1.819886973298704552e-02
2.383999999999999986e+01,3.302611059332915405e-02
2.387999999999999901e+01,1.728551388091320931e-02
2.392000000000000171e+01,3.727604107750409623e-02
2.396000000000000085e+01,2.600084810494725576e-02
2.400000000000000000e+01,3.091603387894570690e-02
2.403999999999999915e+01,1.405672034905509557e-02
2.407999999999999829e+01,1.883128039826892711e-02
2.412000000000000099e+01,3.658595552335006801e-02
2.416000000000000014e+01,4.470931124620112357e-02
2.419999999999999929e+01,2.910409543338935562e-02
2.423999999999999844e+01,2.508322890248915193e-02
2.428000000000000114e+01,3.362374957291729138e-02
2.432000000000000028e+01,3.797644687601773456e-02
2.435999999999999943e+01,2.906883202930774304e-02
2.439999999999999858e+01,3.076853155097568696e-02
2.444000000000000128e+01,4.642538827616495695e-02
2.448000000000000043e+01,3.374764460222437479e-02
2.451999999999999957e+01,4.730981419203579563e-02
2.455999999999999872e+01,3.909749229325531344e-02
2.460000000000000142e+01,4.274867860647379308e-02
2.464000000000000057e+01,3.006886826364932319e-02
2.467999999999999972e+01,3.972082431632275451e-02
2.471999999999999886e+01,4.295173485745774206e-02
2.476000000000000156e+01,3.431810685803531741e-02
2.480000000000000071e+01,2.805677041359011525e-02
2.483999999999999986e+01,3.407767606744986633e-02
2.487999999999999901e+01,9.112028898723199474e-03
2.492000000000000171e+01,3.313731284453844128e-02
2.496000000000000085e+01,3.510895779403157280e-02
2.500000000000000000e+01,2.954294736223433623e-02
2.503999999999999915e+01,2.397642717674811769e-02
2.507999999999999829e+01,3.599606956707404604e-02
2.512000000000000099e+01,2.721826620352212067e-02
2.516000000000000014e+01,3.072270974768878671e-02
2.519999999999999929e+01,3.073722694915812653e-02
2.523999999999999844e+01,3.144912120156495572e-02
2.528000000000000114e+01,3.020643467086268907e-02
2.532000000000000028e+01,3.636081086138456819e-02
2.535999999999999943e+01,2.478843361955789318e-02
2.539999999999999858e+01,3.526868007491253121e-02
2.544000000000000128e+01,2.969709541725549379e-02
2.548000000000000043e+01,3.166215264527794809e-02
2.551999999999999957e+01,1.855241728088233288e-02
2.555999999999999872e+01,3.224091784982738990e-02
2.560000000000000142e+01,3.825219529538392144e-02
2.564000000000000057e+01,2.486180239984561030e-02
2.567999999999999972e+01,2.263705014933411683e-02
2.571999999999999886e+01,3.855677713245646288e-02
2.576000000000000156e+01,3.940171513022095590e-02
2.580000000000000071e+01,3.815250340042466298e-02
2.583999999999999986e+01,2.252638768636694086e-02
2.587999999999999901e+01,3.174443807858293859e-02
2.592000000000000171e+01,1.625690546749392409e-02
2.596000000000000085e+01,3.356941547070273202e-02
2.600000000000000000e+01,1.654554725030607867e-02
2.603999999999999915e+01,2.492415457988444646e-02
2.607999999999999829e+01,2.450893192220582328e-02
2.612000000000000099e+01,2.227871786587716507e-02
2.616000000000000014e+01,3.302864954542764769e-02
2.619999999999999929e+01,3.317025516451931749e-02
2.623999999999999844e+01,3.582375074069794885e-02
2.628000000000000114e+01,2.270458134807273876e-02
2.632000000000000028e+01,2.298429037527919758e-02
2.635999999999999943e+01,1.851789965617517755e-02
2.639999999999999858e+01,2.033197381207733564e-02
2.644000000000000128e+01,3.121804863913432357e-02
2.648000000000000043e+01,2.158585167181845121e-02
2.651999999999999957e+01,2.381719177298313728e-02
2.655999999999999872e+01,2.339608652994979582e-02
2.660000000000000142e+01,1.906634570615780774e-02
2.664000000000000057e+01,2.757718107261669313e-02
2.667999999999999972e+01,2.715461870972043362e-02
2.671999999999999886e+01,1.403008670543339290e-02
2.676000000000000156e+01,2.351650587732978526e-02
2.680000000000000071e+01,2.825683191585925264e-02
2.683999999999999986e+01,1.889942251904207574e-02
2.687999999999999901e+01,3.103635202394952608e-02
2.692000000000000171e+01,2.111967199019292030e-02
2.696000000000000085e+01,3.493056021649218468e-02
2.700000000000000000e+01,3.562075273039175261e-02
2.703999999999999915e+01,2.179448253558212076e-02
2.707999999999999829e+01,2.597313525466547757e-02
2.712000000000000099e+01,3.336157495546623886e-02
2.716000000000000014e+01,2.204625095862979348e-02
2.719999999999999929e+01,4.367056497231727036e-02
2.723999999999999844e+01,2.928359828189376624e-02
2.728000000000000114e+01,2.731848712130249823e-02
2.732000000000000028e+01,3.023808706529525214e-02
2.735999999999999943e+01,2.254937838295354227e-02
2.739999999999999858e+01,3.146982982643235782e-02
2.744000000000000128e+01,4.164599842456161854e-02
2.748000000000000043e+01,2.027734623759547619e-02
2.751999999999999957e+01,2.305500100640458377e-02
2.755999999999999872e+01,3.322975216233300944e-02
2.760000000000000142e+01,3.070254690275802181e-02
2.764000000000000057e+01,1.952111186156589920e-02
2.767999999999999972e+01,2.397180383619090110e-02
2.771999999999999886e+01,4.600869806429013636e-02
2.776000000000000156e+01,2.589294197463690161e-02
2.780000000000000071e+01,3.090053436723604399e-02
2.783999999999999986e+01,3.311612389354302854e-02
2.787999999999999901e+01,4.244966109688565886e-02
2.792000000000000171e+01,4.019786077212735703e-02
2.796000000000000085e+01,4.464527904751220549e-02
2.800000000000000000e+01,4.616112010156312589e-02
2.803999999999999915e+01,3.162516911908768574e-02
2.807999999999999829e+01,2.588208993651462328e-02
2.812000000000000099e+01,2.614034796004857664e-02
2.816000000000000014e+01,3.854132121980482356e-02
2.819999999999999929e+01,3.656542596472493051e-02
2.823999999999999844e+01,4.366155843375141982e-02
2.828000000000000114e+01,4.042854962300457267e-02
2.832000000000000028e+01,4.724460705695790463e-02
2.835999999999999943e+01,4.763967368645235373e-02
2.839999999999999858e+01,4.259078743090483760e-02
2.844000000000000128e+01,4.284535939213494210e-02
2.848000000000000043e+01,3.430613743670986315e-02
2.851999999999999957e+01,4.809873958974580921e-02
2.855999999999999872e+01,4.542082724230665086e-02
2.860000000000000142e+01,3.129716434651905882e-02
2.864000000000000057e+01,4.062194144071128166e-02
2.867999999999999972e+01,3.459281991594748140e-02
2.871999999999999886e+01,3.456504461494106645e-02
2.876000000000000156e+01,2.923289859923166797e-02
2.880000000000000071e+01,3.241448168510802086e-02
2.883999999999999986e+01,2.833762062215426647e-02
2.887999999999999901e+01,4.659258907825176294e-02
2.892000000000000171e+01,3.972328934005089213e-02
2.896000000000000085e+01,2.196655150308621934e-02
2.900000000000000000e+01,2.751868230694304654e-02
2.903999999999999915e+01,3.711808950749048708e-02
2.907999999999999829e+01,2.913037594487111540e-02
2.912000000000000099e+01,2.365459562406094923e-02
2.916000000000000014e+01,3.576503919908629453e-02
2.919999999999999929e+01,3.991916023712879791e-02
2.923999999999999844e+01,2.857981431294041516e-02
2.928000000000000114e+01,1.877536671702776522e-02
2.932000000000000028e+01,3.911905379903204971e-02
2.935999999999999943e+01,3.112821382546368185e-02
2.939999999999999858e+01,3.025534437364548954e-02
2.944000000000000128e+01,2.435726794662537026e-02
2.948000000000000043e+01,3.143938715315031801e-02
2.951999999999999957e+01,2.233015980693820249e-02
2.955999999999999872e+01,2.996970180983693499e-02
2.960000000000000142e+01,1.709101891014514971e-02
2.964000000000000057e+01,1.802999460719686281e-02
2.967999999999999972e+01,2.762228939147034004e-02
2.971999999999999886e+01,2.995615325280104324e-02
2.976000000000000156e+01,3.731434165024311023e-02
2.980000000000000071e+01,2.876034122268228410e-02
2.983999999999999986e+01,3.667596083297192805e-02
2.987999999999999901e+01,3.230838857407573872e-02
2.992000000000000171e+01,2.473011443082999763e-02
2.996000000000000085e+01,2.468854950505394372e-02
3.000000000000000000e+01,2.045924657904145405e-02
3.003999999999999915e+01,2.041681183888555476e-02
3.007999999999999829e+01,1.841986845682427529e-02
3.012000000000000099e+01,2.102852474221876891e-02
3.016000000000000014e+01,1.679748699686006708e-02
3.019999999999999929e+01,2.568623246597563289e-02
3.023999999999999844e+01,3.276004845764116796e-02
3.028000000000000114e+01,1.847818920822845434e-02
3.032000000000000028e+01,2.331791564601016706e-02
3.035999999999999943e+01,2.550525385138040918e-02
3.039999999999999858e+01,2.476105090601855158e-02
3.044000000000000128e+01,2.569134048280536514e-02
3.048000000000000043e+01,1.001156765585007984e-02
3.051999999999999957e+01,1.484915111945877761e-02
3.055999999999999872e+01,1.982588455151157100e-02
3.060000000000000142e+01,1.433393481229104302e-02
3.064000000000000057e+01,2.712611501118684237e-02
3.067999999999999972e+01,1.256082531158134868e-02
3.071999999999999886e+01,1.739628083043444351e-02
3.076000000000000156e+01,1.385670697895015346e-02
3.080000000000000071e+01,1.101459374196460742e-02
3.083999999999999986e+01,1.361555155210704936e-02
3.087999999999999901e+01,1.523905006211829886e-02
3.092000000000000171e+01,1.169778708071691868e-02
3.096000000000000085e+01,6.341605443046113844e-03
3.100000000000000000e+01,1.424479580313212437e-02
3.103999999999999915e+01,1.181888636463711978e-02
3.107999999999999829e+01,2.781669023695074183e-02
3.112000000000000099e+01,1.520083998596927916e-02
3.116000000000000014e+01,1.654224793619443398e-02
3.119999999999999929e+01,1.955815983092557345e-02
3.123999999999999844e+01,1.447820308893686507e-02
3.128000000000000114e+01,1.735370568249480772e-02
3.132000000000000028e+01,2.343905838132347499e-02
3.135999999999999943e+01,8.308328830593365161e-03
3.139999999999999858e+01,2.137169058248799061e-02
3.144000000000000128e+01,1.405643184566888679e-02
3.148000000000000043e+01,1.930266852198390254e-02
3.151999999999999957e+01,7.938858425151056747e-03
3.155999999999999872e+01,2.504829555514688499e-02
3.160000000000000142e+01,2.038334700364972940e-02
3.164000000000000057e+01,2.688412867250743882e-02
3.167999999999999972e+01,8.539837147756256658e-03
3.171999999999999886e+01,1.866879525454053293e-02
3.176000000000000156e+01,2.726200024808664302e-02
3.180000000000000071e+01,2.343246546917987158e-02
3.183999999999999986e+01,2.239405833159507572e-02
3.187999999999999901e+01,0.000000000000000000e+00
3.192000000000000171e+01,1.110395765677377709e-02
3.196000000000000085e+01,2.220750956342747509e-02
3.200000000000000000e+01,3.275234928214346836e-02
3.203999999999999915e+01,5.862959700190414599e-04
3.207999999999999829e+01,2.508800316923904747e-02
3.211999999999999744e+01,1.357850300790523247e-02
3.215999999999999659e+01,2.272596054512863659e-02
3.220000000000000284e+01,2.154433571789528268e-02
3.224000000000000199e+01,1.994357906953294138e-02
3.228000000000000114e+01,2.448379890940282147e-02
3.232000000000000028e+01,1.715959383111139921e-02
3.235999999999999943e+01,2.811954454153434840e-02
3.239999999999999858e+01,2.637761097765769711e-02
3.243999999999999773e+01,2.714766055325634059e-02
3.247999999999999687e+01,2.428831644056818340e-02
3.252000000000000313e+01,1.766000248102143552e-02
3.256000000000000227e+01,1.061256150975921006e-02
3.260000000000000142e+01,1.054356239463447725e-02
3.264000000000000057e+01,1.214908886637685453e-02
3.267999999999999972e+01,7.054535941246602160e-03
3.271999999999999886e+01,1.820011928604993315e-03
3.275999999999999801e+01,1.221769128122122440e-02
3.279999999999999716e+01,8.936455053064597254e-03
3.284000000000000341e+01,1.109831993087096770e-02
3.288000000000000256e+01,1.800540271707395598e-02
3.292000000000000171e+01,1.276891608326889173e-02
3.296000000000000085e+01,9.904843644487524093e-03
3.300000000000000000e+01,2.420832253525890751e-02
3.303999999999999915e+01,1.631870710765262814e-02
3.307999999999999829e+01,1.861780622452213763e-02
3.311999999999999744e+01,3.050691777574185935e-03
3.315999999999999659e+01,1.580442350416453061e-03
3.320000000000000284e+01,1.085721631025898630e-02
3.324000000000000199e+01,1.482968688718878415e-02
3.328000000000000114e+01,1.433531524087416041e-02
3.332000000000000028e+01,1.621336320017356669e-02
3.335999999999999943e+01,1.557864477506239187e-02
3.339999999999999858e+01,1.564142604093540431e-02
3.343999999999999773e+01,2.184520122916486923e-02
3.347999999999999687e+01,3.343507036485456919e-03
3.352000000000000313e+01,7.034135339605700719e-03
3.356000000000000227e+01,1.658660584911529276e-02
3.360000000000000142e+01,1.050609816490554772e-02
3.364000000000000057e+01,2.089526763033264581e-02
3.367999999999999972e+01,1.648892066288545552e-02
3.371999999999999886e+01,6.499124007148639540e-03
3.375999999999999801e+01,9.210433791366469392e-03
3.379999999999999716e+01,8.711100005374382629e-03
3.384000000000000341e+01,1.351530559501414215e-02
3.388000000000000256e+01,1.455056177780296271e-02
3.392000000000000171e+01,1.405009731089532088e-02
3.396000000000000085e+01,1.089729871747903422e-02
3.400000000000000000e+01,5.092166598730745071e-03
3.403999999999999915e+01,2.329386266781110354e-02
3.407999999999999829e+01,2.055867088684545582e-02
3.411999999999999744e+01,1.056511431237393446e-02
3.415999999999999659e+01,1.215605611163509021e-02
3.420000000000000284e+01,1.988800325561001017e-02
3.424000000000000199e+01,1.715132193539125813e-02
3.428000000000000114e+01,1.497257677229534359e-02
3.432000000000000028e+01,1.670161060146559129e-02
3.435999999999999943e+01,1.396381843916227015e-02
3.439999999999999858e+01,1.666915082871317857e-02
3.443999999999999773e+01,1.797834714361330397e-02
3.447999999999999687e+01,1.593733334855879091e-02
3.452000000000000313e+01,1.808325507115114694e-02
3.456000000000000227e+01,1.632066084714784565e-02
3.460000000000000142e+01,5.345634407278594680e-03
3.464000000000000057e+01,2.033151980936892186e-02
3.467999999999999972e+01,1.479925665830951129e-02
3.471999999999999886e+01,1.122070387480274614e-02
3.475999999999999801e+01,1.573723948896402908e-02
3.479999999999999716e+01,1.606610924409263702e-02
3.484000000000000341e+01,1.625503977407491418e-02
3.488000000000000256e+01,1.923514363480826120e-02
3.492000000000000171e+01,1.272366656959198622e-02
3.496000000000000085e+01,2.226315621359781921e-02
3.500000000000000000e+01,1.044704155537584320e-02
3.503999999999999915e+01,9.517554698030979490e-03
3.507999999999999829e+01,1.361247233329835292e-02
3.511999999999999744e+01,2.077772042587423471e-02
3.515999999999999659e+01,2.710515030397430900e-02
3.520000000000000284e+01,1.403105352221055251e-02
3.524000000000000199e+01,1.700792765790583652e-02
3.528000000000000114e+01,1.607629666818604156e-02
3.532000000000000028e+01,1.961076673914430996e-02
3.535999999999999943e+01,2.412191947824215976e-02
3.539999999999999858e+01,1.676869358978440999e-02
3.543999999999999773e+01,3.077035849511627549e-02
3.547999999999999687e+01,9.179596817982822038e-03
3.552000000000000313e+01,2.527420802757930976e-02
3.556000000000000227e+01,1.331353888348865352e-02
3.560000000000000142e+01,1.335612003473772569e-02
3.564000000000000057e+01,8.234010633424545395e-03
3.567999999999999972e+01,1.916287876251405314e-02
3.571999999999999886e+01,3.190589552882505675e-02
3.575999999999999801e+01,1.449998355110335146e-02
3.579999999999999716e+01,1.844896777776147342e-02
3.584000000000000341e+01,2.644533060114890796e-02
3.588000000000000256e+01,1.727340514065410157e-02
3.592000000000000171e+01,7.682403167286601213e-03
3.596000000000000085e+01,2.042333712124600603e-02
3.600000000000000000e+01,1.529810079611023006e-02
3.603999999999999915e+01,1.896585590503989047e-02
3.607999999999999829e+01,1.900427143158566964e-02
3.611999999999999744e+01,1.792572965239919852e-02
3.615999999999999659e+01,2.187160859759587628e-02
3.620000000000000284e+01,1.772169345198336410e-02
3.624000000000000199e+01,1.050074816768821820e-02
3.628000000000000114e+01,1.849332887295455224e-02
3.632000000000000028e+01,2.034419192742236912e-02
3.635999999999999943e+01,1.884487312724032401e-02
3.639999999999999858e+01,2.069505754151839891e-02
3.643999999999999773e+01,2.100955918023198615e-02
3.647999999999999687e+01,1.881134132631752387e-02
3.652000000000000313e+01,2.331247072435976841e-02
3.656000000000000227e+01,2.236976987740664155e-02
3.660000000000000142e+01,2.603276608853451191e-02
3.664000000000000057e+01,2.132082130229969244e-02
3.667999999999999972e+01,1.116504807459958552e-02
3.671999999999999886e+01,2.124757080035451912e-02
3.675999999999999801e+01,1.430139522786325057e-02
3.679999999999999716e+01,2.605817245394573961e-02
3.684000000000000341e+01,2.469440185709636734e-02
3.688000000000000256e+01,1.830553610391102981e-02
3.692000000000000171e+01,2.210544260816455983e-02
3.696000000000000085e+01,2.618417202888259632e-02
3.700000000000000000e+01,2.747103625277245650e-02
3.703999999999999915e+01,2.666391967975386551e-02
3.707999999999999829e+01,2.753139542421595767e-02
3.711999999999999744e+01,2.393208665839667570e-02
3.715999999999999659e+01,2.800917208160159586e-02
3.720000000000000284e+01,3.962307553525867138e-02
3.724000000000000199e+01,2.499622176138188018e-02
3.728000000000000114e+01,2.446629492849522122e-02
3.732000000000000028e+01,2.561096402014940987e-02
3.735999999999999943e+01,2.145139165009080431e-02
3.739999999999999858e+01,1.938514668617228459e-02
3.743999999999999773e+01,3.169498458744787056e-02
3.747999999999999687e+01,2.879063288838970211e-02
3.752000000000000313e+01,2.937537799648777190e-02
3.756000000000000227e+01,3.638033246763947709e-02
3.760000000000000142e+01,3.933723992187602991e-02
3.764000000000000057e+01,4.033975235660328812e-02
3.767999999999999972e+01,3.268818590506471916e-02
3.771999999999999886e+01,4.736858183262781380e-02
3.775999999999999801e+01,4.390368041337330135e-02
3.779999999999999716e+01,2.843485967741651507e-02
3.784000000000000341e+01,3.460011932534845513e-02
3.788000000000000256e+01,3.755479672309374600e-02
3.792000000000000171e+01,3.953212062780683128e-02
3.796000000000000085e+01,4.262574303689353750e-02
3.800000000000000000e+01,4.557947371379308943e-02
3.803999999999999915e+01,5.285976957163754375e-02
3.807999999999999829e+01,4.771742004177084717e-02
3.811999999999999744e+01,5.360132136313565387e-02
3.815999999999999659e+01,6.730120866269061197e-02
3.820000000000000284e+01,5.978511651390233661e-02
3.824000000000000199e+01,8.451094450166379834e-02
3.828000000000000114e+01,9.081232943840754357e-02
3.832000000000000028e+01,8.552853315299191461e-02
3.835999999999999943e+01,1.088576630541924495e-01
3.839999999999999858e+01,1.007817130512848741e-01
3.843999999999999773e+01,8.670365401969230834e-02
3.847999999999999687e+01,9.858656454302244798e-02
3.852000000000000313e+01,1.101900143897138612e-01
3.856000000000000227e+01,1.063001373483452028e-01
3.860000000000000142e+01,1.156697465283060555e-01
3.864000000000000057e+01,1.099647603018060055e-01
3.867999999999999972e+01,1.000721665304131064e-01
3.871999999999999886e+01,1.091617079335727297e-01
3.875999999999999801e+01,1.054098838897791629e-01
3.879999999999999716e+01,1.165924701901820404e-01
3.884000000000000341e+01,1.308454428573263273e-01
3.888000000000000256e+01,1.445398067389249697e-01
3.892000000000000171e+01,1.607462511506241032e-01
3.896000000000000085e+01,1.543409599388511355e-01
3.900000000000000000e+01,1.694301897853424943e-01
3.903999999999999915e+01,1.899626139201850972e-01
3.907999999999999829e+01,2.173340005420417442e-01
3.911999999999999744e+01,2.294912222118092593e-01
3.915999999999999659e+01,2.868710165018111269e-01
3.920000000000000284e+01,3.089375936382778298e-01
3.924000000000000199e+01,3.499863137645941591e-01
3.928000000000000114e+01,3.901972775976345620e-01
3.932000000000000028e+01,4.385033983624866960e-01
3.935999999999999943e+01,4.798303866074777324e-01
3.939999999999999858e+01,5.379062920910474555e-01
3.943999999999999773e+01,5.959819042445396731e-01
3.947999999999999687e+01,6.568487588641035435e-01
3.952000000000000313e+01,7.440953289484300015e-01
3.956000000000000227e+01,7.891894260621298285e-01
3.960000000000000142e+01,8.268856639837827149e-01
3.964000000000000057e+01,8.996153782781421970e-01
3.967999999999999972e+01,9.061854187286448870e-01
3.971999999999999886e+01,9.434620572020004925e-01
3.975999999999999801e+01,1.000000000000000000e+00
3.979999999999999716e+01,9.771184785815552054e-01
3.984000000000000341e+01,9.853622872687392009e-01
3.988000000000000256e+01,9.555013538274200746e-01
3.992000000000000171e+01,9.428080757192222050e-01
3.996000000000000085e+01,9.320685867327246354e-01
4.000000000000000000e+01,8.794557849080415490e-01
4.003999999999999915e+01,8.641096936238095161e-01
4.007999999999999829e+01,8.454134763943605968e-01
4.011999999999999744e+01,8.310438556070448568e-01
4.015999999999999659e+01,7.943416707510554398e-01
4.020000000000000284e+01,8.106783726918163069e-01
4.024000000000000199e+01,8.193380715398602687e-01
4.028000000000000114e+01,7.925449927063915601e-01
4.032000000000000028e+01,7.908754505234820709e-01
4.035999999999999943e+01,7.901826661557993514e-01
4.039999999999999858e+01,8.127989217642973552e-01
4.043999999999999773e+01,7.805612324909328992e-01
4.047999999999999687e+01,7.642350161294264588e-01
4.052000000000000313e+01,7.190161334016519357e-01
4.056000000000000227e+01,6.772863931704626861e-01
4.060000000000000142e+01,6.394645263162811455e-01
4.064000000000000057e+01,6.056901102000328274e-01
4.067999999999999972e+01,5.629825067662740379e-01
4.071999999999999886e+01,5.273930439872711595e-01
4.075999999999999801e+01,4.791018225798984731e-01
4.079999999999999716e+01,4.435118134195795703e-01
4.084000000000000341e+01,3.967553911904790342e-01
4.088000000000000256e+01,3.523715021893886745e-01
4.092000000000000171e+01,3.462313742728768684e-01
4.096000000000000085e+01,2.972409106281800328e-01
4.100000000000000000e+01,2.831443670364487408e-01
4.103999999999999915e+01,2.514608824333834369e-01
4.107999999999999829e+01,2.405740663510278210e-01
4.111999999999999744e+01,2.065172400697474486e-01
4.115999999999999659e+01,1.950715813882619720e-01
4.120000000000000284e+01,1.763676643215462692e-01
4.124000000000000199e+01,1.596175556141851137e-01
4.128000000000000114e+01,1.491481354195619835e-01
4.132000000000000028e+01,1.511007817677922915e-01
4.135999999999999943e+01,1.402121017455548735e-01
4.139999999999999858e+01,1.242983944999484780e-01
4.143999999999999773e+01,1.141070711327925036e-01
4.147999999999999687e+01,1.262477666553477595e-01
4.152000000000000313e+01,1.075417362045718861e-01
4.156000000000000227e+01,1.064221160144081108e-01
4.160000000000000142e+01,1.025106997627364819e-01
4.164000000000000057e+01,9.524918101173929230e-02
4.167999999999999972e+01,8.184602516762114199e-02
4.171999999999999886e+01,7.960875104038593608e-02
4.175999999999999801e+01,7.248603186012063382e-02
4.179999999999999716e+01,7.792496319657772619e-02
4.184000000000000341e+01,7.122045917543057270e-02
4.188000000000000256e+01,6.814469424944837039e-02
4.192000000000000171e+01,7.609523728648401319e-02
4.196000000000000085e+01,6.199239682729440482e-02
4.200000000000000000e+01,5.710136765674417997e-02
4.203999999999999915e+01,6.212003417475295969e-02
4.207999999999999829e+01,6.029918581266479477e-02
4.211999999999999744e+01,5.094093937291323954e-02
4.215999999999999659e+01,4.116371020385396762e-02
4.220000000000000284e+01,5.595173890166425107e-02
4.224000000000000199e+01,4.770935099324594142e-02
4.228000000000000114e+01,6.235730103706731836e-02
4.232000000000000028e+01,5.425398919651073376e-02
4.235999999999999943e+01,6.415582991934597190e-02
4.239999999999999858e+01,6.679943029225195172e-02
4.243999999999999773e+01,6.218479091640540662e-02
4.247999999999999687e+01,6.943392847854207295e-02
4.252000000000000313e+01,6.509794794207278412e-02
4.256000000000000227e+01,7.709220185789560087e-02
4.260000000000000142e+01,7.303488256551041169e-02
4.264000000000000057e+01,8.139964965480968317e-02
4.267999999999999972e+01,7.887718484895285542e-02
4.271999999999999886e+01,7.007352182082059178e-02
4.275999999999999801e+01,6.280495971751158535e-02
4.279999999999999716e+01,6.740017936159940770e-02
4.284000000000000341e+01,5.957282515800321754e-02
4.288000000000000256e+01,4.979115468904522779e-02
4.292000000000000171e+01,3.679897771816463548e-02
4.296000000000000085e+01,4.181196232832640192e-02
4.300000000000000000e+01,3.733348745023167686e-02
4.303999999999999915e+01,3.732122965991784697e-02
4.307999999999999829e+01,3.605254240886871658e-02
4.311999999999999744e+01,4.008753400644550491e-02
4.315999999999999659e+01,3.574768259846147073e-02
4.320000000000000284e+01,3.210547816975271168e-02
4.324000000000000199e+01,3.795425718565821616e-02
4.328000000000000114e+01,3.459073444104127787e-02
4.332000000000000028e+01,3.080824640124093725e-02
4.335999999999999943e+01,3.986658584355147472e-02
4.339999999999999858e+01,4.208543024459600324e-02
4.343999999999999773e+01,3.327747741309303869e-02
4.347999999999999687e+01,3.270432079552711147e-02
4.352000000000000313e+01,4.134299831131499348e-02
4.356000000000000227e+01,3.099900509241498500e-02
4.360000000000000142e+01,3.335626620293741934e-02
4.364000000000000057e+01,4.045890693838841840e-02
4.367999999999999972e+01,3.067253013891066415e-02
4.371999999999999886e+01,3.749555874534644950e-02
4.375999999999999801e+01,3.552502308462607977e-02
4.379999999999999716e+01,4.081225112901598617e-02
4.384000000000000341e+01,4.149321890106128646e-02
4.388000000000000256e+01,2.975162845601678901e-02
4.392000000000000171e+01,3.322367882528322325e-02
4.396000000000000085e+01,4.507010938235564423e-02
4.400000000000000000e+01,4.044625749315867991e-02
4.403999999999999915e+01,3.372853001297554387e-02
4.407999999999999829e+01,2.840634653669812937e-02
4.411999999999999744e+01,4.374130051081084880e-02
4.415999999999999659e+01,4.107063008612630434e-02
4.420000000000000284e+01,3.867889139088874495e-02
4.424000000000000199e+01,3.921804346149834752e-02
4.428000000000000114e+01,4.185062634064014991e-02
4.432000000000000028e+01,5.132225046094354703e-02
4.435999999999999943e+01,4.027587151285827449e-02
4.439999999999999858e+01,4.346610327496409215e-02
4.443999999999999773e+01,4.609780981508544012e-02
4.447999999999999687e+01,5.235829452685716867e-02
4.452000000000000313e+01,4.172977432841078888e-02
4.456000000000000227e+01,5.650400802475088330e-02
4.460000000000000142e+01,5.173727957800274002e-02
4.464000000000000057e+01,5.534494153906439201e-02
4.467999999999999972e+01,4.974032278078814595e-02
4.471999999999999886e+01,6.702607864653023495e-02
4.475999999999999801e+01,6.323553041665617991e-02
4.479999999999999716e+01,7.242540807100276978e-02
4.484000000000000341e+01,5.537464272138824944e-02
4.488000000000000256e+01,6.037679384200714955e-02
4.492000000000000171e+01,6.216846851953845149e-02
4.496000000000000085e+01,6.047051383566155042e-02
4.500000000000000000e+01,6.477415005445845420e-02
4.503999999999999915e+01,8.289567632302782818e-02
4.507999999999999829e+01,7.700979135067397008e-02
4.511999999999999744e+01,7.391523361030601091e-02
4.515999999999999659e+01,9.119867543142518018e-02
4.520000000000000284e+01,8.782455004911772500e-02
4.524000000000000199e+01,8.542725582559440589e-02
4.528000000000000114e+01,9.252097570669697013e-02
4.532000000000000028e+01,1.084078264948589998e-01
4.535999999999999943e+01,9.637912097737373618e-02
4.539999999999999858e+01,1.119864101353632430e-01
4.543999999999999773e+01,1.218708489900872938e-01
4.547999999999999687e+01,1.263115916622197521e-01
4.552000000000000313e+01,1.343811281365968335e-01
4.556000000000000227e+01,1.399380815854564253e-01
4.560000000000000142e+01,1.499612905974056498e-01
4.564000000000000057e+01,1.676610212478391038e-01
4.567999999999999972e+01,1.693092249806703309e-01
4.571999999999999886e+01,1.983142746788927879e-01
4.575999999999999801e+01,2.005203881612237782e-01
4.579999999999999716e+01,2.099842954074999657e-01
4.584000000000000341e+01,2.293579554541215482e-01
4.588000000000000256e+01,2.425900415311755820e-01
4.592000000000000171e+01,2.689421470851464657e-01
4.596000000000000085e+01,2.747762736177965515e-01
4.600000000000000000e+01,2.874494666410296051e-01
4.603999999999999915e+01,2.959351627358822179e-01
4.607999999999999829e+01,3.108411962444254106e-01
4.611999999999999744e+01,3.014606806231422409e-01
4.615999999999999659e+01,3.317197724380713808e-01
4.620000000000000284e+01,3.297364410198569962e-01
4.624000000000000199e+01,3.225885783609055979e-01
4.628000000000000114e+01,3.206048652837906743e-01
4.632000000000000028e+01,3.357889037280691324e-01
4.635999999999999943e+01,3.340839649162576364e-01
4.639999999999999858e+01,3.036260248709014009e-01
4.643999999999999773e+01,3.056892817228152870e-01
4.647999999999999687e+01,3.048212390970299612e-01
4.652000000000000313e+01,2.929264455293030256e-01
4.656000000000000227e+01,2.835438473164259010e-01
4.660000000000000142e+01,2.893749301966986320e-01
4.664000000000000057e+01,2.674300527687270002e-01
4.667999999999999972e+01,2.634903928312306021e-01
4.671999999999999886e+01,2.620629306532909486e-01
4.675999999999999801e+01,2.599374013618666046e-01
4.679999999999999716e+01,2.685590998575201893e-01
4.684000000000000341e+01,2.509401854080475225e-01
4.688000000000000256e+01,2.675173955857720887e-01
4.692000000000000171e+01,2.565978031829864170e-01
4.696000000000000085e+01,2.638230092386614767e-01
4.700000000000000000e+01,2.577882434105375764e-01
4.703999999999999915e+01,2.369581619425566443e-01
4.707999999999999829e+01,2.346916110158125124e-01
4.711999999999999744e+01,2.328436124641628802e-01
4.715999999999999659e+01,2.196897190699015345e-01
4.720000000000000284e+01,2.171434827147364632e-01
4.724000000000000199e+01,1.988248964073576763e-01
4.728000000000000114e+01,1.904160845426854931e-01
4.732000000000000028e+01,1.789364090652761641e-01
4.735999999999999943e+01,1.547550741536525831e-01
4.739999999999999858e+01,1.572327266580985095e-01
4.743999999999999773e+01,1.415652273004878448e-01
4.747999999999999687e+01,1.379011567876963773e-01
4.752000000000000313e+01,1.315849559472971608e-01
4.756000000000000227e+01,1.177314387892655634e-01
4.760000000000000142e+01,1.168583895978235199e-01
4.764000000000000057e+01,1.140310956810467735e-01
4.767999999999999972e+01,1.086912506011176310e-01
4.771999999999999886e+01,1.004201246799669989e-01
4.775999999999999801e+01,7.819115449863156542e-02
4.779999999999999716e+01,8.276075450488123986e-02
4.784000000000000341e+01,7.155801357656770001e-02
4.788000000000000256e+01,6.900886527087375655e-02
4.792000000000000171e+01,7.190304471475818249e-02
4.796000000000000085e+01,7.130763988548682875e-02
4.800000000000000000e+01,5.689397116283955586e-02
4.803999999999999915e+01,5.839188897444626963e-02
4.807999999999999829e+01,4.886307929000249795e-02
4.811999999999999744e+01,5.719993197864662454e-02
4.815999999999999659e+01,5.464963513334228362e-02
4.820000000000000284e+01,5.251790689490339059e-02
4.824000000000000199e+01,4.912982674752331552e-02
4.828000000000000114e+01,4.727693048735095993e-02
4.832000000000000028e+01,4.207403212436171963e-02
4.835999999999999943e+01,4.203531460439729334e-02
4.839999999999999858e+01,3.794871238522637413e-02
4.843999999999999773e+01,3.944502249067954186e-02
4.847999999999999687e+01,3.396233714455879071e-02
4.852000000000000313e+01,2.903780197446572883e-02
4.856000000000000227e+01,2.634633869856024477e-02
4.860000000000000142e+01,2.728371551550509699e-02
4.864000000000000057e+01,2.766263023401883264e-02
4.867999999999999972e+01,1.771271027287564526e-02
4.871999999999999886e+01,2.953661097543176101e-02
4.875999999999999801e+01,2.237791909627078607e-02
4.879999999999999716e+01,2.568733154352535394e-02
4.884000000000000341e+01,2.006367931331590193e-02
4.888000000000000256e+01,2.700178400810448673e-02
4.892000000000000171e+01,2.235486679255893963e-02
4.896000000000000085e+01,2.245340915844287744e-02
4.900000000000000000e+01,1.948111316101102872e-02
4.903999999999999915e+01,2.320835258384259386e-02
4.907999999999999829e+01,1.995660557275074840e-02
4.911999999999999744e+01,2.158989730754384828e-02
4.915999999999999659e+01,1.903573900573909961e-02
4.920000000000000284e+01,1.927296925594354157e-02
4.924000000000000199e+01,1.895174642536734400e-02
4.928000000000000114e+01,2.211979714789673659e-02
4.932000000000000028e+01,2.123997699828373067e-02
4.935999999999999943e+01,2.370985484438114035e-02
4.939999999999999858e+01,2.143397922194644964e-02
4.943999999999999773e+01,2.139118871958676366e-02
4.947999999999999687e+01,2.651259589319946569e-02
4.952000000000000313e+01,1.223269162820649070e-02
4.956000000000000227e+01,1.623720165790835251e-02
4.960000000000000142e+01,1.786876614068793126e-02
4.964000000000000057e+01,1.768569271671640436e-02
4.967999999999999972e+01,1.219856299345524475e-02
4.971999999999999886e+01,1.969193309914867712e-02
4.975999999999999801e+01,1.615860095821303882e-02
4.979999999999999716e+01,1.737074102341753384e-02
4.984000000000000341e+01,1.425586451227947409e-02
4.988000000000000256e+01,1.784053604611548702e-02
4.992000000000000171e+01,1.542327108897903996e-02
4.996000000000000085e+01,8.678991359030179334e-03
5.000000000000000000e+01,2.105659309521139971e-02
5.003999999999999915e+01,7.054053220653741171e-03
5.007999999999999829e+01,1.510450796930032889e-02
5.011999999999999744e+01,5.428581413975049584e-03
5.015999999999999659e+01,1.403707817099505810e-02
5.020000000000000284e+01,1.217718633332409879e-02
5.024000000000000199e+01,1.478361979523979200e-02
5.028000000000000114e+01,1.585457848872871486e-02
5.032000000000000028e+01,9.388262345777527787e-03
5.035999999999999943e+01,1.729822324809415779e-02
5.039999999999999858e+01,1.613556615908936023e-02
5.043999999999999773e+01,1.888093033656029068e-02
5.047999999999999687e+01,1.450775236154371386e-02
5.052000000000000313e+01,1.627582501133392062e-02
5.056000000000000227e+01,1.399604542545937816e-02
5.060000000000000142e+01,1.129740995856050659e-02
5.064000000000000057e+01,1.152976144578060289e-02
5.067999999999999972e+01,1.567013780653660551e-02
5.071999999999999886e+01,1.994996712879284692e-02
5.075999999999999801e+01,1.404056979232909744e-02
5.079999999999999716e+01,1.441200404865764992e-02
5.084000000000000341e+01,1.227093463479302267e-02
5.088000000000000256e+01,1.990011700978923034e-02
5.092000000000000171e+01,2.487722015719704555e-02
5.096000000000000085e+01,9.475996190120091964e-03
5.100000000000000000e+01,1.473201307582542967e-02
5.103999999999999915e+01,2.068579477143898948e-02
5.107999999999999829e+01,2.510411372215981193e-02
5.111999999999999744e+01,1.137733611908034112e-02
5.115999999999999659e+01,9.933196188573571728e-03
5.120000000000000284e+01,1.672396849910655695e-02
5.124000000000000199e+01,1.067356292981645575e-02
5.128000000000000114e+01,1.537045247939447350e-02
5.132000000000000028e+01,1.546119417667055074e-02
5.135999999999999943e+01,1.499351465553100220e-02
5.139999999999999858e+01,1.368826099765528895e-02
5.143999999999999773e+01,1.433696899919226567e-02
5.147999999999999687e+01,1.261275970911184159e-02
5.152000000000000313e+01,5.444945014121307936e-03
5.156000000000000227e+01,1.837607254939243109e-02
5.160000000000000142e+01,1.762856705693911438e-02
5.164000000000000057e+01,5.993964332910116204e-03
5.167999999999999972e+01,1.697068731814780837e-02
5.171999999999999886e+01,1.063978332572735122e-02
5.175999999999999801e+01,1.673110278327867920e-02
5.179999999999999716e+01,1.333109501144720890e-02
5.184000000000000341e+01,1.174547815104683320e-02
5.188000000000000256e+01,2.272166330389690028e-02
5.192000000000000171e+01,2.336906247240267201e-02
5.196000000000000085e+01,2.192270508290857997e-02
5.200000000000000000e+01,1.349740514539016570e-02
5.203999999999999915e+01,1.665687230758874579e-02
5.207999999999999829e+01,8.510518571909540461e-03
5.211999999999999744e+01,1.599665917101041404e-02
5.215999999999999659e+01,1.734132018528532562e-02
5.220000000000000284e+01,1.198619517691655763e-02
5.224000000000000199e+01,1.235361636470687884e-02
5.228000000000000114e+01,1.439585831712330427e-02
5.232000000000000028e+01,1.601927023911346726e-02
5.235999999999999943e+01,1.275739641989865128e-02
5.239999999999999858e+01,1.033288461034847193e-02
5.243999999999999773e+01,1.307261496384636706e-02
5.247999999999999687e+01,1.022917758092634598e-02
5.252000000000000313e+01,1.268956032315647631e-02
5.256000000000000227e+01,1.375407932378024285e-02
5.260000000000000142e+01,2.082030345065056728e-02
5.264000000000000057e+01,1.225383554391010557e-02
5.267999999999999972e+01,7.455845809791855107e-03
5.271999999999999886e+01,1.773205238910964543e-02
5.275999999999999801e+01,1.139853142010650681e-02
5.279999999999999716e+01,2.069751500588732154e-02
5.284000000000000341e+01,1.017650677148258104e-02
5.288000000000000256e+01,1.570673457346094537e-02
5.292000000000000171e+01,1.998068080417193110e-02
5.296000000000000085e+01,2.369622986353516966e-02
5.300000000000000000e+01,2.113073520303456257e-02
5.303999999999999915e+01,1.661107697605362574e-02
5.307999999999999829e+01,1.753482405044514553e-02
5.311999999999999744e+01,1.859806015693882958e-02
5.315999999999999659e+01,2.524427952690704718e-02
5.320000000000000284e+01,1.234966600677719906e-02
5.324000000000000199e+01,1.564587069336936462e-02
5.328000000000000114e+01,1.768579921928443988e-02
5.332000000000000028e+01,1.763199162720742799e-02
5.335999999999999943e+01,1.813640695353856483e-02
5.339999999999999858e+01,2.157185071518084862e-02
5.343999999999999773e+01,2.095948552588069655e-02
5.347999999999999687e+01,2.188238237675901518e-02
5.352000000000000313e+01,1.736170388156217312e-02
5.356000000000000227e+01,1.367840483015425775e-02
5.360000000000000142e+01,1.418232805767839430e-02
5.364000000000000057e+01,1.761728332757390644e-02
5.367999999999999972e+01,1.853977761082179626e-02
5.371999999999999886e+01,2.127669106080563172e-02
5.375999999999999801e+01,2.010537712900918594e-02
5.379999999999999716e+01,2.661070747574348361e-02
5.384000000000000341e+01,2.194982013612341645e-02
5.388000000000000256e+01,1.924293112769459232e-02
5.392000000000000171e+01,1.625681289565606563e-02
5.396000000000000085e+01,1.717876883364279073e-02
5.400000000000000000e+01,1.865895730886476742e-02
5.403999999999999915e+01,1.204361981808519180e-02
5.407999999999999829e+01,2.217742019773272580e-02
5.411999999999999744e+01,1.877220218353644818e-02
5.415999999999999659e+01,1.634394939052805779e-02
5.420000000000000284e+01,2.145277012806882933e-02
5.424000000000000199e+01,1.818691438599436688e-02
5.428000000000000114e+01,1.841040734411281132e-02
5.432000000000000028e+01,2.156494256460646936e-02
5.435999999999999943e+01,1.857803126499268584e-02
5.439999999999999858e+01,2.689676901502388584e-02
5.443999999999999773e+01,1.609342279068055187e-02
5.447999999999999687e+01,1.841022469506754800e-02
5.452000000000000313e+01,1.947076907525510658e-02
5.456000000000000227e+01,2.304362904563222320e-02
5.460000000000000142e+01,2.103335314195648245e-02
5.464000000000000057e+01,2.181454755032096599e-02
5.467999999999999972e+01,1.282530449452774779e-02
5.471999999999999886e+01,1.974774836949718879e-02
5.475999999999999801e+01,2.220367285310941366e-02
5.479999999999999716e+01,2.019307854654105866e-02
5.484000000000000341e+01,2.571956738934903786e-02
5.488000000000000256e+01,1.589255138393860789e-02
5.492000000000000171e+01,1.946484363969935502e-02
5.496000000000000085e+01,2.206003850370152897e-02
5.500000000000000000e+01,2.395729009661901401e-02
5.503999999999999915e+01,2.041098918817596183e-02
5.507999999999999829e+01,2.565796587390686140e-02
5.511999999999999744e+01,1.750551595496000964e-02
5.515999999999999659e+01,1.312158148159070677e-02
5.520000000000000284e+01,2.297442003612116396e-02
5.524000000000000199e+01,2.891905345240915193e-02
5.528000000000000114e+01,2.788479361716210414e-02
5.532000000000000028e+01,2.336106012527183404e-02
5.535999999999999943e+01,3.084087391001038084e-02
5.539999999999999858e+01,2.199015334358732018e-02
5.543999999999999773e+01,2.458467421715208878e-02
5.547999999999999687e+01,2.159607244255131592e-02
5.552000000000000313e+01,2.139895420587811792e-02
5.556000000000000227e+01,2.287670603032039909e-02
5.560000000000000142e+01,2.295863980258540729e-02
5.564000000000000057e+01,2.750698003329139774e-02
5.567999999999999972e+01,2.005166967327953048e-02
5.571999999999999886e+01,2.697271691621302633e-02
5.575999999999999801e+01,1.840069577706683959e-02
5.579999999999999716e+01,2.546122428095693238e-02
5.584000000000000341e+01,2.079725811833314786e-02
5.588000000000000256e+01,2.241419989794236206e-02
5.592000000000000171e+01,2.458940307126843486e-02
5.596000000000000085e+01,1.336519226462745853e-02
5.600000000000000000e+01,1.777353410690623442e-02
5.603999999999999915e+01,2.902109333511928430e-02
5.607999999999999829e+01,2.379855167242599101e-02
5.611999999999999744e+01,2.834634055274107278e-02
5.615999999999999659e+01,2.661313320615149580e-02
5.620000000000000284e+01,2.027385135081727005e-02
5.624000000000000199e+01,2.551939971875337096e-02
5.628000000000000114e+01,2.280903254633163263e-02
5.632000000000000028e+01,2.233185389637703730e-02
5.635999999999999943e+01,2.981051151975917107e-02
5.639999999999999858e+01,2.277314769812899264e-02
5.643999999999999773e+01,2.564569598866941330e-02
5.647999999999999687e+01,2.907651408940054374e-02
5.652000000000000313e+01,2.441184349708534068e-02
5.656000000000000227e+01,2.574893754750984254e-02
5.660000000000000142e+01,2.136334902296784660e-02
5.664000000000000057e+01,2.465444746050218100e-02
5.667999999999999972e+01,2.641016731788159433e-02
5.671999999999999886e+01,3.137611902773534966e-02
5.675999999999999801e+01,2.615293425537395036e-02
5.679999999999999716e+01,2.595448041457217025e-02
5.684000000000000341e+01,2.087080816435566213e-02
5.688000000000000256e+01,2.751155251598538451e-02
5.692000000000000171e+01,1.712390156242492995e-02
5.696000000000000085e+01,2.753315779672351263e-02
5.700000000000000000e+01,2.747412763636990565e-02
5.703999999999999915e+01,2.392564966997109618e-02
5.707999999999999829e+01,3.182243779180476267e-02
5.711999999999999744e+01,2.799475048477886169e-02
5.715999999999999659e+01,2.667941784442802444e-02
5.720000000000000284e+01,1.964141164676105542e-02
5.724000000000000199e+01,1.860518031183769697e-02
5.728000000000000114e+01,1.659188645340429688e-02
5.732000000000000028e+01,1.946375458207898201e-02
5.735999999999999943e+01,2.163771490909422932e-02
5.739999999999999858e+01,3.190710389978902023e-02
5.743999999999999773e+01,3.114990606978081458e-02
5.747999999999999687e+01,2.941564872214603998e-02
5.752000000000000313e+01,2.516898810082677379e-02
5.756000000000000227e+01,2.845945150889932565e-02
5.760000000000000142e+01,2.979581988463517531e-02
5.764000000000000057e+01,2.624698187449028136e-02
5.767999999999999972e+01,2.967696265827292346e-02
5.771999999999999886e+01,3.296734808998081495e-02
5.775999999999999801e+01,2.886014726386311458e-02
5.779999999999999716e+01,2.475292904777271277e-02
5.784000000000000341e+01,2.706622499132217349e-02
5.788000000000000256e+01,3.245019346172167002e-02
5.792000000000000171e+01,3.211149919598570851e-02
5.796000000000000085e+01,2.953956178900604343e-02
5.800000000000000000e+01,3.366729446587030106e-02
5.803999999999999915e+01,3.346813380761520101e-02
5.807999999999999829e+01,2.880250365566890125e-02
5.811999999999999744e+01,2.595135879989532435e-02
5.815999999999999659e+01,3.189353782890154421e-02
5.820000000000000284e+01,3.937104983693672650e-02
5.824000000000000199e+01,3.344918213207657975e-02
5.828000000000000114e+01,3.813513799225821260e-02
5.832000000000000028e+01,3.277155757586455720e-02
5.835999999999999943e+01,3.257230829667037697e-02
5.839999999999999858e+01,2.399844506023754431e-02
5.843999999999999773e+01,2.254298879983812620e-02
5.847999999999999687e+01,2.876424715564323067e-02
5.852000000000000313e+01,2.982115883195774267e-02
5.856000000000000227e+01,3.436748353437194675e-02
5.860000000000000142e+01,2.942258320744220446e-02
5.864000000000000057e+01,3.201482314167514859e-02
5.867999999999999972e+01,2.762822092439237709e-02
5.871999999999999886e+01,3.245368128760904580e-02
5.875999999999999801e+01,2.946284014317174585e-02
5.879999999999999716e+01,3.554448602183862826e-02
5.884000000000000341e+01,4.204486042037276772e-02
5.888000000000000256e+01,3.654163232232491426e-02
5.892000000000000171e+01,2.754898467353667987e-02
5.896000000000000085e+01,3.446808768024117037e-02
5.900000000000000000e+01,3.077935759137981342e-02
5.903999999999999915e+01,3.253412237921902289e-02
5.907999999999999829e+01,2.982243270278444464e-02
5.911999999999999744e+01,3.925392357333704063e-02
5.915999999999999659e+01,2.914467112911969804e-02
5.920000000000000284e+01,2.824748847952211414e-02
5.924000000000000199e+01,2.986269175778788476e-02
5.928000000000000114e+01,3.161747664936738478e-02
5.932000000000000028e+01,3.546591839191780976e-02
5.935999999999999943e+01,3.303341200169945813e-02
5.939999999999999858e+01,2.920514467109032106e-02
5.943999999999999773e+01,3.333275990442359504e-02
5.947999999999999687e+01,4.025191819217766726e-02
5.952000000000000313e+01,3.419044628393667212e-02
5.956000000000000227e+01,3.231628622995584565e-02
5.960000000000000142e+01,3.309409427417729643e-02
5.964000000000000057e+01,3.289487526431394276e-02
5.967999999999999972e+01,3.660381639274361276e-02
5.971999999999999886e+01,4.031276898768213629e-02
5.975999999999999801e+01,3.690331890312723018e-02
5.979999999999999716e+01,3.419176528617756672e-02
5.984000000000000341e+01,3.706329532921109199e-02
5.988000000000000256e+01,4.105145332144910508e-02
5.992000000000000171e+01,3.694417372066022276e-02
5.996000000000000085e+01,3.786167254439014307e-02
