2.003999999999999915e+01,8.218280845104048923e-03
2.007999999999999829e+01,9.339521710796572576e-03
2.012000000000000099e+01,5.947944920346485802e-03
2.016000000000000014e+01,4.961000811224406358e-03
2.019999999999999929e+01,5.812068922156802620e-04
2.023999999999999844e+01,5.885838472200334397e-03
2.028000000000000114e+01,9.609333138819436265e-03
2.032000000000000028e+01,2.693124592465019618e-03
2.035999999999999943e+01,5.988384897379000343e-03
2.039999999999999858e+01,5.067288554275572142e-03
2.044000000000000128e+01,6.386122533781642303e-03
2.048000000000000043e+01,8.133173443830006219e-03
2.051999999999999957e+01,7.541460918177623172e-03
2.055999999999999872e+01,3.655717817466611497e-03
2.060000000000000142e+01,8.169729350046518387e-03
2.064000000000000057e+01,9.027367331826696012e-03
2.067999999999999972e+01,5.701587749803906612e-03
2.071999999999999886e+01,6.625092003934415254e-03
2.076000000000000156e+01,8.833258285042248567e-03
2.080000000000000071e+01,1.087671584643719672e-02
2.083999999999999986e+01,7.979129652058101693e-03
2.087999999999999901e+01,5.806220900800231240e-03
2.092000000000000171e+01,4.522690629925604951e-03
2.096000000000000085e+01,3.865016750341631474e-03
2.100000000000000000e+01,4.096721020776828391e-03
2.103999999999999915e+01,5.711906883381455760e-03
2.107999999999999829e+01,7.920008401241776866e-03
2.112000000000000099e+01,6.438794145628929343e-03
2.116000000000000014e+01,6.110479303217632684e-03
2.119999999999999929e+01,9.438521985976279852e-03
2.123999999999999844e+01,8.418443589939173313e-03
2.128000000000000114e+01,8.353622668624570424e-03
2.132000000000000028e+01,6.674720298722295470e-03
2.135999999999999943e+01,9.903903931836979466e-03
2.139999999999999858e+01,4.799196726280356533e-03
2.144000000000000128e+01,7.040152989549366969e-03
2.148000000000000043e+01,5.987074878572645406e-03
2.151999999999999957e+01,8.129189604465974009e-03
2.155999999999999872e+01,1.303827387569259783e-02
2.160000000000000142e+01,1.577329145374728459e-02
2.164000000000000057e+01,1.775067251446730762e-02
2.167999999999999972e+01,1.475406611010144330e-02
2.171999999999999886e+01,1.149392646536915273e-02
2.176000000000000156e+01,1.218660419765751207e-02
2.180000000000000071e+01,1.409805918121227394e-02
2.183999999999999986e+01,7.708561749582022379e-03
2.187999999999999901e+01,9.850574627372465572e-03
2.192000000000000171e+01,7.842105061205272010e-03
2.196000000000000085e+01,9.687631324682017750e-03
2.200000000000000000e+01,7.053272408948843726e-03
2.203999999999999915e+01,1.051284534573539327e-02
2.207999999999999829e+01,1.285243730280767084e-02
2.212000000000000099e+01,1.687196855653350092e-02
2.216000000000000014e+01,2.263731942270845801e-02
2.219999999999999929e+01,1.894880796995119382e-02
2.223999999999999844e+01,2.026719960767230447e-02
2.228000000000000114e+01,1.153880426729834291e-02
2.232000000000000028e+01,1.055135164761079360e-02
2.235999999999999943e+01,6.665143905538332796e-03
2.239999999999999858e+01,8.543464124458907336e-03
2.244000000000000128e+01,6.040718068633505605e-03
2.248000000000000043e+01,4.493224532069112383e-03
2.251999999999999957e+01,1.042315096637035782e-02
2.255999999999999872e+01,8.414464657586757587e-03
2.260000000000000142e+01,4.495229449990585484e-03
2.264000000000000057e+01,8.745158767979129347e-03
2.267999999999999972e+01,1.037765507700462138e-03
2.271999999999999886e+01,2.388922935840618895e-03
2.276000000000000156e+01,3.740064752791633258e-03
2.280000000000000071e+01,6.375860172435523013e-03
2.283999999999999986e+01,4.202364539158244192e-03
2.287999999999999901e+01,6.673426708069530623e-03
2.292000000000000171e+01,6.673954568401886493e-03
2.296000000000000085e+01,8.769836656023109137e-04
2.300000000000000000e+01,5.060889028634197283e-03
2.303999999999999915e+01,3.875518424524739686e-03
2.307999999999999829e+01,7.202943834738274008e-03
2.312000000000000099e+01,6.281061124066325899e-03
2.316000000000000014e+01,1.109076299543967047e-02
2.319999999999999929e+01,1.230996122533982787e-02
2.323999999999999844e+01,1.418794667164271009e-02
2.328000000000000114e+01,1.774586662431973383e-02
2.332000000000000028e+01,9.214700393861505190e-03
2.335999999999999943e+01,7.798608020068847901e-03
2.339999999999999858e+01,5.591931620442564151e-03
2.344000000000000128e+01,6.613380369436839927e-03
2.348000000000000043e+01,1.214762348093367805e-02
2.351999999999999957e+01,7.108030645870756607e-03
2.355999999999999872e+01,6.120068476102814500e-03
2.360000000000000142e+01,6.350876124409135862e-03
2.364000000000000057e+01,7.141648615831195507e-03
2.367999999999999972e+01,5.461883660215457667e-03
2.371999999999999886e+01,8.229031595032305912e-03
2.376000000000000156e+01,2.859920388369936207e-03
2.380000000000000071e+01,4.441180018926508231e-03
2.383999999999999986e+01,7.636491362330905322e-03
2.387999999999999901e+01,8.558905875720151241e-03
2.392000000000000171e+01,5.791993052892871127e-03
2.396000000000000085e+01,4.474430244923155268e-03
2.400000000000000000e+01,5.660304982271269214e-03
2.403999999999999915e+01,1.224835826277140272e-02
2.407999999999999829e+01,7.406127031453818912e-03
2.412000000000000099e+01,6.879046076793062132e-03
2.416000000000000014e+01,5.594318198328600972e-03
2.419999999999999929e+01,5.198955255319449506e-03
2.423999999999999844e+01,3.518901210321375827e-03
2.428000000000000114e+01,1.004094515893285897e-02
2.432000000000000028e+01,5.396225528544901576e-03
2.435999999999999943e+01,5.297236867143229055e-03
2.439999999999999858e+01,4.737062455244959135e-03
2.444000000000000128e+01,6.812084733617250649e-03
2.448000000000000043e+01,1.073173776534635041e-02
2.451999999999999957e+01,9.545630642108879349e-03
2.455999999999999872e+01,8.886544322311269381e-03
2.460000000000000142e+01,7.766271426106819906e-03
2.464000000000000057e+01,9.149433432307415778e-03
2.467999999999999972e+01,9.643185405382377270e-03
2.471999999999999886e+01,7.864037079619188783e-03
2.476000000000000156e+01,1.231057033595172462e-02
2.480000000000000071e+01,5.919740435988419570e-03
2.483999999999999986e+01,1.326496661920800735e-02
2.487999999999999901e+01,1.619617621108786210e-02
2.492000000000000171e+01,1.260519365516134943e-02
2.496000000000000085e+01,1.435050536222211813e-02
2.500000000000000000e+01,7.959552807160180654e-03
2.503999999999999915e+01,5.883746729568010633e-03
2.507999999999999829e+01,1.418409121420663097e-02
2.512000000000000099e+01,1.273409915722415603e-02
2.516000000000000014e+01,1.444634466505652706e-02
2.519999999999999929e+01,1.362216596795558579e-02
2.523999999999999844e+01,1.424733199988667195e-02
2.528000000000000114e+01,9.700854257414640025e-03
2.532000000000000028e+01,1.032596808884737871e-02
2.535999999999999943e+01,6.866465751643987918e-03
2.539999999999999858e+01,1.707713670409720386e-02
2.544000000000000128e+01,1.865743797009283139e-02
2.548000000000000043e+01,1.964478806372127115e-02
2.551999999999999957e+01,2.152149764179746988e-02
2.555999999999999872e+01,6.862179320552825972e-03
2.560000000000000142e+01,1.242814132032995719e-02
2.564000000000000057e+01,8.507286555029951874e-03
2.567999999999999972e+01,6.299296625670003889e-03
2.571999999999999886e+01,8.208808922752053316e-03
2.576000000000000156e+01,6.066643639866343973e-03
2.580000000000000071e+01,4.451494039776981472e-03
2.583999999999999986e+01,2.408092983126123177e-03
2.587999999999999901e+01,6.919771288361818706e-03
2.592000000000000171e+01,7.610353036323318741e-03
2.596000000000000085e+01,7.675041389244246712e-03
2.600000000000000000e+01,3.556290209149820872e-03
2.603999999999999915e+01,2.336251035954602703e-03
2.607999999999999829e+01,6.419561260160517105e-03
2.612000000000000099e+01,4.231284083059095821e-04
2.616000000000000014e+01,5.725168392453810866e-03
2.619999999999999929e+01,8.787242206516611767e-03
2.623999999999999844e+01,4.635373371500206389e-03
2.628000000000000114e+01,4.172781324022440362e-03
2.632000000000000028e+01,1.371401889446937717e-03
2.635999999999999943e+01,6.212127770704559647e-03
2.639999999999999858e+01,5.518862607084663169e-03
2.644000000000000128e+01,8.383112608319944620e-03
2.648000000000000043e+01,7.195682056310567440e-03
2.651999999999999957e+01,5.382355796711950878e-03
2.655999999999999872e+01,5.907755308335952901e-03
2.660000000000000142e+01,1.041889245044158585e-02
2.664000000000000057e+01,1.298652376985898194e-02
2.667999999999999972e+01,2.698438673986755867e-02
2.671999999999999886e+01,3.752349249433798578e-02
2.676000000000000156e+01,4.974251838434438910e-02
2.680000000000000071e+01,7.701520188316615667e-02
2.683999999999999986e+01,7.065586738314329207e-02
2.687999999999999901e+01,5.731316927455013671e-02
2.692000000000000171e+01,3.972114735277691711e-02
2.696000000000000085e+01,2.522547508164872318e-02
2.700000000000000000e+01,1.244266219545303934e-02
2.703999999999999915e+01,8.652501677037306368e-03
2.707999999999999829e+01,7.695168389809887988e-03
2.712000000000000099e+01,8.154231827569420610e-03
2.716000000000000014e+01,8.777962686558660882e-03
2.719999999999999929e+01,7.721707334221510240e-03
2.723999999999999844e+01,8.641832299635146888e-03
2.728000000000000114e+01,3.632679700300373016e-03
2.732000000000000028e+01,7.616178312471215059e-03
2.735999999999999943e+01,5.538638067574257196e-03
2.739999999999999858e+01,7.512712630495648261e-03
2.744000000000000128e+01,9.157349851040058261e-03
2.748000000000000043e+01,4.082142909194083277e-03
2.751999999999999957e+01,7.769004669521756973e-03
2.755999999999999872e+01,3.418412317542099833e-03
2.760000000000000142e+01,1.086039046234357416e-02
2.764000000000000057e+01,5.686220736527445446e-03
2.767999999999999972e+01,5.485991395942302340e-03
2.771999999999999886e+01,6.768036783591043458e-03
2.776000000000000156e+01,4.426619458524260788e-03
2.780000000000000071e+01,6.894440820698235009e-03
2.783999999999999986e+01,6.364663709080207316e-03
2.787999999999999901e+01,6.164252247859117184e-03
2.792000000000000171e+01,1.083895945931027949e-02
2.796000000000000085e+01,6.883286577834827474e-03
2.800000000000000000e+01,4.442827508807745823e-03
2.803999999999999915e+01,7.437470705216706057e-03
2.807999999999999829e+01,1.036619584024651639e-02
2.812000000000000099e+01,9.704397016411200547e-03
2.816000000000000014e+01,7.197906814436280144e-03
2.819999999999999929e+01,5.481944308245376152e-03
2.823999999999999844e+01,7.059967609806910155e-03
2.828000000000000114e+01,9.197936593366646055e-03
2.832000000000000028e+01,7.415978387262833066e-03
2.835999999999999943e+01,8.763304290921170372e-03
2.839999999999999858e+01,8.068296382414671952e-03
2.844000000000000128e+01,5.726237382427143245e-03
2.848000000000000043e+01,4.075884200482859585e-03
2.851999999999999957e+01,7.037125289569508106e-03
2.855999999999999872e+01,7.593689260386119605e-03
2.860000000000000142e+01,5.646755226284115407e-03
2.864000000000000057e+01,1.038665011846268658e-02
2.867999999999999972e+01,8.571397095233542970e-03
2.871999999999999886e+01,6.327880722335409505e-03
2.876000000000000156e+01,4.710188530228553473e-03
2.880000000000000071e+01,3.751260594219723958e-03
2.883999999999999986e+01,3.978140596948042881e-03
2.887999999999999901e+01,5.851991740074935326e-03
2.892000000000000171e+01,2.191841431855291473e-03
2.896000000000000085e+01,4.757355361616317189e-03
2.900000000000000000e+01,5.511114684903521167e-03
2.903999999999999915e+01,4.881342362889564204e-03
2.907999999999999829e+01,4.185647849945222515e-03
2.912000000000000099e+01,5.202803967284809310e-03
2.916000000000000014e+01,4.902308424754728972e-03
2.919999999999999929e+01,4.140607309882266690e-03
2.923999999999999844e+01,4.597652722415267179e-03
2.928000000000000114e+01,4.988775118107668591e-03
2.932000000000000028e+01,8.245655735282521673e-03
2.935999999999999943e+01,6.989680539261774843e-03
2.939999999999999858e+01,2.933741870282082203e-03
2.944000000000000128e+01,2.237664534571020148e-03
2.948000000000000043e+01,6.317878707965862012e-03
2.951999999999999957e+01,2.558272118065919344e-03
2.955999999999999872e+01,2.356167808821417117e-03
2.960000000000000142e+01,6.205669222382585032e-03
2.964000000000000057e+01,6.662281843093732780e-03
2.967999999999999972e+01,3.198961657951695462e-03
2.971999999999999886e+01,3.523724776158615457e-03
2.976000000000000156e+01,6.121319970046662853e-03
2.980000000000000071e+01,6.347173165509980945e-03
2.983999999999999986e+01,4.958909728609407243e-03
2.987999999999999901e+01,8.215175187038957147e-03
2.992000000000000171e+01,3.368096306442698151e-03
2.996000000000000085e+01,5.603123786985267536e-03
3.000000000000000000e+01,6.784018062745721112e-03
3.003999999999999915e+01,6.317854639743205811e-03
3.007999999999999829e+01,6.411629465546725588e-03
3.012000000000000099e+01,6.090552391652338977e-04
3.016000000000000014e+01,5.017909394450350939e-03
3.019999999999999929e+01,6.264454127758536418e-03
3.023999999999999844e+01,3.327541818754284255e-03
3.028000000000000114e+01,5.298678677170252406e-03
3.032000000000000028e+01,5.787457882993030447e-03
3.035999999999999943e+01,5.222102397395248820e-03
3.039999999999999858e+01,7.061337306521132257e-03
3.044000000000000128e+01,5.606500840622487790e-03
3.048000000000000043e+01,5.897449629306990120e-03
3.051999999999999957e+01,2.795505991136399727e-03
3.055999999999999872e+01,5.523937097798719241e-03
3.060000000000000142e+01,4.365371839909540190e-03
3.064000000000000057e+01,7.423109212536890648e-03
3.067999999999999972e+01,1.817515019369561960e-03
3.071999999999999886e+01,0.000000000000000000e+00
3.076000000000000156e+01,5.132827076173003197e-03
3.080000000000000071e+01,4.698704696954394966e-03
3.083999999999999986e+01,3.869250453907071511e-03
3.087999999999999901e+01,3.995014041890693028e-03
3.092000000000000171e+01,9.391166799758782907e-03
3.096000000000000085e+01,5.102839380404399459e-03
3.100000000000000000e+01,5.261394788349863655e-03
3.103999999999999915e+01,4.234051734824675894e-03
3.107999999999999829e+01,1.394945485359173074e-03
3.112000000000000099e+01,2.245096036404480369e-03
3.116000000000000014e+01,5.587977703913118164e-04
3.119999999999999929e+01,5.658138580474079450e-03
3.123999999999999844e+01,5.519930523050910892e-03
3.128000000000000114e+01,9.598022453231516010e-03
3.132000000000000028e+01,7.647999413810382605e-03
3.135999999999999943e+01,9.947216272117729435e-03
3.139999999999999858e+01,6.514779994858638235e-03
3.144000000000000128e+01,6.541017513232224613e-03
3.148000000000000043e+01,1.677867796226482217e-02
3.151999999999999957e+01,1.621188774490635309e-02
3.155999999999999872e+01,1.057224854102966315e-02
3.160000000000000142e+01,6.744270447616404138e-03
3.164000000000000057e+01,7.527873741034325945e-03
3.167999999999999972e+01,3.666850678742570972e-03
3.171999999999999886e+01,4.055066027540884036e-03
3.176000000000000156e+01,2.862097055725806426e-03
3.180000000000000071e+01,2.525521394288096286e-03
3.183999999999999986e+01,4.461769219065004830e-03
3.187999999999999901e+01,6.397963771145818643e-03
3.192000000000000171e+01,9.849355947834273484e-03
3.196000000000000085e+01,9.150224219871043452e-03
3.200000000000000000e+01,6.902847420690967455e-03
3.203999999999999915e+01,5.841265345684161850e-03
3.207999999999999829e+01,7.612489854109677143e-03
3.211999999999999744e+01,9.153078415325047179e-03
3.215999999999999659e+01,1.039715038317058811e-02
3.220000000000000284e+01,7.358936493316876014e-03
3.224000000000000199e+01,9.525225841362406839e-03
3.228000000000000114e+01,1.485372335181822136e-02
3.232000000000000028e+01,1.329765551041174436e-02
3.235999999999999943e+01,1.058862399701582940e-02
3.239999999999999858e+01,1.206294760563751678e-02
3.243999999999999773e+01,1.073729518746461761e-02
3.247999999999999687e+01,1.517612910440864146e-02
3.252000000000000313e+01,1.032575928789616904e-02
3.256000000000000227e+01,9.592863451695443286e-03
3.260000000000000142e+01,1.745731413710415597e-02
3.264000000000000057e+01,1.827249694675009070e-02
3.267999999999999972e+01,2.248046795040755524e-02
3.271999999999999886e+01,2.635897980765769533e-02
3.275999999999999801e+01,3.139034317531542995e-02
3.279999999999999716e+01,3.932039063410624341e-02
3.284000000000000341e+01,4.962207817102696344e-02
3.288000000000000256e+01,5.972606686276745597e-02
3.292000000000000171e+01,7.009351991098915213e-02
3.296000000000000085e+01,7.080942476337478975e-02
3.300000000000000000e+01,7.129469003454526332e-02
3.303999999999999915e+01,7.326220806473718317e-02
3.307999999999999829e+01,6.992628914807130780e-02
3.311999999999999744e+01,5.667529945093061072e-02
3.315999999999999659e+01,5.327338310142586131e-02
3.320000000000000284e+01,4.285513680409849119e-02
3.324000000000000199e+01,3.293093522521771399e-02
3.328000000000000114e+01,2.857357523487994919e-02
3.332000000000000028e+01,2.457849867066942348e-02
3.335999999999999943e+01,1.923281286198532183e-02
3.339999999999999858e+01,2.070569728487332492e-02
3.343999999999999773e+01,1.815981265332915207e-02
3.347999999999999687e+01,1.844672882384560189e-02
3.352000000000000313e+01,1.165143324410537924e-02
3.356000000000000227e+01,1.463932887920300213e-02
3.360000000000000142e+01,1.574957043091361475e-02
3.364000000000000057e+01,1.541038086040989914e-02
3.367999999999999972e+01,1.293001495224452985e-02
3.371999999999999886e+01,1.357891101944687373e-02
3.375999999999999801e+01,8.034980838498441413e-03
3.379999999999999716e+01,1.089075078076506310e-02
3.384000000000000341e+01,6.598427170340980495e-03
3.388000000000000256e+01,7.411779303885726762e-03
3.392000000000000171e+01,8.422711183382843025e-03
3.396000000000000085e+01,6.831302202100458798e-03
3.400000000000000000e+01,4.185743497831156956e-03
3.403999999999999915e+01,9.775182723240514668e-03
3.407999999999999829e+01,2.386104838345491121e-03
3.411999999999999744e+01,5.504901146493707334e-03
3.415999999999999659e+01,7.075443463594472543e-03
3.420000000000000284e+01,5.648361042957614209e-03
3.424000000000000199e+01,2.837725503353320106e-03
3.428000000000000114e+01,5.330405498830285971e-03
3.432000000000000028e+01,3.540790881959440632e-03
3.435999999999999943e+01,6.823909786384012993e-03
3.439999999999999858e+01,5.890614229074313951e-03
3.443999999999999773e+01,6.176043725503838414e-03
3.447999999999999687e+01,7.251974984135839235e-03
3.452000000000000313e+01,5.989084993350259241e-03
3.456000000000000227e+01,6.801365813467114170e-03
3.460000000000000142e+01,6.592434673355134986e-03
3.464000000000000057e+01,6.251677901030447057e-03
3.467999999999999972e+01,8.447254810905543629e-03
3.471999999999999886e+01,4.318240546305420272e-03
3.475999999999999801e+01,8.687743162017669621e-03
3.479999999999999716e+01,6.633833551424126417e-03
3.484000000000000341e+01,6.622153354969851670e-03
3.488000000000000256e+01,7.565674471341704045e-03
3.492000000000000171e+01,6.005671484031362486e-03
3.496000000000000085e+01,4.742064669406631516e-03
3.500000000000000000e+01,4.104256267173643155e-03
3.503999999999999915e+01,2.873457214063979050e-03
3.507999999999999829e+01,7.703595923637509939e-03
3.511999999999999744e+01,7.263229502557624374e-03
3.515999999999999659e+01,2.507624759818087752e-03
3.520000000000000284e+01,5.328208346701385559e-03
3.524000000000000199e+01,4.294716648404443490e-03
3.528000000000000114e+01,4.611707496978991426e-03
3.532000000000000028e+01,5.258033272089522418e-03
3.535999999999999943e+01,6.464275491975732084e-03
3.539999999999999858e+01,8.296314472433218359e-03
3.543999999999999773e+01,5.154309165180299274e-03
3.547999999999999687e+01,1.077433968887345390e-02
3.552000000000000313e+01,4.404054370373128996e-03
3.556000000000000227e+01,5.577015654368390474e-03
3.560000000000000142e+01,3.455884254854944652e-03
3.564000000000000057e+01,1.395079616275146997e-02
3.567999999999999972e+01,1.756112884349366257e-02
3.571999999999999886e+01,1.708680257344928274e-02
3.575999999999999801e+01,1.285721959232449807e-02
3.579999999999999716e+01,1.205335216150033723e-02
3.584000000000000341e+01,1.124941510495730199e-02
3.588000000000000256e+01,7.974890220851765799e-03
3.592000000000000171e+01,2.658000470356336985e-03
3.596000000000000085e+01,1.853853545564456166e-03
3.600000000000000000e+01,6.320074812536932013e-03
3.603999999999999915e+01,6.602815085799999643e-03
3.607999999999999829e+01,5.205532477322028818e-03
3.611999999999999744e+01,2.358808505342714721e-03
3.615999999999999659e+01,6.100061683952436725e-03
3.620000000000000284e+01,4.208462626616407687e-03
3.624000000000000199e+01,7.488410048485993030e-03
3.628000000000000114e+01,9.813019053458382768e-03
3.632000000000000028e+01,5.648329074229515440e-03
3.635999999999999943e+01,4.283487763464978622e-03
3.639999999999999858e+01,4.367945095941052659e-03
3.643999999999999773e+01,7.746354373849685150e-03
3.647999999999999687e+01,3.416675108742478657e-03
3.652000000000000313e+01,3.006812027991353792e-03
3.656000000000000227e+01,4.178007891707918517e-03
3.660000000000000142e+01,1.048780850750285695e-02
3.664000000000000057e+01,8.661296793199083424e-03
3.667999999999999972e+01,4.100672023781266537e-03
3.671999999999999886e+01,5.765679447026773354e-03
3.675999999999999801e+01,8.122358495631571904e-03
3.679999999999999716e+01,8.074326398464387947e-03
3.684000000000000341e+01,6.148626838164326924e-03
3.688000000000000256e+01,7.582757887271935476e-03
3.692000000000000171e+01,7.270982104837849826e-03
3.696000000000000085e+01,7.057952793054025377e-03
3.700000000000000000e+01,8.656562292157117533e-03
3.703999999999999915e+01,1.137506538669984420e-02
3.707999999999999829e+01,9.383039344978761839e-03
3.711999999999999744e+01,6.896834784380948338e-03
3.715999999999999659e+01,1.103154348530980405e-02
3.720000000000000284e+01,1.019220063051812404e-02
3.724000000000000199e+01,1.063745174769994452e-02
3.728000000000000114e+01,7.360380117372339846e-03
3.732000000000000028e+01,1.452528898454649199e-02
3.735999999999999943e+01,1.506913361083085830e-02
3.739999999999999858e+01,1.343884629703427126e-02
3.743999999999999773e+01,9.568546396997041834e-03
3.747999999999999687e+01,1.291208276582887782e-02
3.752000000000000313e+01,1.141332721943907717e-02
3.756000000000000227e+01,1.251677394311924950e-02
3.760000000000000142e+01,1.480599243066800345e-02
3.764000000000000057e+01,2.173970776822957071e-02
3.767999999999999972e+01,1.935125782336158742e-02
3.771999999999999886e+01,2.480250772555800051e-02
3.775999999999999801e+01,3.407474797000051292e-02
3.779999999999999716e+01,6.004761242263626647e-02
3.784000000000000341e+01,7.567716347696085144e-02
3.788000000000000256e+01,7.262952012412035585e-02
3.792000000000000171e+01,7.939799022176328991e-02
3.796000000000000085e+01,7.088211035222569123e-02
3.800000000000000000e+01,7.465286163946900644e-02
3.803999999999999915e+01,9.535481782723502497e-02
3.807999999999999829e+01,1.354255565465145028e-01
3.811999999999999744e+01,1.919992767095978770e-01
3.815999999999999659e+01,2.828966482557554452e-01
3.820000000000000284e+01,4.569680476647274836e-01
3.824000000000000199e+01,7.494265918538819404e-01
3.828000000000000114e+01,9.649366545593257571e-01
3.832000000000000028e+01,1.000000000000000000e+00
3.835999999999999943e+01,8.843946054126172740e-01
3.839999999999999858e+01,7.357500694175767020e-01
3.843999999999999773e+01,5.374974508838191722e-01
3.847999999999999687e+01,3.980760213353625177e-01
3.852000000000000313e+01,3.100412862565512517e-01
3.856000000000000227e+01,2.220064703196419076e-01
3.860000000000000142e+01,1.655942042287208704e-01
3.864000000000000057e+01,1.270684075347676689e-01
3.867999999999999972e+01,7.935220239078896731e-02
3.871999999999999886e+01,6.516908054560419106e-02
3.875999999999999801e+01,6.076912844159097771e-02
3.879999999999999716e+01,5.406327765416985703e-02
3.884000000000000341e+01,4.656677908064454918e-02
3.888000000000000256e+01,4.443945752724261233e-02
3.892000000000000171e+01,4.514491431114276559e-02
3.896000000000000085e+01,3.791169062731833406e-02
3.900000000000000000e+01,3.756289453055693811e-02
3.903999999999999915e+01,3.401881226609713288e-02
3.907999999999999829e+01,2.797118871902215184e-02
3.911999999999999744e+01,2.169290031787863074e-02
3.915999999999999659e+01,2.503307880364209759e-02
3.920000000000000284e+01,3.370949274758373859e-02
3.924000000000000199e+01,4.264934494924298852e-02
3.928000000000000114e+01,6.871803837371437407e-02
3.932000000000000028e+01,1.086215488069337265e-01
3.935999999999999943e+01,1.135424396792856505e-01
3.939999999999999858e+01,1.026189905495933224e-01
3.943999999999999773e+01,7.535709764534238853e-02
3.947999999999999687e+01,5.801013247094147229e-02
3.952000000000000313e+01,3.338328932604373023e-02
3.956000000000000227e+01,1.942899911187478609e-02
3.960000000000000142e+01,1.558727757494264045e-02
3.964000000000000057e+01,1.217369384635174322e-02
3.967999999999999972e+01,1.923502111001057849e-02
3.971999999999999886e+01,1.839060500797475017e-02
3.975999999999999801e+01,1.626143371331531182e-02
3.979999999999999716e+01,1.686621640048642512e-02
3.984000000000000341e+01,1.325456216116473532e-02
3.988000000000000256e+01,1.036750690349139310e-02
3.992000000000000171e+01,1.054380753699067641e-02
3.996000000000000085e+01,1.131294585981893440e-02
4.000000000000000000e+01,8.853853810090829557e-03
4.003999999999999915e+01,8.041686814969884259e-03
4.007999999999999829e+01,6.669448596523011238e-03
4.011999999999999744e+01,7.306477747696248255e-03
4.015999999999999659e+01,9.162208331575820430e-03
4.020000000000000284e+01,7.657946755033506747e-03
4.024000000000000199e+01,7.339446040344606466e-03
4.028000000000000114e+01,1.192895319756390356e-02
4.032000000000000028e+01,1.154439591486291182e-02
4.035999999999999943e+01,7.108100760746602874e-03
4.039999999999999858e+01,1.018209198160922521e-02
4.043999999999999773e+01,1.111487894904406200e-02
4.047999999999999687e+01,9.247656688092648763e-03
4.052000000000000313e+01,9.916743992761985899e-03
4.056000000000000227e+01,1.088220434463018325e-02
4.060000000000000142e+01,6.972419821770234859e-03
4.064000000000000057e+01,4.577796913831434431e-03
4.067999999999999972e+01,4.983004834695769179e-03
4.071999999999999886e+01,7.002194761583630141e-03
4.075999999999999801e+01,4.837884203280385341e-03
4.079999999999999716e+01,7.285117205119325846e-03
4.084000000000000341e+01,8.217008870997612180e-03
4.088000000000000256e+01,6.348889656669151269e-03
4.092000000000000171e+01,1.001464024062371366e-02
4.096000000000000085e+01,1.084743937351862440e-02
4.100000000000000000e+01,7.002633422797828293e-03
4.103999999999999915e+01,1.060223072316555763e-02
4.107999999999999829e+01,1.212650160817037651e-02
4.111999999999999744e+01,2.125987661634372999e-02
4.115999999999999659e+01,3.974818832841111454e-02
4.120000000000000284e+01,3.540882162161194946e-02
4.124000000000000199e+01,2.767651821916882610e-02
4.128000000000000114e+01,3.061676064462643190e-02
4.132000000000000028e+01,2.255487049115824719e-02
4.135999999999999943e+01,1.646930234617784844e-02
4.139999999999999858e+01,1.173419147521557841e-02
4.143999999999999773e+01,7.723673143801785927e-03
4.147999999999999687e+01,7.896472438080667094e-03
4.152000000000000313e+01,8.991505384476858667e-03
4.156000000000000227e+01,7.023002718660927186e-03
4.160000000000000142e+01,6.602597943885805433e-03
4.164000000000000057e+01,4.930370453419639400e-03
4.167999999999999972e+01,9.351993711087552841e-03
4.171999999999999886e+01,6.131387267868966887e-03
4.175999999999999801e+01,5.743547434027039024e-03
4.179999999999999716e+01,7.299087551181556235e-03
4.184000000000000341e+01,8.722772303354706103e-03
4.188000000000000256e+01,5.699430021328840724e-03
4.192000000000000171e+01,7.287626674347812139e-03
4.196000000000000085e+01,9.369832036126872141e-03
4.200000000000000000e+01,1.132018137219637822e-02
4.203999999999999915e+01,1.165636369537732808e-02
4.207999999999999829e+01,8.204322968225451207e-03
4.211999999999999744e+01,7.321525439901233230e-03
4.215999999999999659e+01,5.746887136829302231e-03
4.220000000000000284e+01,7.235595309553249400e-03
4.224000000000000199e+01,4.837259049749719104e-03
4.228000000000000114e+01,2.438826569917589091e-03
4.232000000000000028e+01,7.089509169482580662e-03
4.235999999999999943e+01,5.909672652133485596e-03
4.239999999999999858e+01,4.466217495299062805e-03
4.243999999999999773e+01,5.196721329970063058e-03
4.247999999999999687e+01,4.774219701593473107e-03
4.252000000000000313e+01,3.923397735741304161e-03
4.256000000000000227e+01,5.279474506337228368e-03
4.260000000000000142e+01,4.823740508562992906e-03
4.264000000000000057e+01,5.883159866607499087e-03
4.267999999999999972e+01,7.403644719646424940e-03
4.271999999999999886e+01,5.399425803350319658e-03
4.275999999999999801e+01,7.512638745943707279e-03
4.279999999999999716e+01,8.835187549410157548e-03
4.284000000000000341e+01,9.465892770034081694e-03
4.288000000000000256e+01,7.197758129882394183e-03
4.292000000000000171e+01,8.289429156649116490e-03
4.296000000000000085e+01,8.590435383560688851e-03
4.300000000000000000e+01,4.938513558508237332e-03
4.303999999999999915e+01,3.065265361364618527e-03
4.307999999999999829e+01,5.507089144587042594e-03
4.311999999999999744e+01,5.577115923762709232e-03
4.315999999999999659e+01,4.329433229351853200e-03
4.320000000000000284e+01,5.025124704565741424e-03
4.324000000000000199e+01,5.325433109516025665e-03
4.328000000000000114e+01,4.835075393154781610e-03
4.332000000000000028e+01,6.057509667450402223e-03
4.335999999999999943e+01,7.806887109623263793e-03
4.339999999999999858e+01,3.462219216238208216e-03
4.343999999999999773e+01,3.794964461957791527e-03
4.347999999999999687e+01,3.798206127299117579e-03
4.352000000000000313e+01,6.733027855473446358e-03
4.356000000000000227e+01,5.879620421579173813e-03
4.360000000000000142e+01,5.454334443003385630e-03
4.364000000000000057e+01,5.918333121407538117e-03
4.367999999999999972e+01,6.085767634012006697e-03
4.371999999999999886e+01,1.773227273554434796e-03
4.375999999999999801e+01,2.006337768789816494e-03
4.379999999999999716e+01,4.973385727650961492e-03
4.384000000000000341e+01,7.050944531185436744e-03
4.388000000000000256e+01,6.493181268303673329e-03
4.392000000000000171e+01,1.021754627647611380e-02
4.396000000000000085e+01,1.229479610253286261e-02
4.400000000000000000e+01,1.746832521168214733e-02
4.403999999999999915e+01,1.796423668338007276e-02
4.407999999999999829e+01,1.796594089452490176e-02
4.411999999999999744e+01,2.126156533614906655e-02
4.415999999999999659e+01,1.365386619238847035e-02
4.420000000000000284e+01,1.675164105872791603e-02
4.424000000000000199e+01,1.280010014651063004e-02
4.428000000000000114e+01,1.138485327280156986e-02
4.432000000000000028e+01,1.010126271673474768e-02
4.435999999999999943e+01,7.038794364776457431e-03
4.439999999999999858e+01,9.049018073419510741e-03
4.443999999999999773e+01,7.765112593321221376e-03
4.447999999999999687e+01,1.043393066684024893e-02
4.452000000000000313e+01,6.316953729438774291e-03
4.456000000000000227e+01,6.482102420178726017e-03
4.460000000000000142e+01,8.261217094283535359e-03
4.464000000000000057e+01,7.108544399113799796e-03
4.467999999999999972e+01,5.395781484682608820e-03
4.471999999999999886e+01,5.231103577092484878e-03
4.475999999999999801e+01,4.242813195966232617e-03
4.479999999999999716e+01,5.823754946470425901e-03
4.484000000000000341e+01,4.571729223256281588e-03
4.488000000000000256e+01,6.152457225219059612e-03
4.492000000000000171e+01,5.361380789942911222e-03
4.496000000000000085e+01,5.163121396239723007e-03
4.500000000000000000e+01,5.327097195505682212e-03
4.503999999999999915e+01,3.745132631274186111e-03
4.507999999999999829e+01,3.678311346756516376e-03
4.511999999999999744e+01,5.126633176770600125e-03
4.515999999999999659e+01,4.367850780897587423e-03
4.520000000000000284e+01,5.914776940923954264e-03
4.524000000000000199e+01,6.638088645229621790e-03
4.528000000000000114e+01,1.009533170142525374e-02
4.532000000000000028e+01,9.006712796299273099e-03
4.535999999999999943e+01,6.600375332574126563e-03
4.539999999999999858e+01,7.850295458879790259e-03
4.543999999999999773e+01,9.660090404085018567e-03
4.547999999999999687e+01,4.717026614489407306e-03
4.552000000000000313e+01,4.089024729154901519e-03
4.556000000000000227e+01,5.503207989170766541e-03
4.560000000000000142e+01,7.477265407358003532e-03
4.564000000000000057e+01,5.004280264233703333e-03
4.567999999999999972e+01,5.298165061667704442e-03
4.571999999999999886e+01,7.206011217369215523e-03
4.575999999999999801e+01,5.127977683056548532e-03
4.579999999999999716e+01,7.002662251353606107e-03
4.584000000000000341e+01,7.131403152512247323e-03
4.588000000000000256e+01,5.645961183305706239e-03
4.592000000000000171e+01,1.755770406820225758e-03
4.596000000000000085e+01,5.013500399631947053e-03
4.600000000000000000e+01,3.725365623027244825e-03
4.603999999999999915e+01,5.829963869630017809e-03
4.607999999999999829e+01,5.002768800404506881e-03
4.611999999999999744e+01,7.140083297667715323e-03
4.615999999999999659e+01,7.827914970735488573e-03
4.620000000000000284e+01,2.948733593323140008e-03
4.624000000000000199e+01,5.876276638710088880e-03
4.628000000000000114e+01,6.234368187735560285e-03
4.632000000000000028e+01,1.212630723546756321e-02
4.635999999999999943e+01,1.070539982608370230e-02
4.639999999999999858e+01,1.096433144785017091e-02
4.643999999999999773e+01,8.653810912526959873e-03
4.647999999999999687e+01,8.879575330699348776e-03
4.652000000000000313e+01,6.404126299462666906e-03
4.656000000000000227e+01,8.177854396776203932e-03
4.660000000000000142e+01,3.132838653213915886e-03
4.664000000000000057e+01,9.188569729512581150e-03
4.667999999999999972e+01,9.809046735101818043e-03
4.671999999999999886e+01,7.267146098528260573e-03
4.675999999999999801e+01,4.560429539092599079e-03
4.679999999999999716e+01,4.093534447296749354e-03
4.684000000000000341e+01,4.911193683782859656e-03
4.688000000000000256e+01,5.102873135017220452e-03
4.692000000000000171e+01,6.019122495859455073e-03
4.696000000000000085e+01,6.375272222063508611e-03
4.700000000000000000e+01,6.665425755779628980e-03
4.703999999999999915e+01,6.659001248404033783e-03
4.707999999999999829e+01,6.586580218176408229e-03
4.711999999999999744e+01,3.944704222764302062e-03
4.715999999999999659e+01,4.959078549372889638e-03
4.720000000000000284e+01,6.961543553225592665e-03
4.724000000000000199e+01,7.218059108568199329e-03
4.728000000000000114e+01,1.162492809771768429e-02
4.732000000000000028e+01,1.319881937186186474e-02
4.735999999999999943e+01,1.266441805657275363e-02
4.739999999999999858e+01,1.433689549070391207e-02
4.743999999999999773e+01,1.284699230939541706e-02
4.747999999999999687e+01,1.478275644522947935e-02
4.752000000000000313e+01,1.029505582686646506e-02
4.756000000000000227e+01,8.178934499639632302e-03
4.760000000000000142e+01,1.047668720867387521e-02
4.764000000000000057e+01,5.560408896233170334e-03
4.767999999999999972e+01,6.375613909242291294e-03
4.771999999999999886e+01,7.190700237464263921e-03
4.775999999999999801e+01,3.986958376080835392e-03
4.779999999999999716e+01,5.757073813358195603e-03
4.784000000000000341e+01,7.988233437145763130e-03
4.788000000000000256e+01,4.224149946452494461e-03
4.792000000000000171e+01,5.335102537407402853e-03
4.796000000000000085e+01,5.161266073418844212e-03
4.800000000000000000e+01,6.403740109388123339e-03
4.803999999999999915e+01,5.636739469295760224e-03
4.807999999999999829e+01,7.010734289551209635e-03
4.811999999999999744e+01,3.805915345252856678e-03
4.815999999999999659e+01,1.885645278228858602e-03
4.820000000000000284e+01,6.026258794176279042e-03
4.824000000000000199e+01,4.830432518780860239e-03
4.828000000000000114e+01,4.688572941691905235e-03
4.832000000000000028e+01,8.466480820254827788e-03
4.835999999999999943e+01,6.117382640197044016e-03
4.839999999999999858e+01,4.855190903388408898e-03
4.843999999999999773e+01,7.446885645707867693e-03
4.847999999999999687e+01,5.525645617812726361e-03
4.852000000000000313e+01,6.898307650371618763e-03
4.856000000000000227e+01,6.063851416569327087e-03
4.860000000000000142e+01,3.055216991712602585e-03
4.864000000000000057e+01,4.526332789361346351e-03
4.867999999999999972e+01,4.679716318300925111e-03
4.871999999999999886e+01,5.030618475835089802e-03
4.875999999999999801e+01,5.414337894337675934e-03
4.879999999999999716e+01,5.962635370581918434e-03
4.884000000000000341e+01,4.139112221746525135e-03
4.888000000000000256e+01,4.324820267662693278e-03
4.892000000000000171e+01,2.830452408400386654e-03
4.896000000000000085e+01,5.651132247743045380e-03
4.900000000000000000e+01,8.339927154517730659e-03
4.903999999999999915e+01,6.746366661950892706e-03
4.907999999999999829e+01,4.856219704007881666e-03
4.911999999999999744e+01,8.697550124960968729e-03
4.915999999999999659e+01,4.336636032856644972e-03
4.920000000000000284e+01,5.740139229773137154e-03
4.924000000000000199e+01,5.496505440543584739e-03
4.928000000000000114e+01,6.702117105935154369e-03
4.932000000000000028e+01,5.898248809439544070e-03
4.935999999999999943e+01,6.214223232312741582e-03
4.939999999999999858e+01,7.650040209372692239e-03
4.943999999999999773e+01,5.923468311890582247e-03
4.947999999999999687e+01,4.592053347477060600e-03
4.952000000000000313e+01,5.796910782723476915e-03
4.956000000000000227e+01,4.926406784012781273e-03
4.960000000000000142e+01,4.516939703802180794e-03
4.964000000000000057e+01,3.942644807622018230e-03
4.967999999999999972e+01,6.398725257705920044e-03
4.971999999999999886e+01,5.560654715018123646e-03
4.975999999999999801e+01,6.600050771121550829e-03
4.979999999999999716e+01,5.926427047552614361e-03
4.984000000000000341e+01,8.414938971474833149e-03
4.988000000000000256e+01,5.237601926702027330e-03
4.992000000000000171e+01,6.770591502030892835e-03
4.996000000000000085e+01,6.722321598914489903e-03
5.000000000000000000e+01,6.245700469279510947e-03
5.003999999999999915e+01,1.018294329980066679e-02
5.007999999999999829e+01,6.214399982476701348e-03
5.011999999999999744e+01,4.716246106104306224e-03
5.015999999999999659e+01,6.248465593811400147e-03
5.020000000000000284e+01,5.870022207092719622e-03
5.024000000000000199e+01,4.009138907120906800e-03
5.028000000000000114e+01,3.828078615640749700e-03
5.032000000000000028e+01,6.249167901157210402e-03
5.035999999999999943e+01,6.858414372986173374e-03
5.039999999999999858e+01,5.952280030344978164e-03
5.043999999999999773e+01,5.869521782757907043e-03
5.047999999999999687e+01,5.457231047934146990e-03
5.052000000000000313e+01,5.209511268023981484e-03
5.056000000000000227e+01,6.411031656909400335e-03
5.060000000000000142e+01,6.426572810302630737e-03
5.064000000000000057e+01,4.202046867379351583e-03
5.067999999999999972e+01,6.589023684632354556e-03
5.071999999999999886e+01,4.858339367341932627e-03
5.075999999999999801e+01,7.607396517908419052e-03
5.079999999999999716e+01,5.612927634279765189e-03
5.084000000000000341e+01,6.912351230546362989e-03
5.088000000000000256e+01,5.082320246205967486e-03
5.092000000000000171e+01,5.261512032332683712e-03
5.096000000000000085e+01,5.737033918325758208e-03
5.100000000000000000e+01,4.927754195539701086e-03
5.103999999999999915e+01,7.478246607716282704e-03
5.107999999999999829e+01,8.381594435372613852e-03
5.111999999999999744e+01,6.320187893773771687e-03
5.115999999999999659e+01,5.839780005195079754e-03
5.120000000000000284e+01,9.279127679160798642e-03
5.124000000000000199e+01,7.645545097040643001e-03
5.128000000000000114e+01,1.009641894954490908e-02
5.132000000000000028e+01,8.396688949286206308e-03
5.135999999999999943e+01,5.049813208232905096e-03
5.139999999999999858e+01,8.323791923897129463e-03
5.143999999999999773e+01,8.237732062983952469e-03
5.147999999999999687e+01,8.415059914081680914e-03
5.152000000000000313e+01,6.187615832413718292e-03
5.156000000000000227e+01,8.736372079361105422e-03
5.160000000000000142e+01,5.355750330874827804e-03
5.164000000000000057e+01,4.116109341534069863e-03
5.167999999999999972e+01,6.433879287176112738e-03
5.171999999999999886e+01,7.631545853206279061e-03
5.175999999999999801e+01,5.897395647557331262e-03
5.179999999999999716e+01,3.570185579753542074e-03
5.184000000000000341e+01,5.195668672070222899e-03
5.188000000000000256e+01,6.326912293334424099e-03
5.192000000000000171e+01,6.338051709076504905e-03
5.196000000000000085e+01,2.956210160385729785e-03
5.200000000000000000e+01,4.119985439886022192e-03
5.203999999999999915e+01,3.801313372941002473e-03
5.207999999999999829e+01,5.393038564717227146e-03
5.211999999999999744e+01,4.909391750885276628e-03
5.215999999999999659e+01,6.994946675186900463e-03
5.220000000000000284e+01,7.301591427915633120e-03
5.224000000000000199e+01,7.476337868330504288e-03
5.228000000000000114e+01,7.881528476626490504e-03
5.232000000000000028e+01,7.957178999311576711e-03
5.235999999999999943e+01,7.373886866315507681e-03
5.239999999999999858e+01,8.536289468140206144e-03
5.243999999999999773e+01,1.048911966542779087e-02
5.247999999999999687e+01,1.464880763401552738e-02
5.252000000000000313e+01,1.327439669384836152e-02
5.256000000000000227e+01,1.038459601938043590e-02
5.260000000000000142e+01,9.174608772845383939e-03
5.264000000000000057e+01,1.148908825643516103e-02
5.267999999999999972e+01,8.104766968097719404e-03
5.271999999999999886e+01,8.179031598543363979e-03
5.275999999999999801e+01,5.090893644336945759e-03
5.279999999999999716e+01,3.353165887264956783e-03
5.284000000000000341e+01,4.975202831963434526e-03
5.288000000000000256e+01,5.575952328237101033e-03
5.292000000000000171e+01,6.736545754367334257e-03
5.296000000000000085e+01,4.339452884069395534e-03
5.300000000000000000e+01,3.720992511350316480e-03
5.303999999999999915e+01,7.417562988667307684e-03
5.307999999999999829e+01,6.403538256901234946e-03
5.311999999999999744e+01,5.685834705170913703e-03
5.315999999999999659e+01,6.153838661492477130e-03
5.320000000000000284e+01,7.511087796284471145e-03
5.324000000000000199e+01,5.047127554463398148e-03
5.328000000000000114e+01,6.964077652563746904e-03
5.332000000000000028e+01,8.287961611591423278e-03
5.335999999999999943e+01,5.527113774549313741e-03
5.339999999999999858e+01,6.389550250639580188e-03
5.343999999999999773e+01,6.658920092111038011e-03
5.347999999999999687e+01,5.017613514228773906e-03
5.352000000000000313e+01,5.319638489002851030e-03
5.356000000000000227e+01,7.268532686851833513e-03
5.360000000000000142e+01,4.704470971184051241e-03
5.364000000000000057e+01,3.095533097961831494e-03
5.367999999999999972e+01,6.196906317728750717e-03
5.371999999999999886e+01,6.992319241183820623e-03
5.375999999999999801e+01,5.942935069988474969e-03
5.379999999999999716e+01,4.201662056069411372e-03
5.384000000000000341e+01,5.260165526059677396e-03
5.388000000000000256e+01,5.560899341984480021e-03
5.392000000000000171e+01,6.783815603591678706e-03
5.396000000000000085e+01,6.557216830504092840e-03
5.400000000000000000e+01,4.914043098028477580e-03
5.403999999999999915e+01,8.014119212392397176e-03
5.407999999999999829e+01,8.116488493540774049e-03
5.411999999999999744e+01,6.077597029000915939e-03
5.415999999999999659e+01,6.970241688869265734e-03
5.420000000000000284e+01,9.806215093299139318e-03
5.424000000000000199e+01,8.030409219833039430e-03
5.428000000000000114e+01,9.482601139628383732e-03
5.432000000000000028e+01,6.685356096540687708e-03
5.435999999999999943e+01,8.796060781280250207e-03
5.439999999999999858e+01,7.052611058638524021e-03
5.443999999999999773e+01,9.525365683194708319e-03
5.447999999999999687e+01,7.583981481695545486e-03
5.452000000000000313e+01,8.047088070145022587e-03
5.456000000000000227e+01,8.510047727677123169e-03
5.460000000000000142e+01,1.180572097114844163e-02
5.464000000000000057e+01,1.230132651178847923e-02
5.467999999999999972e+01,1.474025881480545141e-02
5.471999999999999886e+01,1.444500356560468775e-02
5.475999999999999801e+01,1.750950508943609901e-02
5.479999999999999716e+01,1.612692622526694028e-02
5.484000000000000341e+01,1.642415153883597032e-02
5.488000000000000256e+01,1.876352351033817867e-02
5.492000000000000171e+01,2.037806177353049947e-02
5.496000000000000085e+01,2.574763886971060192e-02
5.500000000000000000e+01,2.864654918130920061e-02
5.503999999999999915e+01,3.223705563007110697e-02
5.507999999999999829e+01,3.997788330214049890e-02
5.511999999999999744e+01,5.308782093042173356e-02
5.515999999999999659e+01,6.708699564325304454e-02
5.520000000000000284e+01,7.288390090053771531e-02
5.524000000000000199e+01,8.490636187119740552e-02
5.528000000000000114e+01,8.207262447720441167e-02
5.532000000000000028e+01,8.207159769587378528e-02
5.535999999999999943e+01,7.620705787297460398e-02
5.539999999999999858e+01,7.581044757147938074e-02
5.543999999999999773e+01,6.750802898774457828e-02
5.547999999999999687e+01,5.149744339952111449e-02
5.552000000000000313e+01,4.230533669719712536e-02
5.556000000000000227e+01,3.815293572919425946e-02
5.560000000000000142e+01,3.416508473798485906e-02
5.564000000000000057e+01,2.661953638315008031e-02
5.567999999999999972e+01,1.996322296549876696e-02
5.571999999999999886e+01,1.775369029264156975e-02
5.575999999999999801e+01,1.475343996167383445e-02
5.579999999999999716e+01,1.382827272994098869e-02
5.584000000000000341e+01,1.349587761026401801e-02
5.588000000000000256e+01,1.138455712226572013e-02
5.592000000000000171e+01,1.210594476919905904e-02
5.596000000000000085e+01,1.009313974327116607e-02
5.600000000000000000e+01,1.008953650969026880e-02
5.603999999999999915e+01,7.911724361194010652e-03
5.607999999999999829e+01,8.599559927390015152e-03
5.611999999999999744e+01,1.185658087869682908e-02
5.615999999999999659e+01,7.010149131554281599e-03
5.620000000000000284e+01,9.015133702705254923e-03
5.624000000000000199e+01,8.252984204231818624e-03
5.628000000000000114e+01,9.401214620364585842e-03
5.632000000000000028e+01,9.330501939483471646e-03
5.635999999999999943e+01,6.525594933920641355e-03
5.639999999999999858e+01,8.562748750922968138e-03
5.643999999999999773e+01,6.910440938703663744e-03
5.647999999999999687e+01,9.540209530375468386e-03
5.652000000000000313e+01,8.612277124416818641e-03
5.656000000000000227e+01,1.051705021047703512e-02
5.660000000000000142e+01,9.621747499785605201e-03
5.664000000000000057e+01,8.890990471154408548e-03
5.667999999999999972e+01,9.016524009666642206e-03
5.671999999999999886e+01,5.946698370015228788e-03
5.675999999999999801e+01,7.982453990201112543e-03
5.679999999999999716e+01,6.131105051594003784e-03
5.684000000000000341e+01,8.891233435127772478e-03
5.688000000000000256e+01,7.566615486571527487e-03
5.692000000000000171e+01,9.272342986328639680e-03
5.696000000000000085e+01,1.269080614966419662e-02
5.700000000000000000e+01,7.874052183772104613e-03
5.703999999999999915e+01,6.285284613580146250e-03
5.707999999999999829e+01,8.089204476350388834e-03
5.711999999999999744e+01,8.937699862376358162e-03
5.715999999999999659e+01,6.623774493724976509e-03
5.720000000000000284e+01,6.088464278537399771e-03
5.724000000000000199e+01,5.190653419858184611e-03
5.728000000000000114e+01,5.313831853035797144e-03
5.732000000000000028e+01,8.401473601728638718e-03
5.735999999999999943e+01,1.165365805920484145e-02
5.739999999999999858e+01,9.931707544026231738e-03
5.743999999999999773e+01,8.242538445311595532e-03
5.747999999999999687e+01,9.353130798939896309e-03
5.752000000000000313e+01,7.597763075651807300e-03
5.756000000000000227e+01,1.038798922025008752e-02
5.760000000000000142e+01,7.874677161395084862e-03
5.764000000000000057e+01,5.855309059937335858e-03
5.767999999999999972e+01,7.327446635177520436e-03
5.771999999999999886e+01,8.371201103763856871e-03
5.775999999999999801e+01,4.638460555989865758e-03
5.779999999999999716e+01,4.463105670345317647e-03
5.784000000000000341e+01,6.395765700140016580e-03
5.788000000000000256e+01,6.483611621533351931e-03
5.792000000000000171e+01,8.317129482624811138e-03
5.796000000000000085e+01,9.689323005481299128e-03
5.800000000000000000e+01,7.108526533105709311e-03
5.803999999999999915e+01,8.579218339099593457e-03
5.807999999999999829e+01,7.776872084427201119e-03
5.811999999999999744e+01,7.336706843012185363e-03
5.815999999999999659e+01,7.423423652116603079e-03
5.820000000000000284e+01,6.587651765050280862e-03
5.824000000000000199e+01,6.179940876672827300e-03
5.828000000000000114e+01,7.056737074511559675e-03
5.832000000000000028e+01,6.780462397211657784e-03
5.835999999999999943e+01,5.581698363012801631e-03
5.839999999999999858e+01,4.316891059442311100e-03
5.843999999999999773e+01,6.477705813133204267e-03
5.847999999999999687e+01,4.125544501097483906e-03
5.852000000000000313e+01,7.735403433598297962e-03
5.856000000000000227e+01,7.029927412941323547e-03
5.860000000000000142e+01,6.093706094558374101e-03
5.864000000000000057e+01,4.959679553756205644e-03
5.867999999999999972e+01,5.670142535659707106e-03
5.871999999999999886e+01,6.545142610156946122e-03
5.875999999999999801e+01,6.398830954468290311e-03
5.879999999999999716e+01,5.033565960478764492e-03
5.884000000000000341e+01,4.425761892335611930e-03
5.888000000000000256e+01,5.168342913655574189e-03
5.892000000000000171e+01,4.988432265527915736e-03
5.896000000000000085e+01,7.114173350675090206e-03
5.900000000000000000e+01,4.265772855885517981e-03
5.903999999999999915e+01,4.250067611827825116e-03
5.907999999999999829e+01,6.243551441099428646e-03
5.911999999999999744e+01,7.083961091591431218e-03
5.915999999999999659e+01,8.352427941585196039e-03
5.920000000000000284e+01,4.580871904754332466e-03
5.924000000000000199e+01,7.166616025049009527e-03
5.928000000000000114e+01,4.646456447177302329e-03
5.932000000000000028e+01,4.234305673009065851e-03
5.935999999999999943e+01,5.172538006119367128e-03
5.939999999999999858e+01,6.571766788127979264e-03
5.943999999999999773e+01,4.215641071283693364e-03
5.947999999999999687e+01,3.605180852037658673e-03
5.952000000000000313e+01,5.201549332051321958e-03
5.956000000000000227e+01,5.051917487484059582e-03
5.960000000000000142e+01,4.935058139550184755e-03
5.964000000000000057e+01,4.719210161112367095e-03
5.967999999999999972e+01,5.293759880186722430e-03
5.971999999999999886e+01,4.879934145194856840e-03
5.975999999999999801e+01,4.268298562686439340e-03
5.979999999999999716e+01,5.896430763652201618e-03
5.984000000000000341e+01,3.769206813944593355e-03
5.988000000000000256e+01,7.505176771117430881e-03
5.992000000000000171e+01,7.321089044808689987e-03
5.996000000000000085e+01,8.915605074402444333e-03
