2.003999999999999915e+01,6.264389947306948578e-03
2.007999999999999829e+01,1.163771777803339694e-02
2.012000000000000099e+01,1.297484695421822175e-02
2.016000000000000014e+01,5.029294824660269884e-03
2.019999999999999929e+01,9.594145829428852093e-03
2.023999999999999844e+01,4.472740931744304330e-03
2.028000000000000114e+01,3.790227635345334682e-03
2.032000000000000028e+01,6.739455199535185348e-03
2.035999999999999943e+01,6.863214088425531947e-03
2.039999999999999858e+01,7.289215936542451160e-03
2.044000000000000128e+01,1.064070284312712208e-02
2.048000000000000043e+01,1.035957136523416901e-02
2.051999999999999957e+01,6.546715925679805204e-03
2.055999999999999872e+01,8.080800861238971594e-03
2.060000000000000142e+01,1.082517649833414190e-02
2.064000000000000057e+01,7.011012509335900339e-03
2.067999999999999972e+01,9.350941699185020411e-03
2.071999999999999886e+01,1.078239108965109265e-02
2.076000000000000156e+01,1.281876980234831001e-02
2.080000000000000071e+01,1.071806472135721638e-02
2.083999999999999986e+01,9.625865622343776282e-03
2.087999999999999901e+01,1.065200599869433641e-02
2.092000000000000171e+01,8.751791013318374265e-03
2.096000000000000085e+01,9.070810441881897723e-03
2.100000000000000000e+01,6.362581633180507991e-03
2.103999999999999915e+01,9.102193295761029992e-03
2.107999999999999829e+01,6.594891797341307857e-03
2.112000000000000099e+01,1.074615868640603489e-02
2.116000000000000014e+01,8.641574375419109819e-03
2.119999999999999929e+01,1.087499962112434097e-02
2.123999999999999844e+01,7.054362512410460202e-03
2.128000000000000114e+01,6.361009107223349057e-03
2.132000000000000028e+01,1.242712057537415267e-02
2.135999999999999943e+01,8.201627139989909818e-03
2.139999999999999858e+01,8.213251933037252900e-03
2.144000000000000128e+01,5.601209790399774499e-03
2.148000000000000043e+01,1.156472491116329084e-02
2.151999999999999957e+01,1.076792393842370896e-02
2.155999999999999872e+01,8.154608833733147447e-03
2.160000000000000142e+01,7.356960766902739292e-03
2.164000000000000057e+01,7.063359461950794414e-03
2.167999999999999972e+01,1.070419827457442033e-02
2.171999999999999886e+01,1.329301334957788032e-03
2.176000000000000156e+01,1.082114378887060434e-02
2.180000000000000071e+01,1.183747733962645966e-02
2.183999999999999986e+01,1.285339069577223770e-02
2.187999999999999901e+01,1.134653669664235573e-02
2.192000000000000171e+01,7.316915857996125760e-03
2.196000000000000085e+01,1.105570721540630012e-02
2.200000000000000000e+01,8.538658203709860797e-03
2.203999999999999915e+01,1.257929553490447390e-02
2.207999999999999829e+01,8.749791015599115568e-03
2.212000000000000099e+01,9.056520101335532175e-03
2.216000000000000014e+01,1.097713563144807683e-02
2.219999999999999929e+01,8.760685419447316116e-03
2.223999999999999844e+01,8.259016590398293722e-03
2.228000000000000114e+01,8.059614961262357574e-03
2.232000000000000028e+01,1.169376779479361361e-02
2.235999999999999943e+01,6.953312852854902706e-03
2.239999999999999858e+01,7.761609825070898798e-03
2.244000000000000128e+01,5.845358848527256422e-03
2.248000000000000043e+01,1.230289021525274133e-02
2.251999999999999957e+01,5.845590051980648419e-03
2.255999999999999872e+01,3.726316981216445251e-03
2.260000000000000142e+01,3.422723842294528307e-03
2.264000000000000057e+01,9.273249154425032559e-03
2.267999999999999972e+01,5.942019560703888474e-03
2.271999999999999886e+01,6.847925215470798688e-03
2.276000000000000156e+01,9.771300679231148881e-03
2.280000000000000071e+01,1.087817799957840718e-02
2.283999999999999986e+01,7.545316108789975988e-03
2.287999999999999901e+01,1.097193920595160299e-02
2.292000000000000171e+01,9.151672867040182291e-03
2.296000000000000085e+01,9.651560637089599826e-03
2.300000000000000000e+01,9.242998006035308203e-03
2.303999999999999915e+01,5.807213441439723622e-03
2.307999999999999829e+01,1.417561179644040610e-02
2.312000000000000099e+01,1.376583654716958920e-02
2.316000000000000014e+01,7.705599328153450202e-03
2.319999999999999929e+01,6.185185267907782926e-03
2.323999999999999844e+01,6.177777670482029887e-03
2.328000000000000114e+01,8.187846586920431019e-03
2.332000000000000028e+01,1.080287783418435767e-02
2.335999999999999943e+01,6.657616712872426769e-03
2.339999999999999858e+01,7.960226492640372006e-03
2.344000000000000128e+01,8.858861079941743322e-03
2.348000000000000043e+01,8.243688012908863966e-03
2.351999999999999957e+01,8.132585948440960652e-03
2.355999999999999872e+01,9.837176194038227753e-03
2.360000000000000142e+01,1.194494456666205483e-02
2.364000000000000057e+01,4.568288690486130288e-03
2.367999999999999972e+01,6.473475793870927565e-03
2.371999999999999886e+01,6.562176616306219026e-03
2.376000000000000156e+01,8.567466234660122207e-03
2.380000000000000071e+01,5.426771670702261463e-03
2.383999999999999986e+01,5.917863354150515974e-03
2.387999999999999901e+01,9.838953986650158384e-03
2.392000000000000171e+01,8.815849798229869957e-03
2.396000000000000085e+01,3.655702561104935341e-03
2.400000000000000000e+01,1.292299168952174872e-02
2.403999999999999915e+01,7.055802931539966599e-03
2.407999999999999829e+01,9.663311054255791649e-03
2.412000000000000099e+01,1.166506493829895172e-02
2.416000000000000014e+01,1.074050523711777769e-02
2.419999999999999929e+01,6.889632466471611906e-03
2.423999999999999844e+01,1.010094394076229037e-02
2.428000000000000114e+01,6.047505373655695689e-03
2.432000000000000028e+01,4.213344544268733324e-03
2.435999999999999943e+01,7.019915737728588991e-03
2.439999999999999858e+01,8.716266767545761615e-03
2.444000000000000128e+01,6.578262658940682052e-03
2.448000000000000043e+01,9.383673841631261572e-03
2.451999999999999957e+01,1.027171515150108322e-02
2.455999999999999872e+01,3.390540495003693464e-03
2.460000000000000142e+01,5.286751145245613404e-03
2.464000000000000057e+01,1.330731094721850517e-03
2.467999999999999972e+01,7.564612081253880432e-03
2.471999999999999886e+01,5.222127907999909655e-03
2.476000000000000156e+01,6.107866216387669925e-03
2.480000000000000071e+01,7.396798124580572856e-03
2.483999999999999986e+01,9.492499776565863426e-03
2.487999999999999901e+01,6.139549450569151655e-03
2.492000000000000171e+01,4.501415063396412182e-03
2.496000000000000085e+01,6.293293550775774965e-03
2.500000000000000000e+01,6.874065703844810943e-03
2.503999999999999915e+01,4.730323432507885228e-03
2.507999999999999829e+01,6.924640746513885566e-03
2.512000000000000099e+01,8.815898437000362076e-03
2.516000000000000014e+01,1.050499092678360696e-02
2.519999999999999929e+01,9.065995426970025611e-03
2.523999999999999844e+01,6.113214966230817206e-03
2.528000000000000114e+01,7.397602762573999256e-03
2.532000000000000028e+01,7.975357885966132682e-03
2.535999999999999943e+01,6.030390525140563902e-03
2.539999999999999858e+01,5.800245292250352271e-03
2.544000000000000128e+01,4.661681119572967831e-03
2.548000000000000043e+01,6.852242619261449119e-03
2.551999999999999957e+01,4.905781184857428527e-03
2.555999999999999872e+01,6.187552547280915707e-03
2.560000000000000142e+01,9.688618151721150804e-03
2.564000000000000057e+01,4.613330458838970846e-03
2.567999999999999972e+01,7.003821206455951645e-03
2.571999999999999886e+01,6.165336762289825440e-03
2.576000000000000156e+01,5.931846110265703853e-03
2.580000000000000071e+01,5.193516788515944831e-03
2.583999999999999986e+01,6.977166524509685608e-03
2.587999999999999901e+01,1.027385676343625653e-02
2.592000000000000171e+01,2.572743545987538766e-03
2.596000000000000085e+01,6.574956475746784705e-03
2.600000000000000000e+01,1.178752973454569655e-02
2.603999999999999915e+01,6.103194991304190797e-03
2.607999999999999829e+01,8.691795102610647833e-03
2.612000000000000099e+01,6.538016573871936743e-03
2.616000000000000014e+01,5.998176065438056911e-03
2.619999999999999929e+01,6.971380186011319306e-03
2.623999999999999844e+01,7.944220845496077765e-03
2.628000000000000114e+01,6.697032604397695418e-03
2.632000000000000028e+01,3.532497699646464356e-03
2.635999999999999943e+01,4.201569349250433745e-03
2.639999999999999858e+01,6.383688206657937500e-03
2.644000000000000128e+01,1.098689995114127474e-02
2.648000000000000043e+01,8.022708299817158870e-03
2.651999999999999957e+01,3.847429913035585805e-03
2.655999999999999872e+01,9.054925547540367339e-03
2.660000000000000142e+01,8.410215753484492213e-03
2.664000000000000057e+01,4.233860908938133841e-03
2.667999999999999972e+01,2.377708138966300785e-03
2.671999999999999886e+01,6.776620334551123476e-03
2.676000000000000156e+01,6.231374328125391035e-03
2.680000000000000071e+01,3.062530497759282516e-03
2.683999999999999986e+01,5.341601923771709809e-03
2.687999999999999901e+01,7.822105954958216006e-03
2.692000000000000171e+01,5.762029475399277345e-03
2.696000000000000085e+01,5.114113517216932470e-03
2.700000000000000000e+01,7.189979387911419120e-03
2.703999999999999915e+01,4.927054109252305275e-03
2.707999999999999829e+01,4.681654341589602461e-03
2.712000000000000099e+01,7.563613578309568049e-03
2.716000000000000014e+01,5.804101491782846095e-03
2.719999999999999929e+01,7.676418976442317584e-03
2.723999999999999844e+01,1.398771780450324027e-02
2.728000000000000114e+01,9.402124619061614022e-03
2.732000000000000028e+01,7.338529574457094626e-03
2.735999999999999943e+01,6.687100208822040898e-03
2.739999999999999858e+01,5.429958896775829297e-03
2.744000000000000128e+01,9.318058856326461720e-03
2.748000000000000043e+01,4.831617057595844617e-03
2.751999999999999957e+01,4.481478491410732096e-03
2.755999999999999872e+01,7.460492417074412325e-03
2.760000000000000142e+01,4.688207715216589737e-03
2.764000000000000057e+01,2.520941046187285834e-03
2.767999999999999972e+01,4.792661393911568438e-03
2.771999999999999886e+01,9.384597225951861119e-03
2.776000000000000156e+01,9.738645099362735688e-03
2.780000000000000071e+01,5.854805529903462508e-03
2.783999999999999986e+01,2.878668293240130120e-03
2.787999999999999901e+01,3.534369395670867477e-03
2.792000000000000171e+01,6.913864189442022433e-03
2.796000000000000085e+01,5.954579696323197661e-03
2.800000000000000000e+01,6.609256948436410123e-03
2.803999999999999915e+01,6.557336599230037533e-03
2.807999999999999829e+01,7.816697305603309207e-03
2.812000000000000099e+01,1.710463576413886848e-03
2.816000000000000014e+01,2.161995101286408403e-03
2.819999999999999929e+01,7.859671604239228462e-03
2.823999999999999844e+01,9.319466337674081613e-03
2.828000000000000114e+01,7.449424980863198452e-03
2.832000000000000028e+01,1.102731796352448244e-02
2.835999999999999943e+01,5.221741464038884804e-03
2.839999999999999858e+01,5.469463777885985589e-03
2.844000000000000128e+01,5.918638811519332139e-03
2.848000000000000043e+01,3.542449868988367841e-03
2.851999999999999957e+01,5.403470960042048958e-03
2.855999999999999872e+01,6.255219433475908176e-03
2.860000000000000142e+01,5.593226269764229805e-03
2.864000000000000057e+01,4.426431055236286667e-03
2.867999999999999972e+01,8.505787007900073721e-03
2.871999999999999886e+01,5.522237982561470707e-03
2.876000000000000156e+01,5.060705665394322518e-03
2.880000000000000071e+01,7.020296665100885479e-03
2.883999999999999986e+01,0.000000000000000000e+00
2.887999999999999901e+01,5.591112296047970505e-03
2.892000000000000171e+01,7.247033311656814886e-03
2.896000000000000085e+01,4.463294027300861687e-03
2.900000000000000000e+01,8.640906456179871936e-03
2.903999999999999915e+01,5.452936311959776829e-03
2.907999999999999829e+01,3.374472303187501035e-03
2.912000000000000099e+01,4.726074807933203226e-03
2.916000000000000014e+01,3.857685546764421086e-03
2.919999999999999929e+01,6.116682109461223094e-03
2.923999999999999844e+01,5.651218402477157024e-03
2.928000000000000114e+01,6.597945130908309391e-03
2.932000000000000028e+01,6.838090762317061699e-03
2.935999999999999943e+01,5.867186277177743360e-03
2.939999999999999858e+01,7.922776287643438012e-03
2.944000000000000128e+01,6.749439071939699296e-03
2.948000000000000043e+01,8.501703476302571380e-03
2.951999999999999957e+01,6.520572150729602064e-03
2.955999999999999872e+01,8.070406919083785227e-03
2.960000000000000142e+01,4.474332290222772165e-03
2.964000000000000057e+01,2.794922273895554272e-03
2.967999999999999972e+01,4.747373805830326990e-03
2.971999999999999886e+01,9.726323959444392250e-03
2.976000000000000156e+01,6.835231288341556133e-03
2.980000000000000071e+01,5.558123571638668575e-03
2.983999999999999986e+01,3.458364369602625970e-04
2.987999999999999901e+01,6.029774737443956492e-03
2.992000000000000171e+01,8.383898093812675381e-03
2.996000000000000085e+01,2.767087297203912194e-03
3.000000000000000000e+01,6.230413156009207906e-03
3.003999999999999915e+01,3.438002313324513368e-03
3.007999999999999829e+01,7.304275388204545597e-03
3.012000000000000099e+01,8.143417818937024114e-03
3.016000000000000014e+01,3.937551980141325812e-03
3.019999999999999929e+01,6.087689885017243813e-03
3.023999999999999844e+01,7.026789020049370449e-03
3.028000000000000114e+01,1.205685012862273055e-03
3.032000000000000028e+01,4.162040065992527078e-03
3.035999999999999943e+01,4.696631011872921639e-03
3.039999999999999858e+01,8.156835440283500063e-03
3.044000000000000128e+01,5.663990045967959297e-03
3.048000000000000043e+01,5.289607909245219036e-03
3.051999999999999957e+01,6.831901731760564069e-03
3.055999999999999872e+01,9.181039051646350604e-03
3.060000000000000142e+01,7.897688474154063165e-03
3.064000000000000057e+01,5.605092098524835746e-03
3.067999999999999972e+01,4.724704209885899168e-03
3.071999999999999886e+01,5.861888766338467505e-03
3.076000000000000156e+01,6.393404700159976972e-03
3.080000000000000071e+01,5.209419549482762098e-03
3.083999999999999986e+01,4.630493692376969408e-03
3.087999999999999901e+01,7.380763135140818061e-03
3.092000000000000171e+01,7.709275691284806983e-03
3.096000000000000085e+01,5.616031876568242098e-03
3.100000000000000000e+01,4.935000674916248907e-03
3.103999999999999915e+01,4.354561810347147739e-03
3.107999999999999829e+01,6.497957382102128102e-03
3.112000000000000099e+01,1.005356711419953461e-02
3.116000000000000014e+01,4.225743467300123631e-03
3.119999999999999929e+01,8.890586647391300959e-03
3.123999999999999844e+01,5.584512178802181204e-03
3.128000000000000114e+01,7.928198029986446502e-03
3.132000000000000028e+01,1.047337373562561534e-02
3.135999999999999943e+01,5.249421153976333194e-03
3.139999999999999858e+01,8.197578115803178314e-03
3.144000000000000128e+01,7.513258011196965319e-03
3.148000000000000043e+01,8.947414058165721260e-03
3.151999999999999957e+01,5.336579371422065128e-03
3.155999999999999872e+01,9.595174570020677945e-03
3.160000000000000142e+01,7.194477553513531354e-03
3.164000000000000057e+01,8.223879543359433747e-03
3.167999999999999972e+01,6.226171003669984418e-03
3.171999999999999886e+01,8.566607665365124497e-03
3.176000000000000156e+01,4.449541989105625095e-03
3.180000000000000071e+01,6.991182408060180563e-03
3.183999999999999986e+01,8.321804687542431328e-03
3.187999999999999901e+01,8.744091064482678588e-03
3.192000000000000171e+01,6.744633448785246690e-03
3.196000000000000085e+01,5.451143474976286908e-03
3.200000000000000000e+01,6.276136357613034539e-03
3.203999999999999915e+01,6.798158843086859332e-03
3.207999999999999829e+01,5.806484562473145962e-03
3.211999999999999744e+01,8.043127663209921618e-03
3.215999999999999659e+01,6.142833445895846609e-03
3.220000000000000284e+01,9.690523596704730264e-03
3.224000000000000199e+01,1.937810059934656076e-03
3.228000000000000114e+01,5.585822439168865172e-03
3.232000000000000028e+01,6.812095983358274799e-03
3.235999999999999943e+01,7.937191070573054036e-03
3.239999999999999858e+01,4.622670213121717921e-03
3.243999999999999773e+01,9.480272308887939189e-03
3.247999999999999687e+01,5.257139766884833497e-03
3.252000000000000313e+01,5.170374927338046780e-03
3.256000000000000227e+01,5.386009837841059314e-03
3.260000000000000142e+01,4.995999850640196402e-03
3.264000000000000057e+01,6.421799250862645497e-03
3.267999999999999972e+01,7.241954784899778952e-03
3.271999999999999886e+01,6.043952269712976784e-03
3.275999999999999801e+01,5.551927711600368812e-03
3.279999999999999716e+01,4.555154741637327566e-03
3.284000000000000341e+01,6.685814529634965218e-03
3.288000000000000256e+01,2.762562049165976936e-03
3.292000000000000171e+01,9.231104666279897966e-03
3.296000000000000085e+01,5.206404135937998251e-03
3.300000000000000000e+01,5.318077497163870015e-03
3.303999999999999915e+01,4.824111634038022456e-03
3.307999999999999829e+01,7.861157251656543388e-03
3.311999999999999744e+01,2.321946018939285549e-03
3.315999999999999659e+01,7.376320792474660125e-03
3.320000000000000284e+01,7.991089936529638393e-03
3.324000000000000199e+01,6.486813829174412419e-03
3.328000000000000114e+01,7.706400524904016489e-03
3.332000000000000028e+01,1.043912365479381099e-02
3.335999999999999943e+01,4.494699121846563658e-03
3.339999999999999858e+01,4.906319593313859112e-03
3.343999999999999773e+01,7.774436227994776290e-04
3.347999999999999687e+01,6.233218714042075906e-03
3.352000000000000313e+01,1.067978514181639783e-02
3.356000000000000227e+01,9.173341976088990671e-03
3.360000000000000142e+01,5.446964293727935523e-03
3.364000000000000057e+01,6.260544383311248892e-03
3.367999999999999972e+01,7.477432571261379349e-03
3.371999999999999886e+01,7.382432953368698626e-03
3.375999999999999801e+01,6.681803394791460855e-03
3.379999999999999716e+01,4.366605340718996385e-03
3.384000000000000341e+01,6.994943265615295377e-03
3.388000000000000256e+01,4.780108700711094109e-03
3.392000000000000171e+01,5.289145191040335765e-03
3.396000000000000085e+01,5.898811668880425338e-03
3.400000000000000000e+01,8.223411162902573290e-03
3.403999999999999915e+01,5.805734137218355496e-03
3.407999999999999829e+01,3.488688646322839638e-03
3.411999999999999744e+01,5.207137581198156145e-03
3.415999999999999659e+01,9.346778944691627039e-03
3.420000000000000284e+01,2.993193149267154088e-03
3.424000000000000199e+01,4.408177888000199517e-03
3.428000000000000114e+01,2.291616086266540144e-03
3.432000000000000028e+01,6.632005058468016731e-03
3.435999999999999943e+01,1.084532377130660932e-03
3.439999999999999858e+01,6.029767783526840744e-03
3.443999999999999773e+01,6.232731827809521487e-03
3.447999999999999687e+01,8.453316798556698847e-03
3.452000000000000313e+01,6.234313159879939156e-03
3.456000000000000227e+01,7.445446177984178272e-03
3.460000000000000142e+01,5.024142874639023204e-03
3.464000000000000057e+01,5.629401631365455599e-03
3.467999999999999972e+01,9.261222963922770973e-03
3.471999999999999886e+01,6.637367938826658695e-03
3.475999999999999801e+01,6.838288706966008830e-03
3.479999999999999716e+01,4.415714803022366755e-03
3.484000000000000341e+01,7.743841028485608409e-03
3.488000000000000256e+01,4.110035609933622436e-03
3.492000000000000171e+01,6.832294794649079218e-03
3.496000000000000085e+01,7.334636998546659702e-03
3.500000000000000000e+01,9.249243391437487333e-03
3.503999999999999915e+01,7.127843508003088406e-03
3.507999999999999829e+01,3.593679447484644188e-03
3.511999999999999744e+01,3.287871450263218573e-03
3.515999999999999659e+01,6.210420032098097100e-03
3.520000000000000284e+01,5.803221750043874999e-03
3.524000000000000199e+01,9.633320149134491986e-03
3.528000000000000114e+01,7.712218946486683151e-03
3.532000000000000028e+01,7.506067780077401927e-03
3.535999999999999943e+01,6.290731675127056617e-03
3.539999999999999858e+01,6.084089288534846179e-03
3.543999999999999773e+01,7.693292392516008424e-03
3.547999999999999687e+01,8.696887733461952999e-03
3.552000000000000313e+01,7.783255035391026255e-03
3.556000000000000227e+01,7.676530304601382297e-03
3.560000000000000142e+01,4.643639495743498088e-03
3.564000000000000057e+01,7.462353038535223318e-03
3.567999999999999972e+01,6.144174650093338179e-03
3.571999999999999886e+01,6.944527083710816742e-03
3.575999999999999801e+01,8.350002249292035397e-03
3.579999999999999716e+01,7.131995636772418996e-03
3.584000000000000341e+01,7.528051858305060719e-03
3.588000000000000256e+01,4.997945612084450130e-03
3.592000000000000171e+01,7.512296071372519778e-03
3.596000000000000085e+01,7.806742443824885892e-03
3.600000000000000000e+01,7.394693851055761380e-03
3.603999999999999915e+01,6.982408158223408177e-03
3.607999999999999829e+01,9.899384813967952723e-03
3.611999999999999744e+01,7.872323955375055624e-03
3.615999999999999659e+01,9.376314290991638947e-03
3.620000000000000284e+01,8.357721913157246246e-03
3.624000000000000199e+01,1.016392441165193082e-02
3.628000000000000114e+01,9.346651321157214629e-03
3.632000000000000028e+01,1.064791678911118818e-02
3.635999999999999943e+01,1.013285895605029428e-02
3.639999999999999858e+01,8.507735687132802690e-03
3.643999999999999773e+01,8.900258616884855131e-03
3.647999999999999687e+01,9.191656212868833109e-03
3.652000000000000313e+01,6.657793500305153600e-03
3.656000000000000227e+01,9.874653094797703271e-03
3.660000000000000142e+01,9.862677784033187581e-03
3.664000000000000057e+01,8.437958410796801700e-03
3.667999999999999972e+01,7.618373631987749792e-03
3.671999999999999886e+01,1.022895336096117484e-02
3.675999999999999801e+01,9.509806340657697352e-03
3.679999999999999716e+01,8.084174670318458253e-03
3.684000000000000341e+01,8.978876077412618201e-03
3.688000000000000256e+01,1.047871465773054199e-02
3.692000000000000171e+01,8.749722458865695149e-03
3.696000000000000085e+01,1.307413944582093424e-02
3.700000000000000000e+01,1.255542417220004668e-02
3.703999999999999915e+01,6.689107618477340214e-03
3.707999999999999829e+01,9.398549474277467092e-03
3.711999999999999744e+01,1.543726708839594786e-02
3.715999999999999659e+01,1.249620431563863883e-02
3.720000000000000284e+01,1.096743409863535669e-02
3.724000000000000199e+01,1.175900211665834548e-02
3.728000000000000114e+01,1.668699921249280557e-02
3.732000000000000028e+01,1.445130831151452376e-02
3.735999999999999943e+01,1.292165467992845325e-02
3.739999999999999858e+01,1.229982664760785778e-02
3.743999999999999773e+01,1.732783836199081398e-02
3.747999999999999687e+01,1.499037632848419614e-02
3.752000000000000313e+01,1.789917944497173077e-02
3.756000000000000227e+01,1.959703817556497640e-02
3.760000000000000142e+01,1.957948350073825117e-02
3.764000000000000057e+01,2.400104426672756627e-02
3.767999999999999972e+01,2.852328298584141247e-02
3.771999999999999886e+01,2.911044389155925324e-02
3.775999999999999801e+01,3.686085727590986127e-02
3.779999999999999716e+01,3.472345336202030397e-02
3.784000000000000341e+01,5.054495101338061375e-02
3.788000000000000256e+01,6.212869119321107192e-02
3.792000000000000171e+01,8.763557768753015009e-02
3.796000000000000085e+01,1.300924282238069829e-01
3.800000000000000000e+01,1.998913157446713940e-01
3.803999999999999915e+01,3.599900387694477399e-01
3.807999999999999829e+01,6.367219075557711827e-01
3.811999999999999744e+01,9.098213854074624907e-01
3.815999999999999659e+01,1.000000000000000000e+00
3.820000000000000284e+01,9.119997654808221776e-01
3.824000000000000199e+01,7.419725757910043962e-01
3.828000000000000114e+01,5.257357684515396867e-01
3.832000000000000028e+01,3.296775348216902657e-01
3.835999999999999943e+01,1.942563321470703874e-01
3.839999999999999858e+01,1.262320527162580919e-01
3.843999999999999773e+01,8.887931487626642146e-02
3.847999999999999687e+01,6.252380726674046374e-02
3.852000000000000313e+01,4.656016696109759739e-02
3.856000000000000227e+01,3.866783461278618800e-02
3.860000000000000142e+01,3.935128027285052232e-02
3.864000000000000057e+01,2.843172304565079814e-02
3.867999999999999972e+01,2.386827890309147979e-02
3.871999999999999886e+01,2.434932756919092056e-02
3.875999999999999801e+01,2.139978136692079549e-02
3.879999999999999716e+01,2.016523007194714889e-02
3.884000000000000341e+01,1.701349354597743099e-02
3.888000000000000256e+01,1.779641891407666640e-02
3.892000000000000171e+01,1.777199306032536258e-02
3.896000000000000085e+01,1.219820286880401831e-02
3.900000000000000000e+01,1.277874207388339338e-02
3.903999999999999915e+01,1.578053663021392397e-02
3.907999999999999829e+01,1.373743793133726764e-02
3.911999999999999744e+01,1.189592965997644629e-02
3.915999999999999659e+01,1.287925391537264597e-02
3.920000000000000284e+01,1.456863916508823777e-02
3.924000000000000199e+01,1.565246513314157151e-02
3.928000000000000114e+01,1.542447498589296674e-02
3.932000000000000028e+01,1.055517030622086724e-02
3.935999999999999943e+01,1.194109357204005753e-02
3.939999999999999858e+01,1.009821803575225788e-02
3.943999999999999773e+01,1.148375426476445568e-02
3.947999999999999687e+01,1.044764397964419687e-02
3.952000000000000313e+01,1.062206835020261184e-02
3.956000000000000227e+01,1.119987663574301996e-02
3.960000000000000142e+01,1.076855465322677091e-02
3.964000000000000057e+01,7.814694312558221126e-03
3.967999999999999972e+01,9.400869623486334675e-03
3.971999999999999886e+01,7.960038072495742925e-03
3.975999999999999801e+01,9.747622412879445100e-03
3.979999999999999716e+01,6.994792317008091329e-03
3.984000000000000341e+01,1.069898416985344720e-02
3.988000000000000256e+01,8.954717454449378361e-03
3.992000000000000171e+01,8.622778366430822530e-03
3.996000000000000085e+01,8.996910072158118346e-03
4.000000000000000000e+01,6.848508061566694997e-03
4.003999999999999915e+01,9.240146344405508749e-03
4.007999999999999829e+01,8.705676314216204137e-03
4.011999999999999744e+01,8.574597419638899792e-03
4.015999999999999659e+01,9.351379711717877283e-03
4.020000000000000284e+01,1.335658356852329788e-02
4.024000000000000199e+01,1.019813707894392900e-02
4.028000000000000114e+01,8.653810672697671499e-03
4.032000000000000028e+01,7.916453609087832632e-03
4.035999999999999943e+01,8.389642032101681662e-03
4.039999999999999858e+01,9.568906922213538460e-03
4.043999999999999773e+01,7.922962048187841277e-03
4.047999999999999687e+01,5.267898252809798294e-03
4.052000000000000313e+01,8.363607824657386114e-03
4.056000000000000227e+01,7.625170109075330924e-03
4.060000000000000142e+01,1.011515911581260113e-02
4.064000000000000057e+01,7.055805446669868690e-03
4.067999999999999972e+01,3.794486691427201644e-03
4.071999999999999886e+01,8.402715930403493669e-03
4.075999999999999801e+01,6.149983249036721292e-03
4.079999999999999716e+01,5.208695634702783551e-03
4.084000000000000341e+01,6.486898766673942704e-03
4.088000000000000256e+01,8.067608926626562357e-03
4.092000000000000171e+01,8.134736303294011484e-03
4.096000000000000085e+01,6.990963133606569596e-03
4.100000000000000000e+01,5.645229003893467885e-03
4.103999999999999915e+01,9.848487132162736871e-03
4.107999999999999829e+01,6.888105744992249584e-03
4.111999999999999744e+01,7.660627320296784469e-03
4.115999999999999659e+01,6.818675299814879256e-03
4.120000000000000284e+01,6.985491782787693095e-03
4.124000000000000199e+01,7.858395563803537501e-03
4.128000000000000114e+01,7.217721203367802492e-03
4.132000000000000028e+01,8.392968150120611037e-03
4.135999999999999943e+01,7.348380637541436153e-03
4.139999999999999858e+01,6.202731229586467415e-03
4.143999999999999773e+01,8.991776724294825440e-03
4.147999999999999687e+01,6.635066002296189508e-03
4.152000000000000313e+01,8.717520749764416654e-03
4.156000000000000227e+01,7.571204546127141555e-03
4.160000000000000142e+01,7.030086375309481037e-03
4.164000000000000057e+01,8.506681451868657387e-03
4.167999999999999972e+01,7.864340102227135657e-03
4.171999999999999886e+01,6.717365355056140186e-03
4.175999999999999801e+01,5.872908982570919194e-03
4.179999999999999716e+01,9.366727782810580286e-03
4.184000000000000341e+01,6.705855937606876836e-03
4.188000000000000256e+01,6.264488248449721214e-03
4.192000000000000171e+01,8.042625231098398525e-03
4.196000000000000085e+01,7.500041583747398335e-03
4.200000000000000000e+01,9.782327082062785770e-03
4.203999999999999915e+01,1.206445284420796550e-02
4.207999999999999829e+01,8.696360590750483455e-03
4.211999999999999744e+01,8.052245123180243325e-03
4.215999999999999659e+01,9.224061793743578222e-03
4.220000000000000284e+01,8.983206092375923407e-03
4.224000000000000199e+01,7.329678534836553579e-03
4.228000000000000114e+01,6.987615127423644525e-03
4.232000000000000028e+01,7.452546850611504840e-03
4.235999999999999943e+01,8.220004684874439652e-03
4.239999999999999858e+01,5.254232863691928046e-03
4.243999999999999773e+01,8.341940887351786613e-03
4.247999999999999687e+01,8.705359357654735009e-03
4.252000000000000313e+01,8.059685210328956101e-03
4.256000000000000227e+01,7.514751938760698587e-03
4.260000000000000142e+01,1.029916508453311216e-02
4.264000000000000057e+01,9.552139483529774669e-03
4.267999999999999972e+01,8.704068491447825712e-03
4.271999999999999886e+01,1.088266374281341743e-02
4.275999999999999801e+01,1.023607914408009023e-02
4.279999999999999716e+01,1.029560195800197780e-02
4.284000000000000341e+01,6.621900789830569879e-03
4.288000000000000256e+01,7.488276533998772591e-03
4.292000000000000171e+01,8.758079516929057062e-03
4.296000000000000085e+01,1.265097620963462170e-02
4.300000000000000000e+01,1.129724237742910087e-02
4.303999999999999915e+01,1.064961905243451759e-02
4.307999999999999829e+01,1.101078847158113230e-02
4.311999999999999744e+01,8.344994868348431030e-03
4.315999999999999659e+01,1.213626602185326545e-02
4.320000000000000284e+01,1.138716657864242802e-02
4.324000000000000199e+01,9.326302080299038108e-03
4.328000000000000114e+01,1.009032323191920433e-02
4.332000000000000028e+01,1.075330724460935722e-02
4.335999999999999943e+01,1.020542165650182784e-02
4.339999999999999858e+01,1.238152935857872103e-02
4.343999999999999773e+01,1.536464663251640127e-02
4.347999999999999687e+01,1.370650301299643388e-02
4.352000000000000313e+01,1.376341516036878009e-02
4.356000000000000227e+01,1.361839935630983905e-02
4.360000000000000142e+01,1.599559160711777270e-02
4.364000000000000057e+01,1.776728130978498868e-02
4.367999999999999972e+01,1.893346898007079379e-02
4.371999999999999886e+01,1.939326122667748079e-02
4.375999999999999801e+01,1.793593168068037536e-02
4.379999999999999716e+01,2.021153965303051567e-02
4.384000000000000341e+01,2.712813082300015097e-02
4.388000000000000256e+01,2.829363327947803999e-02
4.392000000000000171e+01,3.248581745218205585e-02
4.396000000000000085e+01,3.637518492399067355e-02
4.400000000000000000e+01,4.742788533288079533e-02
4.403999999999999915e+01,5.505005895362723167e-02
4.407999999999999829e+01,6.791858230889082082e-02
4.411999999999999744e+01,9.289424159430659245e-02
4.415999999999999659e+01,1.213001613187321831e-01
4.420000000000000284e+01,1.692793671270461653e-01
4.424000000000000199e+01,2.397577828396607047e-01
4.428000000000000114e+01,3.397979824663247550e-01
4.432000000000000028e+01,3.956465204641339550e-01
4.435999999999999943e+01,4.082114425123605783e-01
4.439999999999999858e+01,3.598363153917896740e-01
4.443999999999999773e+01,2.992528967267094053e-01
4.447999999999999687e+01,2.380639863444334592e-01
4.452000000000000313e+01,1.728391919207832583e-01
4.456000000000000227e+01,1.286002029216529452e-01
4.460000000000000142e+01,9.102008506070848048e-02
4.464000000000000057e+01,6.473995857833092504e-02
4.467999999999999972e+01,4.965893008322261326e-02
4.471999999999999886e+01,4.103498645946401097e-02
4.475999999999999801e+01,3.311717552056566566e-02
4.479999999999999716e+01,3.276628346216257232e-02
4.484000000000000341e+01,2.484822474146470422e-02
4.488000000000000256e+01,2.147026872107079057e-02
4.492000000000000171e+01,1.869755354151729498e-02
4.496000000000000085e+01,1.663097362562048973e-02
4.500000000000000000e+01,1.567410511736767181e-02
4.503999999999999915e+01,1.562516071840411302e-02
4.507999999999999829e+01,1.224659684809530948e-02
4.511999999999999744e+01,1.320635095853218456e-02
4.515999999999999659e+01,1.124006225737036145e-02
4.520000000000000284e+01,1.018169972853495697e-02
4.524000000000000199e+01,1.063662733012723030e-02
4.528000000000000114e+01,1.189858822850748364e-02
4.532000000000000028e+01,1.124344744889615305e-02
4.535999999999999943e+01,1.230338616110434116e-02
4.539999999999999858e+01,9.731027806870603050e-03
4.543999999999999773e+01,1.018537076771588307e-02
4.547999999999999687e+01,6.704735972466815269e-03
4.552000000000000313e+01,8.066893850841283173e-03
4.556000000000000227e+01,1.094234598571771494e-02
4.560000000000000142e+01,1.068997316823361646e-02
4.564000000000000057e+01,9.226760148231174380e-03
4.567999999999999972e+01,8.570585582609605013e-03
4.571999999999999886e+01,7.813404823615225855e-03
4.575999999999999801e+01,7.157006201121308454e-03
4.579999999999999716e+01,7.206753673229124128e-03
4.584000000000000341e+01,7.559072127469964285e-03
4.588000000000000256e+01,1.033273412780004105e-02
4.592000000000000171e+01,8.868742324216916106e-03
4.596000000000000085e+01,8.413580399443655600e-03
4.600000000000000000e+01,6.344007285757667994e-03
4.603999999999999915e+01,7.704718851767993967e-03
4.607999999999999829e+01,7.854595888612156754e-03
4.611999999999999744e+01,8.508835332018349629e-03
4.615999999999999659e+01,8.961180348346881736e-03
4.620000000000000284e+01,6.991965498103156970e-03
4.624000000000000199e+01,8.049462278124206241e-03
4.628000000000000114e+01,6.786294130148566410e-03
4.632000000000000028e+01,5.523021432246421301e-03
4.635999999999999943e+01,5.873947213088963164e-03
4.639999999999999858e+01,7.637284174321512346e-03
4.643999999999999773e+01,5.667443571796574805e-03
4.647999999999999687e+01,6.926105508206128331e-03
4.652000000000000313e+01,5.056954354718759363e-03
4.656000000000000227e+01,5.003792072886497147e-03
4.660000000000000142e+01,7.371982620810628613e-03
4.664000000000000057e+01,4.594483484975777320e-03
4.667999999999999972e+01,7.668731050353728811e-03
4.671999999999999886e+01,6.606229034061233789e-03
4.675999999999999801e+01,6.653461118821319374e-03
4.679999999999999716e+01,7.608640006279306783e-03
4.684000000000000341e+01,7.655675885168545039e-03
4.688000000000000256e+01,4.373115501880441187e-03
4.692000000000000171e+01,3.814593795594006711e-03
4.696000000000000085e+01,6.585474724410504688e-03
4.700000000000000000e+01,4.816034053643563836e-03
4.703999999999999915e+01,4.358118908358215270e-03
4.707999999999999829e+01,6.926926224282668743e-03
4.711999999999999744e+01,5.762564744357528274e-03
4.715999999999999659e+01,4.799897359564875288e-03
4.720000000000000284e+01,7.469317425601861536e-03
4.724000000000000199e+01,5.295737265440153378e-03
4.728000000000000114e+01,6.653351680569654508e-03
4.732000000000000028e+01,4.984057228044965794e-03
4.735999999999999943e+01,4.928974148247135950e-03
4.739999999999999858e+01,6.084527328707496283e-03
4.743999999999999773e+01,4.515854909962491344e-03
4.747999999999999687e+01,7.689106529989077170e-03
4.752000000000000313e+01,6.927406697644944086e-03
4.756000000000000227e+01,5.661148768627206548e-03
4.760000000000000142e+01,6.412680935120052168e-03
4.764000000000000057e+01,5.448929151773935359e-03
4.767999999999999972e+01,7.411013658969913508e-03
4.771999999999999886e+01,6.245300549047567464e-03
4.775999999999999801e+01,5.281289270647021063e-03
4.779999999999999716e+01,5.023449874812559342e-03
4.784000000000000341e+01,4.462843806733494435e-03
4.788000000000000256e+01,6.727182700935971545e-03
4.792000000000000171e+01,7.679816883842472200e-03
4.796000000000000085e+01,6.009126079471341017e-03
4.800000000000000000e+01,5.851760992918676220e-03
4.803999999999999915e+01,6.198783069373820301e-03
4.807999999999999829e+01,7.554662359881022735e-03
4.811999999999999744e+01,5.984537004976757564e-03
4.815999999999999659e+01,3.708073475674193275e-03
4.820000000000000284e+01,4.962816384126451236e-03
4.824000000000000199e+01,4.804964800300034686e-03
4.828000000000000114e+01,5.958654730493098163e-03
4.832000000000000028e+01,6.506902456382026093e-03
4.835999999999999943e+01,6.247920679612099792e-03
4.839999999999999858e+01,6.493330707683557003e-03
4.843999999999999773e+01,5.527936636386771192e-03
4.847999999999999687e+01,3.654420702651991083e-03
4.852000000000000313e+01,5.614797053917310217e-03
4.856000000000000227e+01,3.942917083724344074e-03
4.860000000000000142e+01,5.196885266537077178e-03
4.864000000000000057e+01,5.038264114664012423e-03
4.867999999999999972e+01,5.585826192061315101e-03
4.871999999999999886e+01,5.124375594519376895e-03
4.875999999999999801e+01,5.873578793051365855e-03
4.879999999999999716e+01,6.320027697561634954e-03
4.884000000000000341e+01,6.362828916752496025e-03
4.888000000000000256e+01,5.093937802870251823e-03
4.892000000000000171e+01,6.145535525726035335e-03
4.896000000000000085e+01,5.582760225856325809e-03
4.900000000000000000e+01,5.726172281331281047e-03
4.903999999999999915e+01,6.373984393796217063e-03
4.907999999999999829e+01,7.223515357839410678e-03
4.911999999999999744e+01,4.945266756339323014e-03
4.915999999999999659e+01,5.794661342588948959e-03
4.920000000000000284e+01,8.661866654720620437e-03
4.924000000000000199e+01,5.475370643934005313e-03
4.928000000000000114e+01,6.829034066972891961e-03
4.932000000000000028e+01,5.660283945606890861e-03
4.935999999999999943e+01,5.903983170818125938e-03
4.939999999999999858e+01,4.331527232542013370e-03
4.943999999999999773e+01,6.592975441729593059e-03
4.947999999999999687e+01,4.415027935466514335e-03
4.952000000000000313e+01,5.566516072900731978e-03
4.956000000000000227e+01,5.002745016941752970e-03
4.960000000000000142e+01,7.163047193856649994e-03
4.964000000000000057e+01,6.296470417155999172e-03
4.967999999999999972e+01,6.539665391935866635e-03
4.971999999999999886e+01,7.489057005727577619e-03
4.975999999999999801e+01,4.907101677896609157e-03
4.979999999999999716e+01,6.259949046419898203e-03
4.984000000000000341e+01,6.906479902434957581e-03
4.988000000000000256e+01,5.030604434675146723e-03
4.992000000000000171e+01,6.181488047034505370e-03
4.996000000000000085e+01,5.314435902422548312e-03
5.000000000000000000e+01,1.824085074256588971e-03
5.003999999999999915e+01,5.698932876938463989e-03
5.007999999999999829e+01,5.739756142900957064e-03
5.011999999999999744e+01,5.276054320784218273e-03
5.015999999999999659e+01,4.610509647518520188e-03
5.020000000000000284e+01,5.660106872946041659e-03
5.024000000000000199e+01,5.902498836401214727e-03
5.028000000000000114e+01,5.842155588928279325e-03
5.032000000000000028e+01,4.066562947488605931e-03
5.035999999999999943e+01,4.914159431292267066e-03
5.039999999999999858e+01,5.459022251445686327e-03
5.043999999999999773e+01,5.600258016651168611e-03
5.047999999999999687e+01,4.530715986212015094e-03
5.052000000000000313e+01,4.772744352312418593e-03
5.056000000000000227e+01,5.519192374255694165e-03
5.060000000000000142e+01,6.467378846630125570e-03
5.064000000000000057e+01,6.204789586397097163e-03
5.067999999999999972e+01,5.235894644600850613e-03
5.071999999999999886e+01,5.477678771083600330e-03
5.075999999999999801e+01,6.223885132205648520e-03
5.079999999999999716e+01,5.658423916700373694e-03
5.084000000000000341e+01,6.101855502637956209e-03
5.088000000000000256e+01,6.242559614036737210e-03
5.092000000000000171e+01,5.273385510200055172e-03
5.096000000000000085e+01,6.221150918597046463e-03
5.100000000000000000e+01,6.563508678562107561e-03
5.103999999999999915e+01,5.392414142341582853e-03
5.107999999999999829e+01,6.541836293860577890e-03
5.111999999999999744e+01,4.462610760743623145e-03
5.115999999999999659e+01,7.428038437423645571e-03
5.120000000000000284e+01,4.642471784561402401e-03
5.124000000000000199e+01,4.681893417760811527e-03
5.128000000000000114e+01,4.721274455185279356e-03
5.132000000000000028e+01,6.475811832563008706e-03
5.135999999999999943e+01,7.221370575114420889e-03
5.139999999999999858e+01,6.251693849199824182e-03
5.143999999999999773e+01,5.584660311718417543e-03
5.147999999999999687e+01,4.009543593745559624e-03
5.152000000000000313e+01,4.553161422750370314e-03
5.156000000000000227e+01,6.105681336865203222e-03
5.160000000000000142e+01,5.034923197797519859e-03
5.164000000000000057e+01,5.780219431814379895e-03
5.167999999999999972e+01,5.819222878250200626e-03
5.171999999999999886e+01,5.656403588149255812e-03
5.175999999999999801e+01,5.796231612555787123e-03
5.179999999999999716e+01,4.523511047260172363e-03
5.184000000000000341e+01,6.580256039700489896e-03
5.188000000000000256e+01,7.022665659843228651e-03
5.192000000000000171e+01,7.465042936359612968e-03
5.196000000000000085e+01,4.880571173299074091e-03
5.200000000000000000e+01,6.634506101581573098e-03
5.203999999999999915e+01,4.150866137121754507e-03
5.207999999999999829e+01,6.106527802580534632e-03
5.211999999999999744e+01,5.842493747955509846e-03
5.215999999999999659e+01,7.798096399513737217e-03
5.220000000000000284e+01,3.800929801397894860e-03
5.224000000000000199e+01,6.967202386776683194e-03
5.228000000000000114e+01,6.803948337481840851e-03
5.232000000000000028e+01,4.521895053956602809e-03
5.235999999999999943e+01,7.688086081234924395e-03
5.239999999999999858e+01,5.506873879977595802e-03
5.243999999999999773e+01,3.628317761135615733e-03
5.247999999999999687e+01,6.895325779204064011e-03
5.252000000000000313e+01,5.319401651299694375e-03
5.256000000000000227e+01,6.972058457741405271e-03
5.260000000000000142e+01,4.891617127355809072e-03
5.264000000000000057e+01,6.241545576948883019e-03
5.267999999999999972e+01,6.078042876487110835e-03
5.271999999999999886e+01,6.620775496983690063e-03
5.275999999999999801e+01,7.264380511855935210e-03
5.279999999999999716e+01,4.982041225153294867e-03
5.284000000000000341e+01,7.441695088966662069e-03
5.288000000000000256e+01,4.251270192184821578e-03
5.292000000000000171e+01,4.894794313924638943e-03
5.296000000000000085e+01,5.235617780608559264e-03
5.300000000000000000e+01,7.594300970306781980e-03
5.303999999999999915e+01,6.825255138871844270e-03
5.307999999999999829e+01,5.955298013772859951e-03
5.311999999999999744e+01,5.589793553111104679e-03
5.315999999999999659e+01,7.948408227899788139e-03
5.320000000000000284e+01,8.490916736333358264e-03
5.324000000000000199e+01,5.905698802430192629e-03
5.328000000000000114e+01,5.842813737141314655e-03
5.332000000000000028e+01,7.898686427998038301e-03
5.335999999999999943e+01,6.019682967339894976e-03
5.339999999999999858e+01,6.763907829630900863e-03
5.343999999999999773e+01,4.178621014267617888e-03
5.347999999999999687e+01,7.243380765081902130e-03
5.352000000000000313e+01,6.070584706247496645e-03
5.356000000000000227e+01,6.713867776943433299e-03
5.360000000000000142e+01,3.825853418908213392e-03
5.364000000000000057e+01,6.991463318315701767e-03
5.367999999999999972e+01,6.121307285225641159e-03
5.371999999999999886e+01,6.764550723532085190e-03
5.375999999999999801e+01,7.205997729025368295e-03
5.379999999999999716e+01,6.840285375122812789e-03
5.384000000000000341e+01,7.281716690495653420e-03
5.388000000000000256e+01,6.007944514478268452e-03
5.392000000000000171e+01,5.238635318083841551e-03
5.396000000000000085e+01,5.276471338242673913e-03
5.400000000000000000e+01,6.625922625998995064e-03
5.403999999999999915e+01,5.251233414832291897e-03
5.407999999999999829e+01,5.591736131009651840e-03
5.411999999999999744e+01,5.326871427979474292e-03
5.415999999999999659e+01,6.676305776754918632e-03
5.420000000000000284e+01,8.227524994297359673e-03
5.424000000000000199e+01,4.834940336459320719e-03
5.428000000000000114e+01,6.991518652927590852e-03
5.432000000000000028e+01,5.919490545502866310e-03
5.435999999999999943e+01,5.654612812224260772e-03
5.439999999999999858e+01,4.683477362996108992e-03
5.443999999999999773e+01,6.638265367629539622e-03
5.447999999999999687e+01,5.465342918464123970e-03
5.452000000000000313e+01,6.209405884108929602e-03
5.456000000000000227e+01,6.449001010955324534e-03
5.460000000000000142e+01,8.908264305301479349e-03
5.464000000000000057e+01,5.919259346575059949e-03
5.467999999999999972e+01,6.461544378607894656e-03
5.471999999999999886e+01,6.499363634879491182e-03
5.475999999999999801e+01,6.234505445263126278e-03
5.479999999999999716e+01,7.281272838429986988e-03
5.484000000000000341e+01,4.998546605517591342e-03
5.488000000000000256e+01,6.146219035103929820e-03
5.492000000000000171e+01,7.092109988896415362e-03
5.496000000000000085e+01,7.432644354426381009e-03
5.500000000000000000e+01,7.066928740396122982e-03
5.503999999999999915e+01,7.710160082533849303e-03
5.507999999999999829e+01,5.225688707262012012e-03
5.511999999999999744e+01,4.355528762018693809e-03
5.515999999999999659e+01,4.696105134335227735e-03
5.520000000000000284e+01,6.146524432913870982e-03
5.524000000000000199e+01,7.496060288829959652e-03
5.528000000000000114e+01,6.625941169645914279e-03
5.532000000000000028e+01,7.269242152229815103e-03
5.535999999999999943e+01,5.390207470061149017e-03
5.539999999999999858e+01,8.152305039945875048e-03
5.543999999999999773e+01,7.484022813083670601e-03
5.547999999999999687e+01,7.219329773399603065e-03
5.552000000000000313e+01,6.752862994311007762e-03
5.556000000000000227e+01,4.773002199836252728e-03
5.560000000000000142e+01,8.241427492667268914e-03
5.564000000000000057e+01,5.656233984065889633e-03
5.567999999999999972e+01,6.703237267262977285e-03
5.571999999999999886e+01,5.328803434598052870e-03
5.575999999999999801e+01,4.761538027654278228e-03
5.579999999999999716e+01,4.396078119848968735e-03
5.584000000000000341e+01,5.140469390454376238e-03
5.588000000000000256e+01,6.389348912887799631e-03
5.592000000000000171e+01,7.133778132338577070e-03
5.596000000000000085e+01,6.869288029281032763e-03
5.600000000000000000e+01,6.705712097101385050e-03
5.603999999999999915e+01,6.743944758615909654e-03
5.607999999999999829e+01,6.983986529583928980e-03
5.611999999999999744e+01,6.114217134023743408e-03
5.615999999999999659e+01,7.565029927632516832e-03
5.620000000000000284e+01,8.511396028573665201e-03
5.624000000000000199e+01,8.852422045549451779e-03
5.628000000000000114e+01,7.276487702578247202e-03
5.632000000000000028e+01,7.113092448300178776e-03
5.635999999999999943e+01,5.335419586764687284e-03
5.639999999999999858e+01,6.786377172466806149e-03
5.643999999999999773e+01,5.916800833031093595e-03
5.647999999999999687e+01,5.450826574755721077e-03
5.652000000000000313e+01,7.204545240425876823e-03
5.656000000000000227e+01,6.536837621179064986e-03
5.660000000000000142e+01,9.602232563251307182e-03
5.664000000000000057e+01,7.017597226101286549e-03
5.667999999999999972e+01,8.166065481788890162e-03
5.671999999999999886e+01,8.305624214394595126e-03
5.675999999999999801e+01,7.133592218506736374e-03
5.679999999999999716e+01,7.575893314537437973e-03
5.684000000000000341e+01,7.816437691220071496e-03
5.688000000000000256e+01,7.048074607857986694e-03
5.692000000000000171e+01,7.692258349578326784e-03
5.696000000000000085e+01,1.005167115331138776e-02
5.700000000000000000e+01,7.366421761997764966e-03
5.703999999999999915e+01,7.102659813614378877e-03
5.707999999999999829e+01,6.637144240438663106e-03
5.711999999999999744e+01,7.180602442913836155e-03
5.715999999999999659e+01,6.412475074488315635e-03
5.720000000000000284e+01,6.350640792061251066e-03
5.724000000000000199e+01,7.701357460790929539e-03
5.728000000000000114e+01,6.630657128270818317e-03
5.732000000000000028e+01,6.468039243141019551e-03
5.735999999999999943e+01,6.103671343533891187e-03
5.739999999999999858e+01,7.151856458120661036e-03
5.743999999999999773e+01,5.980414448608753313e-03
5.747999999999999687e+01,7.634041183607228644e-03
5.752000000000000313e+01,7.471617454253616335e-03
5.756000000000000227e+01,7.611915824504069533e-03
5.760000000000000142e+01,7.449573367775918359e-03
5.764000000000000057e+01,5.874757622201505144e-03
5.767999999999999972e+01,7.326801014047912980e-03
5.771999999999999886e+01,7.063690427395630245e-03
5.775999999999999801e+01,7.607774054428832408e-03
5.779999999999999716e+01,6.638492548595942289e-03
5.784000000000000341e+01,7.989814893822033345e-03
5.788000000000000256e+01,7.323303602415606739e-03
5.792000000000000171e+01,6.959519052446850630e-03
5.796000000000000085e+01,6.898461759675031044e-03
5.800000000000000000e+01,6.534768797517480701e-03
5.803999999999999915e+01,7.079167566417415500e-03
5.807999999999999829e+01,8.531658582134157842e-03
5.811999999999999744e+01,6.150228728748171822e-03
5.815999999999999659e+01,5.786725131324483781e-03
5.820000000000000284e+01,7.340254398565407290e-03
5.824000000000000199e+01,8.792938905090289317e-03
5.828000000000000114e+01,7.925113211404538963e-03
5.832000000000000028e+01,7.662701137920320191e-03
5.835999999999999943e+01,7.400339758054919753e-03
5.839999999999999858e+01,9.357695542821536927e-03
5.843999999999999773e+01,6.169513792818786917e-03
5.847999999999999687e+01,6.815352751878567435e-03
5.852000000000000313e+01,8.873759166392249098e-03
5.856000000000000227e+01,8.107189455725328023e-03
5.860000000000000142e+01,7.946036975574957695e-03
5.864000000000000057e+01,8.087620520529390650e-03
5.867999999999999972e+01,8.027471071062951963e-03
5.871999999999999886e+01,8.875422120561896402e-03
5.875999999999999801e+01,9.420747300101549662e-03
5.879999999999999716e+01,7.544675077244301052e-03
5.884000000000000341e+01,8.493689134713195907e-03
5.888000000000000256e+01,7.122200728360772275e-03
5.892000000000000171e+01,9.181163076195012970e-03
5.896000000000000085e+01,8.011578828213546458e-03
5.900000000000000000e+01,9.667082923595396796e-03
5.903999999999999915e+01,9.203874432307019085e-03
5.907999999999999829e+01,9.951452802988586602e-03
5.911999999999999744e+01,8.580319618518553529e-03
5.915999999999999659e+01,1.063964028279091451e-02
5.920000000000000284e+01,9.167735724632289709e-03
5.924000000000000199e+01,8.805726184423772959e-03
5.928000000000000114e+01,7.636627943841697505e-03
5.932000000000000028e+01,8.283683102127261527e-03
5.935999999999999943e+01,8.224544498614863239e-03
5.939999999999999858e+01,9.275302976089716891e-03
5.943999999999999773e+01,9.014505280943193102e-03
5.947999999999999687e+01,8.551984906561541436e-03
5.952000000000000313e+01,7.988636275761065372e-03
5.956000000000000227e+01,1.166289790775180447e-02
5.960000000000000142e+01,6.862138029111668203e-03
5.964000000000000057e+01,8.720443214149248279e-03
5.967999999999999972e+01,9.569877042292149888e-03
5.971999999999999886e+01,9.410440029299685025e-03
5.975999999999999801e+01,9.452859575615089535e-03
5.979999999999999716e+01,9.999817918168639463e-03
5.984000000000000341e+01,7.419134918667763361e-03
5.988000000000000256e+01,1.058947491388738393e-02
5.992000000000000171e+01,7.605357386861281814e-03
5.996000000000000085e+01,8.757961373162285665e-03
