2.003999999999999915e+01,3.020812287103213228e-02
2.007999999999999829e+01,5.921034258529018351e-02
2.012000000000000099e+01,1.676415483487903382e-02
2.016000000000000014e+01,3.723973088405697907e-02
2.019999999999999929e+01,2.909485517303346883e-02
2.023999999999999844e+01,1.384499359843532201e-02
2.028000000000000114e+01,2.254548823005192437e-02
2.032000000000000028e+01,2.393802187893011996e-02
2.035999999999999943e+01,1.213628845495311019e-02
2.039999999999999858e+01,4.783013899135162700e-02
2.044000000000000128e+01,2.120950993717419034e-02
2.048000000000000043e+01,4.330232234574320216e-02
2.051999999999999957e+01,2.195743239089754245e-02
2.055999999999999872e+01,4.689027180293691560e-02
2.060000000000000142e+01,1.519196404979343204e-02
2.064000000000000057e+01,5.494042164320758065e-02
2.067999999999999972e+01,1.877500460595013174e-02
2.071999999999999886e+01,1.609982528101776625e-02
2.076000000000000156e+01,3.250358184908447301e-02
2.080000000000000071e+01,1.886606130761640104e-02
2.083999999999999986e+01,1.679736234351878604e-02
2.087999999999999901e+01,3.035700721741892150e-02
2.092000000000000171e+01,2.097953954389862596e-02
2.096000000000000085e+01,2.844827321074736362e-02
2.100000000000000000e+01,1.643048880924404334e-02
2.103999999999999915e+01,1.882319365224825736e-02
2.107999999999999829e+01,3.319067515908486615e-02
2.112000000000000099e+01,4.167103800098637123e-02
2.116000000000000014e+01,3.675416737751052709e-02
2.119999999999999929e+01,4.807457273691204125e-02
2.123999999999999844e+01,3.199239547400534872e-02
2.128000000000000114e+01,2.057785810253326755e-02
2.132000000000000028e+01,1.383096110730925449e-02
2.135999999999999943e+01,4.321299873570404182e-02
2.139999999999999858e+01,2.327103809164960888e-02
2.144000000000000128e+01,3.560146735381769512e-02
2.148000000000000043e+01,2.519776694474403292e-02
2.151999999999999957e+01,1.946170933598559069e-02
2.155999999999999872e+01,5.046351704128511362e-02
2.160000000000000142e+01,1.407645699583095523e-02
2.164000000000000057e+01,2.802666118303808601e-02
2.167999999999999972e+01,4.420879704432573859e-02
2.171999999999999886e+01,5.024132364827523650e-02
2.176000000000000156e+01,6.134744813900189914e-02
2.180000000000000071e+01,3.084267057945984034e-02
2.183999999999999986e+01,2.875374208725133343e-02
2.187999999999999901e+01,2.666401071649295365e-02
2.192000000000000171e+01,3.147466397088165974e-02
2.196000000000000085e+01,2.227916518978962507e-02
2.200000000000000000e+01,5.286617838756372395e-02
2.203999999999999915e+01,4.407502942064725482e-02
2.207999999999999829e+01,1.397059067622527864e-02
2.212000000000000099e+01,4.759984384241146282e-02
2.216000000000000014e+01,3.616760581220803544e-02
2.219999999999999929e+01,4.016075153005459891e-02
2.223999999999999844e+01,3.481619864830043376e-02
2.228000000000000114e+01,3.474822604468866954e-02
2.232000000000000028e+01,4.841970843242877562e-03
2.235999999999999943e+01,3.785750610612298450e-02
2.239999999999999858e+01,4.042583147442375957e-02
2.244000000000000128e+01,4.969157168165552058e-02
2.248000000000000043e+01,5.855056410495743796e-02
2.251999999999999957e+01,2.072426098486506926e-02
2.255999999999999872e+01,3.871558764549139914e-02
2.260000000000000142e+01,5.995373757486065908e-02
2.264000000000000057e+01,3.958099563504326873e-02
2.267999999999999972e+01,2.712352797578147443e-02
2.271999999999999886e+01,2.522002423616762773e-02
2.276000000000000156e+01,3.366750881222467517e-02
2.280000000000000071e+01,2.912373197783631878e-02
2.283999999999999986e+01,2.011368994702513249e-02
2.287999999999999901e+01,5.311890753767296858e-02
2.292000000000000171e+01,3.781502572273527651e-02
2.296000000000000085e+01,5.173891090506993473e-02
2.300000000000000000e+01,3.947809132963116252e-02
2.303999999999999915e+01,4.162778523937128716e-02
2.307999999999999829e+01,8.864803542965080108e-03
2.312000000000000099e+01,3.699386063443296790e-02
2.316000000000000014e+01,3.366083659882335155e-02
2.319999999999999929e+01,3.519845181448340299e-02
2.323999999999999844e+01,3.003706970515738345e-02
2.328000000000000114e+01,4.293977358812274547e-02
2.332000000000000028e+01,5.685657248977538797e-02
2.335999999999999943e+01,3.829641224446388159e-02
2.339999999999999858e+01,4.328069384323308955e-02
2.344000000000000128e+01,6.105168506498978576e-02
2.348000000000000043e+01,4.573679032785057247e-02
2.351999999999999957e+01,6.350621506239499670e-02
2.355999999999999872e+01,5.610582227050744941e-02
2.360000000000000142e+01,3.246656034379220845e-02
2.364000000000000057e+01,4.373840414231680573e-02
2.367999999999999972e+01,4.019221239717511718e-02
2.371999999999999886e+01,6.851248601503993896e-02
2.376000000000000156e+01,6.313794880133088983e-02
2.380000000000000071e+01,5.309418193793048746e-02
2.383999999999999986e+01,9.237282552797664026e-02
2.387999999999999901e+01,5.106918323023898476e-02
2.392000000000000171e+01,8.872246131901558031e-02
2.396000000000000085e+01,9.531962015456481307e-02
2.400000000000000000e+01,9.501481478779193190e-02
2.403999999999999915e+01,1.105413676480683227e-01
2.407999999999999829e+01,1.461617770848118725e-01
2.412000000000000099e+01,1.657462997780926595e-01
2.416000000000000014e+01,1.725425536333753673e-01
2.419999999999999929e+01,1.685803000233800364e-01
2.423999999999999844e+01,1.743601244007803863e-01
2.428000000000000114e+01,1.383261006975537444e-01
2.432000000000000028e+01,1.666347238360456895e-01
2.435999999999999943e+01,1.679467543452582423e-01
2.439999999999999858e+01,1.662133711873061970e-01
2.444000000000000128e+01,1.468202964540733790e-01
2.448000000000000043e+01,1.580758397625580403e-01
2.451999999999999957e+01,1.386812227827843025e-01
2.455999999999999872e+01,1.566334357444478798e-01
2.460000000000000142e+01,1.412968002332007367e-01
2.464000000000000057e+01,1.320486779592511539e-01
2.467999999999999972e+01,1.384289455805747249e-01
2.471999999999999886e+01,1.301941663521718195e-01
2.476000000000000156e+01,1.122157668898325911e-01
2.480000000000000071e+01,1.141282566418113792e-01
2.483999999999999986e+01,1.050792705967364682e-01
2.487999999999999901e+01,1.140943899364903341e-01
2.492000000000000171e+01,1.220938627995612202e-01
2.496000000000000085e+01,1.175080526096931172e-01
2.500000000000000000e+01,9.993100767411819407e-02
2.503999999999999915e+01,1.235573441847646059e-01
2.507999999999999829e+01,1.185632880824475377e-01
2.512000000000000099e+01,1.196577510351889834e-01
2.516000000000000014e+01,1.089788377142214548e-01
2.519999999999999929e+01,1.265128380961244303e-01
2.523999999999999844e+01,1.101490694957597827e-01
2.528000000000000114e+01,1.134732198386838725e-01
2.532000000000000028e+01,1.054299480247338355e-01
2.535999999999999943e+01,1.197132852779782403e-01
2.539999999999999858e+01,1.120744447268594013e-01
2.544000000000000128e+01,8.697890080958624315e-02
2.548000000000000043e+01,9.172008269920330081e-02
2.551999999999999957e+01,7.007361428550226701e-02
2.555999999999999872e+01,7.055078127427207024e-02
2.560000000000000142e+01,8.482956450990777886e-02
2.564000000000000057e+01,7.129986627513079656e-02
2.567999999999999972e+01,5.573965033117254941e-02
2.571999999999999886e+01,5.966438257465977307e-02
2.576000000000000156e+01,5.587526759245314140e-02
2.580000000000000071e+01,4.396635369178486519e-02
2.583999999999999986e+01,5.336917423211861439e-02
2.587999999999999901e+01,5.241945984691978588e-02
2.592000000000000171e+01,6.973683954048938427e-02
2.596000000000000085e+01,5.924574164215387628e-02
2.600000000000000000e+01,6.966042794649257575e-02
2.603999999999999915e+01,4.252378536659982833e-02
2.607999999999999829e+01,7.161076740858873801e-02
2.612000000000000099e+01,7.126546508760053800e-02
2.616000000000000014e+01,5.671108554775063787e-02
2.619999999999999929e+01,4.215595548920083452e-02
2.623999999999999844e+01,4.688280383188056510e-02
2.628000000000000114e+01,5.526247222371971635e-02
2.632000000000000028e+01,3.684854783092797459e-02
2.635999999999999943e+01,3.934041200413138789e-02
2.639999999999999858e+01,5.319818905498092942e-02
2.644000000000000128e+01,3.802963779894210500e-02
2.648000000000000043e+01,4.782639833915272587e-02
2.651999999999999957e+01,2.027481190168350586e-02
2.655999999999999872e+01,4.387245368408977664e-02
2.660000000000000142e+01,6.138006713220971189e-02
2.664000000000000057e+01,4.661373727685744900e-02
2.667999999999999972e+01,1.784131259400872568e-02
2.671999999999999886e+01,4.711930508917269028e-02
2.676000000000000156e+01,5.366323190846728625e-02
2.680000000000000071e+01,6.243915245796108349e-02
2.683999999999999986e+01,5.619409967525867966e-02
2.687999999999999901e+01,4.629473501745222375e-02
2.692000000000000171e+01,3.923629381065731753e-02
2.696000000000000085e+01,4.902412666624518522e-02
2.700000000000000000e+01,5.860824261061110124e-02
2.703999999999999915e+01,6.474102470791733011e-02
2.707999999999999829e+01,4.144153407776877268e-02
2.712000000000000099e+01,4.310736300088429535e-02
2.716000000000000014e+01,4.720816610631056037e-02
2.719999999999999929e+01,6.592250920630254862e-02
2.723999999999999844e+01,7.184862079893020170e-02
2.728000000000000114e+01,5.159007950882130156e-02
2.732000000000000028e+01,3.863794047125336528e-02
2.735999999999999943e+01,6.425052184480645190e-02
2.739999999999999858e+01,8.316415631396982533e-02
2.744000000000000128e+01,5.823422011485998584e-02
2.748000000000000043e+01,4.913568383675394335e-02
2.751999999999999957e+01,4.105129348274471485e-02
2.755999999999999872e+01,6.544234330020293200e-02
2.760000000000000142e+01,6.912909851078045953e-02
2.764000000000000057e+01,8.357285336184840097e-02
2.767999999999999972e+01,8.137183635147655913e-02
2.771999999999999886e+01,7.856115897894305755e-02
2.776000000000000156e+01,7.067534777566587822e-02
2.780000000000000071e+01,6.583344677808636303e-02
2.783999999999999986e+01,8.676877841557559257e-02
2.787999999999999901e+01,9.532183848029655848e-02
2.792000000000000171e+01,1.042801210508765425e-01
2.796000000000000085e+01,8.847459160208293039e-02
2.800000000000000000e+01,8.322309006830973244e-02
2.803999999999999915e+01,7.309943418627767864e-02
2.807999999999999829e+01,8.347563553963682770e-02
2.812000000000000099e+01,6.036005499487638593e-02
2.816000000000000014e+01,9.894847867964449983e-02
2.819999999999999929e+01,7.928203860345528486e-02
2.823999999999999844e+01,9.310592738451539674e-02
2.828000000000000114e+01,8.805231459963940022e-02
2.832000000000000028e+01,1.132414142209883928e-01
2.835999999999999943e+01,8.646791077314550100e-02
2.839999999999999858e+01,1.252549601507347843e-01
2.844000000000000128e+01,9.360858334880578502e-02
2.848000000000000043e+01,9.423468178026242481e-02
2.851999999999999957e+01,6.928507062457082977e-02
2.855999999999999872e+01,9.223709450877490279e-02
2.860000000000000142e+01,5.815211601290014992e-02
2.864000000000000057e+01,1.024151868451518982e-01
2.867999999999999972e+01,6.954662347667314726e-02
2.871999999999999886e+01,9.290171672776233180e-02
2.876000000000000156e+01,6.957159006635174614e-02
2.880000000000000071e+01,9.272226873218247789e-02
2.883999999999999986e+01,8.319307858169819325e-02
2.887999999999999901e+01,1.110107707325010823e-01
2.892000000000000171e+01,7.326646865252341156e-02
2.896000000000000085e+01,9.174582610099429880e-02
2.900000000000000000e+01,4.527211855468353530e-02
2.903999999999999915e+01,7.674051300705216072e-02
2.907999999999999829e+01,9.521772216468335492e-02
2.912000000000000099e+01,8.162399416606549996e-02
2.916000000000000014e+01,7.736645160931325538e-02
2.919999999999999929e+01,7.168736227333326327e-02
2.923999999999999844e+01,8.508731161079902128e-02
2.928000000000000114e+01,7.291156057257151824e-02
2.932000000000000028e+01,6.743330776118432179e-02
2.935999999999999943e+01,5.951862966586976555e-02
2.939999999999999858e+01,6.905918347292901160e-02
2.944000000000000128e+01,7.717819340964114649e-02
2.948000000000000043e+01,9.808398617616803650e-02
2.951999999999999957e+01,9.422598583104503656e-02
2.955999999999999872e+01,9.726846271043362857e-02
2.960000000000000142e+01,1.092411781870541582e-01
2.964000000000000057e+01,1.522685264239054259e-01
2.967999999999999972e+01,1.571356616281748553e-01
2.971999999999999886e+01,1.764133912814651317e-01
2.976000000000000156e+01,2.076660028031014349e-01
2.980000000000000071e+01,2.048179245224099887e-01
2.983999999999999986e+01,2.115090160142030495e-01
2.987999999999999901e+01,1.983077448886437222e-01
2.992000000000000171e+01,1.763777965140334303e-01
2.996000000000000085e+01,1.304959647158837888e-01
3.000000000000000000e+01,1.018663960035186694e-01
3.003999999999999915e+01,9.617242134789084906e-02
3.007999999999999829e+01,8.337358009279144389e-02
3.012000000000000099e+01,5.839547050326644034e-02
3.016000000000000014e+01,6.163033473347711427e-02
3.019999999999999929e+01,9.470198197856244393e-02
3.023999999999999844e+01,4.719142042119903180e-02
3.028000000000000114e+01,5.265691697047617664e-02
3.032000000000000028e+01,4.330445845511577546e-02
3.035999999999999943e+01,5.242212392160495310e-02
3.039999999999999858e+01,4.996945271373470082e-02
3.044000000000000128e+01,3.675834967148106092e-02
3.048000000000000043e+01,6.617152663160974502e-02
3.051999999999999957e+01,5.113224198772692297e-02
3.055999999999999872e+01,6.856843387631864073e-02
3.060000000000000142e+01,3.728966726592128356e-02
3.064000000000000057e+01,3.726852162488107634e-02
3.067999999999999972e+01,3.947941674094244957e-02
3.071999999999999886e+01,3.722414216882593413e-02
3.076000000000000156e+01,4.329019198715863825e-02
3.080000000000000071e+01,4.529602526452182476e-02
3.083999999999999986e+01,4.019700115386831002e-02
3.087999999999999901e+01,5.843953345861555709e-02
3.092000000000000171e+01,7.079506587771719484e-02
3.096000000000000085e+01,3.991599855849939371e-02
3.100000000000000000e+01,3.440824999702944004e-02
3.103999999999999915e+01,5.934622289788817756e-02
3.107999999999999829e+01,3.313353005203064500e-02
3.112000000000000099e+01,4.995107714315154268e-02
3.116000000000000014e+01,3.896020966811265113e-02
3.119999999999999929e+01,2.675079574330810339e-02
3.123999999999999844e+01,6.406685805122441790e-02
3.128000000000000114e+01,4.657868743825923502e-02
3.132000000000000028e+01,5.182315030727029787e-02
3.135999999999999943e+01,6.214132741828086448e-02
3.139999999999999858e+01,3.835883411950083421e-02
3.144000000000000128e+01,5.111134979490435798e-02
3.148000000000000043e+01,6.041258543753873222e-02
3.151999999999999957e+01,7.559944161658904704e-02
3.155999999999999872e+01,6.094812718970685911e-02
3.160000000000000142e+01,7.633658883495998693e-02
3.164000000000000057e+01,7.365949399376764406e-02
3.167999999999999972e+01,1.107650284562907012e-01
3.171999999999999886e+01,1.387359553087855746e-01
3.176000000000000156e+01,1.656913185876935646e-01
3.180000000000000071e+01,1.678829163893169329e-01
3.183999999999999986e+01,1.956488192185608099e-01
3.187999999999999901e+01,2.374193904991692139e-01
3.192000000000000171e+01,2.948184394262812202e-01
3.196000000000000085e+01,3.164930160206648191e-01
3.200000000000000000e+01,3.219288252910401660e-01
3.203999999999999915e+01,3.216806243393365849e-01
3.207999999999999829e+01,2.976835417479958279e-01
3.211999999999999744e+01,2.643488803059705905e-01
3.215999999999999659e+01,2.373057993349575179e-01
3.220000000000000284e+01,2.037668057259565402e-01
3.224000000000000199e+01,1.805789153334084185e-01
3.228000000000000114e+01,1.525189219828246845e-01
3.232000000000000028e+01,1.307505110425067896e-01
3.235999999999999943e+01,1.193332047730822215e-01
3.239999999999999858e+01,1.038557013552249692e-01
3.243999999999999773e+01,8.025847949793482594e-02
3.247999999999999687e+01,4.854153968602512026e-02
3.252000000000000313e+01,8.421198743444686940e-02
3.256000000000000227e+01,6.690500257513289084e-02
3.260000000000000142e+01,4.513187081387217553e-02
3.264000000000000057e+01,1.828366436910593487e-02
3.267999999999999972e+01,5.841689524634351149e-02
3.271999999999999886e+01,6.018697384802897815e-02
3.275999999999999801e+01,3.171294421060334018e-02
3.279999999999999716e+01,4.545727051715728328e-02
3.284000000000000341e+01,5.311164412031946225e-02
3.288000000000000256e+01,5.061654372908943461e-02
3.292000000000000171e+01,4.507613293595490872e-02
3.296000000000000085e+01,2.309399036554353121e-02
3.300000000000000000e+01,2.140878857378408773e-02
3.303999999999999915e+01,6.153599345730344228e-02
3.307999999999999829e+01,2.980899577812719942e-02
3.311999999999999744e+01,3.766166876715896367e-02
3.315999999999999659e+01,4.226605817437607826e-02
3.320000000000000284e+01,3.428526440022003352e-02
3.324000000000000199e+01,2.305618801387623526e-02
3.328000000000000114e+01,5.059487987983133511e-02
3.332000000000000028e+01,3.307221581234286167e-02
3.335999999999999943e+01,3.056911857826912632e-02
3.339999999999999858e+01,3.131297551256346373e-02
3.343999999999999773e+01,2.312522177259771286e-02
3.347999999999999687e+01,3.584334289541711571e-02
3.352000000000000313e+01,2.806021725253378743e-02
3.356000000000000227e+01,2.798952167066746932e-02
3.360000000000000142e+01,4.273541974230577606e-02
3.364000000000000057e+01,1.932115277789143298e-02
3.367999999999999972e+01,6.227940698944448017e-02
3.371999999999999886e+01,6.119119055964161724e-02
3.375999999999999801e+01,1.950709748273808317e-02
3.379999999999999716e+01,4.115088570438179411e-02
3.384000000000000341e+01,1.854522865031926412e-02
3.388000000000000256e+01,1.359783388652502714e-02
3.392000000000000171e+01,9.867638705766495349e-03
3.396000000000000085e+01,1.303797407899637793e-02
3.400000000000000000e+01,2.168800786949334064e-02
3.403999999999999915e+01,2.242131870188512552e-02
3.407999999999999829e+01,3.188194634182183601e-02
3.411999999999999744e+01,3.707942159151268041e-02
3.415999999999999659e+01,2.421137089800397962e-02
3.420000000000000284e+01,3.103134726117795159e-02
3.424000000000000199e+01,2.709293784724410917e-02
3.428000000000000114e+01,1.381697576255077470e-02
3.432000000000000028e+01,2.550642049753833185e-02
3.435999999999999943e+01,1.872438953581215260e-02
3.439999999999999858e+01,2.391729668078943633e-02
3.443999999999999773e+01,3.215419451049320032e-02
3.447999999999999687e+01,1.867200067727227408e-02
3.452000000000000313e+01,1.655581813882309877e-02
3.456000000000000227e+01,2.134017342656371191e-02
3.460000000000000142e+01,2.429709520730793590e-02
3.464000000000000057e+01,3.171884271838058128e-02
3.467999999999999972e+01,3.102089893957210923e-02
3.471999999999999886e+01,3.478778186071890960e-02
3.475999999999999801e+01,2.840521357370456162e-02
3.479999999999999716e+01,3.237377953120244845e-02
3.484000000000000341e+01,2.659884742774738450e-02
3.488000000000000256e+01,1.047148948178080498e-02
3.492000000000000171e+01,1.585895211825469678e-02
3.496000000000000085e+01,1.170589423700674030e-02
3.500000000000000000e+01,2.013671000103567713e-02
3.503999999999999915e+01,3.140854763320179849e-02
3.507999999999999829e+01,3.415474664603973531e-02
3.511999999999999744e+01,2.837530752436287843e-02
3.515999999999999659e+01,1.792677644000777171e-02
3.520000000000000284e+01,5.213234345392623453e-02
3.524000000000000199e+01,2.300872981428320890e-02
3.528000000000000114e+01,2.818743471421521207e-02
3.532000000000000028e+01,1.793931688481603670e-02
3.535999999999999943e+01,5.051851429382782366e-02
3.539999999999999858e+01,2.951138525048517536e-02
3.543999999999999773e+01,1.438992425527425151e-02
3.547999999999999687e+01,2.058031454110118702e-02
3.552000000000000313e+01,3.468613473259371527e-02
3.556000000000000227e+01,3.397406337000768300e-02
3.560000000000000142e+01,2.311255098034243130e-02
3.564000000000000057e+01,1.854266124045754124e-02
3.567999999999999972e+01,1.559594459298041351e-02
3.571999999999999886e+01,2.218846898556157965e-02
3.575999999999999801e+01,1.599286513603825552e-02
3.579999999999999716e+01,2.583173813750215195e-02
3.584000000000000341e+01,2.044677080100009911e-02
3.588000000000000256e+01,2.378914208864727625e-02
3.592000000000000171e+01,3.098742635428041944e-02
3.596000000000000085e+01,2.519460871308551106e-02
3.600000000000000000e+01,2.427258546345695267e-02
3.603999999999999915e+01,2.659754837988251297e-02
3.607999999999999829e+01,4.150639803154759083e-02
3.611999999999999744e+01,3.855272158466170607e-02
3.615999999999999659e+01,3.255377400575884539e-02
3.620000000000000284e+01,2.147979489174552462e-02
3.624000000000000199e+01,2.136589574189975277e-02
3.628000000000000114e+01,2.267220086787258282e-02
3.632000000000000028e+01,3.412668257247713360e-02
3.635999999999999943e+01,2.893649762015539431e-02
3.639999999999999858e+01,1.116116827153465670e-02
3.643999999999999773e+01,8.202466998171939472e-03
3.647999999999999687e+01,7.475876779857570237e-03
3.652000000000000313e+01,1.425877640996309551e-02
3.656000000000000227e+01,2.652140548539494783e-02
3.660000000000000142e+01,1.929770556971146037e-02
3.664000000000000057e+01,1.938052086809740823e-02
3.667999999999999972e+01,3.448294323941251266e-02
3.671999999999999886e+01,8.989524839820548646e-03
3.675999999999999801e+01,2.348177340403976091e-02
3.679999999999999716e+01,2.214126499944311585e-02
3.684000000000000341e+01,2.668644161144828261e-02
3.688000000000000256e+01,8.700651294171656003e-03
3.692000000000000171e+01,2.379934286107640920e-02
3.696000000000000085e+01,3.666467734739543155e-02
3.700000000000000000e+01,1.502345712022213307e-02
3.703999999999999915e+01,2.991731374111217256e-02
3.707999999999999829e+01,3.809381776834617171e-03
3.711999999999999744e+01,4.102937135061876517e-02
3.715999999999999659e+01,1.674698834100211281e-02
3.720000000000000284e+01,2.006873621191212348e-02
3.724000000000000199e+01,2.318689128383738529e-02
3.728000000000000114e+01,2.407169315368437937e-02
3.732000000000000028e+01,1.034160089003423842e-02
3.735999999999999943e+01,2.015611967035066052e-02
3.739999999999999858e+01,2.956407150214527754e-02
3.743999999999999773e+01,0.000000000000000000e+00
3.747999999999999687e+01,1.935255209509809116e-02
3.752000000000000313e+01,1.475331239639434203e-02
3.756000000000000227e+01,1.685167079609680568e-02
3.760000000000000142e+01,2.828631693329786492e-02
3.764000000000000057e+01,1.901679015178846938e-02
3.767999999999999972e+01,1.137046070335820218e-02
3.771999999999999886e+01,3.112529234923849808e-02
3.775999999999999801e+01,3.545333083940659796e-02
3.779999999999999716e+01,2.841409843448981093e-02
3.784000000000000341e+01,3.659746325088228391e-02
3.788000000000000256e+01,2.915106027721214854e-02
3.792000000000000171e+01,3.469451851778048573e-02
3.796000000000000085e+01,2.927665998009907483e-02
3.800000000000000000e+01,3.400699838321329105e-02
3.803999999999999915e+01,1.925102524849546873e-02
3.807999999999999829e+01,3.900038067908319361e-02
3.811999999999999744e+01,3.906044945267510976e-02
3.815999999999999659e+01,3.993181702194451010e-02
3.820000000000000284e+01,3.004484681063533322e-02
3.824000000000000199e+01,2.502869814044442892e-02
3.828000000000000114e+01,3.625003246846385252e-02
3.832000000000000028e+01,3.387136522727530324e-02
3.835999999999999943e+01,2.946233396276174213e-02
3.839999999999999858e+01,3.033007835620140855e-02
3.843999999999999773e+01,2.855853142957085269e-02
3.847999999999999687e+01,4.363339819158983113e-02
3.852000000000000313e+01,4.896481149549117978e-02
3.856000000000000227e+01,1.410635850748446184e-02
3.860000000000000142e+01,3.486275362158983843e-02
3.864000000000000057e+01,2.476618349778581668e-02
3.867999999999999972e+01,4.227376219260520901e-02
3.871999999999999886e+01,3.177004186221179388e-02
3.875999999999999801e+01,1.740917755751128504e-02
3.879999999999999716e+01,1.725604166568887182e-02
3.884000000000000341e+01,1.527552365709313950e-02
3.888000000000000256e+01,1.958666756816528076e-02
3.892000000000000171e+01,2.207043033209104416e-02
3.896000000000000085e+01,3.328156905079984740e-02
3.900000000000000000e+01,1.993200564743155892e-02
3.903999999999999915e+01,3.723123675786786657e-02
3.907999999999999829e+01,2.895488627190054287e-02
3.911999999999999744e+01,4.828268993750430005e-02
3.915999999999999659e+01,3.513372595744772980e-02
3.920000000000000284e+01,5.263355843044942306e-02
3.924000000000000199e+01,5.064709391002195776e-02
3.928000000000000114e+01,4.967491784883863032e-02
3.932000000000000028e+01,6.636107001254962223e-02
3.935999999999999943e+01,4.854069606676043175e-02
3.939999999999999858e+01,3.680901425442296288e-02
3.943999999999999773e+01,4.456244692053634021e-02
3.947999999999999687e+01,4.094862905372873008e-02
3.952000000000000313e+01,3.794315037746442965e-02
3.956000000000000227e+01,6.660135296153281426e-02
3.960000000000000142e+01,5.709946274674906896e-02
3.964000000000000057e+01,4.982972188727446960e-02
3.967999999999999972e+01,6.407485930303823130e-02
3.971999999999999886e+01,5.416525550094796609e-02
3.975999999999999801e+01,5.582470259297891979e-02
3.979999999999999716e+01,5.240916178310775497e-02
3.984000000000000341e+01,7.740968820661220384e-02
3.988000000000000256e+01,5.795786647244711987e-02
3.992000000000000171e+01,6.448639987579610211e-02
3.996000000000000085e+01,7.547982348965924515e-02
4.000000000000000000e+01,7.936850073778049797e-02
4.003999999999999915e+01,9.178159094185661671e-02
4.007999999999999829e+01,7.943101602502744552e-02
4.011999999999999744e+01,1.129524553712674267e-01
4.015999999999999659e+01,1.050661912853921576e-01
4.020000000000000284e+01,1.227543335531436769e-01
4.024000000000000199e+01,1.382091584950104202e-01
4.028000000000000114e+01,1.556931644604104825e-01
4.032000000000000028e+01,1.843402759297383398e-01
4.035999999999999943e+01,2.263832303645051114e-01
4.039999999999999858e+01,2.881142870020356739e-01
4.043999999999999773e+01,3.291412046577955608e-01
4.047999999999999687e+01,4.249710888467359560e-01
4.052000000000000313e+01,4.919777914719048462e-01
4.056000000000000227e+01,6.288076921703922295e-01
4.060000000000000142e+01,7.205763251714798479e-01
4.064000000000000057e+01,7.985420086337473577e-01
4.067999999999999972e+01,8.377386841207532520e-01
4.071999999999999886e+01,8.726722872117287366e-01
4.075999999999999801e+01,9.307445903782304297e-01
4.079999999999999716e+01,9.366514651637252165e-01
4.084000000000000341e+01,1.000000000000000000e+00
4.088000000000000256e+01,9.770831245080585648e-01
4.092000000000000171e+01,9.401603267822004062e-01
4.096000000000000085e+01,9.206929010697962878e-01
4.100000000000000000e+01,9.245671544305898992e-01
4.103999999999999915e+01,9.217426262083718846e-01
4.107999999999999829e+01,9.018675363596309058e-01
4.111999999999999744e+01,8.564168896399708686e-01
4.115999999999999659e+01,8.460805370826223193e-01
4.120000000000000284e+01,8.416299223865391088e-01
4.124000000000000199e+01,7.535525908798390571e-01
4.128000000000000114e+01,6.642568350963568014e-01
4.132000000000000028e+01,6.283432234056021137e-01
4.135999999999999943e+01,5.682748903743438662e-01
4.139999999999999858e+01,4.540113753463730917e-01
4.143999999999999773e+01,3.557824055280827125e-01
4.147999999999999687e+01,3.044403469004713925e-01
4.152000000000000313e+01,2.809054476020274027e-01
4.156000000000000227e+01,2.183985749054266068e-01
4.160000000000000142e+01,1.887732647273872855e-01
4.164000000000000057e+01,1.851283305338394802e-01
4.167999999999999972e+01,1.579376071446675911e-01
4.171999999999999886e+01,1.555094041768698421e-01
4.175999999999999801e+01,1.368425521795398891e-01
4.179999999999999716e+01,1.228435887829323336e-01
4.184000000000000341e+01,1.232553667338139036e-01
4.188000000000000256e+01,1.116909949742080632e-01
4.192000000000000171e+01,9.789332625088142947e-02
4.196000000000000085e+01,1.319974549799484420e-01
4.200000000000000000e+01,9.830701103552784426e-02
4.203999999999999915e+01,1.058201545830349255e-01
4.207999999999999829e+01,1.186101183913305518e-01
4.211999999999999744e+01,1.259191702393214485e-01
4.215999999999999659e+01,1.090735104430773095e-01
4.220000000000000284e+01,1.466248858494095253e-01
4.224000000000000199e+01,1.488578656976455306e-01
4.228000000000000114e+01,1.650956400487369746e-01
4.232000000000000028e+01,1.864072614807067707e-01
4.235999999999999943e+01,2.245653436282286086e-01
4.239999999999999858e+01,2.698270347141625836e-01
4.243999999999999773e+01,3.398512549481124134e-01
4.247999999999999687e+01,4.257070569081010114e-01
4.252000000000000313e+01,5.089236169989889147e-01
4.256000000000000227e+01,5.972140270796357786e-01
4.260000000000000142e+01,7.265050553508075604e-01
4.264000000000000057e+01,8.044425818975524667e-01
4.267999999999999972e+01,8.115409026807779425e-01
4.271999999999999886e+01,7.406958550776228112e-01
4.275999999999999801e+01,7.143020211136877906e-01
4.279999999999999716e+01,6.152421980415573310e-01
4.284000000000000341e+01,5.565740678024605481e-01
4.288000000000000256e+01,4.465524387478174151e-01
4.292000000000000171e+01,3.627141772804861053e-01
4.296000000000000085e+01,3.074949969507683178e-01
4.300000000000000000e+01,2.189871911623162970e-01
4.303999999999999915e+01,1.893419047109178854e-01
4.307999999999999829e+01,1.357448938547839157e-01
4.311999999999999744e+01,1.081282769212382616e-01
4.315999999999999659e+01,9.309563253490855950e-02
4.320000000000000284e+01,6.791363923605069075e-02
4.324000000000000199e+01,7.398941962277938433e-02
4.328000000000000114e+01,5.509859758488618725e-02
4.332000000000000028e+01,6.990126326769470488e-02
4.335999999999999943e+01,5.303911656541541314e-02
4.339999999999999858e+01,3.942404523486074674e-02
4.343999999999999773e+01,4.082866291070441633e-02
4.347999999999999687e+01,4.345059603999264219e-02
4.352000000000000313e+01,4.079461026623679848e-02
4.356000000000000227e+01,3.610832349490133292e-02
4.360000000000000142e+01,3.446613843056701987e-02
4.364000000000000057e+01,5.535376008195366099e-02
4.367999999999999972e+01,4.031407536215534521e-02
4.371999999999999886e+01,3.542265691147270662e-02
4.375999999999999801e+01,4.473902699053294851e-02
4.379999999999999716e+01,3.497510752247599830e-02
4.384000000000000341e+01,3.860707319862605874e-02
4.388000000000000256e+01,2.376767856365782569e-02
4.392000000000000171e+01,3.937416150094159156e-02
4.396000000000000085e+01,2.818726545631554739e-02
4.400000000000000000e+01,1.842066725649933734e-02
4.403999999999999915e+01,5.168446558839836363e-02
4.407999999999999829e+01,5.267453199547916104e-02
4.411999999999999744e+01,2.666824527111313903e-02
4.415999999999999659e+01,3.902390649071674905e-02
4.420000000000000284e+01,2.316535901575614287e-02
4.424000000000000199e+01,2.354436677620656143e-02
4.428000000000000114e+01,5.254247167311362765e-02
4.432000000000000028e+01,4.195970835761803769e-02
4.435999999999999943e+01,3.949545818034597838e-02
4.439999999999999858e+01,4.941221949071541997e-02
4.443999999999999773e+01,1.954513795433190579e-02
4.447999999999999687e+01,4.874356929707598929e-02
4.452000000000000313e+01,2.070221512669432815e-02
4.456000000000000227e+01,2.797817241655614975e-02
4.460000000000000142e+01,4.073395659924308049e-02
4.464000000000000057e+01,4.537017021059214228e-02
4.467999999999999972e+01,3.011420058555661083e-02
4.471999999999999886e+01,3.089281592490241563e-02
4.475999999999999801e+01,3.897804489544328538e-02
4.479999999999999716e+01,6.411274024394582327e-02
4.484000000000000341e+01,4.134455404220199748e-02
4.488000000000000256e+01,2.608595901488407892e-02
4.492000000000000171e+01,5.324884291880476600e-02
4.496000000000000085e+01,7.066835141956941124e-02
4.500000000000000000e+01,3.795224333264374944e-02
4.503999999999999915e+01,3.953857207976916449e-02
4.507999999999999829e+01,4.193628349529490013e-02
4.511999999999999744e+01,6.321024996640592364e-02
4.515999999999999659e+01,5.809680417759131854e-02
4.520000000000000284e+01,4.060129674022232987e-02
4.524000000000000199e+01,7.263143522027344645e-02
4.528000000000000114e+01,7.746225853967650399e-02
4.532000000000000028e+01,6.118304984696560506e-02
4.535999999999999943e+01,7.433485573583660522e-02
4.539999999999999858e+01,1.023033982981731010e-01
4.543999999999999773e+01,1.048994124382314208e-01
4.547999999999999687e+01,1.257627577308238209e-01
4.552000000000000313e+01,1.484523714687176199e-01
4.556000000000000227e+01,1.494230278370060339e-01
4.560000000000000142e+01,1.796217256069662371e-01
4.564000000000000057e+01,1.988591996828544817e-01
4.567999999999999972e+01,2.493544770179483283e-01
4.571999999999999886e+01,2.645314009737140259e-01
4.575999999999999801e+01,2.689500787786388014e-01
4.579999999999999716e+01,3.090920352506045798e-01
4.584000000000000341e+01,3.465947900929841063e-01
4.588000000000000256e+01,3.333530107471964765e-01
4.592000000000000171e+01,3.578642724107972128e-01
4.596000000000000085e+01,3.436065900945085017e-01
4.600000000000000000e+01,3.701465910890953670e-01
4.603999999999999915e+01,3.467539641899316516e-01
4.607999999999999829e+01,3.308709430095966852e-01
4.611999999999999744e+01,2.979374212892302309e-01
4.615999999999999659e+01,2.625676779065755362e-01
4.620000000000000284e+01,2.430295613376081687e-01
4.624000000000000199e+01,2.163867740337935830e-01
4.628000000000000114e+01,1.866988382557589199e-01
4.632000000000000028e+01,1.407723087169226173e-01
4.635999999999999943e+01,1.614214301287006104e-01
4.639999999999999858e+01,1.416778041832112978e-01
4.643999999999999773e+01,1.010271358891747656e-01
4.647999999999999687e+01,1.255312873786579297e-01
4.652000000000000313e+01,8.853317973108228156e-02
4.656000000000000227e+01,7.974824467674707096e-02
4.660000000000000142e+01,8.375029995237326386e-02
4.664000000000000057e+01,5.669651086398462547e-02
4.667999999999999972e+01,6.983148506192768390e-02
4.671999999999999886e+01,6.632191816962199060e-02
4.675999999999999801e+01,6.179696950876428091e-02
4.679999999999999716e+01,4.204831334881946325e-02
4.684000000000000341e+01,5.518128321799519592e-02
4.688000000000000256e+01,5.004590522585026374e-02
4.692000000000000171e+01,4.693978873626741821e-02
4.696000000000000085e+01,3.348139281782779725e-02
4.700000000000000000e+01,3.849332256362319321e-02
4.703999999999999915e+01,4.127201740181643541e-02
4.707999999999999829e+01,4.344128652754639802e-02
4.711999999999999744e+01,3.464934989730128478e-02
4.715999999999999659e+01,4.737238220240525682e-02
4.720000000000000284e+01,2.883660084209176133e-02
4.724000000000000199e+01,3.039495676521933656e-02
4.728000000000000114e+01,2.931412851204386744e-02
4.732000000000000028e+01,3.432208838537862544e-02
4.735999999999999943e+01,4.744859775794386947e-02
4.739999999999999858e+01,3.520260246408886406e-02
4.743999999999999773e+01,3.493170332611440082e-02
4.747999999999999687e+01,3.912578554357826893e-02
4.752000000000000313e+01,5.448306053138678162e-02
4.756000000000000227e+01,2.863569786635469447e-02
4.760000000000000142e+01,3.749675524101439561e-02
4.764000000000000057e+01,2.788649787701793711e-02
4.767999999999999972e+01,3.918228748457300986e-02
4.771999999999999886e+01,3.160081114551738929e-02
4.775999999999999801e+01,2.483074995736160584e-02
4.779999999999999716e+01,3.998161763915116657e-02
4.784000000000000341e+01,4.051771869337483095e-02
4.788000000000000256e+01,2.745393404879946722e-02
4.792000000000000171e+01,3.245453404158656768e-02
4.796000000000000085e+01,3.603381463264302559e-02
4.800000000000000000e+01,2.905785231120113984e-02
4.803999999999999915e+01,3.080937599719013945e-02
4.807999999999999829e+01,3.621398395565608719e-02
4.811999999999999744e+01,3.796453747494752534e-02
4.815999999999999659e+01,3.626401312866852494e-02
4.820000000000000284e+01,3.111241140163258437e-02
4.824000000000000199e+01,3.468829810609465325e-02
4.828000000000000114e+01,3.359525186668244068e-02
4.832000000000000028e+01,2.316482312602342539e-02
4.835999999999999943e+01,4.236842141674399681e-02
4.839999999999999858e+01,4.452154680179833124e-02
4.843999999999999773e+01,3.774324331762760748e-02
4.847999999999999687e+01,2.812279411276591076e-02
4.852000000000000313e+01,4.123518685965402164e-02
4.856000000000000227e+01,3.851496517287373439e-02
4.860000000000000142e+01,4.898771023430750077e-02
4.864000000000000057e+01,2.881058734997922130e-02
4.867999999999999972e+01,3.075738009028229289e-02
4.871999999999999886e+01,4.670904538840248144e-02
4.875999999999999801e+01,3.891203121408448595e-02
4.879999999999999716e+01,4.207524923535004707e-02
4.884000000000000341e+01,5.071834553966387410e-02
4.888000000000000256e+01,3.236514640532868470e-02
4.892000000000000171e+01,3.146741576231954635e-02
4.896000000000000085e+01,3.503468441284552509e-02
4.900000000000000000e+01,4.144314413139449371e-02
4.903999999999999915e+01,3.993506269687324001e-02
4.907999999999999829e+01,5.243185818348991556e-02
4.911999999999999744e+01,5.904187437457014687e-02
4.915999999999999659e+01,4.393297682925333819e-02
4.920000000000000284e+01,4.445276636984023255e-02
4.924000000000000199e+01,3.989768242449377722e-02
4.928000000000000114e+01,6.761532581551467358e-02
4.932000000000000028e+01,4.864799848813709110e-02
4.935999999999999943e+01,4.815102542898665877e-02
4.939999999999999858e+01,5.130715264115625479e-02
4.943999999999999773e+01,5.689852407671523032e-02
4.947999999999999687e+01,5.822692929038406767e-02
4.952000000000000313e+01,5.772808183246457697e-02
4.956000000000000227e+01,7.265494973497903242e-02
4.960000000000000142e+01,5.855577003757910654e-02
4.964000000000000057e+01,5.399600009530998446e-02
4.967999999999999972e+01,6.262920999121737720e-02
4.971999999999999886e+01,6.842028919565008860e-02
4.975999999999999801e+01,5.371031846863132814e-02
4.979999999999999716e+01,5.848558778674085162e-02
4.984000000000000341e+01,5.189373213860692946e-02
4.988000000000000256e+01,5.484128915448418379e-02
4.992000000000000171e+01,5.596159834690742074e-02
4.996000000000000085e+01,4.530883184994605184e-02
5.000000000000000000e+01,5.840380568678465306e-02
5.003999999999999915e+01,5.566618302805167312e-02
5.007999999999999829e+01,6.267095154618776420e-02
5.011999999999999744e+01,7.069013990800659952e-02
5.015999999999999659e+01,7.160470504669391723e-02
5.020000000000000284e+01,5.952834087213298292e-02
5.024000000000000199e+01,5.536758501457867548e-02
5.028000000000000114e+01,5.831053360368151223e-02
5.032000000000000028e+01,6.287683272690634817e-02
5.035999999999999943e+01,5.790279798557842333e-02
5.039999999999999858e+01,5.597294736953416922e-02
5.043999999999999773e+01,3.963133772758743040e-02
5.047999999999999687e+01,6.774103529385240574e-02
5.052000000000000313e+01,4.368542228877302785e-02
5.056000000000000227e+01,4.561029338157922275e-02
5.060000000000000142e+01,5.118827929010822536e-02
5.064000000000000057e+01,5.270628912512722447e-02
5.067999999999999972e+01,6.498157785317013047e-02
5.071999999999999886e+01,4.843380864486544757e-02
5.075999999999999801e+01,5.137129111721131652e-02
5.079999999999999716e+01,5.532320167506812186e-02
5.084000000000000341e+01,5.683894729380763178e-02
5.088000000000000256e+01,4.942329361694098450e-02
5.092000000000000171e+01,4.687861516704876219e-02
5.096000000000000085e+01,5.143764940564205662e-02
5.100000000000000000e+01,2.737660519037231344e-02
5.103999999999999915e+01,4.736092279312093672e-02
5.107999999999999829e+01,3.974004335558690981e-02
5.111999999999999744e+01,4.896573080774525855e-02
5.115999999999999659e+01,3.687848094175930763e-02
5.120000000000000284e+01,5.767290994955726058e-02
5.124000000000000199e+01,6.202582873981438150e-02
5.128000000000000114e+01,4.506581166636741687e-02
5.132000000000000028e+01,4.759105306095898907e-02
5.135999999999999943e+01,3.773430746826385296e-02
5.139999999999999858e+01,4.208544300467602362e-02
5.143999999999999773e+01,5.232244051459068040e-02
5.147999999999999687e+01,5.586078297779827756e-02
5.152000000000000313e+01,4.255166643957754985e-02
5.156000000000000227e+01,3.208377199743918384e-02
5.160000000000000142e+01,5.145291994535865915e-02
5.164000000000000057e+01,5.356865816870872571e-02
5.167999999999999972e+01,4.228753283932599333e-02
5.171999999999999886e+01,4.135774683053499573e-02
5.175999999999999801e+01,6.620548337524161109e-02
5.179999999999999716e+01,5.959148591928410676e-02
5.184000000000000341e+01,5.054133564454492411e-02
5.188000000000000256e+01,3.844610476946536820e-02
5.192000000000000171e+01,5.801470496206727334e-02
5.196000000000000085e+01,5.484954491125852705e-02
5.200000000000000000e+01,6.264465584110753826e-02
5.203999999999999915e+01,6.029052500219563016e-02
5.207999999999999829e+01,5.773298123008019367e-02
5.211999999999999744e+01,5.842261851901648512e-02
5.215999999999999659e+01,7.088443308302691537e-02
5.220000000000000284e+01,4.883987716264709400e-02
5.224000000000000199e+01,6.475141494096767203e-02
5.228000000000000114e+01,3.418099396587396394e-02
5.232000000000000028e+01,7.018629617859507841e-02
5.235999999999999943e+01,5.666499927566839845e-02
5.239999999999999858e+01,6.344087828590561084e-02
5.243999999999999773e+01,6.595382695044621491e-02
5.247999999999999687e+01,6.501575010926650966e-02
5.252000000000000313e+01,7.463199837373768464e-02
5.256000000000000227e+01,8.465376778913852318e-02
5.260000000000000142e+01,1.023881980367473687e-01
5.264000000000000057e+01,1.008394697922156413e-01
5.267999999999999972e+01,1.102510207701698497e-01
5.271999999999999886e+01,1.101222664875634721e-01
5.275999999999999801e+01,1.268400989719999927e-01
5.279999999999999716e+01,1.360473880534098512e-01
5.284000000000000341e+01,1.663637627360938509e-01
5.288000000000000256e+01,1.380196206101234890e-01
5.292000000000000171e+01,1.401214651394261657e-01
5.296000000000000085e+01,1.341038399385836577e-01
5.300000000000000000e+01,1.392494739275252358e-01
5.303999999999999915e+01,1.628655067875292572e-01
5.307999999999999829e+01,1.158454360242951037e-01
5.311999999999999744e+01,1.112469435790519462e-01
5.315999999999999659e+01,9.751410338377732023e-02
5.320000000000000284e+01,9.250881173686556491e-02
5.324000000000000199e+01,7.309179500099123594e-02
5.328000000000000114e+01,7.559577355450164404e-02
5.332000000000000028e+01,7.160409545151327770e-02
5.335999999999999943e+01,5.441855024674671637e-02
5.339999999999999858e+01,6.382245182799110850e-02
5.343999999999999773e+01,5.394320461336343103e-02
5.347999999999999687e+01,5.238555716321120770e-02
5.352000000000000313e+01,5.448105992016194499e-02
5.356000000000000227e+01,4.175888928907619396e-02
5.360000000000000142e+01,5.440831133532429004e-02
5.364000000000000057e+01,4.757161092097673266e-02
5.367999999999999972e+01,4.560591918573001641e-02
5.371999999999999886e+01,4.323385830583961753e-02
5.375999999999999801e+01,3.050960041537502734e-02
5.379999999999999716e+01,3.321110927556746029e-02
5.384000000000000341e+01,2.799613516030093410e-02
5.388000000000000256e+01,4.043966574201595526e-02
5.392000000000000171e+01,3.623874249989899460e-02
5.396000000000000085e+01,3.609692697541413975e-02
5.400000000000000000e+01,4.407374142918860788e-02
5.403999999999999915e+01,3.215848609292028953e-02
5.407999999999999829e+01,4.094637920956106097e-02
5.411999999999999744e+01,2.212911213173967412e-02
5.415999999999999659e+01,2.908939669622150059e-02
5.420000000000000284e+01,3.178677224679760105e-02
5.424000000000000199e+01,4.179087632935087060e-02
5.428000000000000114e+01,4.550231147971825485e-02
5.432000000000000028e+01,3.622286725262036794e-02
5.435999999999999943e+01,3.627991389984688148e-02
5.439999999999999858e+01,5.440142372421089001e-02
5.443999999999999773e+01,3.395706843792266338e-02
5.447999999999999687e+01,4.172598173793343884e-02
5.452000000000000313e+01,3.061771150961610163e-02
5.456000000000000227e+01,3.087569546759706685e-02
5.460000000000000142e+01,2.869756005892280457e-02
5.464000000000000057e+01,3.159342105366236275e-02
5.467999999999999972e+01,5.052398773132645016e-02
5.471999999999999886e+01,2.297262522919532590e-02
5.475999999999999801e+01,3.317441088021980816e-02
5.479999999999999716e+01,3.586567736888876534e-02
5.484000000000000341e+01,3.875951655406200541e-02
5.488000000000000256e+01,3.150414839222775293e-02
5.492000000000000171e+01,5.022931717294248227e-02
5.496000000000000085e+01,2.856184234646333073e-02
5.500000000000000000e+01,3.206300107699736057e-02
5.503999999999999915e+01,3.779649581600977998e-02
5.507999999999999829e+01,3.865816394063970735e-02
5.511999999999999744e+01,4.134621686579344202e-02
5.515999999999999659e+01,3.835053979102889116e-02
5.520000000000000284e+01,2.764137231325240057e-02
5.524000000000000199e+01,2.708061073085840306e-02
5.528000000000000114e+01,4.153968165963698583e-02
5.532000000000000028e+01,5.011204843896014532e-02
5.535999999999999943e+01,2.580189174447931541e-02
5.539999999999999858e+01,4.756691060058719500e-02
5.543999999999999773e+01,3.929107219558770209e-02
5.547999999999999687e+01,3.669816864145595409e-02
5.552000000000000313e+01,2.456499376370351734e-02
5.556000000000000227e+01,1.425820901942267266e-02
5.560000000000000142e+01,5.043255442737901162e-02
5.564000000000000057e+01,3.565950785285370433e-02
5.567999999999999972e+01,4.098070085740260216e-02
5.571999999999999886e+01,4.061817064942099820e-02
5.575999999999999801e+01,3.619572642404798174e-02
5.579999999999999716e+01,4.212467097023612356e-02
5.584000000000000341e+01,3.364192194033438499e-02
5.588000000000000256e+01,2.698556692241154201e-02
5.592000000000000171e+01,2.905679342016461233e-02
5.596000000000000085e+01,4.046453018477911417e-02
5.600000000000000000e+01,3.989628837804570088e-02
5.603999999999999915e+01,2.978778155026613750e-02
5.607999999999999829e+01,4.768958661253201031e-02
5.611999999999999744e+01,3.230292523486754525e-02
5.615999999999999659e+01,2.970337005757337293e-02
5.620000000000000284e+01,4.293556289732338577e-02
5.624000000000000199e+01,4.337987571944326021e-02
5.628000000000000114e+01,3.042738074237434989e-02
5.632000000000000028e+01,3.046496999372015971e-02
5.635999999999999943e+01,3.780931347215481242e-02
5.639999999999999858e+01,3.541042020407335345e-02
5.643999999999999773e+01,4.904625395070726090e-02
5.647999999999999687e+01,4.380492792487099968e-02
5.652000000000000313e+01,3.795429060254006809e-02
5.656000000000000227e+01,3.190029464610937698e-02
5.660000000000000142e+01,3.863341022299673910e-02
5.664000000000000057e+01,4.150959853717873377e-02
5.667999999999999972e+01,3.870207527435258477e-02
5.671999999999999886e+01,3.406738660635479782e-02
5.675999999999999801e+01,3.186803088260346806e-02
5.679999999999999716e+01,3.941114778437682792e-02
5.684000000000000341e+01,3.091877452007041685e-02
5.688000000000000256e+01,3.338673138365983589e-02
5.692000000000000171e+01,2.996800349033086966e-02
5.696000000000000085e+01,4.725245895647776223e-02
5.700000000000000000e+01,2.739191296156662930e-02
5.703999999999999915e+01,3.209109698278132111e-02
5.707999999999999829e+01,3.171550254149414771e-02
5.711999999999999744e+01,2.849786709921624944e-02
5.715999999999999659e+01,3.766139780006298732e-02
5.720000000000000284e+01,3.525491665154593945e-02
5.724000000000000199e+01,3.609567862019917583e-02
5.728000000000000114e+01,3.023785584009225022e-02
5.732000000000000028e+01,3.493441634324732925e-02
5.735999999999999943e+01,4.714071928261751032e-02
5.739999999999999858e+01,3.884606488990068052e-02
5.743999999999999773e+01,4.171472350125826623e-02
5.747999999999999687e+01,2.651813881564395875e-02
5.752000000000000313e+01,3.040093556656793886e-02
5.756000000000000227e+01,3.205062491582091194e-02
5.760000000000000142e+01,3.735351392314636976e-02
5.764000000000000057e+01,4.488877045182293468e-02
5.767999999999999972e+01,4.856711232294328578e-02
5.771999999999999886e+01,3.458616598355362254e-02
5.775999999999999801e+01,4.029353225595489613e-02
5.779999999999999716e+01,4.863922016654238095e-02
5.784000000000000341e+01,4.034050176501363660e-02
5.788000000000000256e+01,3.670986685920483994e-02
5.792000000000000171e+01,2.516279842890653540e-02
5.796000000000000085e+01,3.959630378697769071e-02
5.800000000000000000e+01,3.170207428604698147e-02
5.803999999999999915e+01,4.369913687939186442e-02
5.807999999999999829e+01,3.296251340578039424e-02
5.811999999999999744e+01,4.394396779518759677e-02
5.815999999999999659e+01,3.990482846131153394e-02
5.820000000000000284e+01,4.439032218868604190e-02
5.824000000000000199e+01,3.507307969514826540e-02
5.828000000000000114e+01,4.605308438234802237e-02
5.832000000000000028e+01,5.297320608021571092e-02
5.835999999999999943e+01,4.710547345556483773e-02
5.839999999999999858e+01,4.570285454041781575e-02
5.843999999999999773e+01,3.780464102489058259e-02
5.847999999999999687e+01,3.498047045486615131e-02
5.852000000000000313e+01,4.047796073580890025e-02
5.856000000000000227e+01,4.130664266992801342e-02
5.860000000000000142e+01,3.442187541017664026e-02
5.864000000000000057e+01,5.067602493755317405e-02
5.867999999999999972e+01,4.561732829170958570e-02
5.871999999999999886e+01,4.421184487871451102e-02
5.875999999999999801e+01,4.422683820668361909e-02
5.879999999999999716e+01,2.556767597015187007e-02
5.884000000000000341e+01,3.715159605248954944e-02
5.888000000000000256e+01,3.716552464762750557e-02
5.892000000000000171e+01,4.611004720823898284e-02
5.896000000000000085e+01,5.221255106927732287e-02
5.900000000000000000e+01,5.222541929490491508e-02
5.903999999999999915e+01,4.614865236993506009e-02
5.907999999999999829e+01,5.529474010220396252e-02
5.911999999999999744e+01,3.866251304080523671e-02
5.915999999999999659e+01,5.288230044315537365e-02
5.920000000000000284e+01,3.300175438104629294e-02
5.924000000000000199e+01,3.605715628947604723e-02
5.928000000000000114e+01,3.647351946563065495e-02
5.932000000000000028e+01,4.561750536660243854e-02
5.935999999999999943e+01,4.725102737394942798e-02
5.939999999999999858e+01,3.690861201908982731e-02
5.943999999999999773e+01,4.706643399334776295e-02
5.947999999999999687e+01,4.098582171042140093e-02
5.952000000000000313e+01,4.850426070735601447e-02
5.956000000000000227e+01,4.181402730464001821e-02
5.960000000000000142e+01,4.446034828680726220e-02
5.964000000000000057e+01,4.487358707760176479e-02
5.967999999999999972e+01,4.021207891876710239e-02
5.971999999999999886e+01,3.575320260367473302e-02
5.975999999999999801e+01,3.738326519206824211e-02
5.979999999999999716e+01,3.982488886020309204e-02
5.984000000000000341e+01,4.307807409289253486e-02
5.988000000000000256e+01,5.018746270681052890e-02
5.992000000000000171e+01,5.019234639207303950e-02
5.996000000000000085e+01,4.390462998865631711e-02
