2.003999999999999915e+01,6.639186069827654989e-03
2.007999999999999829e+01,6.771054423414905009e-03
2.012000000000000099e+01,4.887492876814481489e-03
2.016000000000000014e+01,6.530925049912796911e-03
2.019999999999999929e+01,6.382863255325311146e-03
2.023999999999999844e+01,7.634399798993159875e-03
2.028000000000000114e+01,6.086728571600925029e-03
2.032000000000000028e+01,6.050623457158966698e-03
2.035999999999999943e+01,6.966243475076652064e-03
2.039999999999999858e+01,7.210050145597717876e-03
2.044000000000000128e+01,6.838027356069590473e-03
2.048000000000000043e+01,6.969856493005442861e-03
2.051999999999999957e+01,6.093967234455916968e-03
2.055999999999999872e+01,6.953579255134498260e-03
2.060000000000000142e+01,5.517838682436090880e-03
2.064000000000000057e+01,6.993264662826453350e-03
2.067999999999999972e+01,8.020812270542012831e-03
2.071999999999999886e+01,8.656465392930211278e-03
2.076000000000000156e+01,8.228414891593571409e-03
2.080000000000000071e+01,5.952883470327638774e-03
2.083999999999999986e+01,7.428278827922328749e-03
2.087999999999999901e+01,6.384383935634224162e-03
2.092000000000000171e+01,8.531574650060184603e-03
2.096000000000000085e+01,7.823570258070580707e-03
2.100000000000000000e+01,9.466889906131144977e-03
2.103999999999999915e+01,7.303284723305341133e-03
2.107999999999999829e+01,7.379035039610783338e-03
2.112000000000000099e+01,5.607302903538925742e-03
2.116000000000000014e+01,8.594209434141986473e-03
2.119999999999999929e+01,4.135225238909853891e-03
2.123999999999999844e+01,7.234083272413578333e-03
2.128000000000000114e+01,8.597426245122928926e-03
2.132000000000000028e+01,7.889349492061175154e-03
2.135999999999999943e+01,9.532595055045578816e-03
2.139999999999999858e+01,4.961598670290875111e-03
2.144000000000000128e+01,8.060411714298968897e-03
2.148000000000000043e+01,5.392855058683626752e-03
2.151999999999999957e+01,4.908667716180080756e-03
2.155999999999999872e+01,9.966894229439861655e-03
2.160000000000000142e+01,9.034814152794393843e-03
2.164000000000000057e+01,5.639424265605578850e-03
2.167999999999999972e+01,4.203466609690712300e-03
2.171999999999999886e+01,7.190240465246008905e-03
2.176000000000000156e+01,7.769688014493440591e-03
2.180000000000000071e+01,5.997793144780452779e-03
2.183999999999999986e+01,6.857138686958927712e-03
2.187999999999999901e+01,5.253173269258074908e-03
2.192000000000000171e+01,6.112495643626298866e-03
2.196000000000000085e+01,7.587631014693460053e-03
2.200000000000000000e+01,5.423789194240653116e-03
2.203999999999999915e+01,5.947170906802756903e-03
2.207999999999999829e+01,5.350858595388550965e-03
2.212000000000000099e+01,9.009323643174140320e-03
2.216000000000000014e+01,6.677479419270453478e-03
2.219999999999999929e+01,4.513574411502042742e-03
2.223999999999999844e+01,8.955777502210689536e-03
2.228000000000000114e+01,6.735861799720570253e-03
2.232000000000000028e+01,7.371120526063752558e-03
2.235999999999999943e+01,5.431097836048689662e-03
2.239999999999999858e+01,5.618456166009961825e-03
2.244000000000000128e+01,9.444765454784955286e-03
2.248000000000000043e+01,6.161082361353517438e-03
2.251999999999999957e+01,7.915951816210294728e-03
2.255999999999999872e+01,4.744207582983537598e-03
2.260000000000000142e+01,6.163142883705319784e-03
2.264000000000000057e+01,2.487511876521206720e-03
2.267999999999999972e+01,6.761604754381162624e-03
2.271999999999999886e+01,4.373576731926375090e-03
2.276000000000000156e+01,7.975829449782596836e-03
2.280000000000000071e+01,4.300136016274009459e-03
2.283999999999999986e+01,5.047168730667588379e-03
2.287999999999999901e+01,6.242057799261725021e-03
2.292000000000000171e+01,4.749694611906696805e-03
2.296000000000000085e+01,6.784311735330491276e-03
2.300000000000000000e+01,3.724360826844369358e-03
2.303999999999999915e+01,7.046577870101504784e-03
2.307999999999999829e+01,4.154544920267536252e-03
2.312000000000000099e+01,6.916886513319845525e-03
2.316000000000000014e+01,5.368436412886676973e-03
2.319999999999999929e+01,5.667443106792559478e-03
2.323999999999999844e+01,4.510845748177374527e-03
2.328000000000000114e+01,4.697848090658110487e-03
2.332000000000000028e+01,4.604911654478434715e-03
2.335999999999999943e+01,5.351717826151538432e-03
2.339999999999999858e+01,4.866855494693419701e-03
2.344000000000000128e+01,3.990085652099986842e-03
2.348000000000000043e+01,5.800532446505479896e-03
2.351999999999999957e+01,6.603246478725593137e-03
2.355999999999999872e+01,3.095166901900244048e-03
2.360000000000000142e+01,6.473109305165265781e-03
2.364000000000000057e+01,5.260337321755521010e-03
2.367999999999999972e+01,4.663370098136717518e-03
2.371999999999999886e+01,6.529682046567016063e-03
2.376000000000000156e+01,5.428817321854865520e-03
2.380000000000000071e+01,7.127135859500565059e-03
2.383999999999999986e+01,5.074500236243395523e-03
2.387999999999999901e+01,3.525700257190249667e-03
2.392000000000000171e+01,6.287653096220345746e-03
2.396000000000000085e+01,5.690539752003797441e-03
2.400000000000000000e+01,4.589548057061002342e-03
2.403999999999999915e+01,6.119786238429674764e-03
2.407999999999999829e+01,5.914495950084024990e-03
2.412000000000000099e+01,3.525804369240353141e-03
2.416000000000000014e+01,3.824326168943610691e-03
2.419999999999999929e+01,2.835191555492205980e-03
2.423999999999999844e+01,4.253349544958450780e-03
2.428000000000000114e+01,5.559516395130657818e-03
2.432000000000000028e+01,5.354089941866374200e-03
2.435999999999999943e+01,7.220051043430969658e-03
2.439999999999999858e+01,3.375612540687625805e-03
2.444000000000000128e+01,5.577430811806768918e-03
2.448000000000000043e+01,6.267655013265410920e-03
2.451999999999999957e+01,3.430858112983024583e-03
2.455999999999999872e+01,5.912524386150169731e-03
2.460000000000000142e+01,3.803471675298543755e-03
2.464000000000000057e+01,3.877773336190733829e-03
2.467999999999999972e+01,3.784097863325435601e-03
2.471999999999999886e+01,2.906620197208608768e-03
2.476000000000000156e+01,2.532973961063821836e-03
2.480000000000000071e+01,2.719143042238521095e-03
2.483999999999999986e+01,3.968983959307851618e-03
2.487999999999999901e+01,3.707228891156672240e-03
2.492000000000000171e+01,5.236938301533098847e-03
2.496000000000000085e+01,6.206780684935828823e-03
2.500000000000000000e+01,5.553058350643146068e-03
2.503999999999999915e+01,3.667659659423264887e-03
2.507999999999999829e+01,3.461756522700055409e-03
2.512000000000000099e+01,3.143858224006831556e-03
2.516000000000000014e+01,4.561439175601748885e-03
2.519999999999999929e+01,3.067820636941685341e-03
2.523999999999999844e+01,4.037473991202731628e-03
2.528000000000000114e+01,4.055370233717871427e-03
2.532000000000000028e+01,3.457413646351869922e-03
2.535999999999999943e+01,4.203046799169790453e-03
2.539999999999999858e+01,3.493065555442673251e-03
2.544000000000000128e+01,3.902737353173650788e-03
2.548000000000000043e+01,3.136714765764885178e-03
2.551999999999999957e+01,3.770265231219502820e-03
2.555999999999999872e+01,2.388359744870504741e-03
2.560000000000000142e+01,2.965867717307480843e-03
2.564000000000000057e+01,4.383107378905244655e-03
2.567999999999999972e+01,4.232763145259063955e-03
2.571999999999999886e+01,4.194357191916704003e-03
2.576000000000000156e+01,3.876000774997949601e-03
2.580000000000000071e+01,4.285407123209085054e-03
2.583999999999999986e+01,3.351165125566097150e-03
2.587999999999999901e+01,5.694178803818700663e-04
2.592000000000000171e+01,3.721952163681225417e-03
2.596000000000000085e+01,2.955569896899345930e-03
2.600000000000000000e+01,4.036631015536524918e-03
2.603999999999999915e+01,3.830026909443054114e-03
2.607999999999999829e+01,5.526849884560111267e-03
2.612000000000000099e+01,2.464994359820034744e-03
2.616000000000000014e+01,6.009228161069065342e-03
2.619999999999999929e+01,3.787069659086698091e-03
2.623999999999999844e+01,2.348655894021682480e-03
2.628000000000000114e+01,3.205556804711393471e-03
2.632000000000000028e+01,4.566281674689151061e-03
2.635999999999999943e+01,6.150909917881664316e-03
2.639999999999999858e+01,6.167950817822228510e-03
2.644000000000000128e+01,8.928178258521208069e-03
2.648000000000000043e+01,1.325592639144996393e-02
2.651999999999999957e+01,2.458165067868802942e-02
2.655999999999999872e+01,3.165255106908410748e-02
2.660000000000000142e+01,3.015785329551582891e-02
2.664000000000000057e+01,2.110527058668948061e-02
2.667999999999999972e+01,1.445996879586478913e-02
2.671999999999999886e+01,5.967157734822845644e-03
2.676000000000000156e+01,4.696257994368073681e-03
2.680000000000000071e+01,2.977450573170541386e-03
2.683999999999999986e+01,4.785604881819845169e-03
2.687999999999999901e+01,4.578296917317545636e-03
2.692000000000000171e+01,4.370953328632157416e-03
2.696000000000000085e+01,2.148147083683151111e-03
2.700000000000000000e+01,4.068126670295048666e-03
2.703999999999999915e+01,4.588468085469378163e-03
2.707999999999999829e+01,1.973664691642907417e-03
2.712000000000000099e+01,2.661885371157448211e-03
2.716000000000000014e+01,4.693687170835935882e-03
2.719999999999999929e+01,2.862550561100650048e-03
2.723999999999999844e+01,3.270739950872645751e-03
2.728000000000000114e+01,3.734876071361034524e-03
2.732000000000000028e+01,4.982751756754755755e-03
2.735999999999999943e+01,2.255720108703798688e-03
2.739999999999999858e+01,7.603002736738654656e-04
2.744000000000000128e+01,3.519632320895755683e-03
2.748000000000000043e+01,5.663101194212504831e-03
2.751999999999999957e+01,1.368362496108375655e-03
2.755999999999999872e+01,1.776247736815735707e-03
2.760000000000000142e+01,2.464014491405312757e-03
2.764000000000000057e+01,3.935519278452244939e-03
2.767999999999999972e+01,3.783446513551776396e-03
2.771999999999999886e+01,4.974952187031260638e-03
2.776000000000000156e+01,2.247532690409510380e-03
2.780000000000000071e+01,3.942815588745972669e-03
2.783999999999999986e+01,6.813724114083987218e-03
2.787999999999999901e+01,4.757993474390523683e-03
2.792000000000000171e+01,5.165521893366187625e-03
2.796000000000000085e+01,3.221678393757491845e-03
2.800000000000000000e+01,3.461173175188631077e-03
2.803999999999999915e+01,6.774867080818849398e-04
2.807999999999999829e+01,3.436182873110542064e-03
2.812000000000000099e+01,2.835792933068562258e-03
2.816000000000000014e+01,4.754644981263176327e-03
2.819999999999999929e+01,3.818267251406290939e-03
2.823999999999999844e+01,2.601927181501038997e-03
2.828000000000000114e+01,3.680892209550540826e-03
2.832000000000000028e+01,3.528165173080872758e-03
2.835999999999999943e+01,5.166886141322822243e-03
2.839999999999999858e+01,3.110615190181385565e-03
2.844000000000000128e+01,2.845791860639577259e-03
2.848000000000000043e+01,3.532654777589500691e-03
2.851999999999999957e+01,1.588222699653773747e-03
2.855999999999999872e+01,3.170744114656904276e-03
2.860000000000000142e+01,2.233938309469300429e-03
2.864000000000000057e+01,3.984324430556669336e-03
2.867999999999999972e+01,2.991446632727459004e-03
2.871999999999999886e+01,2.446397221922860191e-03
2.876000000000000156e+01,1.117526270710755007e-03
2.880000000000000071e+01,3.035687268584223893e-03
2.883999999999999986e+01,1.594758713379063877e-03
2.887999999999999901e+01,3.792750276471690708e-03
2.892000000000000171e+01,2.239763351049471694e-03
2.896000000000000085e+01,4.549632476426881955e-03
2.900000000000000000e+01,4.900013255088146724e-03
2.903999999999999915e+01,3.402873653284185264e-03
2.907999999999999829e+01,2.409544793404297999e-03
2.912000000000000099e+01,2.087978720602850710e-03
2.916000000000000014e+01,3.445888663586108621e-03
2.919999999999999929e+01,3.908006801238955719e-03
2.923999999999999844e+01,4.426062283364199865e-03
2.928000000000000114e+01,3.824389261433188986e-03
2.932000000000000028e+01,5.629984514807862342e-03
2.935999999999999943e+01,4.244439961586297591e-03
2.939999999999999858e+01,6.273876720820682068e-03
2.944000000000000128e+01,4.440364343505302791e-03
2.948000000000000043e+01,2.774756319133245622e-03
2.951999999999999957e+01,4.076256401321461630e-03
2.955999999999999872e+01,2.410552034747276938e-03
2.960000000000000142e+01,2.424321576841806207e-03
2.964000000000000057e+01,2.829931021269484377e-03
2.967999999999999972e+01,3.739348334281242421e-03
2.971999999999999886e+01,4.256828061865711166e-03
2.976000000000000156e+01,5.166147117115338534e-03
2.980000000000000071e+01,3.780069521108078180e-03
2.983999999999999986e+01,9.943403447432708469e-04
2.987999999999999901e+01,2.855239918038519203e-03
2.992000000000000171e+01,2.588694502119254920e-03
2.996000000000000085e+01,2.266114824857470150e-03
3.000000000000000000e+01,2.111437010311007119e-03
3.003999999999999915e+01,4.140087707448393897e-03
3.007999999999999829e+01,1.689961335201992489e-03
3.012000000000000099e+01,2.486860590693146331e-03
3.016000000000000014e+01,1.940090812282236265e-03
3.019999999999999929e+01,4.976250751917647708e-03
3.023999999999999844e+01,4.597330355110993728e-03
3.028000000000000114e+01,5.170087584776091559e-03
3.032000000000000028e+01,3.223509357342457977e-03
3.035999999999999943e+01,4.523955608310405163e-03
3.039999999999999858e+01,3.473018255778009909e-03
3.044000000000000128e+01,5.333200525114436923e-03
3.048000000000000043e+01,5.009951044548897892e-03
3.051999999999999957e+01,4.406728305243006599e-03
3.055999999999999872e+01,6.378720139717185787e-03
3.060000000000000142e+01,5.271534387166053152e-03
3.064000000000000057e+01,5.339960852696500580e-03
3.067999999999999972e+01,3.616843162869204029e-03
3.071999999999999886e+01,3.629178097046084975e-03
3.076000000000000156e+01,5.097045069153858556e-03
3.080000000000000071e+01,6.732810072856960579e-03
3.083999999999999986e+01,5.065460024584901751e-03
3.087999999999999901e+01,7.148988674617563419e-03
3.092000000000000171e+01,9.288446623770638122e-03
3.096000000000000085e+01,1.377918091552992989e-02
3.100000000000000000e+01,2.230071372544325040e-02
3.103999999999999915e+01,4.521009945909453681e-02
3.107999999999999829e+01,1.070843485635463999e-01
3.112000000000000099e+01,1.413024069521263693e-01
3.116000000000000014e+01,1.279339423436469114e-01
3.119999999999999929e+01,9.637059597086815310e-02
3.123999999999999844e+01,5.523391579336680429e-02
3.128000000000000114e+01,2.753335804890863492e-02
3.132000000000000028e+01,1.679591951685557513e-02
3.135999999999999943e+01,1.020124593675943332e-02
3.139999999999999858e+01,6.405719223381204849e-03
3.144000000000000128e+01,7.536734183496348119e-03
3.148000000000000043e+01,7.995882735202925612e-03
3.151999999999999957e+01,5.599785609710038886e-03
3.155999999999999872e+01,7.290468399490630282e-03
3.160000000000000142e+01,7.245586707028933704e-03
3.164000000000000057e+01,5.801044814189703497e-03
3.167999999999999972e+01,6.931712131562561656e-03
3.171999999999999886e+01,5.487053208473239956e-03
3.176000000000000156e+01,4.938080745380230702e-03
3.180000000000000071e+01,5.340778629630969776e-03
3.183999999999999986e+01,3.280117856558461675e-03
3.187999999999999901e+01,4.074585730435328033e-03
3.192000000000000171e+01,5.428834824663741378e-03
3.196000000000000085e+01,4.599645081418203205e-03
3.200000000000000000e+01,5.897790384709064061e-03
3.203999999999999915e+01,4.844544230703599560e-03
3.207999999999999829e+01,2.839508400432278184e-03
3.211999999999999744e+01,4.081488620098551803e-03
3.215999999999999659e+01,3.531917596835089899e-03
3.220000000000000284e+01,5.893457766976459289e-03
3.224000000000000199e+01,5.511716969717288944e-03
3.228000000000000114e+01,5.913691984419502078e-03
3.232000000000000028e+01,5.699780646940626715e-03
3.235999999999999943e+01,5.821712107083457273e-03
3.239999999999999858e+01,6.895311041230052680e-03
3.243999999999999773e+01,6.177357391554917469e-03
3.247999999999999687e+01,4.059739518826254237e-03
3.252000000000000313e+01,5.860944727316706737e-03
3.256000000000000227e+01,2.847456516530612498e-03
3.260000000000000142e+01,3.920743240562009520e-03
3.264000000000000057e+01,7.569234577461491156e-03
3.267999999999999972e+01,5.731222973574924030e-03
3.271999999999999886e+01,5.572670336989102476e-03
3.275999999999999801e+01,8.941051079962169038e-03
3.279999999999999716e+01,8.670402911295348874e-03
3.284000000000000341e+01,7.447961426798677467e-03
3.288000000000000256e+01,5.833567223950766358e-03
3.292000000000000171e+01,7.410201161016979204e-03
3.296000000000000085e+01,1.016243620591681003e-02
3.300000000000000000e+01,8.267927961134480599e-03
3.303999999999999915e+01,7.884924914494518058e-03
3.307999999999999829e+01,1.108483779386890827e-02
3.311999999999999744e+01,9.973911282313903393e-03
3.315999999999999659e+01,1.132621873559206890e-02
3.320000000000000284e+01,1.256649233258828012e-02
3.324000000000000199e+01,1.207119359354621828e-02
3.328000000000000114e+01,1.375920785015203630e-02
3.332000000000000028e+01,1.443944241335255382e-02
3.335999999999999943e+01,1.786283037812353217e-02
3.339999999999999858e+01,2.352551484277785182e-02
3.343999999999999773e+01,2.941206877523497298e-02
3.347999999999999687e+01,4.459191276629929229e-02
3.352000000000000313e+01,6.844922175647677465e-02
3.356000000000000227e+01,1.200745664602909935e-01
3.360000000000000142e+01,3.164746715944157240e-01
3.364000000000000057e+01,7.233188615210527361e-01
3.367999999999999972e+01,1.000000000000000000e+00
3.371999999999999886e+01,9.353461412158533550e-01
3.375999999999999801e+01,7.352667271839796737e-01
3.379999999999999716e+01,4.774116751519209556e-01
3.384000000000000341e+01,2.478844982816417186e-01
3.388000000000000256e+01,1.077638264652597960e-01
3.392000000000000171e+01,5.570604161753622136e-02
3.396000000000000085e+01,3.438344674977274890e-02
3.400000000000000000e+01,2.487342300104413914e-02
3.403999999999999915e+01,1.816253347633747101e-02
3.407999999999999829e+01,1.486660285203478607e-02
3.411999999999999744e+01,1.341807672728322076e-02
3.415999999999999659e+01,1.213743254342301153e-02
3.420000000000000284e+01,9.625068136311667327e-03
3.424000000000000199e+01,9.128059890793833661e-03
3.428000000000000114e+01,8.351060380271675687e-03
3.432000000000000028e+01,9.589416648231019122e-03
3.435999999999999943e+01,7.916529559611463346e-03
3.439999999999999858e+01,8.370966024168331049e-03
3.443999999999999773e+01,7.873601510655360916e-03
3.447999999999999687e+01,7.824037800103040077e-03
3.452000000000000313e+01,7.102593122886182928e-03
3.456000000000000227e+01,6.213123997579926734e-03
3.460000000000000142e+01,7.562945625477014537e-03
3.464000000000000057e+01,4.154047952089039673e-03
3.467999999999999972e+01,6.455453540806883536e-03
3.471999999999999886e+01,4.725932470872640755e-03
3.475999999999999801e+01,5.179717309014284128e-03
3.479999999999999716e+01,4.401779050564803841e-03
3.484000000000000341e+01,4.295576186685814112e-03
3.488000000000000256e+01,5.085044841435144153e-03
3.492000000000000171e+01,2.963267457821575253e-03
3.496000000000000085e+01,6.327855679807986231e-03
3.500000000000000000e+01,5.157659192119176672e-03
3.503999999999999915e+01,4.883133456834696379e-03
3.507999999999999829e+01,3.992708152005143042e-03
3.511999999999999744e+01,4.333857689888679157e-03
3.515999999999999659e+01,5.402725168798157458e-03
3.520000000000000284e+01,1.153029875603993034e-03
3.524000000000000199e+01,5.916695818035743772e-03
3.528000000000000114e+01,5.081878210734545875e-03
3.532000000000000028e+01,3.071319095517696055e-03
3.535999999999999943e+01,5.091537618850882144e-03
3.539999999999999858e+01,3.920587410631878877e-03
3.543999999999999773e+01,3.477353802546829641e-03
3.547999999999999687e+01,3.593884366329356487e-03
3.552000000000000313e+01,3.486401805775021442e-03
3.556000000000000227e+01,1.755303956741353835e-03
3.560000000000000142e+01,3.998998518018282052e-03
3.564000000000000057e+01,2.491682409372416446e-03
3.567999999999999972e+01,4.007428986566336816e-03
3.571999999999999886e+01,4.683336613705344105e-03
3.575999999999999801e+01,4.855309572654213472e-03
3.579999999999999716e+01,2.787841225849704060e-03
3.584000000000000341e+01,5.422957165764743029e-03
3.588000000000000256e+01,3.691236418482949332e-03
3.592000000000000171e+01,3.415022998408087738e-03
3.596000000000000085e+01,4.146444082756470945e-03
3.600000000000000000e+01,5.381642769840977274e-03
3.603999999999999915e+01,5.721016895519122174e-03
3.607999999999999829e+01,6.172279688497166530e-03
3.611999999999999744e+01,6.399526483798366819e-03
3.615999999999999659e+01,7.298502352322069203e-03
3.620000000000000284e+01,6.965748419794652070e-03
3.624000000000000199e+01,8.760309228867677392e-03
3.628000000000000114e+01,8.147474196804940436e-03
3.632000000000000028e+01,1.257312562621052190e-02
3.635999999999999943e+01,1.638287135627904470e-02
3.639999999999999858e+01,2.254386737733784368e-02
3.643999999999999773e+01,4.398843572453000478e-02
3.647999999999999687e+01,1.045657938191731501e-01
3.652000000000000313e+01,1.870328451674458659e-01
3.656000000000000227e+01,2.077493756960240578e-01
3.660000000000000142e+01,1.879333511177627147e-01
3.664000000000000057e+01,1.499224187235860817e-01
3.667999999999999972e+01,9.522814845233165681e-02
3.671999999999999886e+01,5.217848403759369619e-02
3.675999999999999801e+01,2.721159436171407750e-02
3.679999999999999716e+01,1.607268923647389020e-02
3.684000000000000341e+01,1.137187005506049529e-02
3.688000000000000256e+01,9.246235181579227566e-03
3.692000000000000171e+01,9.079959556536022422e-03
3.696000000000000085e+01,7.625966411974244297e-03
3.700000000000000000e+01,6.395825686731300246e-03
3.703999999999999915e+01,5.053632715830438937e-03
3.707999999999999829e+01,7.854177304378552257e-03
3.711999999999999744e+01,5.951974794073087299e-03
3.715999999999999659e+01,4.777480646993577384e-03
3.720000000000000284e+01,3.882822040356369471e-03
3.724000000000000199e+01,6.571059437909546053e-03
3.728000000000000114e+01,5.900166864068161730e-03
3.732000000000000028e+01,6.124934123939120532e-03
3.735999999999999943e+01,5.677806816669568428e-03
3.739999999999999858e+01,5.958386723289986475e-03
3.743999999999999773e+01,5.119199048430210855e-03
3.747999999999999687e+01,5.847479387900299599e-03
3.752000000000000313e+01,8.423147944661528441e-03
3.756000000000000227e+01,7.583701110232754332e-03
3.760000000000000142e+01,7.863849084238155526e-03
3.764000000000000057e+01,7.975957860342185179e-03
3.767999999999999972e+01,8.143963562602671638e-03
3.771999999999999886e+01,9.095659025208587684e-03
3.775999999999999801e+01,1.234261418699733083e-02
3.779999999999999716e+01,1.973230346022705750e-02
3.784000000000000341e+01,4.346925585429588235e-02
3.788000000000000256e+01,7.857088815523993741e-02
3.792000000000000171e+01,9.307029111762799012e-02
3.796000000000000085e+01,8.400030836802070688e-02
3.800000000000000000e+01,7.123528772559009625e-02
3.803999999999999915e+01,5.119224794895881753e-02
3.807999999999999829e+01,2.711826542297146245e-02
3.811999999999999744e+01,1.536069099588213520e-02
3.815999999999999659e+01,1.194465487398924629e-02
3.820000000000000284e+01,9.872147002804381247e-03
3.824000000000000199e+01,8.247421928316194320e-03
3.828000000000000114e+01,9.813699325238189192e-03
3.832000000000000028e+01,1.003626861083416547e-02
3.835999999999999943e+01,7.403559463154725170e-03
3.839999999999999858e+01,8.465708922348592208e-03
3.843999999999999773e+01,5.496913908182414661e-03
3.847999999999999687e+01,6.894786064619054869e-03
3.852000000000000313e+01,6.165172047301245399e-03
3.856000000000000227e+01,7.282941266818602176e-03
3.860000000000000142e+01,7.001016955214485298e-03
3.864000000000000057e+01,5.599319315450186109e-03
3.867999999999999972e+01,5.149259075397701751e-03
3.871999999999999886e+01,6.378629069246004139e-03
3.875999999999999801e+01,5.872400292328077386e-03
3.879999999999999716e+01,8.333235180978500883e-03
3.884000000000000341e+01,7.826821179874590348e-03
3.888000000000000256e+01,7.824170989474819871e-03
3.892000000000000171e+01,5.917969025374445954e-03
3.896000000000000085e+01,7.930559301977229900e-03
3.900000000000000000e+01,8.487470052995079242e-03
3.903999999999999915e+01,6.469019508802815316e-03
3.907999999999999829e+01,8.201408393935329111e-03
3.911999999999999744e+01,6.798594811711135624e-03
3.915999999999999659e+01,7.467097908595949143e-03
3.920000000000000284e+01,8.639363283736906096e-03
3.924000000000000199e+01,8.635868378474225587e-03
3.928000000000000114e+01,9.304087605066072714e-03
3.932000000000000028e+01,1.042008445634259872e-02
3.935999999999999943e+01,1.444715821250002613e-02
3.939999999999999858e+01,1.500312368698798922e-02
3.943999999999999773e+01,1.606285029039609957e-02
3.947999999999999687e+01,1.572287914845073992e-02
3.952000000000000313e+01,1.235967178139559496e-02
3.956000000000000227e+01,1.056392246775832329e-02
3.960000000000000142e+01,1.027964693707946603e-02
3.964000000000000057e+01,8.539688815919686121e-03
3.967999999999999972e+01,7.359474753247509902e-03
3.971999999999999886e+01,7.354829425444991964e-03
3.975999999999999801e+01,8.581736719859596810e-03
3.979999999999999716e+01,9.304689998928082281e-03
3.984000000000000341e+01,6.780469204824944238e-03
3.988000000000000256e+01,8.622908876864645439e-03
3.992000000000000171e+01,8.169903433979535529e-03
3.996000000000000085e+01,8.164672550883114721e-03
4.000000000000000000e+01,8.719184193826307050e-03
4.003999999999999915e+01,8.321868040859707605e-03
4.007999999999999829e+01,8.820198504241474544e-03
4.011999999999999744e+01,1.200566591732630042e-02
4.015999999999999659e+01,1.250379851382610145e-02
4.020000000000000284e+01,1.613694030814464414e-02
4.024000000000000199e+01,1.534724045675892046e-02
4.028000000000000114e+01,1.354972758122395364e-02
4.032000000000000028e+01,1.415943030309474958e-02
4.035999999999999943e+01,1.286557435524895640e-02
4.039999999999999858e+01,1.028398441406862089e-02
4.043999999999999773e+01,1.072543436356410314e-02
4.047999999999999687e+01,9.823165857709585669e-03
4.052000000000000313e+01,8.640876204114789766e-03
4.056000000000000227e+01,9.193992051748253042e-03
4.060000000000000142e+01,8.907245579494852544e-03
4.064000000000000057e+01,8.228509227026257339e-03
4.067999999999999972e+01,9.341161880021381023e-03
4.071999999999999886e+01,1.073363321653082562e-02
4.075999999999999801e+01,8.710973837370274142e-03
4.079999999999999716e+01,1.116693867637149132e-02
4.084000000000000341e+01,9.871867943169959983e-03
4.088000000000000256e+01,1.210369170365938225e-02
4.092000000000000171e+01,1.164817700799978747e-02
4.096000000000000085e+01,1.483152458072607531e-02
4.100000000000000000e+01,1.280824976353566944e-02
4.103999999999999915e+01,1.671918406666097687e-02
4.107999999999999829e+01,1.990222190903432817e-02
4.111999999999999744e+01,2.314114020374817560e-02
4.115999999999999659e+01,2.665987507486033622e-02
4.120000000000000284e+01,3.594486606335383500e-02
4.124000000000000199e+01,6.275276954739909818e-02
4.128000000000000114e+01,1.294772168968238157e-01
4.132000000000000028e+01,2.358382875255547462e-01
4.135999999999999943e+01,2.793291327698019244e-01
4.139999999999999858e+01,2.489208888940278863e-01
4.143999999999999773e+01,2.147056224938077851e-01
4.147999999999999687e+01,1.615116479947479589e-01
4.152000000000000313e+01,1.029430963788330877e-01
4.156000000000000227e+01,5.400370060063421074e-02
4.160000000000000142e+01,3.266434979660579052e-02
4.164000000000000057e+01,2.190588378854017859e-02
4.167999999999999972e+01,1.752949646712196469e-02
4.171999999999999886e+01,1.388079567154574395e-02
4.175999999999999801e+01,1.476669857569075719e-02
4.179999999999999716e+01,1.027802302208871872e-02
4.184000000000000341e+01,1.127568012645471102e-02
4.188000000000000256e+01,9.977882729651905286e-03
4.192000000000000171e+01,1.002359576884915594e-02
4.196000000000000085e+01,9.341408133062466257e-03
4.200000000000000000e+01,9.610841997839621870e-03
4.203999999999999915e+01,7.864740989741270116e-03
4.207999999999999829e+01,1.065324214891615745e-02
4.211999999999999744e+01,1.058644686855165530e-02
4.215999999999999659e+01,9.119941008581704256e-03
4.220000000000000284e+01,9.332848717140563438e-03
4.224000000000000199e+01,1.139312203938261728e-02
4.228000000000000114e+01,1.322934986432386384e-02
4.232000000000000028e+01,1.741679962996743949e-02
4.235999999999999943e+01,1.846903141221833272e-02
4.239999999999999858e+01,2.450373646052212556e-02
4.243999999999999773e+01,3.165801313898414932e-02
4.247999999999999687e+01,6.428493557905316791e-02
4.252000000000000313e+01,1.407472814695077956e-01
4.256000000000000227e+01,2.357402469544284396e-01
4.260000000000000142e+01,2.542588499430888382e-01
4.264000000000000057e+01,2.330846300835056339e-01
4.267999999999999972e+01,1.946672028244101071e-01
4.271999999999999886e+01,1.481879569144134434e-01
4.275999999999999801e+01,9.471058966112540223e-02
4.279999999999999716e+01,5.657274835547024261e-02
4.284000000000000341e+01,3.024743583497400967e-02
4.288000000000000256e+01,1.931763295790211651e-02
4.292000000000000171e+01,1.421006204020701727e-02
4.296000000000000085e+01,1.128575776160787268e-02
4.300000000000000000e+01,1.065668808835559464e-02
4.303999999999999915e+01,1.041939414617657281e-02
4.307999999999999829e+01,8.614432981893739918e-03
4.311999999999999744e+01,8.264944664737882557e-03
4.315999999999999659e+01,6.907629531400797697e-03
4.320000000000000284e+01,7.565627651113291004e-03
4.324000000000000199e+01,7.719655281663694718e-03
4.328000000000000114e+01,5.970110258909523855e-03
4.332000000000000028e+01,5.004228178660828641e-03
4.335999999999999943e+01,7.341292400017270306e-03
4.339999999999999858e+01,5.087547606035100999e-03
4.343999999999999773e+01,8.152175571070599883e-03
4.347999999999999687e+01,5.226392165069004316e-03
4.352000000000000313e+01,5.939458767869303622e-03
4.356000000000000227e+01,5.476744402218006701e-03
4.360000000000000142e+01,4.901946375724834833e-03
4.364000000000000057e+01,5.110809759289136785e-03
4.367999999999999972e+01,5.879398045741072477e-03
4.371999999999999886e+01,3.792682230413642070e-03
4.375999999999999801e+01,4.281117775386377583e-03
4.379999999999999716e+01,4.881405017351079893e-03
4.384000000000000341e+01,5.089687054620612577e-03
4.388000000000000256e+01,4.626043301121684700e-03
4.392000000000000171e+01,2.818664618456778650e-03
4.396000000000000085e+01,4.762101995284697027e-03
4.400000000000000000e+01,4.354090639572367853e-03
4.403999999999999915e+01,4.841706936164437945e-03
4.407999999999999829e+01,4.825348720918424920e-03
4.411999999999999744e+01,5.424697380347512192e-03
4.415999999999999659e+01,4.736294040178083350e-03
4.420000000000000284e+01,5.335406138413271299e-03
4.424000000000000199e+01,4.870702169551782527e-03
4.428000000000000114e+01,5.805481413789823075e-03
4.432000000000000028e+01,5.004635260977679904e-03
4.435999999999999943e+01,4.763510754601178732e-03
4.439999999999999858e+01,4.578250992973187904e-03
4.443999999999999773e+01,3.385158285371980911e-03
4.447999999999999687e+01,4.711229411159497879e-03
4.452000000000000313e+01,3.573881156371854374e-03
4.456000000000000227e+01,3.220189905853695043e-03
4.460000000000000142e+01,2.922362442304050987e-03
4.464000000000000057e+01,3.408191599911882842e-03
4.467999999999999972e+01,5.405470212866173366e-03
4.471999999999999886e+01,3.371774278168447603e-03
4.475999999999999801e+01,3.017479652415559072e-03
4.479999999999999716e+01,3.390856802692686876e-03
4.484000000000000341e+01,4.547889616347304195e-03
4.488000000000000256e+01,6.376609744016491742e-03
4.492000000000000171e+01,4.678211076384795886e-03
4.496000000000000085e+01,4.659212759917935251e-03
4.500000000000000000e+01,4.304187762535371768e-03
4.503999999999999915e+01,5.460610496495270534e-03
4.507999999999999829e+01,5.105340509454819355e-03
4.511999999999999744e+01,3.910186556699538421e-03
4.515999999999999659e+01,4.058527523908338729e-03
4.520000000000000284e+01,3.646904536807606904e-03
4.524000000000000199e+01,5.978378059145430211e-03
4.528000000000000114e+01,4.782731062178379768e-03
4.532000000000000028e+01,3.083103615137260372e-03
4.535999999999999943e+01,4.742396970804748507e-03
4.539999999999999858e+01,4.610075678506601535e-03
4.543999999999999773e+01,3.525900730238707825e-03
4.547999999999999687e+01,3.225378380452301273e-03
4.552000000000000313e+01,2.140954228294526546e-03
4.556000000000000227e+01,2.903879790671966971e-03
4.560000000000000142e+01,4.394473297959435205e-03
4.564000000000000057e+01,5.269116664917914035e-03
4.567999999999999972e+01,5.471825621087946304e-03
4.571999999999999886e+01,4.442759185878934758e-03
4.575999999999999801e+01,3.693487298128279514e-03
4.579999999999999716e+01,4.791563975576845422e-03
4.584000000000000341e+01,4.993769160399121401e-03
4.588000000000000256e+01,4.468054897749495352e-03
4.592000000000000171e+01,2.990484680458123726e-03
4.596000000000000085e+01,3.472230419948885323e-03
4.600000000000000000e+01,2.610231269361693723e-03
4.603999999999999915e+01,3.595579534637714531e-03
4.607999999999999829e+01,4.692768578213725103e-03
4.611999999999999744e+01,5.118021103885287901e-03
4.615999999999999659e+01,3.639687184220297394e-03
4.620000000000000284e+01,4.064683993097990486e-03
4.624000000000000199e+01,3.873727788306695948e-03
4.628000000000000114e+01,5.306181534428783438e-03
4.632000000000000028e+01,3.491430175307307093e-03
4.635999999999999943e+01,3.300088383987210584e-03
4.639999999999999858e+01,3.388538075229477562e-03
4.643999999999999773e+01,2.805049716119297973e-03
4.647999999999999687e+01,4.180874823563264682e-03
4.652000000000000313e+01,4.548857024122030662e-03
4.656000000000000227e+01,3.629075731722301509e-03
4.660000000000000142e+01,3.157037200815311553e-03
4.664000000000000057e+01,3.636597949976202830e-03
4.667999999999999972e+01,3.948076209579782364e-03
4.671999999999999886e+01,4.203439945876973755e-03
4.675999999999999801e+01,4.122768572794479128e-03
4.679999999999999716e+01,3.426141504259002345e-03
4.684000000000000341e+01,3.233240126783727252e-03
4.688000000000000256e+01,3.544064248812656658e-03
4.692000000000000171e+01,4.246645520982873442e-03
4.696000000000000085e+01,4.109334015862269908e-03
4.700000000000000000e+01,3.580002173122525527e-03
4.703999999999999915e+01,2.602665722304176206e-03
4.707999999999999829e+01,3.416687627989596372e-03
4.711999999999999744e+01,3.222863753449823655e-03
4.715999999999999659e+01,3.420795879715333044e-03
4.720000000000000284e+01,3.618595262905924086e-03
4.724000000000000199e+01,2.976500527913697111e-03
4.728000000000000114e+01,3.453954244803723265e-03
4.732000000000000028e+01,3.091513460398942221e-03
4.735999999999999943e+01,2.896891403405607492e-03
4.739999999999999858e+01,3.541896829109235801e-03
4.743999999999999773e+01,4.186768362401943090e-03
4.747999999999999687e+01,4.047728707079293123e-03
4.752000000000000313e+01,4.412411486364852670e-03
4.756000000000000227e+01,3.825230457212678518e-03
4.760000000000000142e+01,4.021691874074015405e-03
4.764000000000000057e+01,3.770145809516749127e-03
4.767999999999999972e+01,4.918066675799044780e-03
4.771999999999999886e+01,3.938457310446963518e-03
4.775999999999999801e+01,5.142091597470871932e-03
4.779999999999999716e+01,3.826306717424192341e-03
4.784000000000000341e+01,4.973685501158797879e-03
4.788000000000000256e+01,3.769596971421187472e-03
4.792000000000000171e+01,4.748751327835569296e-03
4.796000000000000085e+01,3.880294697796874380e-03
4.800000000000000000e+01,5.475000965315469752e-03
4.803999999999999915e+01,5.222095863268988794e-03
4.807999999999999829e+01,3.849372225846394747e-03
4.811999999999999744e+01,4.435954201181964082e-03
4.815999999999999659e+01,4.910430678291689659e-03
4.820000000000000284e+01,3.761231335226181745e-03
4.824000000000000199e+01,2.667878347533212107e-03
4.828000000000000114e+01,3.813750600891694775e-03
4.832000000000000028e+01,3.447914617213860156e-03
4.835999999999999943e+01,4.481542307923583150e-03
4.839999999999999858e+01,4.787238483133423109e-03
4.843999999999999773e+01,3.749178083349321081e-03
4.847999999999999687e+01,3.998612625477864294e-03
4.852000000000000313e+01,3.632083235245443711e-03
4.856000000000000227e+01,2.649589721096054333e-03
4.860000000000000142e+01,4.970017414715839979e-03
4.864000000000000057e+01,3.875276656133699437e-03
4.867999999999999972e+01,5.019759223043008915e-03
4.871999999999999886e+01,5.212372426390602352e-03
4.875999999999999801e+01,5.068940942558519160e-03
4.879999999999999716e+01,4.421512343280392665e-03
4.884000000000000341e+01,5.117561040814373220e-03
4.888000000000000256e+01,3.965994346107278717e-03
4.892000000000000171e+01,5.557506537686777298e-03
4.896000000000000085e+01,3.229992034485218606e-03
4.900000000000000000e+01,3.645556034458244735e-03
4.903999999999999915e+01,3.669089927456146549e-03
4.907999999999999829e+01,4.868147731219780658e-03
4.911999999999999744e+01,4.387541230116725165e-03
4.915999999999999659e+01,3.738840362984376716e-03
4.920000000000000284e+01,4.489599147563601463e-03
4.924000000000000199e+01,3.448724894801217297e-03
4.928000000000000114e+01,4.759039251997212658e-03
4.932000000000000028e+01,3.941815715318841909e-03
4.935999999999999943e+01,4.412082906321127852e-03
4.939999999999999858e+01,2.866779978143971057e-03
4.943999999999999773e+01,4.176521603832322564e-03
4.947999999999999687e+01,5.933992198981438877e-03
4.952000000000000313e+01,5.004083153441604356e-03
4.956000000000000227e+01,4.130014141926320083e-03
4.960000000000000142e+01,4.375482472045311676e-03
4.964000000000000057e+01,3.837029269524968797e-03
4.967999999999999972e+01,3.914256315395763831e-03
4.971999999999999886e+01,5.502908680557058556e-03
4.975999999999999801e+01,5.131973281438368013e-03
4.979999999999999716e+01,5.376717556042821637e-03
4.984000000000000341e+01,4.725571182421020588e-03
4.988000000000000256e+01,4.018295152568853237e-03
4.992000000000000171e+01,4.766459405323721435e-03
4.996000000000000085e+01,5.682429934350066193e-03
5.000000000000000000e+01,4.078970760725835094e-03
5.003999999999999915e+01,4.434808005171772018e-03
5.007999999999999829e+01,3.166960426310489428e-03
5.011999999999999744e+01,3.746440724600451442e-03
5.015999999999999659e+01,4.885614893706107312e-03
5.020000000000000284e+01,4.681024059353832388e-03
5.024000000000000199e+01,4.308333686960283057e-03
5.028000000000000114e+01,4.551320689617877752e-03
5.032000000000000028e+01,5.465968954674082711e-03
5.035999999999999943e+01,4.980867371144905541e-03
5.039999999999999858e+01,4.719554035674658476e-03
5.043999999999999773e+01,4.066203888769294277e-03
5.047999999999999687e+01,3.468689370100496751e-03
5.052000000000000313e+01,4.438580418505646066e-03
5.056000000000000227e+01,3.056991319186613126e-03
5.060000000000000142e+01,3.466743719443372059e-03
5.064000000000000057e+01,5.163980717588791645e-03
5.067999999999999972e+01,4.341784756631644933e-03
5.071999999999999886e+01,3.351486958961227575e-03
5.075999999999999801e+01,2.920880158766497176e-03
5.079999999999999716e+01,4.337597979271022239e-03
5.084000000000000341e+01,5.586213388394277272e-03
5.088000000000000256e+01,4.651299354055713799e-03
5.092000000000000171e+01,5.115836734520737977e-03
5.096000000000000085e+01,4.740462182094977960e-03
5.100000000000000000e+01,4.924777477808908732e-03
5.103999999999999915e+01,4.101228220809680601e-03
5.107999999999999829e+01,3.669416192127769420e-03
5.111999999999999744e+01,4.357134225952139298e-03
5.115999999999999659e+01,5.324620947174917018e-03
5.120000000000000284e+01,5.228258270557064984e-03
5.124000000000000199e+01,4.068046004542596843e-03
5.128000000000000114e+01,3.971378955906964929e-03
5.132000000000000028e+01,4.714320617480311816e-03
5.135999999999999943e+01,4.617348430602889568e-03
5.139999999999999858e+01,4.520223387270564872e-03
5.143999999999999773e+01,4.310977138120424511e-03
5.147999999999999687e+01,5.221259227472583100e-03
5.152000000000000313e+01,4.115961045177315460e-03
5.156000000000000227e+01,4.634047528403466461e-03
5.160000000000000142e+01,4.424187171649758207e-03
5.164000000000000057e+01,4.438109124718991189e-03
5.167999999999999972e+01,4.675813196055170380e-03
5.171999999999999886e+01,5.417219588619594933e-03
5.175999999999999801e+01,4.926821664849020087e-03
5.179999999999999716e+01,3.316587390994371609e-03
5.184000000000000341e+01,3.777609072996825947e-03
5.188000000000000256e+01,3.398714416320495601e-03
5.192000000000000171e+01,4.531234543354669721e-03
5.196000000000000085e+01,5.103758343115369356e-03
5.200000000000000000e+01,5.284237860756962023e-03
5.203999999999999915e+01,4.904720668013072375e-03
5.207999999999999829e+01,5.196856309203802884e-03
5.211999999999999744e+01,5.544819724835110646e-03
5.215999999999999659e+01,5.724674407737145171e-03
5.220000000000000284e+01,5.568467929643536318e-03
5.224000000000000199e+01,4.628327467770611964e-03
5.228000000000000114e+01,5.703456775735336187e-03
5.232000000000000028e+01,3.643320402863453340e-03
5.235999999999999943e+01,4.102310126848343966e-03
5.239999999999999858e+01,3.161540232891873331e-03
5.243999999999999773e+01,4.683911973776717919e-03
5.247999999999999687e+01,3.686842135539013243e-03
5.252000000000000313e+01,5.208897627934088066e-03
5.256000000000000227e+01,4.211511158094614037e-03
5.260000000000000142e+01,4.277663584285975630e-03
5.264000000000000057e+01,2.720118927586136475e-03
5.267999999999999972e+01,3.345794361874323067e-03
5.271999999999999886e+01,3.915326539456166592e-03
5.275999999999999801e+01,4.260763032065284332e-03
5.279999999999999716e+01,4.606039963759528920e-03
5.284000000000000341e+01,4.335332275044834031e-03
5.288000000000000256e+01,4.624305431337844344e-03
5.292000000000000171e+01,4.521229899723764115e-03
5.296000000000000085e+01,5.313739303426138864e-03
5.300000000000000000e+01,4.146645426812566211e-03
5.303999999999999915e+01,3.651199786789622974e-03
5.307999999999999829e+01,4.275274823028979085e-03
5.311999999999999744e+01,5.459029554940044229e-03
5.315999999999999659e+01,4.291291687986948690e-03
5.320000000000000284e+01,4.019137607014313697e-03
5.324000000000000199e+01,5.090439751693820458e-03
5.328000000000000114e+01,3.698280565034242455e-03
5.332000000000000028e+01,3.537609063107892762e-03
5.335999999999999943e+01,5.168265843393350829e-03
5.339999999999999858e+01,5.455142295740909690e-03
5.343999999999999773e+01,5.405951648856840638e-03
5.347999999999999687e+01,5.580534500219728328e-03
5.352000000000000313e+01,6.762667762921998130e-03
5.356000000000000227e+01,1.035195321799414585e-02
5.360000000000000142e+01,1.539666133252134972e-02
5.364000000000000057e+01,2.088907849468534667e-02
5.367999999999999972e+01,2.229449412174994843e-02
5.371999999999999886e+01,1.798936973395883973e-02
5.375999999999999801e+01,1.799485526347520403e-02
5.379999999999999716e+01,1.592876552374870164e-02
5.384000000000000341e+01,1.369455900594095457e-02
5.388000000000000256e+01,1.118026736068902793e-02
5.392000000000000171e+01,7.658097370691962363e-03
5.396000000000000085e+01,4.863555290400994359e-03
5.400000000000000000e+01,5.259940400012319550e-03
5.403999999999999915e+01,5.488207773762398926e-03
5.407999999999999829e+01,5.492373141191764924e-03
5.411999999999999744e+01,6.280149731006696642e-03
5.415999999999999659e+01,4.996349327574750934e-03
5.420000000000000284e+01,3.488446343154104606e-03
5.424000000000000199e+01,4.163755979037496793e-03
5.428000000000000114e+01,4.447010414109797173e-03
5.432000000000000028e+01,4.898050245849603843e-03
5.435999999999999943e+01,4.733098178052490106e-03
5.439999999999999858e+01,2.496567967672506244e-03
5.443999999999999773e+01,3.730883234596126755e-03
5.447999999999999687e+01,4.741094579639042877e-03
5.452000000000000313e+01,4.463504312079528101e-03
5.456000000000000227e+01,4.521650528561890758e-03
5.460000000000000142e+01,6.147182773406244596e-03
5.464000000000000057e+01,6.596880988787092413e-03
5.467999999999999972e+01,9.565694190776727335e-03
5.471999999999999886e+01,9.399230218569785272e-03
5.475999999999999801e+01,8.000947563327868300e-03
5.479999999999999716e+01,8.449970373185230338e-03
5.484000000000000341e+01,8.506935300447519485e-03
5.488000000000000256e+01,5.988463076323813014e-03
5.492000000000000171e+01,5.877136531665986229e-03
5.496000000000000085e+01,5.597687845358911840e-03
5.500000000000000000e+01,4.758228273522381591e-03
5.503999999999999915e+01,4.254502887055743379e-03
5.507999999999999829e+01,4.646352283437581859e-03
5.511999999999999744e+01,5.094015087560009938e-03
5.515999999999999659e+01,3.917968740763267538e-03
5.520000000000000284e+01,4.701194101312726123e-03
5.524000000000000199e+01,3.356853217699868469e-03
5.528000000000000114e+01,3.411942869286629064e-03
5.532000000000000028e+01,2.795051945089010743e-03
5.535999999999999943e+01,3.801527488592846161e-03
5.539999999999999858e+01,3.800117599779557175e-03
5.543999999999999773e+01,3.630583270645025649e-03
5.547999999999999687e+01,3.013003915115954577e-03
5.552000000000000313e+01,3.626901708740124398e-03
5.556000000000000227e+01,5.416292381058078823e-03
5.560000000000000142e+01,4.070401664947449934e-03
5.564000000000000057e+01,3.732051207708229207e-03
5.567999999999999972e+01,2.777702529584098745e-03
5.571999999999999886e+01,4.958288725550817275e-03
5.575999999999999801e+01,3.779656451251124736e-03
5.579999999999999716e+01,3.664547748502295504e-03
5.584000000000000341e+01,3.773201242196444656e-03
5.588000000000000256e+01,4.385537135294868306e-03
5.592000000000000171e+01,4.661794052689669822e-03
5.596000000000000085e+01,4.322051408307570411e-03
5.600000000000000000e+01,3.926149799627146053e-03
5.603999999999999915e+01,3.977945745223536618e-03
5.607999999999999829e+01,5.261216158189177018e-03
5.611999999999999744e+01,4.472900191663964353e-03
5.615999999999999659e+01,6.035739887465179504e-03
5.620000000000000284e+01,5.806913215180848319e-03
5.624000000000000199e+01,4.850117482420688610e-03
5.628000000000000114e+01,5.684636048284363342e-03
5.632000000000000028e+01,5.903153328367129020e-03
5.635999999999999943e+01,6.345430314664882686e-03
5.639999999999999858e+01,5.667848921938591945e-03
5.643999999999999773e+01,4.766154221087606432e-03
5.647999999999999687e+01,7.111358912570408045e-03
5.652000000000000313e+01,6.041357415319334283e-03
5.656000000000000227e+01,7.322509664834696459e-03
5.660000000000000142e+01,7.595770735352940818e-03
5.664000000000000057e+01,8.148774250097625890e-03
5.667999999999999972e+01,1.077301054242344770e-02
5.671999999999999886e+01,1.199746652875993344e-02
5.675999999999999801e+01,1.456536188382059720e-02
5.679999999999999716e+01,1.814079194262866249e-02
5.684000000000000341e+01,2.423532664402154937e-02
5.688000000000000256e+01,3.900721447582376072e-02
5.692000000000000171e+01,7.600460234111644509e-02
5.696000000000000085e+01,1.311966363672945335e-01
5.700000000000000000e+01,1.487112056171497054e-01
5.703999999999999915e+01,1.357702560776721801e-01
5.707999999999999829e+01,1.072655525456261416e-01
5.711999999999999744e+01,1.006504436158698196e-01
5.715999999999999659e+01,9.448302687682233469e-02
5.720000000000000284e+01,7.398350530641439882e-02
5.724000000000000199e+01,4.519815923466367208e-02
5.728000000000000114e+01,2.592992556131417520e-02
5.732000000000000028e+01,1.836218317204479575e-02
5.735999999999999943e+01,1.348149517184261091e-02
5.739999999999999858e+01,8.768577818495961601e-03
5.743999999999999773e+01,9.317982100663629169e-03
5.747999999999999687e+01,7.907761648243381847e-03
5.752000000000000313e+01,9.464515213183625000e-03
5.756000000000000227e+01,7.774009845644382771e-03
5.760000000000000142e+01,7.091035350732560923e-03
5.764000000000000057e+01,7.807480089216376797e-03
5.767999999999999972e+01,7.012171766559948533e-03
5.771999999999999886e+01,5.880775848179911267e-03
5.775999999999999801e+01,6.652655298658648533e-03
5.779999999999999716e+01,7.480335322625999983e-03
5.784000000000000341e+01,5.676579941159917535e-03
5.788000000000000256e+01,7.343653563181469675e-03
5.792000000000000171e+01,6.155355081043756282e-03
5.796000000000000085e+01,5.022856406170652689e-03
5.800000000000000000e+01,6.073552345337619902e-03
5.803999999999999915e+01,6.732175077429527164e-03
5.807999999999999829e+01,6.662819937469627481e-03
5.811999999999999744e+01,9.168547389206005080e-03
5.815999999999999659e+01,1.038645579674398259e-02
5.820000000000000284e+01,1.496322351751466773e-02
5.824000000000000199e+01,2.872119456592182873e-02
5.828000000000000114e+01,4.029560073300723910e-02
5.832000000000000028e+01,4.078497328156488466e-02
5.835999999999999943e+01,3.164489807152868345e-02
5.839999999999999858e+01,2.905477371444238274e-02
5.843999999999999773e+01,2.792004883853517819e-02
5.847999999999999687e+01,2.460175812352623573e-02
5.852000000000000313e+01,1.965974216689412787e-02
5.856000000000000227e+01,1.449360274966934002e-02
5.860000000000000142e+01,1.307820928244148896e-02
5.864000000000000057e+01,1.054294670905361365e-02
5.867999999999999972e+01,1.164646154474374522e-02
5.871999999999999886e+01,1.381348596839676937e-02
5.875999999999999801e+01,1.665213123613246485e-02
5.879999999999999716e+01,2.514498017880270955e-02
5.884000000000000341e+01,4.377075891712823436e-02
5.888000000000000256e+01,8.165487212081690149e-02
5.892000000000000171e+01,1.249132680302548482e-01
5.896000000000000085e+01,1.249517659656833729e-01
5.900000000000000000e+01,1.033242361133783621e-01
5.903999999999999915e+01,8.796673365460995486e-02
5.907999999999999829e+01,8.755679062785831634e-02
5.911999999999999744e+01,7.544598528352088052e-02
5.915999999999999659e+01,5.566517111109069160e-02
5.920000000000000284e+01,3.291701054690231859e-02
5.924000000000000199e+01,1.806241470667087692e-02
5.928000000000000114e+01,1.283688984484757621e-02
5.932000000000000028e+01,8.115030908612579780e-03
5.935999999999999943e+01,6.640057572679389578e-03
5.939999999999999858e+01,6.564495041677848725e-03
5.943999999999999773e+01,5.481027731203208520e-03
5.947999999999999687e+01,3.333671370796006169e-03
5.952000000000000313e+01,3.873359055432022951e-03
5.956000000000000227e+01,4.468838885092660772e-03
5.960000000000000142e+01,3.720508695635453295e-03
5.964000000000000057e+01,2.971986189187412943e-03
5.967999999999999972e+01,3.510904988972101716e-03
5.971999999999999886e+01,2.706013194970935398e-03
5.975999999999999801e+01,2.964626008476669173e-03
5.979999999999999716e+01,3.838870606705624411e-03
5.984000000000000341e+01,2.137654300604623775e-03
5.988000000000000256e+01,1.387973869535604355e-03
5.992000000000000171e+01,2.429590305494454955e-03
5.996000000000000085e+01,0.000000000000000000e+00
