2.003999999999999915e+01,3.705256427536791908e-02
2.007999999999999829e+01,6.052572106800037377e-02
2.012000000000000099e+01,3.285878717229873906e-03
2.016000000000000014e+01,5.724937926407768635e-02
2.019999999999999929e+01,6.670480242246089840e-03
2.023999999999999844e+01,5.653325864553210289e-02
2.028000000000000114e+01,2.850156618618585394e-02
2.032000000000000028e+01,4.966553033555091978e-02
2.035999999999999943e+01,3.803151932049059214e-02
2.039999999999999858e+01,4.305194118700875205e-02
2.044000000000000128e+01,1.040601465020831937e-02
2.048000000000000043e+01,5.104137106329369872e-02
2.051999999999999957e+01,3.940526214386076698e-02
2.055999999999999872e+01,3.238076875420051182e-02
2.060000000000000142e+01,5.764074068568265929e-02
2.064000000000000057e+01,2.627333354311079533e-02
2.067999999999999972e+01,2.821531071639540866e-02
2.071999999999999886e+01,4.732417539052640593e-02
2.076000000000000156e+01,5.669576667173382295e-02
2.080000000000000071e+01,4.274988871614140984e-02
2.083999999999999986e+01,4.545843597655926938e-02
2.087999999999999901e+01,3.407379610251772689e-02
2.092000000000000171e+01,3.985604024497346742e-02
2.096000000000000085e+01,3.769461818995013119e-02
2.100000000000000000e+01,3.604512244531790643e-02
2.103999999999999915e+01,3.721362318822674792e-02
2.107999999999999829e+01,2.966976535170697676e-02
2.112000000000000099e+01,5.236052300011556637e-02
2.116000000000000014e+01,1.791143232093583143e-02
2.119999999999999929e+01,5.110654991149169574e-02
2.123999999999999844e+01,4.099824302483939809e-02
2.128000000000000114e+01,1.500313135523614720e-02
2.132000000000000028e+01,6.177682780702555693e-02
2.135999999999999943e+01,3.731801710564425917e-02
2.139999999999999858e+01,1.516473642574912677e-02
2.144000000000000128e+01,6.296173070839045094e-02
2.148000000000000043e+01,5.464379147693841643e-02
2.151999999999999957e+01,8.194129280109653524e-02
2.155999999999999872e+01,7.772194854030153865e-02
2.160000000000000142e+01,5.787202401871028440e-02
2.164000000000000057e+01,3.033465154996647581e-02
2.167999999999999972e+01,2.893220325615996139e-02
2.171999999999999886e+01,5.955797067402811285e-02
2.176000000000000156e+01,2.945665795167390355e-02
2.180000000000000071e+01,5.341934789900121272e-02
2.183999999999999986e+01,0.000000000000000000e+00
2.187999999999999901e+01,4.676607085734084401e-02
2.192000000000000171e+01,5.919675878965335175e-02
2.196000000000000085e+01,3.216746115780139137e-02
2.200000000000000000e+01,4.331589669025519979e-02
2.203999999999999915e+01,3.780882390789141317e-02
2.207999999999999829e+01,6.125519940001365737e-02
2.212000000000000099e+01,3.601730304441221053e-02
2.216000000000000014e+01,2.333412735430371102e-02
2.219999999999999929e+01,2.141206095302509299e-02
2.223999999999999844e+01,3.921915654267328633e-02
2.228000000000000114e+01,5.881930662844528368e-02
2.232000000000000028e+01,5.433327070502399353e-02
2.235999999999999943e+01,3.498533157162034279e-02
2.239999999999999858e+01,6.668780764970785521e-03
2.244000000000000128e+01,2.908523021561221916e-02
2.248000000000000043e+01,4.150814621081493072e-02
2.251999999999999957e+01,2.497650086732234459e-02
2.255999999999999872e+01,1.587496727835781621e-02
2.260000000000000142e+01,5.238182921693852745e-02
2.264000000000000057e+01,1.842485199385459488e-02
2.267999999999999972e+01,4.340023395446934024e-02
2.271999999999999886e+01,5.658846759863309789e-02
2.276000000000000156e+01,3.800360465463595988e-02
2.280000000000000071e+01,2.864245996374146716e-02
2.283999999999999986e+01,3.772931632515996031e-02
2.287999999999999901e+01,5.168397789501485290e-02
2.292000000000000171e+01,4.565212455644285239e-02
2.296000000000000085e+01,2.527081774906757630e-02
2.300000000000000000e+01,9.244853865292584905e-03
2.303999999999999915e+01,8.879214678059500765e-02
2.307999999999999829e+01,5.867238801032437223e-02
2.312000000000000099e+01,6.647411279489130742e-02
2.316000000000000014e+01,4.352765441105271166e-02
2.319999999999999929e+01,4.543494323553191883e-02
2.323999999999999844e+01,4.349820769476570037e-02
2.328000000000000114e+01,5.642224418115774492e-02
2.332000000000000028e+01,4.244154616836488120e-02
2.335999999999999943e+01,3.358487509868404719e-02
2.339999999999999858e+01,1.499088464267178157e-02
2.344000000000000128e+01,6.045384207209884148e-02
2.348000000000000043e+01,5.620758357177465386e-02
2.351999999999999957e+01,3.223102980709003501e-02
2.355999999999999872e+01,3.746412862982158309e-02
2.360000000000000142e+01,4.935863079712609486e-02
2.364000000000000057e+01,4.613497735750052287e-02
2.367999999999999972e+01,5.469732781097499941e-02
2.371999999999999886e+01,4.762906106955307195e-02
2.376000000000000156e+01,1.186244148358476733e-02
2.380000000000000071e+01,4.450867516215403774e-02
2.383999999999999986e+01,4.563802353419063595e-02
2.387999999999999901e+01,5.240384998425827445e-02
2.392000000000000171e+01,6.711222468950715780e-02
2.396000000000000085e+01,5.260978287163393941e-02
2.400000000000000000e+01,3.503199373932885247e-02
2.403999999999999915e+01,6.331880514436882823e-02
2.407999999999999829e+01,5.598904550784410128e-02
2.412000000000000099e+01,3.994687432978494268e-02
2.416000000000000014e+01,3.748430936218129922e-02
2.419999999999999929e+01,5.346972175331674709e-02
2.423999999999999844e+01,3.768201177210823982e-02
2.428000000000000114e+01,4.392949911548597181e-02
2.432000000000000028e+01,3.890227046184653592e-02
2.435999999999999943e+01,6.282845036111379955e-02
2.439999999999999858e+01,5.498150510055779816e-02
2.444000000000000128e+01,5.200233787051520423e-02
2.448000000000000043e+01,5.081618680875643612e-02
2.451999999999999957e+01,4.091761723676504148e-02
2.455999999999999872e+01,9.751353699117636109e-03
2.460000000000000142e+01,4.264201783768465509e-02
2.464000000000000057e+01,3.863495069294272527e-02
2.467999999999999972e+01,3.718958652347555821e-02
2.471999999999999886e+01,6.777238580044646354e-02
2.476000000000000156e+01,7.939355850143269000e-02
2.480000000000000071e+01,2.029462431267058109e-02
2.483999999999999986e+01,3.627050779477716119e-02
2.487999999999999901e+01,2.816016066802276910e-02
2.492000000000000171e+01,2.414889291800419169e-02
2.496000000000000085e+01,6.958943103691173082e-02
2.500000000000000000e+01,6.019612480274860733e-02
2.503999999999999915e+01,4.439646187306511144e-02
2.507999999999999829e+01,5.216936291325163788e-02
2.512000000000000099e+01,3.354995828933797497e-02
2.516000000000000014e+01,5.310823177701474995e-02
2.519999999999999929e+01,4.858026908087183932e-02
2.523999999999999844e+01,6.019419475083275656e-02
2.528000000000000114e+01,6.617044983539456526e-02
2.532000000000000028e+01,5.164768800511403135e-02
2.535999999999999943e+01,5.070451147919464302e-02
2.539999999999999858e+01,9.793198267106663357e-02
2.544000000000000128e+01,5.547830863688662378e-02
2.548000000000000043e+01,5.376460811047174132e-02
2.551999999999999957e+01,7.869822505371887322e-02
2.555999999999999872e+01,6.007211216070466181e-02
2.560000000000000142e+01,6.245625320711924167e-02
2.564000000000000057e+01,6.022763778475964669e-02
2.567999999999999972e+01,7.260352248025606081e-02
2.571999999999999886e+01,5.218133863077199786e-02
2.576000000000000156e+01,5.815023797261743149e-02
2.580000000000000071e+01,6.283736932068270664e-02
2.583999999999999986e+01,5.010023585995816708e-02
2.587999999999999901e+01,4.940529806160712939e-02
2.592000000000000171e+01,6.459600668545995017e-02
2.596000000000000085e+01,6.569343967238655546e-02
2.600000000000000000e+01,5.807842836489712085e-02
2.603999999999999915e+01,5.789346818426215763e-02
2.607999999999999829e+01,4.797114192701822794e-02
2.612000000000000099e+01,3.779196248948910042e-02
2.616000000000000014e+01,5.528500976015801593e-02
2.619999999999999929e+01,4.484835196856194056e-02
2.623999999999999844e+01,4.747880395596441871e-02
2.628000000000000114e+01,8.008755143497564566e-02
2.632000000000000028e+01,4.915060826235902874e-02
2.635999999999999943e+01,6.202838443173165628e-02
2.639999999999999858e+01,7.823652390231679299e-02
2.644000000000000128e+01,4.985999781705145739e-02
2.648000000000000043e+01,4.326240063141909009e-02
2.651999999999999957e+01,4.998813844380976812e-02
2.655999999999999872e+01,6.311899793529388014e-02
2.660000000000000142e+01,6.574379199952164188e-02
2.664000000000000057e+01,4.300117430704959026e-02
2.667999999999999972e+01,4.613716358367485337e-02
2.671999999999999886e+01,6.054664359706762172e-02
2.676000000000000156e+01,6.726858646397121388e-02
2.680000000000000071e+01,5.579755750586926771e-02
2.683999999999999986e+01,7.199874340917859772e-02
2.687999999999999901e+01,6.308874347168297314e-02
2.692000000000000171e+01,8.082603661340546919e-02
2.696000000000000085e+01,9.266939980408327171e-02
2.700000000000000000e+01,6.761499059613308715e-02
2.703999999999999915e+01,7.663854519307838897e-02
2.707999999999999829e+01,5.286400755146934693e-02
2.712000000000000099e+01,6.316743232101643124e-02
2.716000000000000014e+01,9.601846443474960913e-02
2.719999999999999929e+01,6.942347211953230068e-02
2.723999999999999844e+01,5.897033332692829671e-02
2.728000000000000114e+01,9.310058813964755542e-02
2.732000000000000028e+01,9.725127760084026352e-02
2.735999999999999943e+01,8.653997674332337964e-02
2.739999999999999858e+01,7.634049069702701640e-02
2.744000000000000128e+01,6.998381002755481306e-02
2.748000000000000043e+01,7.874405831102355979e-02
2.751999999999999957e+01,9.672794261695674689e-02
2.755999999999999872e+01,7.678912437963111848e-02
2.760000000000000142e+01,1.265442436897770417e-01
2.764000000000000057e+01,8.994917070850456942e-02
2.767999999999999972e+01,1.248416445607574421e-01
2.771999999999999886e+01,1.010567752160921595e-01
2.776000000000000156e+01,1.005881930539058028e-01
2.780000000000000071e+01,1.016563391226951302e-01
2.783999999999999986e+01,1.057985933082703917e-01
2.787999999999999901e+01,1.040469015147951898e-01
2.792000000000000171e+01,1.089565378039529381e-01
2.796000000000000085e+01,1.136092888568136783e-01
2.800000000000000000e+01,1.213361452389811745e-01
2.803999999999999915e+01,9.728981304617206893e-02
2.807999999999999829e+01,1.326882061538636193e-01
2.812000000000000099e+01,1.416942413322187233e-01
2.816000000000000014e+01,1.273826790497280537e-01
2.819999999999999929e+01,1.535548127907414295e-01
2.823999999999999844e+01,1.505160554435628351e-01
2.828000000000000114e+01,1.331277519438952284e-01
2.832000000000000028e+01,1.464863986868159829e-01
2.835999999999999943e+01,1.483140289517550503e-01
2.839999999999999858e+01,1.416854032072025482e-01
2.844000000000000128e+01,1.253193702707219304e-01
2.848000000000000043e+01,1.430312760518237525e-01
2.851999999999999957e+01,1.545929946068445027e-01
2.855999999999999872e+01,1.502677815486078428e-01
2.860000000000000142e+01,1.574722565713705391e-01
2.864000000000000057e+01,1.485335684900229436e-01
2.867999999999999972e+01,1.319073098124350640e-01
2.871999999999999886e+01,1.275794274165771292e-01
2.876000000000000156e+01,1.304253186633126949e-01
2.880000000000000071e+01,1.419823634384520805e-01
2.883999999999999986e+01,1.502077464807985985e-01
2.887999999999999901e+01,1.084675894188557310e-01
2.892000000000000171e+01,1.000366731175870855e-01
2.896000000000000085e+01,1.310645192108429724e-01
2.900000000000000000e+01,1.428744347628001510e-01
2.903999999999999915e+01,1.108683297537085971e-01
2.907999999999999829e+01,1.152462238831720859e-01
2.912000000000000099e+01,1.045058669345406976e-01
2.916000000000000014e+01,9.991435627135136777e-02
2.919999999999999929e+01,8.174197371900751574e-02
2.923999999999999844e+01,1.125088622762928509e-01
2.928000000000000114e+01,9.049167269234396904e-02
2.932000000000000028e+01,1.199760537954177864e-01
2.935999999999999943e+01,7.054088545795790532e-02
2.939999999999999858e+01,9.284946408573453713e-02
2.944000000000000128e+01,9.594010450664434975e-02
2.948000000000000043e+01,8.929331961701097997e-02
2.951999999999999957e+01,9.520112716882471460e-02
2.955999999999999872e+01,6.856702937326873692e-02
2.960000000000000142e+01,8.062299253098029195e-02
2.964000000000000057e+01,6.884887224943607442e-02
2.967999999999999972e+01,7.526640375835284835e-02
2.971999999999999886e+01,8.373309024272096446e-02
2.976000000000000156e+01,7.810643488753044039e-02
2.980000000000000071e+01,5.403052534498487686e-02
2.983999999999999986e+01,6.454499102067449978e-02
2.987999999999999901e+01,8.172075063237617398e-02
2.992000000000000171e+01,4.841849182694647064e-02
2.996000000000000085e+01,8.276028867676267498e-02
3.000000000000000000e+01,7.097997736663468060e-02
3.003999999999999915e+01,6.893571837039937089e-02
3.007999999999999829e+01,7.790866147675368225e-02
3.012000000000000099e+01,5.382722928533434370e-02
3.016000000000000014e+01,7.894128227265176379e-02
3.019999999999999929e+01,6.331405565505592026e-02
3.023999999999999844e+01,5.588549728432367497e-02
3.028000000000000114e+01,6.408627927987195494e-02
3.032000000000000028e+01,5.998732035947757640e-02
3.035999999999999943e+01,7.228639070296415114e-02
3.039999999999999858e+01,4.973747019079502452e-02
3.044000000000000128e+01,7.459041929948054261e-02
3.048000000000000043e+01,6.920751790681076154e-02
3.051999999999999957e+01,5.690570415322915993e-02
3.055999999999999872e+01,5.536485404268617905e-02
3.060000000000000142e+01,7.611532124841186020e-02
3.064000000000000057e+01,8.405358176900960820e-02
3.067999999999999972e+01,6.303713878946962113e-02
3.071999999999999886e+01,6.610562171538225673e-02
3.076000000000000156e+01,4.713761236947760364e-02
3.080000000000000071e+01,3.867433238827920616e-02
3.083999999999999986e+01,4.250939175471051684e-02
3.087999999999999901e+01,4.250029365376171986e-02
3.092000000000000171e+01,4.607771020484985325e-02
3.096000000000000085e+01,5.401033100244485852e-02
3.100000000000000000e+01,5.784256214493706943e-02
3.103999999999999915e+01,5.859932332390983822e-02
3.107999999999999829e+01,4.756879054064019202e-02
3.112000000000000099e+01,5.780464562587828148e-02
3.116000000000000014e+01,5.240975389843420540e-02
3.119999999999999929e+01,7.058731951977829933e-02
3.123999999999999844e+01,3.803061363017379293e-02
3.128000000000000114e+01,4.903231127045792198e-02
3.132000000000000028e+01,3.620389620295395849e-02
3.135999999999999943e+01,6.770257356293889195e-02
3.139999999999999858e+01,2.181904652470928810e-02
3.144000000000000128e+01,3.512395615280231725e-02
3.148000000000000043e+01,5.073422019118807580e-02
3.151999999999999957e+01,2.714056221063664356e-02
3.155999999999999872e+01,3.121903686085833463e-02
3.160000000000000142e+01,4.298369587014330001e-02
3.164000000000000057e+01,6.448437931852835092e-02
3.167999999999999972e+01,4.268145640668367935e-02
3.171999999999999886e+01,1.729059149030607451e-02
3.176000000000000156e+01,1.931562562323918888e-02
3.180000000000000071e+01,4.926901830283988981e-02
3.183999999999999986e+01,3.463765134916482052e-02
3.187999999999999901e+01,4.101642892635769255e-02
3.192000000000000171e+01,5.841237655012866681e-02
3.196000000000000085e+01,2.789257118754109518e-02
3.200000000000000000e+01,2.606981117861210256e-02
3.203999999999999915e+01,5.755623757451168443e-02
3.207999999999999829e+01,4.983873219529668525e-02
3.211999999999999744e+01,5.646938464078405523e-02
3.215999999999999659e+01,2.645840488855049147e-02
3.220000000000000284e+01,4.026204273531303057e-02
3.224000000000000199e+01,2.664833048669506058e-02
3.228000000000000114e+01,5.813038492890024861e-02
3.232000000000000028e+01,6.014524710507865995e-02
3.235999999999999943e+01,3.115553573568032725e-02
3.239999999999999858e+01,4.777404916072248292e-02
3.243999999999999773e+01,1.135219929470157076e-02
3.247999999999999687e+01,5.077372428875485955e-02
3.252000000000000313e+01,1.742516712027878875e-02
3.256000000000000227e+01,2.251038923959038096e-02
3.260000000000000142e+01,4.066261033559995935e-02
3.264000000000000057e+01,2.832271320217088703e-02
3.267999999999999972e+01,5.476644717273305117e-03
3.271999999999999886e+01,4.591867215267762814e-02
3.275999999999999801e+01,3.178295013938044894e-02
3.279999999999999716e+01,4.557556925100536560e-02
3.284000000000000341e+01,3.835658024203597583e-02
3.288000000000000256e+01,1.832534552322905366e-02
3.292000000000000171e+01,2.237899838203474476e-02
3.296000000000000085e+01,2.976290025540338779e-02
3.300000000000000000e+01,4.765149316563842274e-02
3.303999999999999915e+01,6.835787350247003735e-02
3.307999999999999829e+01,4.217340172904156942e-02
3.311999999999999744e+01,4.571087618537012648e-02
3.315999999999999659e+01,5.206613597768575824e-02
3.320000000000000284e+01,3.740978137757879768e-02
3.324000000000000199e+01,3.248942334177919167e-02
3.328000000000000114e+01,2.987438835713059765e-02
3.332000000000000028e+01,2.367138349315656143e-02
3.335999999999999943e+01,3.540373621050718622e-02
3.339999999999999858e+01,3.560498464427939297e-02
3.343999999999999773e+01,2.863103974853003011e-02
3.347999999999999687e+01,4.343590180019597791e-02
3.352000000000000313e+01,1.006875359046719570e-02
3.356000000000000227e+01,3.281524394760083896e-02
3.360000000000000142e+01,3.480634304072693225e-02
3.364000000000000057e+01,1.757943075565563881e-02
3.367999999999999972e+01,3.622397727488389785e-02
3.371999999999999886e+01,1.950801490403509045e-02
3.375999999999999801e+01,3.148906722457300161e-02
3.379999999999999716e+01,4.090706169180090279e-02
3.384000000000000341e+01,3.161950149070892613e-02
3.388000000000000256e+01,1.669412087720751128e-02
3.392000000000000171e+01,3.097821236184000737e-02
3.396000000000000085e+01,3.449988009805667749e-02
3.400000000000000000e+01,2.008468066981430530e-02
3.403999999999999915e+01,4.666553571630982500e-02
3.407999999999999829e+01,2.379322025966659412e-02
3.411999999999999744e+01,5.754699380793507069e-02
3.415999999999999659e+01,1.853065662201170902e-02
3.420000000000000284e+01,2.717235364829367894e-02
3.424000000000000199e+01,2.838261331054444531e-02
3.428000000000000114e+01,4.394099316652751858e-02
3.432000000000000028e+01,3.490051775814632246e-02
3.435999999999999943e+01,6.685609124954458582e-02
3.439999999999999858e+01,2.834762069955209032e-02
3.443999999999999773e+01,1.776746270281939766e-02
3.447999999999999687e+01,1.948558063856324282e-02
3.452000000000000313e+01,2.658376118785383407e-02
3.456000000000000227e+01,3.419363180866799579e-02
3.460000000000000142e+01,2.489154520042922286e-02
3.464000000000000057e+01,1.815098804688098852e-02
3.467999999999999972e+01,2.934576547795365517e-02
3.471999999999999886e+01,2.234743310379723458e-02
3.475999999999999801e+01,2.815983197825526821e-02
3.479999999999999716e+01,1.167943809993127885e-02
3.484000000000000341e+01,3.850115563296898497e-02
3.488000000000000256e+01,3.636809649453828092e-02
3.492000000000000171e+01,6.856909397476289303e-02
3.496000000000000085e+01,4.747345416401279466e-02
3.500000000000000000e+01,4.713167443117169397e-02
3.503999999999999915e+01,4.063959388246963372e-02
3.507999999999999829e+01,3.184066327773691502e-02
3.511999999999999744e+01,4.430805085453042025e-02
3.515999999999999659e+01,1.219062095785345551e-02
3.520000000000000284e+01,1.517593309308316353e-02
3.524000000000000199e+01,2.302883510397614811e-02
3.528000000000000114e+01,3.831162726479606789e-02
3.532000000000000028e+01,5.154379528547968492e-02
3.535999999999999943e+01,3.505248798091722962e-02
3.539999999999999858e+01,2.804090951257887793e-02
3.543999999999999773e+01,8.473270831848104048e-03
3.547999999999999687e+01,3.784479454905528839e-02
3.552000000000000313e+01,1.801935277292365106e-02
3.556000000000000227e+01,9.979707919556912374e-03
3.560000000000000142e+01,5.574759521867200113e-02
3.564000000000000057e+01,4.847506347713884112e-02
3.567999999999999972e+01,4.683880423704105816e-02
3.571999999999999886e+01,4.776405563614889022e-02
3.575999999999999801e+01,5.150704707470580429e-02
3.579999999999999716e+01,2.219556425997533389e-02
3.584000000000000341e+01,1.543153756868104187e-02
3.588000000000000256e+01,4.172040028559968750e-02
3.592000000000000171e+01,5.519696433057492274e-02
3.596000000000000085e+01,1.640179405128339499e-02
3.600000000000000000e+01,3.961351206340213427e-02
3.603999999999999915e+01,4.283848659379460577e-02
3.607999999999999829e+01,2.761409752827096234e-02
3.611999999999999744e+01,5.646048786561481264e-02
3.615999999999999659e+01,2.970414913186953873e-02
3.620000000000000284e+01,4.753104860147877586e-02
3.624000000000000199e+01,2.769132440419256463e-02
3.628000000000000114e+01,3.526742050992796862e-02
3.632000000000000028e+01,2.746891000388837489e-02
3.635999999999999943e+01,1.685106694775720740e-02
3.639999999999999858e+01,4.133594501743823035e-02
3.643999999999999773e+01,4.455292215112809789e-02
3.647999999999999687e+01,2.932052872020370418e-02
3.652000000000000313e+01,1.511225140840853805e-02
3.656000000000000227e+01,3.062586039556621648e-02
3.660000000000000142e+01,4.357636274852696306e-02
3.664000000000000057e+01,5.960081990691409870e-02
3.667999999999999972e+01,6.153181466726458798e-02
3.671999999999999886e+01,3.707030167126854764e-02
3.675999999999999801e+01,3.874345013028956952e-02
3.679999999999999716e+01,4.835892245241128762e-02
3.684000000000000341e+01,2.927581405355693389e-02
3.688000000000000256e+01,3.581490482488358662e-02
3.692000000000000171e+01,3.671612222169469419e-02
3.696000000000000085e+01,3.582291700382038424e-02
3.700000000000000000e+01,4.799663410696430182e-02
3.703999999999999915e+01,3.172799710189645739e-02
3.707999999999999829e+01,2.903874121833385433e-02
3.711999999999999744e+01,4.735953857569329822e-02
3.715999999999999659e+01,3.621305934577825208e-02
3.720000000000000284e+01,4.453925138036565756e-02
3.724000000000000199e+01,5.209593631063234864e-02
3.728000000000000114e+01,5.683327266280174123e-02
3.732000000000000028e+01,6.028864032268421019e-02
3.735999999999999943e+01,2.992081626001633077e-02
3.739999999999999858e+01,4.490489978594857517e-02
3.743999999999999773e+01,6.040062320877758600e-02
3.747999999999999687e+01,4.796644505205369113e-02
3.752000000000000313e+01,5.064902093394698518e-02
3.756000000000000227e+01,6.665473947779436414e-02
3.760000000000000142e+01,7.676634270322595099e-02
3.764000000000000057e+01,7.790906874801203919e-02
3.767999999999999972e+01,6.931422662394264023e-02
3.771999999999999886e+01,6.763677194651482316e-02
3.775999999999999801e+01,8.415082829184525326e-02
3.779999999999999716e+01,1.060448901073976491e-01
3.784000000000000341e+01,1.240946732002219666e-01
3.788000000000000256e+01,1.623858060021019234e-01
3.792000000000000171e+01,2.081067829605009745e-01
3.796000000000000085e+01,2.758627189140092084e-01
3.800000000000000000e+01,3.835897199636904009e-01
3.803999999999999915e+01,5.369248475491680272e-01
3.807999999999999829e+01,7.958259436980921198e-01
3.811999999999999744e+01,9.916936038130195197e-01
3.815999999999999659e+01,1.000000000000000000e+00
3.820000000000000284e+01,8.450869907879304810e-01
3.824000000000000199e+01,7.373194852099883567e-01
3.828000000000000114e+01,5.055357776975967221e-01
3.832000000000000028e+01,3.785493442760927696e-01
3.835999999999999943e+01,2.892278988049133970e-01
3.839999999999999858e+01,2.132295813614218938e-01
3.843999999999999773e+01,1.610598252303953315e-01
3.847999999999999687e+01,1.229818860246570111e-01
3.852000000000000313e+01,1.107823475145506276e-01
3.856000000000000227e+01,1.101123235648596571e-01
3.860000000000000142e+01,8.509959988284739041e-02
3.864000000000000057e+01,8.340297383472429493e-02
3.867999999999999972e+01,7.837451462383376866e-02
3.871999999999999886e+01,7.103914194175922625e-02
3.875999999999999801e+01,5.037896091575761598e-02
3.879999999999999716e+01,6.456522910626594225e-02
3.884000000000000341e+01,4.390335940158739819e-02
3.888000000000000256e+01,5.424448606297916503e-02
3.892000000000000171e+01,6.791575790533128931e-02
3.896000000000000085e+01,4.981365092724705790e-02
3.900000000000000000e+01,5.349025472854371244e-02
3.903999999999999915e+01,5.050402783277116447e-02
3.907999999999999829e+01,4.597957148532641480e-02
3.911999999999999744e+01,2.736161023078621107e-02
3.915999999999999659e+01,3.667187929886748382e-02
3.920000000000000284e+01,2.548288963828038850e-02
3.924000000000000199e+01,3.146046482781514331e-02
3.928000000000000114e+01,2.206338183720844837e-02
3.932000000000000028e+01,3.111401278855076627e-02
3.935999999999999943e+01,5.938104727631199342e-02
3.939999999999999858e+01,5.203124382136918580e-02
3.943999999999999773e+01,2.623201823344566141e-02
3.947999999999999687e+01,4.014760186039850048e-02
3.952000000000000313e+01,4.176328429135111459e-02
3.956000000000000227e+01,5.234616288984027949e-02
3.960000000000000142e+01,3.653648355735623215e-02
3.964000000000000057e+01,6.351637181762929962e-02
3.967999999999999972e+01,5.231711628597612157e-02
3.971999999999999886e+01,5.674703665932701036e-02
3.975999999999999801e+01,4.221506913051202570e-02
3.979999999999999716e+01,4.920556834656816814e-02
3.984000000000000341e+01,3.749040836383221026e-02
3.988000000000000256e+01,3.371751858522104711e-02
3.992000000000000171e+01,4.198657986767810602e-02
3.996000000000000085e+01,4.461771481351368973e-02
4.000000000000000000e+01,2.854318777307781121e-02
4.003999999999999915e+01,1.503009610990755501e-02
4.007999999999999829e+01,4.635640515083298135e-02
4.011999999999999744e+01,3.617257147179091942e-02
4.015999999999999659e+01,5.007349923692497318e-02
4.020000000000000284e+01,3.937546929783181798e-02
4.024000000000000199e+01,2.918903047474844664e-02
4.028000000000000114e+01,1.823303158523837189e-02
4.032000000000000028e+01,4.058607484850514091e-02
4.035999999999999943e+01,2.322258189037877327e-02
4.039999999999999858e+01,2.763777532118964764e-02
4.043999999999999773e+01,2.052174181933454078e-02
4.047999999999999687e+01,4.902081855679701200e-02
4.052000000000000313e+01,6.265767570538047226e-02
4.056000000000000227e+01,3.145339120595502802e-02
4.060000000000000142e+01,3.765782553503118496e-02
4.064000000000000057e+01,2.797511779616555436e-02
4.067999999999999972e+01,3.443402943165507074e-02
4.071999999999999886e+01,4.242944420916985870e-02
4.075999999999999801e+01,4.683675948957350538e-02
4.079999999999999716e+01,3.638185030300940259e-02
4.084000000000000341e+01,4.719315964558793569e-02
4.088000000000000256e+01,4.160486254477911705e-02
4.092000000000000171e+01,4.728980879195317233e-02
4.096000000000000085e+01,4.836173166921370337e-02
4.100000000000000000e+01,4.738293145082408259e-02
4.103999999999999915e+01,2.308630937950793480e-02
4.107999999999999829e+01,5.285335408662217987e-02
4.111999999999999744e+01,2.701758331079008590e-02
4.115999999999999659e+01,2.347294587759542542e-02
4.120000000000000284e+01,2.428333429223489617e-02
4.124000000000000199e+01,3.662319057701211161e-02
4.128000000000000114e+01,2.974490238145719237e-02
4.132000000000000028e+01,3.080885930271369186e-02
4.135999999999999943e+01,4.929557423710508729e-02
4.139999999999999858e+01,4.882037269766825727e-02
4.143999999999999773e+01,4.501328991144675634e-02
4.147999999999999687e+01,3.274972323930399470e-02
4.152000000000000313e+01,4.328974383219698352e-02
4.156000000000000227e+01,2.128765001677571100e-02
4.160000000000000142e+01,3.028850518027717889e-02
4.164000000000000057e+01,6.286163580954493013e-02
4.167999999999999972e+01,3.957571110257570440e-02
4.171999999999999886e+01,4.165567114742636107e-02
4.175999999999999801e+01,4.347850553589381606e-02
4.179999999999999716e+01,4.401929318265487140e-02
4.184000000000000341e+01,5.352723727537303522e-02
4.188000000000000256e+01,4.330456624048521080e-02
4.192000000000000171e+01,2.975000559637486219e-02
4.196000000000000085e+01,5.155429931028556595e-02
4.200000000000000000e+01,5.055321464062081938e-02
4.203999999999999915e+01,3.340873341545740061e-02
4.207999999999999829e+01,3.419945785399891580e-02
4.211999999999999744e+01,1.500333288660218867e-02
4.215999999999999659e+01,2.399161607370410912e-02
4.220000000000000284e+01,5.168379312524154501e-02
4.224000000000000199e+01,3.427856916312449487e-02
4.228000000000000114e+01,5.043858330427674480e-02
4.232000000000000028e+01,6.813507271266158738e-02
4.235999999999999943e+01,2.920380464668255807e-02
4.239999999999999858e+01,3.459943667212334734e-02
4.243999999999999773e+01,5.075582537026737673e-02
4.247999999999999687e+01,5.281865062425147167e-02
4.252000000000000313e+01,5.154957581596586458e-02
4.256000000000000227e+01,2.619396238236061658e-02
4.260000000000000142e+01,3.952818341933274360e-02
4.264000000000000057e+01,5.209280327455912546e-02
4.267999999999999972e+01,4.492679406478305992e-02
4.271999999999999886e+01,6.850748422446155395e-02
4.275999999999999801e+01,4.314731285447802323e-02
4.279999999999999716e+01,6.262649480144280578e-02
4.284000000000000341e+01,4.315778761242592548e-02
4.288000000000000256e+01,5.725430807363105640e-02
4.292000000000000171e+01,2.522849528594149626e-02
4.296000000000000085e+01,4.957238739782111187e-02
4.300000000000000000e+01,5.469810506396643318e-02
4.303999999999999915e+01,4.137433787884772785e-02
4.307999999999999829e+01,5.623496282022193843e-02
4.311999999999999744e+01,4.367804811762575345e-02
4.315999999999999659e+01,4.367548822386953938e-02
4.320000000000000284e+01,3.905986593548998326e-02
4.324000000000000199e+01,4.879220774200412197e-02
4.328000000000000114e+01,2.828847604882199149e-02
4.332000000000000028e+01,5.518638958441385994e-02
4.335999999999999943e+01,4.646739618718982723e-02
4.339999999999999858e+01,4.569061166954674347e-02
4.343999999999999773e+01,5.669948679131491670e-02
4.347999999999999687e+01,5.310232085295110704e-02
4.352000000000000313e+01,5.283521995551879180e-02
4.356000000000000227e+01,3.898699699266822832e-02
4.360000000000000142e+01,5.947267942772302418e-02
4.364000000000000057e+01,5.817787529599317137e-02
4.367999999999999972e+01,6.380035477730225391e-02
4.371999999999999886e+01,8.248963950550053381e-02
4.375999999999999801e+01,7.529875402249137928e-02
4.379999999999999716e+01,6.938808792541840964e-02
4.384000000000000341e+01,5.425220653576510316e-02
4.388000000000000256e+01,7.857482760819507750e-02
4.392000000000000171e+01,8.598532908090515681e-02
4.396000000000000085e+01,8.775783453001205492e-02
4.400000000000000000e+01,8.978563549225271334e-02
4.403999999999999915e+01,1.084674574860107071e-01
4.407999999999999829e+01,1.215112813655562091e-01
4.411999999999999744e+01,1.409599209983459223e-01
4.415999999999999659e+01,1.732191281153436235e-01
4.420000000000000284e+01,2.282818758070993270e-01
4.424000000000000199e+01,2.546459138569631686e-01
4.428000000000000114e+01,3.122690842925854304e-01
4.432000000000000028e+01,3.455494553435028426e-01
4.435999999999999943e+01,3.329636981553257269e-01
4.439999999999999858e+01,3.216581499000373268e-01
4.443999999999999773e+01,2.998462254135549898e-01
4.447999999999999687e+01,2.672716939018950910e-01
4.452000000000000313e+01,2.262406255422079737e-01
4.456000000000000227e+01,1.690661167242239749e-01
4.460000000000000142e+01,1.357200619007530307e-01
4.464000000000000057e+01,1.215903186268856573e-01
4.467999999999999972e+01,1.025912570770984439e-01
4.471999999999999886e+01,7.667303577761494515e-02
4.475999999999999801e+01,7.278965500537212807e-02
4.479999999999999716e+01,7.300500726556674591e-02
4.484000000000000341e+01,7.757532195844234202e-02
4.488000000000000256e+01,8.111976634774908934e-02
4.492000000000000171e+01,7.185175526940382196e-02
4.496000000000000085e+01,5.310227928901008199e-02
4.500000000000000000e+01,6.791799402473808200e-02
4.503999999999999915e+01,5.992827741478453513e-02
4.507999999999999829e+01,5.040022682268650855e-02
4.511999999999999744e+01,5.009550563033404041e-02
4.515999999999999659e+01,4.594637818807732754e-02
4.520000000000000284e+01,4.384613603265324899e-02
4.524000000000000199e+01,5.891235419687872177e-02
4.528000000000000114e+01,7.372138538017714016e-02
4.532000000000000028e+01,5.188855509558534113e-02
4.535999999999999943e+01,4.235381119488029755e-02
4.539999999999999858e+01,4.434846268985212503e-02
4.543999999999999773e+01,5.172298655291100722e-02
4.547999999999999687e+01,3.654830150183382281e-02
4.552000000000000313e+01,4.443336412592409357e-02
4.556000000000000227e+01,4.181203100646529308e-02
4.560000000000000142e+01,4.328941698204766264e-02
4.564000000000000057e+01,5.885849514322131354e-02
4.567999999999999972e+01,5.469689197415650989e-02
4.571999999999999886e+01,5.924614755756338336e-02
4.575999999999999801e+01,4.816440197080539692e-02
4.579999999999999716e+01,5.450533704463291634e-02
4.584000000000000341e+01,3.163507440754925043e-02
4.588000000000000256e+01,5.488526191400479315e-02
4.592000000000000171e+01,3.431913478034948756e-02
4.596000000000000085e+01,6.986643018391373861e-02
4.600000000000000000e+01,4.442999304703428715e-02
4.603999999999999915e+01,3.692869258374793101e-02
4.607999999999999829e+01,4.326284654337170937e-02
4.611999999999999744e+01,5.010848917914233203e-02
4.615999999999999659e+01,5.490331882305661548e-02
4.620000000000000284e+01,3.868630759185814200e-02
4.624000000000000199e+01,4.091688974413045660e-02
4.628000000000000114e+01,3.674074516301035348e-02
4.632000000000000028e+01,4.178790907554141842e-02
4.635999999999999943e+01,4.350310602630042683e-02
4.639999999999999858e+01,5.213553920295099092e-02
4.643999999999999773e+01,5.846092441254313599e-02
4.647999999999999687e+01,5.658596872460050498e-02
4.652000000000000313e+01,3.703015784905992758e-02
4.656000000000000227e+01,3.874046585027823147e-02
4.660000000000000142e+01,4.993030756417234095e-02
4.664000000000000057e+01,4.882012403923900734e-02
4.667999999999999972e+01,3.489745438438176389e-02
4.671999999999999886e+01,5.735847654849093868e-02
4.675999999999999801e+01,3.497824904976975374e-02
4.679999999999999716e+01,5.846222556946874954e-02
4.684000000000000341e+01,3.095542870187778864e-02
4.688000000000000256e+01,3.317033834082727672e-02
4.692000000000000171e+01,2.615997902822066526e-02
4.696000000000000085e+01,5.271477628511480468e-02
4.700000000000000000e+01,3.314716921239314884e-02
4.703999999999999915e+01,3.843289401357934815e-02
4.707999999999999829e+01,3.346842668727675191e-02
4.711999999999999744e+01,3.337134226630236733e-02
4.715999999999999659e+01,3.122342743172625001e-02
4.720000000000000284e+01,3.496781449719203044e-02
4.724000000000000199e+01,4.819172412541657818e-02
4.728000000000000114e+01,3.220441095541654031e-02
4.732000000000000028e+01,4.440141604370904244e-02
4.735999999999999943e+01,3.379294936787065329e-02
4.739999999999999858e+01,3.087039178751845719e-02
4.743999999999999773e+01,4.306441542206922851e-02
4.747999999999999687e+01,5.013284190269974572e-02
4.752000000000000313e+01,4.438876761914027635e-02
4.756000000000000227e+01,3.223794430235431968e-02
4.760000000000000142e+01,4.775897417154541941e-02
4.764000000000000057e+01,4.098698759274370385e-02
4.767999999999999972e+01,3.267662173525937019e-02
4.771999999999999886e+01,3.563938075788932597e-02
4.775999999999999801e+01,5.884331736273035185e-02
4.779999999999999716e+01,3.361876482653929077e-02
4.784000000000000341e+01,4.657149527675309708e-02
4.788000000000000256e+01,5.209255073032850042e-02
4.792000000000000171e+01,3.532058485782241936e-02
4.796000000000000085e+01,4.955145716193837258e-02
4.800000000000000000e+01,5.301966111633321654e-02
4.803999999999999915e+01,5.187471835485706756e-02
4.807999999999999829e+01,5.329107089981353212e-02
4.811999999999999744e+01,4.906935494670604248e-02
4.815999999999999659e+01,3.510988824485147819e-02
4.820000000000000284e+01,4.856603417881343726e-02
4.824000000000000199e+01,3.383586097812867760e-02
4.828000000000000114e+01,5.651427280694078237e-02
4.832000000000000028e+01,4.383192138819320266e-02
4.835999999999999943e+01,4.472875457366275870e-02
4.839999999999999858e+01,4.741818719926647191e-02
4.843999999999999773e+01,4.600692633452772157e-02
4.847999999999999687e+01,5.714992759494335467e-02
4.852000000000000313e+01,5.778648154344363103e-02
4.856000000000000227e+01,3.997345447264534501e-02
4.860000000000000142e+01,2.728401462010527842e-02
4.864000000000000057e+01,4.457248070894716252e-02
4.867999999999999972e+01,3.828676174561432277e-02
4.871999999999999886e+01,4.045561917240369371e-02
4.875999999999999801e+01,6.081579598275216325e-02
4.879999999999999716e+01,5.503948467918306359e-02
4.884000000000000341e+01,5.438675641265344057e-02
4.888000000000000256e+01,3.759051242588670738e-02
4.892000000000000171e+01,3.744820445251980517e-02
4.896000000000000085e+01,3.756110558042952130e-02
4.900000000000000000e+01,4.433496754057941053e-02
4.903999999999999915e+01,5.162026730537958019e-02
4.907999999999999829e+01,5.531732262414694457e-02
4.911999999999999744e+01,5.414498231444502679e-02
4.915999999999999659e+01,3.990388257177732156e-02
4.920000000000000284e+01,2.822405862318732098e-02
4.924000000000000199e+01,3.191701462747198459e-02
4.928000000000000114e+01,4.637060813972136708e-02
4.932000000000000028e+01,5.236758117956572672e-02
4.935999999999999943e+01,4.683317188477525289e-02
4.939999999999999858e+01,4.052904363724001841e-02
4.943999999999999773e+01,5.215999282936371884e-02
4.947999999999999687e+01,4.559757507129640064e-02
4.952000000000000313e+01,2.878492267668159715e-02
4.956000000000000227e+01,3.426325728204292903e-02
4.960000000000000142e+01,2.308560342928374712e-02
4.964000000000000057e+01,4.060468761059449205e-02
4.967999999999999972e+01,3.711187028911838715e-02
4.971999999999999886e+01,4.924805465519254549e-02
4.975999999999999801e+01,5.369630117463360802e-02
4.979999999999999716e+01,2.508982953635172791e-02
4.984000000000000341e+01,3.850405749768402025e-02
4.988000000000000256e+01,4.423034552177379508e-02
4.992000000000000171e+01,5.508019776741800849e-02
4.996000000000000085e+01,5.286127664270010018e-02
5.000000000000000000e+01,5.269115718043691082e-02
5.003999999999999915e+01,6.200051150004540212e-02
5.007999999999999829e+01,3.799891268672889177e-02
5.011999999999999744e+01,5.499308820648453333e-02
5.015999999999999659e+01,4.892551308410891114e-02
5.020000000000000284e+01,3.516999244953225578e-02
5.024000000000000199e+01,4.268052657969156893e-02
5.028000000000000114e+01,3.532867108473684153e-02
5.032000000000000028e+01,6.436044469046514616e-02
5.035999999999999943e+01,4.650106513817308523e-02
5.039999999999999858e+01,4.657674630066432203e-02
5.043999999999999773e+01,4.229546903220902238e-02
5.047999999999999687e+01,4.493135690892401113e-02
5.052000000000000313e+01,5.730294030218624490e-02
5.056000000000000227e+01,3.713225249142569628e-02
5.060000000000000142e+01,5.513879958305273332e-02
5.064000000000000057e+01,2.676664883279741142e-02
5.067999999999999972e+01,5.886375004005009459e-02
5.071999999999999886e+01,4.970675395394747592e-02
5.075999999999999801e+01,4.951675891183312389e-02
5.079999999999999716e+01,4.881325062364386819e-02
5.084000000000000341e+01,5.502690120879661501e-02
5.088000000000000256e+01,4.637815171578811568e-02
5.092000000000000171e+01,5.310215290712200914e-02
5.096000000000000085e+01,2.677141573150838838e-02
5.100000000000000000e+01,4.861088027700414399e-02
5.103999999999999915e+01,4.354512739253278003e-02
5.107999999999999829e+01,5.077736123956453490e-02
5.111999999999999744e+01,3.802258888494946393e-02
5.115999999999999659e+01,2.116707565284455667e-02
5.120000000000000284e+01,3.864533541337994427e-02
5.124000000000000199e+01,3.536789659031910199e-02
5.128000000000000114e+01,4.951304295667898620e-02
5.132000000000000028e+01,5.571399420136970843e-02
5.135999999999999943e+01,4.013432438340142072e-02
5.139999999999999858e+01,4.556445902383100127e-02
5.143999999999999773e+01,4.433154693754866316e-02
5.147999999999999687e+01,6.000875636211132347e-02
5.152000000000000313e+01,5.569895261632897693e-02
5.156000000000000227e+01,4.703217092724524401e-02
5.160000000000000142e+01,5.168828729881043416e-02
5.164000000000000057e+01,3.200147675849444179e-02
5.167999999999999972e+01,3.742414735230105427e-02
5.171999999999999886e+01,4.412689935182036172e-02
5.175999999999999801e+01,5.108481167172919390e-02
5.179999999999999716e+01,5.317328167289112756e-02
5.184000000000000341e+01,5.269837953245626316e-02
5.188000000000000256e+01,6.119045892365483630e-02
5.192000000000000171e+01,4.790190749601696413e-02
5.196000000000000085e+01,3.179375173905956559e-02
5.200000000000000000e+01,4.950689484311958377e-02
5.203999999999999915e+01,5.466368853381371046e-02
5.207999999999999829e+01,4.188330007489209084e-02
5.211999999999999744e+01,4.345072100576514995e-02
5.215999999999999659e+01,4.040492344317621332e-02
5.220000000000000284e+01,4.478872125458210895e-02
5.224000000000000199e+01,4.302191859610652452e-02
5.228000000000000114e+01,4.151026719871288295e-02
5.232000000000000028e+01,3.717900520017129035e-02
5.235999999999999943e+01,4.514570763329865677e-02
5.239999999999999858e+01,4.593688642061193733e-02
5.243999999999999773e+01,3.724646999122118579e-02
5.247999999999999687e+01,4.700353823360990668e-02
5.252000000000000313e+01,4.189817782617513697e-02
5.256000000000000227e+01,4.780962788049349793e-02
5.260000000000000142e+01,5.679475468918195047e-02
5.264000000000000057e+01,5.091745075743735194e-02
5.267999999999999972e+01,3.478985713642984701e-02
5.271999999999999886e+01,4.659025759917628795e-02
5.275999999999999801e+01,6.530778348551360968e-02
5.279999999999999716e+01,4.892069817198527182e-02
5.284000000000000341e+01,4.636894951036810153e-02
5.288000000000000256e+01,4.535349214235227799e-02
5.292000000000000171e+01,4.741170595374803037e-02
5.296000000000000085e+01,3.742601451799885265e-02
5.300000000000000000e+01,4.665648898606158945e-02
5.303999999999999915e+01,4.666158788148647846e-02
5.307999999999999829e+01,4.692182410059696218e-02
5.311999999999999744e+01,4.359374548982321990e-02
5.315999999999999659e+01,4.385179407146887892e-02
5.320000000000000284e+01,3.539692448722396578e-02
5.324000000000000199e+01,4.410837584866549033e-02
5.328000000000000114e+01,4.820658920429022470e-02
5.332000000000000028e+01,5.281616579949503093e-02
5.335999999999999943e+01,5.998694571431675143e-02
5.339999999999999858e+01,6.408186611539218314e-02
5.343999999999999773e+01,3.409708455513826841e-02
5.347999999999999687e+01,5.253869160717851428e-02
5.352000000000000313e+01,5.304309142228970375e-02
5.356000000000000227e+01,5.380262019864881506e-02
5.360000000000000142e+01,3.585625005299921536e-02
5.364000000000000057e+01,3.277012301031778652e-02
5.367999999999999972e+01,4.966884031600150851e-02
5.371999999999999886e+01,4.248082456968713810e-02
5.375999999999999801e+01,3.631662459161150852e-02
5.379999999999999716e+01,1.810850473212475761e-02
5.384000000000000341e+01,5.908843129186396731e-02
5.388000000000000256e+01,5.522698414594569283e-02
5.392000000000000171e+01,5.290181017501361521e-02
5.396000000000000085e+01,4.186370479766456792e-02
5.400000000000000000e+01,6.849031489454208976e-02
5.403999999999999915e+01,3.746404364261620573e-02
5.407999999999999829e+01,5.409546025859732210e-02
5.411999999999999744e+01,5.227719899037552853e-02
5.415999999999999659e+01,4.533322419097432499e-02
5.420000000000000284e+01,5.555555361238388029e-02
5.424000000000000199e+01,4.707197296186786672e-02
5.428000000000000114e+01,3.679366795203621587e-02
5.432000000000000028e+01,5.854301070497928972e-02
5.435999999999999943e+01,4.954362673106061515e-02
5.439999999999999858e+01,2.978146290825015724e-02
5.443999999999999773e+01,4.435301563162504651e-02
5.447999999999999687e+01,3.816881332494864026e-02
5.452000000000000313e+01,4.043908636227124681e-02
5.456000000000000227e+01,4.706415249290960001e-02
5.460000000000000142e+01,4.779480713546056109e-02
5.464000000000000057e+01,4.263104959305437369e-02
5.467999999999999972e+01,4.771537528696117442e-02
5.471999999999999886e+01,5.766695148093122641e-02
5.475999999999999801e+01,3.507618329954790420e-02
5.479999999999999716e+01,3.349516034262812331e-02
5.484000000000000341e+01,4.139352754320213545e-02
5.488000000000000256e+01,3.673549585265343392e-02
5.492000000000000171e+01,6.179903059781215874e-02
5.496000000000000085e+01,4.509593398718847457e-02
5.500000000000000000e+01,4.837765872822592100e-02
5.503999999999999915e+01,4.986464586942144367e-02
5.507999999999999829e+01,4.161376170339172592e-02
5.511999999999999744e+01,4.386718320522041414e-02
5.515999999999999659e+01,4.227602423969103324e-02
5.520000000000000284e+01,5.503262100498039489e-02
5.524000000000000199e+01,2.704750192485187374e-02
5.528000000000000114e+01,3.518969543643594988e-02
5.532000000000000028e+01,4.051222608163588396e-02
5.535999999999999943e+01,4.327132326069528523e-02
5.539999999999999858e+01,3.142417171241766727e-02
5.543999999999999773e+01,4.340528530693336939e-02
5.547999999999999687e+01,6.050986625809900987e-02
5.552000000000000313e+01,3.507911580596473344e-02
5.556000000000000227e+01,5.833094782600776324e-02
5.560000000000000142e+01,4.622188976818452505e-02
5.564000000000000057e+01,4.205482734777873238e-02
5.567999999999999972e+01,3.609301617761399156e-02
5.571999999999999886e+01,4.704125265009365814e-02
5.575999999999999801e+01,4.056470305516125113e-02
5.579999999999999716e+01,4.433621718418705865e-02
5.584000000000000341e+01,4.375067880484127120e-02
5.588000000000000256e+01,5.392566294994062537e-02
5.592000000000000171e+01,4.513847765746865914e-02
5.596000000000000085e+01,5.018657466106239695e-02
5.600000000000000000e+01,4.395940374674510431e-02
5.603999999999999915e+01,3.747485839352043130e-02
5.607999999999999829e+01,3.380769906987862033e-02
5.611999999999999744e+01,4.269466876925642057e-02
5.615999999999999659e+01,4.722458038530405466e-02
5.620000000000000284e+01,4.406644195867839842e-02
5.624000000000000199e+01,5.115635959044290831e-02
5.628000000000000114e+01,5.670774811651447395e-02
5.632000000000000028e+01,4.893402237280987388e-02
5.635999999999999943e+01,5.448311176224616276e-02
5.639999999999999858e+01,6.003105053805998098e-02
5.643999999999999773e+01,3.867367780648144765e-02
5.647999999999999687e+01,4.703784433268776849e-02
5.652000000000000313e+01,4.156443291054213313e-02
5.656000000000000227e+01,5.505089527368152436e-02
5.660000000000000142e+01,5.060009674091613119e-02
5.664000000000000057e+01,3.359286865475605288e-02
5.667999999999999972e+01,4.323241517667158335e-02
5.671999999999999886e+01,4.390275211103948638e-02
5.675999999999999801e+01,3.816617973212335646e-02
5.679999999999999716e+01,3.370960025645334396e-02
5.684000000000000341e+01,4.103844696880622894e-02
5.688000000000000256e+01,3.632332014077235133e-02
5.692000000000000171e+01,3.186326373692174169e-02
5.696000000000000085e+01,4.533815376120468865e-02
5.700000000000000000e+01,4.625660796026469235e-02
5.703999999999999915e+01,4.538028971599187417e-02
5.707999999999999829e+01,2.887277308739640350e-02
5.711999999999999744e+01,2.927527971100190446e-02
5.715999999999999659e+01,3.710729529674525184e-02
5.720000000000000284e+01,4.493814633146981513e-02
5.724000000000000199e+01,4.405600881645252431e-02
5.728000000000000114e+01,5.470305972677697720e-02
5.732000000000000028e+01,4.971890807155981973e-02
5.735999999999999943e+01,5.472656286526474817e-02
5.739999999999999858e+01,3.411003991226852633e-02
5.743999999999999773e+01,4.526488026908803003e-02
5.747999999999999687e+01,4.360704634113346523e-02
5.752000000000000313e+01,4.220427238431504607e-02
5.756000000000000227e+01,4.797477032382285733e-02
5.760000000000000142e+01,5.066933557825381573e-02
5.764000000000000057e+01,4.157614414888471943e-02
5.767999999999999972e+01,2.940701864069920901e-02
5.771999999999999886e+01,4.004119816527400288e-02
5.775999999999999801e+01,4.529337134327267311e-02
5.779999999999999716e+01,3.542679378751874969e-02
5.784000000000000341e+01,4.042038616340236368e-02
5.788000000000000256e+01,2.824538563488708173e-02
5.792000000000000171e+01,3.605515558653647756e-02
5.796000000000000085e+01,5.821263318498728911e-02
5.800000000000000000e+01,4.885263035008302612e-02
5.803999999999999915e+01,3.949144832989396475e-02
5.807999999999999829e+01,5.113995439084363659e-02
5.811999999999999744e+01,4.049526142390875993e-02
5.815999999999999659e+01,4.214843184251964442e-02
5.820000000000000284e+01,4.636272125949981310e-02
5.824000000000000199e+01,5.441927946354601503e-02
5.828000000000000114e+01,4.376985721181506778e-02
5.832000000000000028e+01,3.542532177073069027e-02
5.835999999999999943e+01,3.630388506548289790e-02
5.839999999999999858e+01,3.846241338868863768e-02
5.843999999999999773e+01,5.445618080203135092e-02
5.847999999999999687e+01,3.944491961380796469e-02
5.852000000000000313e+01,6.184206505640858775e-02
5.856000000000000227e+01,6.963290671895680517e-02
5.860000000000000142e+01,4.155034584417608562e-02
5.864000000000000057e+01,3.627107397414991441e-02
5.867999999999999972e+01,4.457080691592855970e-02
5.871999999999999886e+01,4.466998571800884221e-02
5.875999999999999801e+01,4.502420288826091549e-02
5.879999999999999716e+01,4.307115675868166543e-02
5.884000000000000341e+01,5.392842236208795353e-02
5.888000000000000256e+01,4.146755530862998584e-02
5.892000000000000171e+01,4.514798985689115474e-02
5.896000000000000085e+01,3.217227287949505493e-02
5.900000000000000000e+01,3.636277649853200677e-02
5.903999999999999915e+01,3.696486215095192568e-02
5.907999999999999829e+01,5.345201652049855201e-02
5.911999999999999744e+01,3.662806026454200337e-02
5.915999999999999659e+01,2.902718880702570212e-02
5.920000000000000284e+01,5.909094223065999851e-02
5.924000000000000199e+01,4.200715769406163091e-02
5.928000000000000114e+01,4.439565974982743329e-02
5.932000000000000028e+01,3.832736711573430516e-02
5.935999999999999943e+01,3.687001404769243290e-02
5.939999999999999858e+01,4.412328140264539650e-02
5.943999999999999773e+01,3.907630052042990881e-02
5.947999999999999687e+01,4.940192119241620938e-02
5.952000000000000313e+01,3.410332718360124110e-02
5.956000000000000227e+01,4.493899741400837755e-02
5.960000000000000142e+01,3.296898263812124419e-02
5.964000000000000057e+01,2.304760157906330514e-02
5.967999999999999972e+01,2.619274771583806824e-02
5.971999999999999886e+01,4.932263297363579518e-02
5.975999999999999801e+01,4.785321975786654275e-02
5.979999999999999716e+01,1.947843649764062490e-02
5.984000000000000341e+01,4.055485143586151642e-02
5.988000000000000256e+01,3.908180658681271319e-02
5.992000000000000171e+01,3.478901873135108874e-02
5.996000000000000085e+01,3.818192115425343008e-02
