2.003999999999999915e+01,5.507373983774421604e-03
2.007999999999999829e+01,3.420837022123547622e-02
2.012000000000000099e+01,3.491408500040114188e-02
2.016000000000000014e+01,1.347659066332852068e-02
2.019999999999999929e+01,2.730946692438663073e-02
2.023999999999999844e+01,4.193293219943485667e-02
2.028000000000000114e+01,2.951009849217670761e-02
2.032000000000000028e+01,3.195446047867832318e-02
2.035999999999999943e+01,2.601589002091647673e-02
2.039999999999999858e+01,9.321924542663650656e-03
2.044000000000000128e+01,7.020660617332231089e-03
2.048000000000000043e+01,3.445401856961173570e-02
2.051999999999999957e+01,3.626455125356632669e-02
2.055999999999999872e+01,3.111562578780788582e-02
2.060000000000000142e+01,8.568408810869591538e-03
2.064000000000000057e+01,1.195987219621280108e-02
2.067999999999999972e+01,2.563176619192206879e-02
2.071999999999999886e+01,4.246670423045230403e-02
2.076000000000000156e+01,2.861756125983881335e-02
2.080000000000000071e+01,2.283454929526953711e-02
2.083999999999999986e+01,3.903611146403941634e-02
2.087999999999999901e+01,3.689039325938325148e-02
2.092000000000000171e+01,3.521892593295710555e-02
2.096000000000000085e+01,2.753697944939164158e-02
2.100000000000000000e+01,2.017111854987436656e-02
2.103999999999999915e+01,1.217235785557269426e-02
2.107999999999999829e+01,4.055110391819179844e-02
2.112000000000000099e+01,1.357215899169718874e-02
2.116000000000000014e+01,4.274123629147370124e-02
2.119999999999999929e+01,2.430266396014989227e-02
2.123999999999999844e+01,2.626701862603644799e-02
2.128000000000000114e+01,2.633315694937368723e-02
2.132000000000000028e+01,2.197045222089027278e-02
2.135999999999999943e+01,3.642903141747114854e-02
2.139999999999999858e+01,3.143317376192238111e-02
2.144000000000000128e+01,2.185030717980187762e-02
2.148000000000000043e+01,1.875192040361437981e-02
2.151999999999999957e+01,3.716360549196182778e-02
2.155999999999999872e+01,2.995245021719131553e-02
2.160000000000000142e+01,2.716963927707612830e-02
2.164000000000000057e+01,1.916715997536888594e-02
2.167999999999999972e+01,2.623564937578596896e-03
2.171999999999999886e+01,1.502375311454217342e-02
2.176000000000000156e+01,3.422474529954374484e-02
2.180000000000000071e+01,4.093051668065772475e-02
2.183999999999999986e+01,2.644203935990040860e-02
2.187999999999999901e+01,2.523909376027439963e-02
2.192000000000000171e+01,2.261241492812730500e-02
2.196000000000000085e+01,4.639888969861775958e-02
2.200000000000000000e+01,2.542465762141914512e-02
2.203999999999999915e+01,3.323603998137868165e-02
2.207999999999999829e+01,2.523075067954590189e-02
2.212000000000000099e+01,3.161813854673804075e-02
2.216000000000000014e+01,3.594913316581965779e-02
2.219999999999999929e+01,3.426963063012435085e-02
2.223999999999999844e+01,3.970725340172740619e-02
2.228000000000000114e+01,3.707824412784468948e-02
2.232000000000000028e+01,1.420396398352659177e-02
2.235999999999999943e+01,4.731952451536687587e-02
2.239999999999999858e+01,3.187843320077458215e-02
2.244000000000000128e+01,2.118200229497725628e-02
2.248000000000000043e+01,3.563340438006963595e-02
2.251999999999999957e+01,2.272214670490608698e-02
2.255999999999999872e+01,2.689235007425513219e-02
2.260000000000000142e+01,1.160809917440553361e-02
2.264000000000000057e+01,1.435429295619427073e-02
2.267999999999999972e+01,2.263596432858354032e-02
2.271999999999999886e+01,1.684076021356011033e-02
2.276000000000000156e+01,2.385658264801907708e-02
2.280000000000000071e+01,1.078529137825907230e-02
2.283999999999999986e+01,1.258115922641436096e-02
2.287999999999999901e+01,1.754003976666672002e-02
2.292000000000000171e+01,2.218232149148162760e-02
2.296000000000000085e+01,3.663050833509978038e-02
2.300000000000000000e+01,3.099157857165418112e-02
2.303999999999999915e+01,5.740024019707322400e-03
2.307999999999999829e+01,2.161087118755052050e-02
2.312000000000000099e+01,2.830792518665251750e-02
2.316000000000000014e+01,3.769349541473735604e-02
2.319999999999999929e+01,1.402248722331316498e-02
2.323999999999999844e+01,2.056055324937341652e-02
2.328000000000000114e+01,1.713400311919722335e-02
2.332000000000000028e+01,2.920726167228446246e-02
2.335999999999999943e+01,2.862711264625064297e-02
2.339999999999999858e+01,2.535789584229313290e-02
2.344000000000000128e+01,2.762414559812602713e-02
2.348000000000000043e+01,1.628800123486762522e-02
2.351999999999999957e+01,2.329861704681809517e-02
2.355999999999999872e+01,2.319156703333961553e-02
2.360000000000000142e+01,1.659950714603884367e-02
2.364000000000000057e+01,3.436444274790844550e-02
2.367999999999999972e+01,2.919529747825155147e-02
2.371999999999999886e+01,2.956161470440221012e-02
2.376000000000000156e+01,2.296842733532317507e-02
2.380000000000000071e+01,2.539031222787973066e-02
2.383999999999999986e+01,2.828640561713206478e-02
2.387999999999999901e+01,3.497815371643329951e-02
2.392000000000000171e+01,2.616953171385777085e-02
2.396000000000000085e+01,2.574332311846654411e-02
2.400000000000000000e+01,2.626581309662688948e-02
2.403999999999999915e+01,3.580337185300921932e-02
2.407999999999999829e+01,3.347833324524878557e-02
2.412000000000000099e+01,2.798972401019168832e-02
2.416000000000000014e+01,1.728140983769799188e-02
2.419999999999999929e+01,2.476168183769694373e-02
2.423999999999999844e+01,4.404776713842791305e-03
2.428000000000000114e+01,2.279779389705129111e-02
2.432000000000000028e+01,2.774656890226417927e-02
2.435999999999999943e+01,2.763380020023972067e-02
2.439999999999999858e+01,2.388296440780408522e-02
2.444000000000000128e+01,3.563192104270075655e-02
2.448000000000000043e+01,2.523760585991128083e-02
2.451999999999999957e+01,3.951660165986298906e-02
2.455999999999999872e+01,2.754005702184893906e-02
2.460000000000000142e+01,3.485924168194535350e-02
2.464000000000000057e+01,3.553523724038254450e-02
2.467999999999999972e+01,1.818022553743026820e-02
2.471999999999999886e+01,2.929446110742809500e-02
2.476000000000000156e+01,2.775526877839123302e-02
2.480000000000000071e+01,3.744543205938088981e-02
2.483999999999999986e+01,2.451782589843193652e-02
2.487999999999999901e+01,2.629918511333740119e-02
2.492000000000000171e+01,3.282516874176211880e-02
2.496000000000000085e+01,2.337627477438542975e-02
2.500000000000000000e+01,1.013114087501928648e-02
2.503999999999999915e+01,1.238579069445119515e-02
2.507999999999999829e+01,1.558912341207279589e-02
2.512000000000000099e+01,3.713919308214479881e-02
2.516000000000000014e+01,4.366336705183408717e-02
2.519999999999999929e+01,2.567179675793731727e-02
2.523999999999999844e+01,2.713411060609147163e-02
2.528000000000000114e+01,4.393804055658590696e-02
2.532000000000000028e+01,2.800168958350438345e-02
2.535999999999999943e+01,1.443749464202498042e-02
2.539999999999999858e+01,2.143433045162805584e-02
2.544000000000000128e+01,3.444109619170511449e-02
2.548000000000000043e+01,3.953934757382355364e-02
2.551999999999999957e+01,2.107083484606766047e-02
2.555999999999999872e+01,2.427049947842573052e-02
2.560000000000000142e+01,3.964849290769434376e-02
2.564000000000000057e+01,3.826077820626971188e-02
2.567999999999999972e+01,3.608193223101745228e-02
2.571999999999999886e+01,3.390277506658805756e-02
2.576000000000000156e+01,2.160080161760261422e-02
2.580000000000000071e+01,2.732922698530745875e-02
2.583999999999999986e+01,3.052671329342589168e-02
2.587999999999999901e+01,3.878513834749638262e-02
2.592000000000000171e+01,1.873186949468568993e-02
2.596000000000000085e+01,2.129575699456282001e-02
2.600000000000000000e+01,3.081855109521198025e-02
2.603999999999999915e+01,2.025418446555625474e-02
2.607999999999999829e+01,2.946001805209116919e-02
2.612000000000000099e+01,4.910436742465711102e-02
2.616000000000000014e+01,1.038583412858593534e-02
2.619999999999999929e+01,5.264701879499023018e-02
2.623999999999999844e+01,3.654531963161954111e-02
2.628000000000000114e+01,3.056580566591622986e-02
2.632000000000000028e+01,2.379515113728193978e-02
2.635999999999999943e+01,2.002929465820138533e-02
2.639999999999999858e+01,4.631430239861369230e-02
2.644000000000000128e+01,4.049166949169453328e-02
2.648000000000000043e+01,2.454620984997809077e-02
2.651999999999999957e+01,4.466184974171601152e-02
2.655999999999999872e+01,3.425148857485466047e-02
2.660000000000000142e+01,3.238166663067004736e-02
2.664000000000000057e+01,1.864921016592935993e-02
2.667999999999999972e+01,3.148800292973270160e-02
2.671999999999999886e+01,3.879072533359821662e-02
2.676000000000000156e+01,4.751659865088882218e-02
2.680000000000000071e+01,4.611964058883039758e-02
2.683999999999999986e+01,1.894160139550729247e-02
2.687999999999999901e+01,3.763083275924005572e-02
2.692000000000000171e+01,4.208496354277535545e-02
2.696000000000000085e+01,5.729392618648139479e-02
2.700000000000000000e+01,2.584413981485129269e-02
2.703999999999999915e+01,3.219525089276187996e-02
2.707999999999999829e+01,3.712255384475565689e-02
2.712000000000000099e+01,3.683010889720977898e-02
2.716000000000000014e+01,2.246072401909650004e-02
2.719999999999999929e+01,2.485640457340870454e-02
2.723999999999999844e+01,5.113453596655326283e-02
2.728000000000000114e+01,4.467235798824259474e-02
2.732000000000000028e+01,4.184762065800617936e-02
2.735999999999999943e+01,3.000719275176267492e-02
2.739999999999999858e+01,4.062573616468050097e-02
2.744000000000000128e+01,3.843264864739941167e-02
2.748000000000000043e+01,3.054531560632640572e-02
2.751999999999999957e+01,3.483628349485386189e-02
2.755999999999999872e+01,4.149937548369057871e-02
2.760000000000000142e+01,3.535083422005262654e-02
2.764000000000000057e+01,4.454387480518650494e-02
2.767999999999999972e+01,5.927232040980079386e-02
2.771999999999999886e+01,4.853600037672114315e-02
2.776000000000000156e+01,3.416156448543756358e-02
2.780000000000000071e+01,7.166462285379218700e-02
2.783999999999999986e+01,6.187626348268678023e-02
2.787999999999999901e+01,7.312339126651994092e-02
2.792000000000000171e+01,5.257918518805806962e-02
2.796000000000000085e+01,5.496843469992369891e-02
2.800000000000000000e+01,8.203094468503079051e-02
2.803999999999999915e+01,6.702145041828209970e-02
2.807999999999999829e+01,5.707286296619268340e-02
2.812000000000000099e+01,7.069038531433038952e-02
2.816000000000000014e+01,6.690950642375487201e-02
2.819999999999999929e+01,9.934786681578119949e-02
2.823999999999999844e+01,7.152534475305750983e-02
2.828000000000000114e+01,7.675877815091979028e-02
2.832000000000000028e+01,8.847659207742267218e-02
2.835999999999999943e+01,7.631127240756721553e-02
2.839999999999999858e+01,6.430376678345814390e-02
2.844000000000000128e+01,6.637251833239034282e-02
2.848000000000000043e+01,7.381849915638004356e-02
2.851999999999999957e+01,8.411108254615569380e-02
2.855999999999999872e+01,5.454595199929369170e-02
2.860000000000000142e+01,8.966959887724700040e-02
2.864000000000000057e+01,8.604267958873211553e-02
2.867999999999999972e+01,7.308372229934646802e-02
2.871999999999999886e+01,7.277754092162433408e-02
2.876000000000000156e+01,7.674143582366955985e-02
2.880000000000000071e+01,5.840383207353680439e-02
2.883999999999999986e+01,5.161185356205333363e-02
2.887999999999999901e+01,7.423804674261130776e-02
2.892000000000000171e+01,5.083811957269872978e-02
2.896000000000000085e+01,6.081046625978743514e-02
2.900000000000000000e+01,7.188960308235155250e-02
2.903999999999999915e+01,4.532531686406521959e-02
2.907999999999999829e+01,7.633241511679098035e-02
2.912000000000000099e+01,6.716546303882577063e-02
2.916000000000000014e+01,4.502869093315252369e-02
2.919999999999999929e+01,5.262641414105706517e-02
2.923999999999999844e+01,3.602466271399823450e-02
2.928000000000000114e+01,5.137170330199391372e-02
2.932000000000000028e+01,4.378458115823961189e-02
2.935999999999999943e+01,4.584510710921112231e-02
2.939999999999999858e+01,1.532345705161647365e-02
2.944000000000000128e+01,5.312834728689886515e-02
2.948000000000000043e+01,5.502961355855510994e-02
2.951999999999999957e+01,6.404789947395878036e-02
2.955999999999999872e+01,3.779521679677414620e-02
2.960000000000000142e+01,4.950155854576063219e-02
2.964000000000000057e+01,4.159517971236754291e-02
2.967999999999999972e+01,2.340776356561630883e-02
2.971999999999999886e+01,4.934777129204184071e-02
2.976000000000000156e+01,2.072078329167754973e-02
2.980000000000000071e+01,5.330294437209388142e-02
2.983999999999999986e+01,3.432322709241679426e-02
2.987999999999999901e+01,4.919026271578656045e-02
2.992000000000000171e+01,4.491906609192578004e-02
2.996000000000000085e+01,8.540177730665052258e-03
3.000000000000000000e+01,1.423257544902753989e-02
3.003999999999999915e+01,6.357789999688330529e-02
3.007999999999999829e+01,3.542242488203119211e-02
3.012000000000000099e+01,2.893506094243144394e-02
3.016000000000000014e+01,3.968721187228584774e-02
3.019999999999999929e+01,2.734702316482913800e-02
3.023999999999999844e+01,2.149118711870301110e-02
3.028000000000000114e+01,4.078307085251934444e-02
3.032000000000000028e+01,2.195702056814667624e-02
3.035999999999999943e+01,3.017665849910547773e-02
3.039999999999999858e+01,3.396732158908942478e-02
3.044000000000000128e+01,2.652795153664155164e-02
3.048000000000000043e+01,2.525660239602263088e-02
3.051999999999999957e+01,4.138292703278100004e-02
3.055999999999999872e+01,3.109546001318572520e-02
3.060000000000000142e+01,2.254741643848312202e-02
3.064000000000000057e+01,5.638697792038811774e-02
3.067999999999999972e+01,1.873596808671928668e-02
3.071999999999999886e+01,2.916647093810074629e-02
3.076000000000000156e+01,1.555564122594233975e-02
3.080000000000000071e+01,2.424556935153966003e-02
3.083999999999999986e+01,3.799636423253785478e-02
3.087999999999999901e+01,5.522638395792899002e-02
3.092000000000000171e+01,3.402213269050895217e-02
3.096000000000000085e+01,2.341449109331965317e-02
3.100000000000000000e+01,4.222499041801708319e-02
3.103999999999999915e+01,3.731048138127967401e-02
3.107999999999999829e+01,1.752815485299721865e-02
3.112000000000000099e+01,2.906193710142146447e-02
3.116000000000000014e+01,2.509524416498713079e-02
3.119999999999999929e+01,3.583742487451143516e-02
3.123999999999999844e+01,3.993632068849792272e-02
3.128000000000000114e+01,3.786642342550949197e-02
3.132000000000000028e+01,1.618378119624510822e-02
3.135999999999999943e+01,3.087849651767858583e-02
3.139999999999999858e+01,2.089921345429317234e-02
3.144000000000000128e+01,1.186852097863274128e-02
3.148000000000000043e+01,1.960283181451896728e-02
3.151999999999999957e+01,2.907655274221178712e-02
3.155999999999999872e+01,2.352428507848811426e-02
3.160000000000000142e+01,2.540533513501373047e-02
3.164000000000000057e+01,2.364821301814621843e-02
3.167999999999999972e+01,1.698760508296542210e-02
3.171999999999999886e+01,2.456137084721497083e-02
3.176000000000000156e+01,1.663465271807158460e-02
3.180000000000000071e+01,1.693207007155219171e-02
3.183999999999999986e+01,2.055053420272674389e-02
3.187999999999999901e+01,2.764820866407019170e-02
3.192000000000000171e+01,3.126587102108172034e-02
3.196000000000000085e+01,2.808207389927031353e-02
3.200000000000000000e+01,3.328057349028205186e-02
3.203999999999999915e+01,4.037663975874774408e-02
3.207999999999999829e+01,4.162022960494706630e-02
3.211999999999999744e+01,2.910313579611575538e-02
3.215999999999999659e+01,3.319287129611485365e-02
3.220000000000000284e+01,1.925149038775992791e-02
3.224000000000000199e+01,3.536088893582949727e-02
3.228000000000000114e+01,3.264834924918755266e-02
3.232000000000000028e+01,2.867008951513880244e-02
3.235999999999999943e+01,1.045665024351387362e-02
3.239999999999999858e+01,2.102867504168638019e-02
3.243999999999999773e+01,2.701353125682315337e-02
3.247999999999999687e+01,3.552860429533092473e-02
3.252000000000000313e+01,2.585439214788910409e-02
3.256000000000000227e+01,2.582778164965618406e-02
3.260000000000000142e+01,9.984346799994313695e-03
3.264000000000000057e+01,2.719680412890156107e-02
3.267999999999999972e+01,2.954142074350536024e-02
3.271999999999999886e+01,3.742136922590068998e-02
3.275999999999999801e+01,7.740822334689485829e-02
3.279999999999999716e+01,5.207287657087253385e-02
3.284000000000000341e+01,5.916076253839892829e-02
3.288000000000000256e+01,9.266164361323663001e-02
3.292000000000000171e+01,1.464071180261042882e-01
3.296000000000000085e+01,1.844939269954662953e-01
3.300000000000000000e+01,2.273252431034175347e-01
3.303999999999999915e+01,2.179619778735827906e-01
3.307999999999999829e+01,1.556133100601736208e-01
3.311999999999999744e+01,1.239480654628473816e-01
3.315999999999999659e+01,7.788946558352194405e-02
3.320000000000000284e+01,6.188163122696595936e-02
3.324000000000000199e+01,4.824583852992687938e-02
3.328000000000000114e+01,4.963521755534822805e-02
3.332000000000000028e+01,3.536592591214324927e-02
3.335999999999999943e+01,2.568297204936293224e-02
3.339999999999999858e+01,4.209667748040968327e-02
3.343999999999999773e+01,2.687713306368856581e-02
3.347999999999999687e+01,2.177966934222208897e-02
3.352000000000000313e+01,2.854409119892412430e-02
3.356000000000000227e+01,1.300694531574198703e-02
3.360000000000000142e+01,0.000000000000000000e+00
3.364000000000000057e+01,1.720197795381276859e-02
3.367999999999999972e+01,2.538817360172270637e-02
3.371999999999999886e+01,2.107897543619471903e-02
3.375999999999999801e+01,1.819282658452375454e-02
3.379999999999999716e+01,8.030699148725931394e-03
3.384000000000000341e+01,2.712850728137468706e-02
3.388000000000000256e+01,1.253692545042632556e-02
3.392000000000000171e+01,1.724093764502051748e-02
3.396000000000000085e+01,2.352616038367073489e-02
3.400000000000000000e+01,2.111192443795418400e-02
3.403999999999999915e+01,3.388101331693171153e-02
3.407999999999999829e+01,9.955590801633138615e-03
3.411999999999999744e+01,2.224932164473021265e-02
3.415999999999999659e+01,7.971044447223267146e-03
3.420000000000000284e+01,1.393734200953956545e-02
3.424000000000000199e+01,1.958687645540233696e-02
3.428000000000000114e+01,9.735890432027631200e-03
3.432000000000000028e+01,2.613971448243770923e-02
3.435999999999999943e+01,2.482871903985771692e-02
3.439999999999999858e+01,2.367545055768005904e-02
3.443999999999999773e+01,3.700212490067031259e-03
3.447999999999999687e+01,1.377572136701669947e-02
3.452000000000000313e+01,8.983362823490739085e-03
3.456000000000000227e+01,3.439991419643346343e-02
3.460000000000000142e+01,2.407093142596703622e-02
3.464000000000000057e+01,2.433850491338699490e-02
3.467999999999999972e+01,9.105552125879859751e-03
3.471999999999999886e+01,1.380083828471166500e-02
3.475999999999999801e+01,1.786302551360564178e-02
3.479999999999999716e+01,1.907781536937813022e-02
3.484000000000000341e+01,2.535341392365552185e-02
3.488000000000000256e+01,1.296520063928284158e-02
3.492000000000000171e+01,3.489815950539983808e-02
3.496000000000000085e+01,2.472335406299679128e-02
3.500000000000000000e+01,3.384412697077438664e-02
3.503999999999999915e+01,1.923983346022107091e-02
3.507999999999999829e+01,2.915053352915935106e-02
3.511999999999999744e+01,2.071374654212166863e-02
3.515999999999999659e+01,2.034288213687134028e-02
3.520000000000000284e+01,2.012973308064421388e-02
3.524000000000000199e+01,3.098762397290078310e-02
3.528000000000000114e+01,1.748778843123703283e-02
3.532000000000000028e+01,2.787028645347551167e-02
3.535999999999999943e+01,2.180326353285112415e-02
3.539999999999999858e+01,1.035820840186835699e-02
3.543999999999999773e+01,2.137200789568573581e-02
3.547999999999999687e+01,6.288272589255067616e-03
3.552000000000000313e+01,2.046444846737463866e-02
3.556000000000000227e+01,2.562481475285012175e-02
3.560000000000000142e+01,1.575913380944410358e-02
3.564000000000000057e+01,2.076042620188594742e-02
3.567999999999999972e+01,1.026117780517665085e-02
3.571999999999999886e+01,1.589421464752856575e-02
3.575999999999999801e+01,1.709819885266488856e-02
3.579999999999999716e+01,9.760862380875083566e-03
3.584000000000000341e+01,1.207107995163940288e-02
3.588000000000000256e+01,3.067174457223294584e-02
3.592000000000000171e+01,3.139940292460306065e-02
3.596000000000000085e+01,3.797867438476664609e-02
3.600000000000000000e+01,1.434813603814415715e-02
3.603999999999999915e+01,3.785004836263679284e-02
3.607999999999999829e+01,1.738187014438558400e-02
3.611999999999999744e+01,5.770421239486235067e-03
3.615999999999999659e+01,1.250554905000420339e-02
3.620000000000000284e+01,1.591876676835535243e-02
3.624000000000000199e+01,1.585190968092679495e-02
3.628000000000000114e+01,2.005501972630102311e-02
3.632000000000000028e+01,1.634945807952825972e-02
3.635999999999999943e+01,1.849550373485933999e-02
3.639999999999999858e+01,1.178389173864215905e-02
3.643999999999999773e+01,2.721479158691326311e-02
3.647999999999999687e+01,4.960444592688870863e-02
3.652000000000000313e+01,1.853415535522736496e-02
3.656000000000000227e+01,7.392077023732819031e-03
3.660000000000000142e+01,3.673954764754387009e-02
3.664000000000000057e+01,3.413739371198246109e-02
3.667999999999999972e+01,2.995312818090967513e-02
3.671999999999999886e+01,2.434491460680045932e-02
3.675999999999999801e+01,2.648627212563245056e-02
3.679999999999999716e+01,3.558637949161706782e-02
3.684000000000000341e+01,2.317569217628227818e-02
3.688000000000000256e+01,2.531563193306975157e-02
3.692000000000000171e+01,2.176118915179053176e-02
3.696000000000000085e+01,1.599197417884158992e-02
3.700000000000000000e+01,1.702334201715657164e-02
3.703999999999999915e+01,3.719209446359127841e-02
3.707999999999999829e+01,2.367141050091199281e-02
3.711999999999999744e+01,3.181873611391700107e-02
3.715999999999999659e+01,1.782260586887529988e-02
3.720000000000000284e+01,3.972925601233150139e-02
3.724000000000000199e+01,4.819147645401788971e-02
3.728000000000000114e+01,5.348993526121943731e-02
3.732000000000000028e+01,3.158368363069339463e-02
3.735999999999999943e+01,4.510571766725774562e-02
3.739999999999999858e+01,5.230070566675222576e-02
3.743999999999999773e+01,6.155134609993490741e-02
3.747999999999999687e+01,9.073018542019825605e-02
3.752000000000000313e+01,1.278167489356363817e-01
3.756000000000000227e+01,1.541476683664994574e-01
3.760000000000000142e+01,2.201773015732246264e-01
3.764000000000000057e+01,2.990177453577788080e-01
3.767999999999999972e+01,3.944649383326468417e-01
3.771999999999999886e+01,5.455854207791046573e-01
3.775999999999999801e+01,6.473582077754291841e-01
3.779999999999999716e+01,7.442274201263897604e-01
3.784000000000000341e+01,8.221164494105092091e-01
3.788000000000000256e+01,8.174433135635684744e-01
3.792000000000000171e+01,7.599428690172529421e-01
3.796000000000000085e+01,7.312278078416490912e-01
3.800000000000000000e+01,7.700483420519456113e-01
3.803999999999999915e+01,9.039250302172122664e-01
3.807999999999999829e+01,1.000000000000000000e+00
3.811999999999999744e+01,8.012565346233909702e-01
3.815999999999999659e+01,6.134259026806879733e-01
3.820000000000000284e+01,4.803195684444835911e-01
3.824000000000000199e+01,3.160544070913678394e-01
3.828000000000000114e+01,2.326106242358574883e-01
3.832000000000000028e+01,1.822226511181239406e-01
3.835999999999999943e+01,1.587220859688856511e-01
3.839999999999999858e+01,1.500884540962370006e-01
3.843999999999999773e+01,1.164643933925445934e-01
3.847999999999999687e+01,8.062553843556191646e-02
3.852000000000000313e+01,6.155158460998881587e-02
3.856000000000000227e+01,6.699257385440769708e-02
3.860000000000000142e+01,5.566766686379009260e-02
3.864000000000000057e+01,3.659221864106967925e-02
3.867999999999999972e+01,4.266436827881003174e-02
3.871999999999999886e+01,3.450124606850946130e-02
3.875999999999999801e+01,4.579181176795112107e-02
3.879999999999999716e+01,3.762768806776509850e-02
3.884000000000000341e+01,2.424364636133392523e-02
3.888000000000000256e+01,2.145609937247931406e-02
3.892000000000000171e+01,2.847422585541282275e-02
3.896000000000000085e+01,3.612450551301886470e-02
3.900000000000000000e+01,2.874868859338175833e-02
3.903999999999999915e+01,4.098471965254806004e-02
3.907999999999999829e+01,3.250074418375264312e-02
3.911999999999999744e+01,2.765403809518816175e-02
3.915999999999999659e+01,2.929155520107596528e-02
3.920000000000000284e+01,3.867860798519830168e-02
3.924000000000000199e+01,2.339154859298550604e-02
3.928000000000000114e+01,2.486937930137195218e-02
3.932000000000000028e+01,2.397423943147611661e-02
3.935999999999999943e+01,3.588988517494404867e-02
3.939999999999999858e+01,1.838649242848371460e-02
3.943999999999999773e+01,2.255107558470796636e-02
3.947999999999999687e+01,1.580182265600304364e-02
3.952000000000000313e+01,2.929706727144967132e-02
3.956000000000000227e+01,3.219480290691707075e-02
3.960000000000000142e+01,2.750014750967050975e-02
3.964000000000000057e+01,2.723357461047791125e-02
3.967999999999999972e+01,2.838996510093613757e-02
3.971999999999999886e+01,1.515290509608550884e-02
3.975999999999999801e+01,2.437463701458733589e-02
3.979999999999999716e+01,2.220803580447664599e-02
3.984000000000000341e+01,3.142873604350695377e-02
3.988000000000000256e+01,2.340902907016235296e-02
3.992000000000000171e+01,2.630212998568915231e-02
3.996000000000000085e+01,3.473045768602552041e-02
4.000000000000000000e+01,2.765818189576306832e-02
4.003999999999999915e+01,3.513648731267493552e-02
4.007999999999999829e+01,2.632336741263048563e-02
4.011999999999999744e+01,2.383629264033939113e-02
4.015999999999999659e+01,1.755275790042259976e-02
4.020000000000000284e+01,2.929941297237029924e-02
4.024000000000000199e+01,2.127502947811990563e-02
4.028000000000000114e+01,9.612348407580866352e-03
4.032000000000000028e+01,1.724516847155063010e-02
4.035999999999999943e+01,1.870906366939138060e-02
4.039999999999999858e+01,2.017243460924644446e-02
4.043999999999999773e+01,2.005363938010782526e-02
4.047999999999999687e+01,2.547006338838236211e-02
4.052000000000000313e+01,3.404924405784247321e-02
4.056000000000000227e+01,1.969409885567467364e-02
4.060000000000000142e+01,1.688440820488157010e-02
4.064000000000000057e+01,3.384470644317728871e-02
4.067999999999999972e+01,2.755434880205041848e-02
4.071999999999999886e+01,2.411041665317653626e-02
4.075999999999999801e+01,2.272208875076711654e-02
4.079999999999999716e+01,2.544549824382396491e-02
4.084000000000000341e+01,2.437243789958285639e-02
4.088000000000000256e+01,3.737545417143622872e-02
4.092000000000000171e+01,3.108191440655084722e-02
4.096000000000000085e+01,2.194088786092403612e-02
4.100000000000000000e+01,2.956472645143127034e-02
4.103999999999999915e+01,2.137161819045881039e-02
4.107999999999999829e+01,2.567294231229692858e-02
4.111999999999999744e+01,2.522880773459093909e-02
4.115999999999999659e+01,2.051370627590354268e-02
4.120000000000000284e+01,1.611439721393910854e-02
4.124000000000000199e+01,2.436768234555333409e-02
4.128000000000000114e+01,2.961531191883052735e-02
4.132000000000000028e+01,1.287758938793298960e-02
4.135999999999999943e+01,3.678751085767865969e-02
4.139999999999999858e+01,3.096203654296026189e-02
4.143999999999999773e+01,3.557485565636105823e-02
4.147999999999999687e+01,3.401873364770188757e-02
4.152000000000000313e+01,3.182941459295052927e-02
4.156000000000000227e+01,2.442013805326470263e-02
4.160000000000000142e+01,2.349504929332465672e-02
4.164000000000000057e+01,2.873781946647343752e-02
4.167999999999999972e+01,1.847996176512701691e-02
4.171999999999999886e+01,2.372164568532201395e-02
4.175999999999999801e+01,2.121274308903530609e-02
4.179999999999999716e+01,3.594318641663510339e-02
4.184000000000000341e+01,1.492799051784379598e-02
4.188000000000000256e+01,2.412159829140142139e-02
4.192000000000000171e+01,3.932489680102130292e-02
4.196000000000000085e+01,1.293048141991869765e-02
4.200000000000000000e+01,2.307143329121437089e-02
4.203999999999999915e+01,1.897706512724540995e-02
4.207999999999999829e+01,1.725461031705303669e-02
4.211999999999999744e+01,2.834290106096610737e-02
4.215999999999999659e+01,1.760399164180016449e-02
4.220000000000000284e+01,2.236461687734815629e-02
4.224000000000000199e+01,2.981348141048467335e-02
4.228000000000000114e+01,3.220054214148942301e-02
4.232000000000000028e+01,2.588802342978352780e-02
4.235999999999999943e+01,1.672799761742258320e-02
4.239999999999999858e+01,2.433281662128201558e-02
4.243999999999999773e+01,2.608500883551425134e-02
4.247999999999999687e+01,2.752031833608703168e-02
4.252000000000000313e+01,3.275101200157302939e-02
4.256000000000000227e+01,3.007294340615415326e-02
4.260000000000000142e+01,1.395036731272473497e-02
4.264000000000000057e+01,1.886306414428740724e-02
4.267999999999999972e+01,2.757114281848738191e-02
4.271999999999999886e+01,3.295721676777995518e-02
4.275999999999999801e+01,3.581210607681570290e-02
4.279999999999999716e+01,3.091639377457676419e-02
4.284000000000000341e+01,3.788243177793843008e-02
4.288000000000000256e+01,1.495488838274063557e-02
4.292000000000000171e+01,3.789438273644551991e-02
4.296000000000000085e+01,3.789951638438481679e-02
4.300000000000000000e+01,2.952138898602896244e-02
4.303999999999999915e+01,3.268868072434123057e-02
4.307999999999999829e+01,2.367677106216664606e-02
4.311999999999999744e+01,3.158785989901510133e-02
4.315999999999999659e+01,3.269732669773158656e-02
4.320000000000000284e+01,4.092361458561093873e-02
4.324000000000000199e+01,2.874616383244453857e-02
4.328000000000000114e+01,2.510901020469820735e-02
4.332000000000000028e+01,2.558355739657370079e-02
4.335999999999999943e+01,3.570554948403868722e-02
4.339999999999999858e+01,4.139837804561657258e-02
4.343999999999999773e+01,4.282020663378235947e-02
4.347999999999999687e+01,5.309865771061120926e-02
4.352000000000000313e+01,5.088157273460692381e-02
4.356000000000000227e+01,5.024555896610811284e-02
4.360000000000000142e+01,5.340491368716052123e-02
4.364000000000000057e+01,8.851285199901054446e-02
4.367999999999999972e+01,1.000537626226780941e-01
4.371999999999999886e+01,1.134920703976631251e-01
4.375999999999999801e+01,1.443278597816994302e-01
4.379999999999999716e+01,1.756375679585202298e-01
4.384000000000000341e+01,2.165947140641029944e-01
4.388000000000000256e+01,2.317705317160437539e-01
4.392000000000000171e+01,2.482110870842815509e-01
4.396000000000000085e+01,2.518397717473397912e-01
4.400000000000000000e+01,2.640087430855768691e-01
4.403999999999999915e+01,2.780751069305797962e-01
4.407999999999999829e+01,2.507018902477490818e-01
4.411999999999999744e+01,2.491088490001762135e-01
4.415999999999999659e+01,2.763011011351262924e-01
4.420000000000000284e+01,3.126662935745860294e-01
4.424000000000000199e+01,3.657963041240939184e-01
4.428000000000000114e+01,3.653080929985426106e-01
4.432000000000000028e+01,2.950689180468849537e-01
4.435999999999999943e+01,2.189770884382900018e-01
4.439999999999999858e+01,1.719868769948920406e-01
4.443999999999999773e+01,1.242052619908238231e-01
4.447999999999999687e+01,8.148431576814099686e-02
4.452000000000000313e+01,5.790064558718220622e-02
4.456000000000000227e+01,6.500023257958369161e-02
4.460000000000000142e+01,4.410418280548715486e-02
4.464000000000000057e+01,3.079942561920266664e-02
4.467999999999999972e+01,3.963706068020064061e-02
4.471999999999999886e+01,2.601480188953045683e-02
4.475999999999999801e+01,3.785638097892683740e-02
4.479999999999999716e+01,3.530443584075638325e-02
4.484000000000000341e+01,3.591518466232376805e-02
4.488000000000000256e+01,4.063761166132347225e-02
4.492000000000000171e+01,3.017569202582990467e-02
4.496000000000000085e+01,2.951935819621138990e-02
4.500000000000000000e+01,2.427567348490341712e-02
4.503999999999999915e+01,3.453148220791318890e-02
4.507999999999999829e+01,3.276622463503200966e-02
4.511999999999999744e+01,3.084221016398390469e-02
4.515999999999999659e+01,3.081557194377066572e-02
4.520000000000000284e+01,2.256380487901338272e-02
4.524000000000000199e+01,2.743906635007041864e-02
4.528000000000000114e+01,2.345654128326981475e-02
4.532000000000000028e+01,2.137139014502828852e-02
4.535999999999999943e+01,2.403056674956713379e-02
4.539999999999999858e+01,1.941359640498056469e-02
4.543999999999999773e+01,2.681650276205612554e-02
4.547999999999999687e+01,2.994837953670259276e-02
4.552000000000000313e+01,2.311531735877032923e-02
4.556000000000000227e+01,2.830213014079332665e-02
4.560000000000000142e+01,2.494748000649486472e-02
4.564000000000000057e+01,2.190855782576464975e-02
4.567999999999999972e+01,3.342013499198539378e-02
4.571999999999999886e+01,2.516059405406040339e-02
4.575999999999999801e+01,2.227803158540180711e-02
4.579999999999999716e+01,2.398162634022116269e-02
4.584000000000000341e+01,2.679176681098352497e-02
4.588000000000000256e+01,1.536653151186106493e-02
4.592000000000000171e+01,4.063477070242262068e-02
4.596000000000000085e+01,2.952465433581451942e-02
4.600000000000000000e+01,1.778127589939067915e-02
4.603999999999999915e+01,2.074655571784093586e-02
4.607999999999999829e+01,1.691017111662518682e-02
4.611999999999999744e+01,1.497114883258927887e-02
4.615999999999999659e+01,2.157238187300828183e-02
4.620000000000000284e+01,2.659136514250327876e-02
4.624000000000000199e+01,1.547699782046588028e-02
4.628000000000000114e+01,3.219890831253313657e-02
4.632000000000000028e+01,3.152215398757886311e-02
4.635999999999999943e+01,1.645185279286829130e-02
4.639999999999999858e+01,1.703918942617468901e-02
4.643999999999999773e+01,1.920755546602140318e-02
4.647999999999999687e+01,2.959984391968360079e-02
4.652000000000000313e+01,2.037916679086474933e-02
4.656000000000000227e+01,2.254569357560150256e-02
4.660000000000000142e+01,2.914020183939311504e-02
4.664000000000000057e+01,1.722889171030411726e-02
4.667999999999999972e+01,1.717927615219564177e-02
4.671999999999999886e+01,3.753221776886962041e-02
4.675999999999999801e+01,3.400175872746331179e-02
4.679999999999999716e+01,2.699107161007171032e-02
4.684000000000000341e+01,4.133192472401911455e-02
4.688000000000000256e+01,2.957507757556472258e-02
4.692000000000000171e+01,2.667480298684279938e-02
4.696000000000000085e+01,2.266675999551829440e-02
4.700000000000000000e+01,2.846427320105185052e-02
4.703999999999999915e+01,1.717943940541035233e-02
4.707999999999999829e+01,3.341454354640647356e-02
4.711999999999999744e+01,2.703155486855293721e-02
4.715999999999999659e+01,2.460204714265702697e-02
4.720000000000000284e+01,2.786582525163276702e-02
4.724000000000000199e+01,3.286878528881356093e-02
4.728000000000000114e+01,2.885576562664474501e-02
4.732000000000000028e+01,2.547477780023573932e-02
4.735999999999999943e+01,3.253199747773970196e-02
4.739999999999999858e+01,3.041507158114331588e-02
4.743999999999999773e+01,2.497607245250216962e-02
4.747999999999999687e+01,2.538851922779381334e-02
4.752000000000000313e+01,2.200439921077108896e-02
4.756000000000000227e+01,3.775751111223137751e-02
4.760000000000000142e+01,1.681591538710682995e-02
4.764000000000000057e+01,1.295541668975662072e-02
4.767999999999999972e+01,1.842597192046035309e-02
4.771999999999999886e+01,2.674285104384892947e-02
4.775999999999999801e+01,2.177331190887495799e-02
4.779999999999999716e+01,2.376236296458949723e-02
4.784000000000000341e+01,1.436296419733042694e-02
4.788000000000000256e+01,3.627943094838346344e-02
4.792000000000000171e+01,2.229200609351949733e-02
4.796000000000000085e+01,2.775813561753677147e-02
4.800000000000000000e+01,2.578991632240229190e-02
4.803999999999999915e+01,3.220376093193768469e-02
4.807999999999999829e+01,2.833630116639302213e-02
4.811999999999999744e+01,9.758940719970037384e-03
4.815999999999999659e+01,2.724236571919360847e-02
4.820000000000000284e+01,3.871491619381577792e-02
4.824000000000000199e+01,3.500307184672098865e-02
4.828000000000000114e+01,1.215272877124260083e-02
4.832000000000000028e+01,1.381718710692983118e-02
4.835999999999999943e+01,2.259839163838398349e-02
4.839999999999999858e+01,2.552688287543579404e-02
4.843999999999999773e+01,1.311281225488197984e-02
4.847999999999999687e+01,3.549420937107176932e-02
4.852000000000000313e+01,2.529315296673221788e-02
4.856000000000000227e+01,2.537212251619292216e-02
4.860000000000000142e+01,2.798107491973351665e-02
4.864000000000000057e+01,1.619644736108711777e-02
4.867999999999999972e+01,2.797763119022217415e-02
4.871999999999999886e+01,2.599789042820792317e-02
4.875999999999999801e+01,1.974707247710976582e-02
4.879999999999999716e+01,3.421510977729591563e-02
4.884000000000000341e+01,1.625885304544490498e-02
4.888000000000000256e+01,3.167458104725277834e-02
4.892000000000000171e+01,3.032426302723231423e-02
4.896000000000000085e+01,2.992228130573204581e-02
4.900000000000000000e+01,2.461656237955848342e-02
4.903999999999999915e+01,3.908071042299200715e-02
4.907999999999999829e+01,2.950326000230162407e-02
4.911999999999999744e+01,4.048649605529999751e-02
4.915999999999999659e+01,2.315770089085109409e-02
4.920000000000000284e+01,2.939470956678719854e-02
4.924000000000000199e+01,2.582488943027516637e-02
4.928000000000000114e+01,2.984629453557566606e-02
4.932000000000000028e+01,1.947410980901682215e-02
4.935999999999999943e+01,3.646366579362089744e-02
4.939999999999999858e+01,3.368205026173485411e-02
4.943999999999999773e+01,3.675185218590260039e-02
4.947999999999999687e+01,2.653521088724246010e-02
4.952000000000000313e+01,3.007819253569349316e-02
4.956000000000000227e+01,3.694196376978887975e-02
4.960000000000000142e+01,1.581002566626621419e-02
4.964000000000000057e+01,3.516744725256801263e-02
4.967999999999999972e+01,3.870779658449460814e-02
4.971999999999999886e+01,2.500759588408194012e-02
4.975999999999999801e+01,2.554150704649837261e-02
4.979999999999999716e+01,3.129417390767227219e-02
4.984000000000000341e+01,2.771449564699530674e-02
4.988000000000000256e+01,3.741994270917713833e-02
4.992000000000000171e+01,2.703788244138456004e-02
4.996000000000000085e+01,2.472152994486396041e-02
5.000000000000000000e+01,2.999639223991461268e-02
5.003999999999999915e+01,3.447976969464053992e-02
5.007999999999999829e+01,3.057978334236528470e-02
5.011999999999999744e+01,2.778628058515428267e-02
5.015999999999999659e+01,2.641558910852634043e-02
5.020000000000000284e+01,2.188094847363925358e-02
5.024000000000000199e+01,2.715181700952438645e-02
5.028000000000000114e+01,3.163119722167101466e-02
5.032000000000000028e+01,3.009967213906128078e-02
5.035999999999999943e+01,2.730216517244344124e-02
5.039999999999999858e+01,2.798359973256568656e-02
5.043999999999999773e+01,2.407760445361986981e-02
5.047999999999999687e+01,3.408938232117406097e-02
5.052000000000000313e+01,3.413614866502945322e-02
5.056000000000000227e+01,2.769751383158296221e-02
5.060000000000000142e+01,2.679395135160256639e-02
5.064000000000000057e+01,2.747135731842165196e-02
5.067999999999999972e+01,2.988789528451513827e-02
5.071999999999999886e+01,2.249758295710890463e-02
5.075999999999999801e+01,2.522910051916621085e-02
5.079999999999999716e+01,2.289869061790305443e-02
5.084000000000000341e+01,2.721049851799959424e-02
5.088000000000000256e+01,3.547573337714039765e-02
5.092000000000000171e+01,2.808204211731215108e-02
5.096000000000000085e+01,3.571326596846375462e-02
5.100000000000000000e+01,1.566508842817147806e-02
5.103999999999999915e+01,3.183581866560454554e-02
5.107999999999999829e+01,1.985265395132414235e-02
5.111999999999999744e+01,2.922096734750393929e-02
5.115999999999999659e+01,3.226203499089140558e-02
5.120000000000000284e+01,2.344011164438084341e-02
5.124000000000000199e+01,2.062774376136470092e-02
5.128000000000000114e+01,2.081981223343985776e-02
5.132000000000000028e+01,1.041420103826133127e-02
5.135999999999999943e+01,3.464585164581739790e-02
5.139999999999999858e+01,2.091742640838607087e-02
5.143999999999999773e+01,2.632617677424861982e-02
5.147999999999999687e+01,3.046892900017216313e-02
5.152000000000000313e+01,2.480481932121673602e-02
5.156000000000000227e+01,2.420127566294065849e-02
5.160000000000000142e+01,3.482669863348727274e-02
5.164000000000000057e+01,3.833404821919445676e-02
5.167999999999999972e+01,2.918757918295658213e-02
5.171999999999999886e+01,2.747413584078077856e-02
5.175999999999999801e+01,2.164773589989290800e-02
5.179999999999999716e+01,2.594315075367556109e-02
5.184000000000000341e+01,1.932455012672030376e-02
5.188000000000000256e+01,2.187877833503417899e-02
5.192000000000000171e+01,1.272816923625265384e-02
5.196000000000000085e+01,2.382187712467580959e-02
5.200000000000000000e+01,1.988929975094368141e-02
5.203999999999999915e+01,2.971630874847811313e-02
5.207999999999999829e+01,3.021094011229992146e-02
5.211999999999999744e+01,3.434265217144044646e-02
5.215999999999999659e+01,2.661135930702785216e-02
5.220000000000000284e+01,2.409878730723509846e-02
5.224000000000000199e+01,3.234068024803000291e-02
5.228000000000000114e+01,2.476546319746725233e-02
5.232000000000000028e+01,2.794470992635419981e-02
5.235999999999999943e+01,2.827630441234588871e-02
5.239999999999999858e+01,2.860720046966376551e-02
5.243999999999999773e+01,2.182001153076297550e-02
5.247999999999999687e+01,1.218516860726008566e-02
5.252000000000000313e+01,1.646806922124024672e-02
5.256000000000000227e+01,2.233191041470972138e-02
5.260000000000000142e+01,2.107766428968473396e-02
5.264000000000000057e+01,3.105236969868948455e-02
5.267999999999999972e+01,3.596512035763263504e-02
5.271999999999999886e+01,2.980567863027676345e-02
5.275999999999999801e+01,3.028842683697045152e-02
5.279999999999999716e+01,2.966332187799336842e-02
5.284000000000000341e+01,2.619055770929350213e-02
5.288000000000000256e+01,2.651302733814597454e-02
5.292000000000000171e+01,2.620213445875248931e-02
5.296000000000000085e+01,2.003846210009513004e-02
5.300000000000000000e+01,3.332827096862995414e-02
5.303999999999999915e+01,2.542337829150415063e-02
5.307999999999999829e+01,3.159438515693975547e-02
5.311999999999999744e+01,3.222893848692347935e-02
5.315999999999999659e+01,3.001582796263280520e-02
5.320000000000000284e+01,3.096529005916713248e-02
5.324000000000000199e+01,2.732728167680616160e-02
5.328000000000000114e+01,3.444372314023980836e-02
5.332000000000000028e+01,2.811550151318147409e-02
5.335999999999999943e+01,3.143457963947246525e-02
5.339999999999999858e+01,2.573758923936290965e-02
5.343999999999999773e+01,2.778992783493795457e-02
5.347999999999999687e+01,2.604561313342339951e-02
5.352000000000000313e+01,3.489758066124579866e-02
5.356000000000000227e+01,1.733542270556216042e-02
5.360000000000000142e+01,2.808392871899502777e-02
5.364000000000000057e+01,3.313780951653561013e-02
5.367999999999999972e+01,2.601233506281480298e-02
5.371999999999999886e+01,2.821782687123491895e-02
5.375999999999999801e+01,2.377970692379242912e-02
5.379999999999999716e+01,3.325931193562618043e-02
5.384000000000000341e+01,3.356467790175695493e-02
5.388000000000000256e+01,2.200701397986930263e-02
5.392000000000000171e+01,3.259160819383413732e-02
5.396000000000000085e+01,2.846621696385243094e-02
5.400000000000000000e+01,2.797787914244820318e-02
5.403999999999999915e+01,2.764698322208663378e-02
5.407999999999999829e+01,2.494290249349625024e-02
5.411999999999999744e+01,3.441673661614749052e-02
5.415999999999999659e+01,1.352233322066056023e-02
5.420000000000000284e+01,3.928562451884892032e-02
5.424000000000000199e+01,1.775711490206324794e-02
5.428000000000000114e+01,2.659539311429254954e-02
5.432000000000000028e+01,3.100434930530847344e-02
5.435999999999999943e+01,2.560640237104928885e-02
5.439999999999999858e+01,2.685062156751223672e-02
5.443999999999999773e+01,2.066039847322070216e-02
5.447999999999999687e+01,3.613793298768452900e-02
5.452000000000000313e+01,2.140538889193350364e-02
5.456000000000000227e+01,3.134571977163407713e-02
5.460000000000000142e+01,4.017817136006059803e-02
5.464000000000000057e+01,3.588226896530725962e-02
5.467999999999999972e+01,2.952950131987849489e-02
5.471999999999999886e+01,2.997705929366412461e-02
5.475999999999999801e+01,3.153103351651455333e-02
5.479999999999999716e+01,3.862001913309016932e-02
5.484000000000000341e+01,2.973369346885076925e-02
5.488000000000000256e+01,3.571406188678916821e-02
5.492000000000000171e+01,4.153553116716522664e-02
5.496000000000000085e+01,4.245317673809284598e-02
5.500000000000000000e+01,3.783434148682740528e-02
5.503999999999999915e+01,3.384742602151238899e-02
5.507999999999999829e+01,3.697715921637886871e-02
5.511999999999999744e+01,4.010615450388216319e-02
5.515999999999999659e+01,5.082628968956083571e-02
5.520000000000000284e+01,7.483147298242646961e-02
5.524000000000000199e+01,7.432047600441658852e-02
5.528000000000000114e+01,6.906381480545048523e-02
5.532000000000000028e+01,7.203094771455947898e-02
5.535999999999999943e+01,6.455850645199368021e-02
5.539999999999999858e+01,6.483536573723340524e-02
5.543999999999999773e+01,5.657061928618729169e-02
5.547999999999999687e+01,5.020309929918422703e-02
5.552000000000000313e+01,4.826343132435770983e-02
5.556000000000000227e+01,3.525152974283604634e-02
5.560000000000000142e+01,3.852978899064592871e-02
5.564000000000000057e+01,4.323077998109132319e-02
5.567999999999999972e+01,2.325742018135873793e-02
5.571999999999999886e+01,2.115586079968987884e-02
5.575999999999999801e+01,2.458929887809118905e-02
5.579999999999999716e+01,2.833831744554480420e-02
5.584000000000000341e+01,2.338756033797910125e-02
5.588000000000000256e+01,2.602793267834742699e-02
5.592000000000000171e+01,3.372880775737832626e-02
5.596000000000000085e+01,2.339822157009259149e-02
5.600000000000000000e+01,2.034243482294614824e-02
5.603999999999999915e+01,3.215332532147765349e-02
5.607999999999999829e+01,3.399912359722481736e-02
5.611999999999999744e+01,3.442069225398956128e-02
5.615999999999999659e+01,3.057107631641269377e-02
5.620000000000000284e+01,3.447074931526215164e-02
5.624000000000000199e+01,3.821150401777351213e-02
5.628000000000000114e+01,2.676774720420686121e-02
5.632000000000000028e+01,3.240496143495005116e-02
5.635999999999999943e+01,2.744442284675058241e-02
5.639999999999999858e+01,2.374844083733239006e-02
5.643999999999999773e+01,2.432213335396076620e-02
5.647999999999999687e+01,3.185429007781320071e-02
5.652000000000000313e+01,1.945700781085658512e-02
5.656000000000000227e+01,2.540600616914731949e-02
5.660000000000000142e+01,3.056342447380382826e-02
5.664000000000000057e+01,2.891902508858861312e-02
5.667999999999999972e+01,2.616671622251341700e-02
5.671999999999999886e+01,2.926571914894111198e-02
5.675999999999999801e+01,2.445575371248293051e-02
5.679999999999999716e+01,3.577776755524365165e-02
5.684000000000000341e+01,2.384889096872160053e-02
5.688000000000000256e+01,2.979179796376353953e-02
5.692000000000000171e+01,2.402979508058995795e-02
5.696000000000000085e+01,1.889968411605660523e-02
5.700000000000000000e+01,3.132502672529254018e-02
5.703999999999999915e+01,2.856584678764012217e-02
5.707999999999999829e+01,3.055082448606264919e-02
5.711999999999999744e+01,2.383600793125906919e-02
5.715999999999999659e+01,2.028370652095352195e-02
5.720000000000000284e+01,2.416435126676229339e-02
5.724000000000000199e+01,2.614625773852611787e-02
5.728000000000000114e+01,2.891821561742245403e-02
5.732000000000000028e+01,2.125057087676488279e-02
5.735999999999999943e+01,2.591895809430699860e-02
5.739999999999999858e+01,2.900493298161616051e-02
5.743999999999999773e+01,2.766154056333296890e-02
5.747999999999999687e+01,3.296026957196199897e-02
5.752000000000000313e+01,2.876837785645581028e-02
5.756000000000000227e+01,2.236141495626512224e-02
5.760000000000000142e+01,2.069860214475287286e-02
5.764000000000000057e+01,1.666255285437431843e-02
5.767999999999999972e+01,2.243190474894128997e-02
5.771999999999999886e+01,2.155758741131852396e-02
5.775999999999999801e+01,2.495292544096660431e-02
5.779999999999999716e+01,2.028111587989197412e-02
5.784000000000000341e+01,2.509837691539911278e-02
5.788000000000000256e+01,2.137399679991388787e-02
5.792000000000000171e+01,2.539888065638963924e-02
5.796000000000000085e+01,3.211177564685234465e-02
5.800000000000000000e+01,2.664525268460589402e-02
5.803999999999999915e+01,2.086162116737434388e-02
5.807999999999999829e+01,3.026096555289151460e-02
5.811999999999999744e+01,3.364929143270499468e-02
5.815999999999999659e+01,2.406737637231391724e-02
5.820000000000000284e+01,2.017858749033037483e-02
5.824000000000000199e+01,2.055944700879010212e-02
5.828000000000000114e+01,2.900589354017795232e-02
5.832000000000000028e+01,1.942084455168050297e-02
5.835999999999999943e+01,2.628408046630021158e-02
5.839999999999999858e+01,3.045774060515558587e-02
5.843999999999999773e+01,3.146733198854587132e-02
5.847999999999999687e+01,2.029749845239955594e-02
5.852000000000000313e+01,2.478512683187502827e-02
5.856000000000000227e+01,2.848114670983716706e-02
5.860000000000000142e+01,2.031406819264364519e-02
5.864000000000000057e+01,2.875343464762845566e-02
5.867999999999999972e+01,3.450322126286617386e-02
5.871999999999999886e+01,3.076236973689988261e-02
5.875999999999999801e+01,2.037783388395088269e-02
5.879999999999999716e+01,2.074766775827994320e-02
5.884000000000000341e+01,3.234636317844977876e-02
5.888000000000000256e+01,3.397992573600808891e-02
5.892000000000000171e+01,2.359222112081498998e-02
5.896000000000000085e+01,2.506603284193145709e-02
5.900000000000000000e+01,2.385026007874916504e-02
5.903999999999999915e+01,1.867958918634786067e-02
5.907999999999999829e+01,1.635507730504654963e-02
5.911999999999999744e+01,2.146348371254963583e-02
5.915999999999999659e+01,2.530578051087315969e-02
5.920000000000000284e+01,2.266255072899937828e-02
5.924000000000000199e+01,2.887571469161821086e-02
5.928000000000000114e+01,2.116963665983816537e-02
5.932000000000000028e+01,1.567705762356872562e-02
5.935999999999999943e+01,2.789806204054377445e-02
5.939999999999999858e+01,1.860794433530559358e-02
5.943999999999999773e+01,2.829672198652518483e-02
5.947999999999999687e+01,2.770402980051098196e-02
5.952000000000000313e+01,1.920232919235262056e-02
5.956000000000000227e+01,2.920502979981339994e-02
5.960000000000000142e+01,2.259969350657727721e-02
5.964000000000000057e+01,2.105480595909043490e-02
5.967999999999999972e+01,1.587133925936895854e-02
5.971999999999999886e+01,2.523816812689315750e-02
5.975999999999999801e+01,2.052758390014713594e-02
5.979999999999999716e+01,1.186209051337186633e-02
5.984000000000000341e+01,2.866021613216489239e-02
5.988000000000000256e+01,2.268189959756593613e-02
5.992000000000000171e+01,3.062121919519222163e-02
5.996000000000000085e+01,1.704940854263982050e-02
