2.003999999999999915e+01,6.210528283158702964e-03
2.007999999999999829e+01,8.433886111799307472e-03
2.012000000000000099e+01,9.419272339204674133e-03
2.016000000000000014e+01,8.283185496146514698e-03
2.019999999999999929e+01,1.014994463441610921e-02
2.023999999999999844e+01,0.000000000000000000e+00
2.028000000000000114e+01,7.519054539492140907e-03
2.032000000000000028e+01,7.615624095975191861e-03
2.035999999999999943e+01,5.590728324802678346e-03
2.039999999999999858e+01,1.010269834896251710e-02
2.044000000000000128e+01,7.898990450038273839e-03
2.048000000000000043e+01,1.011174420085386196e-02
2.051999999999999957e+01,1.143994304318004043e-02
2.055999999999999872e+01,1.153018731845936208e-02
2.060000000000000142e+01,1.126598159305240709e-02
2.064000000000000057e+01,2.519099651774346204e-03
2.067999999999999972e+01,1.373834021630123553e-02
2.071999999999999886e+01,1.311759619444656001e-02
2.076000000000000156e+01,8.608396294959535025e-03
2.080000000000000071e+01,1.823420362949290663e-02
2.083999999999999986e+01,1.336952196993509631e-02
2.087999999999999901e+01,9.387305374543346292e-03
2.092000000000000171e+01,1.247207651646962089e-02
2.096000000000000085e+01,1.855972306240249656e-02
2.100000000000000000e+01,7.859778962216058124e-03
2.103999999999999915e+01,1.200165380166117596e-02
2.107999999999999829e+01,1.278518696264937561e-02
2.112000000000000099e+01,8.443373958145386493e-03
2.116000000000000014e+01,1.487927065708573651e-02
2.119999999999999929e+01,9.121800145269497173e-03
2.123999999999999844e+01,1.467214424470072998e-02
2.128000000000000114e+01,6.085417591342585225e-03
2.132000000000000028e+01,1.375412554602799438e-02
2.135999999999999943e+01,9.406173087764682986e-03
2.139999999999999858e+01,1.053492151752639244e-02
2.144000000000000128e+01,2.350159411202485185e-02
2.148000000000000043e+01,1.826708981467077206e-02
2.151999999999999957e+01,1.179466811575872499e-02
2.155999999999999872e+01,7.088240824365777890e-03
2.160000000000000142e+01,9.272126992285842362e-03
2.164000000000000057e+01,7.567591350938241389e-03
2.167999999999999972e+01,1.310677347314712776e-02
2.171999999999999886e+01,1.546433929745129332e-02
2.176000000000000156e+01,1.623059580445028807e-02
2.180000000000000071e+01,1.134143066083265206e-02
2.183999999999999986e+01,1.546299551061677824e-02
2.187999999999999901e+01,1.392914180690836209e-02
2.192000000000000171e+01,1.433799705133719134e-02
2.196000000000000085e+01,1.509925736042776537e-02
2.200000000000000000e+01,2.292754721801144174e-02
2.203999999999999915e+01,1.909260419532042910e-02
2.207999999999999829e+01,1.278286122602192466e-02
2.212000000000000099e+01,1.778096693633573339e-02
2.216000000000000014e+01,1.288285044765810454e-02
2.219999999999999929e+01,1.063425616129078620e-02
2.223999999999999844e+01,1.739640735394554910e-02
2.228000000000000114e+01,1.744295185736991979e-02
2.232000000000000028e+01,1.236419665216324966e-02
2.235999999999999943e+01,1.205537708623163375e-02
2.239999999999999858e+01,1.386598565474144069e-02
2.244000000000000128e+01,1.638241907777690520e-02
2.248000000000000043e+01,9.002642690317246010e-03
2.251999999999999957e+01,1.964535340335938837e-02
2.255999999999999872e+01,1.738794714251537185e-02
2.260000000000000142e+01,1.300916227348968522e-02
2.264000000000000057e+01,2.064504862962167342e-02
2.267999999999999972e+01,1.608762507179238924e-02
2.271999999999999886e+01,1.700695350453534926e-02
2.276000000000000156e+01,1.244759805571030165e-02
2.280000000000000071e+01,1.672230916221617222e-02
2.283999999999999986e+01,2.117275879818893147e-02
2.287999999999999901e+01,1.731731954132437190e-02
2.292000000000000171e+01,1.646483156800621420e-02
2.296000000000000085e+01,2.020560185883395199e-02
2.300000000000000000e+01,1.740749393810761894e-02
2.303999999999999915e+01,2.008615039644980060e-02
2.307999999999999829e+01,1.428222510120516313e-02
2.312000000000000099e+01,1.890268418182509957e-02
2.316000000000000014e+01,1.345025917394480214e-02
2.319999999999999929e+01,1.400470655006035188e-02
2.323999999999999844e+01,1.809221940889771743e-02
2.328000000000000114e+01,1.723117032815274854e-02
2.332000000000000028e+01,1.707598017029825568e-02
2.335999999999999943e+01,1.868685410525460985e-02
2.339999999999999858e+01,1.446566772851604760e-02
2.344000000000000128e+01,3.056411191548241701e-02
2.348000000000000043e+01,2.457404336038428519e-02
2.351999999999999957e+01,2.812487164897253117e-02
2.355999999999999872e+01,2.124943012756153049e-02
2.360000000000000142e+01,1.790706802593073840e-02
2.364000000000000057e+01,1.668418206416440869e-02
2.367999999999999972e+01,1.740407318726490751e-02
2.371999999999999886e+01,1.865313811531656846e-02
2.376000000000000156e+01,2.166828262179943190e-02
2.380000000000000071e+01,1.602417264525233045e-02
2.383999999999999986e+01,1.497335500121596552e-02
2.387999999999999901e+01,1.869253184181199692e-02
2.392000000000000171e+01,2.029038117677367178e-02
2.396000000000000085e+01,1.517268886211043527e-02
2.400000000000000000e+01,1.570849869556429496e-02
2.403999999999999915e+01,1.818709955094331698e-02
2.407999999999999829e+01,2.066478633765267414e-02
2.412000000000000099e+01,1.200942257999245560e-02
2.416000000000000014e+01,1.254157923589171129e-02
2.419999999999999929e+01,1.819714397203915993e-02
2.423999999999999844e+01,1.590027367357797761e-02
2.428000000000000114e+01,2.261422783080267035e-02
2.432000000000000028e+01,2.384955850037881811e-02
2.435999999999999943e+01,9.711033431524455917e-03
2.439999999999999858e+01,2.030969118085663300e-02
2.444000000000000128e+01,1.765490353159893805e-02
2.448000000000000043e+01,2.153713963100135215e-02
2.451999999999999957e+01,1.711355032860999506e-02
2.455999999999999872e+01,1.604637700792792623e-02
2.460000000000000142e+01,2.840755562042094826e-02
2.464000000000000057e+01,1.496955372439461550e-02
2.467999999999999972e+01,1.708031410138391090e-02
2.471999999999999886e+01,1.477267009770332797e-02
2.476000000000000156e+01,2.341957577160995452e-02
2.480000000000000071e+01,1.227512765227561919e-02
2.483999999999999986e+01,2.516107697107138746e-02
2.487999999999999901e+01,1.383816050475740640e-02
2.492000000000000171e+01,1.187949447824140393e-02
2.496000000000000085e+01,1.557436776533134906e-02
2.500000000000000000e+01,1.591105113304388391e-02
2.503999999999999915e+01,1.660025880469514700e-02
2.507999999999999829e+01,1.675848931104843148e-02
2.512000000000000099e+01,1.691584601134500654e-02
2.516000000000000014e+01,1.901603709330379130e-02
2.519999999999999929e+01,2.199886048412846157e-02
2.523999999999999844e+01,1.967979660779110851e-02
2.528000000000000114e+01,2.283758382999629896e-02
2.532000000000000028e+01,1.715947481096934818e-02
2.535999999999999943e+01,1.589801636625066267e-02
2.539999999999999858e+01,2.470762935831321769e-02
2.544000000000000128e+01,1.849682963023970700e-02
2.548000000000000043e+01,2.094349960759375393e-02
2.551999999999999957e+01,1.844169436483945185e-02
2.555999999999999872e+01,2.495076313175628030e-02
2.560000000000000142e+01,1.537922175142681855e-02
2.564000000000000057e+01,1.481855747789253240e-02
2.567999999999999972e+01,1.425704107817008653e-02
2.571999999999999886e+01,1.404807530794085352e-02
2.576000000000000156e+01,9.244044816094905068e-03
2.580000000000000071e+01,1.362759822885199930e-02
2.583999999999999986e+01,1.624329967407192946e-02
2.587999999999999901e+01,1.832805492523463878e-02
2.592000000000000171e+01,1.352064380275255773e-02
2.596000000000000085e+01,1.189300225809137961e-02
2.600000000000000000e+01,1.909955115372393916e-02
2.603999999999999915e+01,1.552652504308408947e-02
2.607999999999999829e+01,1.354296772391386586e-02
2.612000000000000099e+01,2.180721031920118333e-02
2.616000000000000014e+01,1.929188255390218779e-02
2.619999999999999929e+01,1.871942943287831576e-02
2.623999999999999844e+01,1.496553500145992102e-02
2.628000000000000114e+01,1.403802132923926901e-02
2.632000000000000028e+01,9.398967633069002861e-03
2.635999999999999943e+01,1.500772314272855873e-02
2.639999999999999858e+01,6.833007322658880833e-03
2.644000000000000128e+01,1.456052311945392648e-02
2.648000000000000043e+01,1.345218758331582012e-02
2.651999999999999957e+01,1.570034390842682190e-02
2.655999999999999872e+01,1.176316105112441314e-02
2.660000000000000142e+01,1.506988643050891086e-02
2.664000000000000057e+01,1.024756908544728617e-02
2.667999999999999972e+01,1.125555824571886424e-02
2.671999999999999886e+01,8.728723471220936267e-03
2.676000000000000156e+01,1.768661761309118716e-02
2.680000000000000071e+01,1.816207401764396642e-02
2.683999999999999986e+01,9.271591215642768433e-03
2.687999999999999901e+01,1.098233895789730609e-02
2.692000000000000171e+01,1.039517473311045957e-02
2.696000000000000085e+01,1.033730974679971520e-02
2.700000000000000000e+01,1.646316486143796845e-02
2.703999999999999915e+01,7.745369801981281943e-03
2.707999999999999829e+01,2.914190094321358546e-03
2.712000000000000099e+01,8.154148411610214614e-03
2.716000000000000014e+01,7.562191982035702982e-03
2.719999999999999929e+01,1.439086762113830735e-02
2.723999999999999844e+01,1.167691893574757632e-02
2.728000000000000114e+01,1.408649756988186209e-02
2.732000000000000028e+01,8.543760408684228022e-03
2.735999999999999943e+01,1.660618263500187805e-02
2.739999999999999858e+01,1.600948974887297580e-02
2.744000000000000128e+01,1.329160563056889198e-02
2.748000000000000043e+01,1.384507686263080966e-03
2.751999999999999957e+01,9.973898862549578775e-03
2.755999999999999872e+01,7.076971463682175598e-03
2.760000000000000142e+01,1.195409282623171275e-02
2.764000000000000057e+01,1.188282104246083867e-02
2.767999999999999972e+01,1.446128361399928383e-02
2.771999999999999886e+01,1.173795492922199458e-02
2.776000000000000156e+01,1.237116611111692931e-02
2.780000000000000071e+01,9.646295772977014904e-03
2.783999999999999986e+01,1.098477081287230553e-02
2.787999999999999901e+01,1.691669459004392986e-02
2.792000000000000171e+01,1.524972700743371622e-02
2.796000000000000085e+01,2.449857542409385799e-03
2.800000000000000000e+01,9.439693366482893380e-03
2.803999999999999915e+01,5.119929801706678968e-03
2.807999999999999829e+01,9.281035995330704988e-03
2.812000000000000099e+01,9.907372453856477801e-03
2.816000000000000014e+01,8.765946761443160415e-03
2.819999999999999929e+01,9.744173744966468792e-03
2.823999999999999844e+01,1.319545616010793336e-02
2.828000000000000114e+01,1.240517262016038215e-02
2.832000000000000028e+01,1.267434278047736146e-02
2.835999999999999943e+01,1.152915973978485900e-02
2.839999999999999858e+01,5.258912371890881073e-03
2.844000000000000128e+01,1.754148310235920105e-02
2.848000000000000043e+01,1.162314793933131273e-02
2.851999999999999957e+01,2.346759130385239409e-03
2.855999999999999872e+01,1.321349849752502352e-02
2.860000000000000142e+01,1.012015110228780580e-02
2.864000000000000057e+01,8.969772813609919876e-03
2.867999999999999972e+01,1.082256880141171246e-02
2.871999999999999886e+01,7.020211039829219075e-03
2.876000000000000156e+01,8.871539705246183835e-03
2.880000000000000071e+01,4.735020258503810204e-04
2.883999999999999986e+01,7.977788877041484122e-03
2.887999999999999901e+01,1.875401012909318644e-03
2.892000000000000171e+01,6.727723876816170574e-03
2.896000000000000085e+01,9.458914353905239006e-03
2.900000000000000000e+01,1.059907580341767214e-02
2.903999999999999915e+01,2.373383217288168104e-03
2.907999999999999829e+01,2.275197896490371591e-03
2.912000000000000099e+01,9.244317768228040369e-03
2.916000000000000014e+01,8.967995492726397316e-03
2.919999999999999929e+01,1.275507124636918524e-02
2.923999999999999844e+01,8.150789790304697633e-04
2.928000000000000114e+01,1.113865000461078739e-02
2.932000000000000028e+01,5.911856709893384583e-03
2.935999999999999943e+01,1.075628815959880913e-02
2.939999999999999858e+01,8.708687960556588809e-03
2.944000000000000128e+01,4.186572750321602109e-03
2.948000000000000043e+01,3.021063994926399127e-03
2.951999999999999957e+01,6.095666260731632050e-03
2.955999999999999872e+01,7.579261178828780240e-03
2.960000000000000142e+01,2.700934001667586095e-03
2.964000000000000057e+01,4.359830337669202797e-03
2.967999999999999972e+01,6.901532421484823758e-03
2.971999999999999886e+01,9.265838180318187664e-03
2.976000000000000156e+01,9.332341920014808334e-03
2.980000000000000071e+01,1.081175786389066557e-02
2.983999999999999986e+01,7.696267039477545056e-03
2.987999999999999901e+01,4.933487895009483482e-03
2.992000000000000171e+01,1.109817150570773436e-03
2.996000000000000085e+01,1.106810705373944236e-02
3.000000000000000000e+01,7.949867412001029865e-03
3.003999999999999915e+01,1.490287884024004902e-02
3.007999999999999829e+01,8.779363820696073697e-03
3.012000000000000099e+01,1.414070779673129094e-02
3.016000000000000014e+01,5.718726007868743348e-03
3.019999999999999929e+01,6.837899672552620080e-03
3.023999999999999844e+01,1.065074208291611662e-03
3.028000000000000114e+01,4.480006087581725645e-03
3.032000000000000028e+01,8.424367284558973920e-03
3.035999999999999943e+01,7.243740033874590881e-03
3.039999999999999858e+01,3.942036144605737431e-03
3.044000000000000128e+01,7.530987946859838203e-03
3.048000000000000043e+01,1.041247103613125030e-02
3.051999999999999957e+01,5.871864025712861604e-03
3.055999999999999872e+01,1.034232459522016652e-02
3.060000000000000142e+01,6.683895747922880340e-03
3.064000000000000057e+01,4.438411624607591088e-03
3.067999999999999972e+01,8.376790069948680806e-03
3.071999999999999886e+01,6.483391590447555239e-03
3.076000000000000156e+01,8.830152137570001364e-03
3.080000000000000071e+01,1.082285756732549557e-02
3.083999999999999986e+01,1.422851546387316618e-02
3.087999999999999901e+01,1.003539659422967266e-02
3.092000000000000171e+01,1.096594596325645675e-02
3.096000000000000085e+01,7.478332527290980705e-03
3.100000000000000000e+01,1.105809706627670572e-02
3.103999999999999915e+01,9.866300690274828339e-03
3.107999999999999829e+01,1.061756788311652919e-02
3.112000000000000099e+01,4.476870015378107623e-03
3.116000000000000014e+01,7.877364766675038973e-03
3.119999999999999929e+01,7.566508418590787467e-03
3.123999999999999844e+01,1.114242847275510526e-02
3.128000000000000114e+01,1.348080897449832616e-02
3.132000000000000028e+01,6.276723105075910324e-03
3.135999999999999943e+01,1.214784966869330782e-02
3.139999999999999858e+01,9.360015976067706869e-03
3.144000000000000128e+01,1.664348755309084937e-02
3.148000000000000043e+01,9.966983864203674340e-03
3.151999999999999957e+01,4.526758364103603688e-03
3.155999999999999872e+01,4.917028293905226916e-03
3.160000000000000142e+01,7.427082527416611034e-03
3.164000000000000057e+01,8.876311749124924863e-03
3.167999999999999972e+01,1.085502293962966117e-02
3.171999999999999886e+01,8.769001954940255569e-03
3.176000000000000156e+01,1.127657991804474277e-02
3.180000000000000071e+01,1.236993785647488853e-02
3.183999999999999986e+01,1.270340501650153936e-03
3.187999999999999901e+01,5.012981746768862580e-03
3.192000000000000171e+01,2.570491316787038277e-03
3.196000000000000085e+01,1.010894902655290169e-03
3.200000000000000000e+01,9.699326041600529746e-03
3.203999999999999915e+01,5.134606008742801514e-03
3.207999999999999829e+01,1.576553352575808462e-02
3.211999999999999744e+01,1.013940270757934976e-02
3.215999999999999659e+01,7.339880287217704496e-03
3.220000000000000284e+01,9.133973848832393355e-03
3.224000000000000199e+01,2.445840277566536068e-03
3.228000000000000114e+01,1.272036803458106817e-02
3.232000000000000028e+01,6.737845199211740105e-03
3.235999999999999943e+01,9.059657214820819593e-03
3.239999999999999858e+01,4.489553723834993106e-03
3.243999999999999773e+01,9.990794216548821299e-03
3.247999999999999687e+01,4.005906607239205150e-03
3.252000000000000313e+01,6.678761250275618011e-03
3.256000000000000227e+01,1.677245546930206457e-02
3.260000000000000142e+01,1.325961898927462829e-02
3.264000000000000057e+01,1.115980466133103567e-02
3.267999999999999972e+01,6.232199548600167796e-03
3.271999999999999886e+01,5.898230549152102230e-03
3.275999999999999801e+01,2.383072654921422617e-03
3.279999999999999716e+01,8.762572077888977976e-03
3.284000000000000341e+01,7.896771821324598956e-03
3.288000000000000256e+01,9.327506026014835416e-03
3.292000000000000171e+01,6.163452701692900652e-03
3.296000000000000085e+01,4.059032710831687527e-03
3.300000000000000000e+01,6.901660880306911133e-03
3.303999999999999915e+01,7.623314616292071154e-03
3.307999999999999829e+01,1.064151055634202439e-02
3.311999999999999744e+01,8.711525503070575993e-03
3.315999999999999659e+01,9.608187561667130144e-03
3.320000000000000284e+01,9.444085002380078406e-03
3.324000000000000199e+01,1.246003385920454488e-02
3.328000000000000114e+01,1.300161636679172429e-02
3.332000000000000028e+01,9.655229245225962348e-03
3.335999999999999943e+01,8.782095771218955196e-03
3.339999999999999858e+01,9.852115682653640044e-03
3.343999999999999773e+01,1.304199113165175825e-02
3.347999999999999687e+01,2.802070553520530881e-03
3.352000000000000313e+01,1.146856594824958477e-02
3.356000000000000227e+01,6.528567809413683524e-03
3.360000000000000142e+01,5.122036230867023365e-03
3.364000000000000057e+01,8.132475778970277291e-03
3.367999999999999972e+01,7.608360842098334416e-03
3.371999999999999886e+01,7.790507454246356142e-03
3.375999999999999801e+01,6.911911128379246219e-03
3.379999999999999716e+01,1.310080117680585687e-02
3.384000000000000341e+01,1.010072362059457468e-02
3.388000000000000256e+01,1.169432708596514214e-02
3.392000000000000171e+01,1.978558801105314083e-03
3.396000000000000085e+01,1.152262473040761501e-02
3.400000000000000000e+01,7.460214160327344884e-03
3.403999999999999915e+01,8.698293220315875957e-03
3.407999999999999829e+01,1.435336044113670259e-02
3.411999999999999744e+01,1.170297391505245241e-02
3.415999999999999659e+01,1.152587200776770959e-02
3.420000000000000284e+01,7.284133936135134615e-03
3.424000000000000199e+01,1.435071375841180143e-02
3.428000000000000114e+01,1.152154059599411889e-02
3.432000000000000028e+01,1.098895764306440266e-02
3.435999999999999943e+01,9.749056187669519549e-03
3.439999999999999858e+01,1.274945467804348628e-02
3.443999999999999773e+01,1.133182508832239650e-02
3.447999999999999687e+01,1.115058828097910577e-02
3.452000000000000313e+01,1.008533856185908802e-02
3.456000000000000227e+01,1.184679015427836206e-02
3.460000000000000142e+01,1.237083072492558763e-02
3.464000000000000057e+01,1.112736001168358746e-02
3.467999999999999972e+01,1.059018801295046053e-02
3.471999999999999886e+01,1.924286099302488203e-03
3.475999999999999801e+01,9.337638506982584921e-03
3.479999999999999716e+01,8.798964700431635699e-03
3.484000000000000341e+01,3.665577695846251871e-03
3.488000000000000256e+01,4.186114048251896730e-03
3.492000000000000171e+01,1.089067711688973712e-02
3.496000000000000085e+01,1.353063344385841554e-02
3.500000000000000000e+01,1.051567914568251119e-02
3.503999999999999915e+01,9.267241120432059137e-03
3.507999999999999829e+01,6.428009449034535402e-03
3.511999999999999744e+01,1.206992008295568880e-02
3.515999999999999659e+01,8.169513007666702117e-03
3.520000000000000284e+01,1.045314348854417541e-02
3.524000000000000199e+01,1.185278893176157020e-02
3.528000000000000114e+01,6.007229157731218926e-03
3.532000000000000028e+01,1.040982546742688294e-02
3.535999999999999943e+01,2.619602757326856997e-03
3.539999999999999858e+01,1.055525793842805073e-02
3.543999999999999773e+01,1.053891168229077920e-02
3.547999999999999687e+01,1.087549390478366636e-02
3.552000000000000313e+01,1.085820374022986382e-02
3.556000000000000227e+01,8.543336098034575582e-03
3.560000000000000142e+01,1.099891666914841297e-02
3.564000000000000057e+01,1.151032406686424391e-02
3.567999999999999972e+01,1.237466768602039219e-02
3.571999999999999886e+01,1.323854786805949736e-02
3.575999999999999801e+01,1.092135529746870656e-02
3.579999999999999716e+01,1.408142109723607358e-02
3.584000000000000341e+01,9.112800341825639736e-03
3.588000000000000256e+01,1.580596217848740520e-02
3.592000000000000171e+01,1.401703934997602756e-02
3.596000000000000085e+01,6.396542458249242225e-03
3.600000000000000000e+01,7.433922543765628804e-03
3.603999999999999915e+01,1.271166606609437817e-02
3.607999999999999829e+01,1.233454077445354444e-02
3.611999999999999744e+01,1.390067417047287888e-02
3.615999999999999659e+01,1.369935512796040776e-02
3.620000000000000284e+01,1.084708217767958380e-02
3.624000000000000199e+01,8.877868939386752978e-03
3.628000000000000114e+01,1.468304050047279131e-02
3.632000000000000028e+01,1.359644831404346887e-02
3.635999999999999943e+01,1.303951927816880338e-02
3.639999999999999858e+01,6.474332609701398053e-03
3.643999999999999773e+01,7.860237538420748044e-03
3.647999999999999687e+01,1.702053500932912411e-02
3.652000000000000313e+01,9.217142072628616012e-03
3.656000000000000227e+01,1.095515081083838112e-02
3.660000000000000142e+01,1.410633500877359753e-02
3.664000000000000057e+01,1.655028897227971835e-02
3.667999999999999972e+01,7.331576829216529013e-03
3.671999999999999886e+01,1.613590152617802934e-02
3.675999999999999801e+01,4.972634846387725613e-03
3.679999999999999716e+01,7.768294221872732233e-03
3.684000000000000341e+01,1.533444981608999939e-02
3.688000000000000256e+01,1.176804885722725937e-02
3.692000000000000171e+01,7.317727900309976309e-03
3.696000000000000085e+01,1.505933315731905649e-02
3.700000000000000000e+01,1.661600340660623551e-02
3.703999999999999915e+01,1.534505166436812840e-02
3.707999999999999829e+01,1.743100060375675150e-02
3.711999999999999744e+01,2.305055237689384098e-02
3.715999999999999659e+01,1.471034877992982368e-02
3.720000000000000284e+01,9.903751113838361181e-03
3.724000000000000199e+01,1.251817420549520762e-02
3.728000000000000114e+01,1.230498459699896907e-02
3.732000000000000028e+01,1.809921401489741205e-02
3.735999999999999943e+01,1.541141451585600723e-02
3.739999999999999858e+01,2.049804317593049291e-02
3.743999999999999773e+01,1.197832851295749755e-02
3.747999999999999687e+01,1.229324872758274720e-02
3.752000000000000313e+01,1.684858967581572692e-02
3.756000000000000227e+01,1.804622695315072356e-02
3.760000000000000142e+01,1.800656935086637073e-02
3.764000000000000057e+01,1.867332505668158060e-02
3.767999999999999972e+01,1.774938777288207967e-02
3.771999999999999886e+01,1.912217232634362205e-02
3.775999999999999801e+01,2.014117121223252260e-02
3.779999999999999716e+01,1.621217028655826467e-02
3.784000000000000341e+01,2.147121938266001104e-02
3.788000000000000256e+01,2.001526572872551826e-02
3.792000000000000171e+01,1.908903561926510867e-02
3.796000000000000085e+01,1.957603362063940408e-02
3.800000000000000000e+01,2.253646490276869571e-02
3.803999999999999915e+01,2.037220506114733806e-02
3.807999999999999829e+01,1.803087254400933745e-02
3.811999999999999744e+01,2.063678640314847365e-02
3.815999999999999659e+01,2.041512163049933465e-02
3.820000000000000284e+01,1.930958641378082222e-02
3.824000000000000199e+01,2.527170946174209926e-02
3.828000000000000114e+01,2.681595309156377047e-02
3.832000000000000028e+01,2.995013937283820538e-02
3.835999999999999943e+01,3.096355717937340768e-02
3.839999999999999858e+01,2.543869297073859601e-02
3.843999999999999773e+01,2.415428511263829903e-02
3.847999999999999687e+01,2.993754481059001868e-02
3.852000000000000313e+01,3.466024584940893827e-02
3.856000000000000227e+01,3.602528193138081897e-02
3.860000000000000142e+01,3.067534313743313507e-02
3.864000000000000057e+01,3.009597024750931132e-02
3.867999999999999972e+01,3.075315273897713531e-02
3.871999999999999886e+01,3.618090423159290442e-02
3.875999999999999801e+01,3.648399247457465022e-02
3.879999999999999716e+01,3.802364074463416427e-02
3.884000000000000341e+01,4.026974877965431437e-02
3.888000000000000256e+01,4.640292899227197593e-02
3.892000000000000171e+01,4.617454792458577234e-02
3.896000000000000085e+01,4.912643971738233500e-02
3.900000000000000000e+01,5.402170169430565300e-02
3.903999999999999915e+01,5.803312574696236487e-02
3.907999999999999829e+01,5.320918626372737881e-02
3.911999999999999744e+01,6.128405903100755253e-02
3.915999999999999659e+01,6.900520033038637369e-02
3.920000000000000284e+01,6.524047368616388287e-02
3.924000000000000199e+01,8.373969592680749474e-02
3.928000000000000114e+01,8.244812495366730942e-02
3.932000000000000028e+01,9.016796069553878468e-02
3.935999999999999943e+01,9.099615038060963890e-02
3.939999999999999858e+01,1.089639776415630285e-01
3.943999999999999773e+01,1.226906709962356512e-01
3.947999999999999687e+01,1.387141543248988917e-01
3.952000000000000313e+01,1.476692971874499494e-01
3.956000000000000227e+01,1.621018439851905912e-01
3.960000000000000142e+01,1.843089041129591377e-01
3.964000000000000057e+01,2.003311314381001906e-01
3.967999999999999972e+01,2.368503186466925925e-01
3.971999999999999886e+01,2.781401135704838490e-01
3.975999999999999801e+01,2.992857326561163545e-01
3.979999999999999716e+01,3.536507597271856818e-01
3.984000000000000341e+01,3.945862369924895141e-01
3.988000000000000256e+01,4.438263402384346468e-01
3.992000000000000171e+01,5.013710710135830251e-01
3.996000000000000085e+01,5.737583531982062279e-01
4.000000000000000000e+01,6.263548700431622596e-01
4.003999999999999915e+01,7.047493788154193251e-01
4.007999999999999829e+01,7.746619639729552809e-01
4.011999999999999744e+01,8.454577590529964715e-01
4.015999999999999659e+01,8.915151780879466692e-01
4.020000000000000284e+01,9.506481517881469889e-01
4.024000000000000199e+01,9.914039742685298862e-01
4.028000000000000114e+01,1.000000000000000000e+00
4.032000000000000028e+01,9.875683685553814373e-01
4.035999999999999943e+01,9.530488778618776413e-01
4.039999999999999858e+01,8.817753793725945366e-01
4.043999999999999773e+01,8.184531273367018356e-01
4.047999999999999687e+01,7.484159732073052407e-01
4.052000000000000313e+01,6.410947141171362551e-01
4.056000000000000227e+01,5.648724851923664358e-01
4.060000000000000142e+01,4.973083113294738400e-01
4.064000000000000057e+01,4.297438645025947745e-01
4.067999999999999972e+01,3.664199607457242491e-01
4.071999999999999886e+01,3.207658474779625513e-01
4.075999999999999801e+01,2.683968429566312985e-01
4.079999999999999716e+01,2.331675302108538461e-01
4.084000000000000341e+01,2.051826769898482949e-01
4.088000000000000256e+01,1.782577637175866425e-01
4.092000000000000171e+01,1.488587798714366695e-01
4.096000000000000085e+01,1.291780686455807070e-01
4.100000000000000000e+01,1.208059370206181482e-01
4.103999999999999915e+01,1.039519189464230969e-01
4.107999999999999829e+01,9.469577089549158222e-02
4.111999999999999744e+01,8.331896122060133969e-02
4.115999999999999659e+01,8.201383311593468672e-02
4.120000000000000284e+01,7.222682475628371124e-02
4.124000000000000199e+01,6.933089019990552881e-02
4.128000000000000114e+01,6.502110262805563257e-02
4.132000000000000028e+01,6.406837988540835249e-02
4.135999999999999943e+01,5.074636980371115963e-02
4.139999999999999858e+01,5.209026627616233918e-02
4.143999999999999773e+01,5.202031592738995402e-02
4.147999999999999687e+01,5.000641849527690669e-02
4.152000000000000313e+01,4.198446164651177537e-02
4.156000000000000227e+01,4.279729762867261200e-02
4.160000000000000142e+01,3.989918513758175522e-02
4.164000000000000057e+01,3.611733537875666533e-02
4.167999999999999972e+01,4.293728913214076709e-02
4.171999999999999886e+01,3.880157431201099877e-02
4.175999999999999801e+01,3.501903109475112269e-02
4.179999999999999716e+01,3.335666706452027064e-02
4.184000000000000341e+01,3.222417833784306518e-02
4.188000000000000256e+01,3.109146465260241229e-02
4.192000000000000171e+01,2.960512635024090816e-02
4.196000000000000085e+01,2.935547041135802560e-02
4.200000000000000000e+01,2.486477967416467205e-02
4.203999999999999915e+01,3.150600819691799087e-02
4.207999999999999829e+01,2.259736639066320385e-02
4.211999999999999744e+01,2.040313185248631561e-02
4.215999999999999659e+01,2.121259345619536107e-02
4.220000000000000284e+01,2.378884852543439177e-02
4.224000000000000199e+01,2.389108412333230957e-02
4.228000000000000114e+01,2.045909817709285622e-02
4.232000000000000028e+01,2.444832965598032690e-02
4.235999999999999943e+01,1.818871975258538193e-02
4.239999999999999858e+01,2.253094123551628927e-02
4.243999999999999773e+01,2.510595340415511592e-02
4.247999999999999687e+01,1.601852400771992466e-02
4.252000000000000313e+01,1.947663728245354123e-02
4.256000000000000227e+01,2.311125252773803609e-02
4.260000000000000142e+01,2.798257491349376291e-02
4.264000000000000057e+01,1.871765347858757658e-02
4.267999999999999972e+01,1.705066400942638338e-02
4.271999999999999886e+01,1.768058994778077750e-02
4.275999999999999801e+01,1.972392982441423248e-02
4.279999999999999716e+01,1.734956527041823030e-02
4.284000000000000341e+01,1.762552197674335797e-02
4.288000000000000256e+01,2.355571175246678681e-02
4.292000000000000171e+01,2.206429148273173629e-02
4.296000000000000085e+01,1.915908323713049269e-02
4.300000000000000000e+01,1.572359158202367782e-02
4.303999999999999915e+01,2.412686031515329579e-02
4.307999999999999829e+01,2.298811795435600977e-02
4.311999999999999744e+01,2.237930045109753907e-02
4.315999999999999659e+01,1.770619366138734968e-02
4.320000000000000284e+01,1.886403293313149848e-02
4.324000000000000199e+01,2.320231076149626218e-02
4.328000000000000114e+01,1.587817799602771543e-02
4.332000000000000028e+01,1.968601404449103059e-02
4.335999999999999943e+01,1.907616734219338625e-02
4.339999999999999858e+01,1.775935211245081510e-02
4.343999999999999773e+01,1.273165964331021173e-02
4.347999999999999687e+01,1.689223554319274970e-02
4.352000000000000313e+01,1.910894333639846787e-02
4.356000000000000227e+01,1.584777250029513820e-02
4.360000000000000142e+01,2.283507830025935034e-02
4.364000000000000057e+01,2.045709528972483940e-02
4.367999999999999972e+01,1.631195097032138094e-02
4.371999999999999886e+01,1.446376077248444358e-02
4.375999999999999801e+01,1.544262805545517682e-02
4.379999999999999716e+01,1.801165014287763391e-02
4.384000000000000341e+01,1.633970866584329162e-02
4.388000000000000256e+01,1.873173354022073661e-02
4.392000000000000171e+01,1.493909130810859576e-02
4.396000000000000085e+01,1.962793361352517182e-02
4.400000000000000000e+01,2.042921975585251446e-02
4.403999999999999915e+01,1.557594524805552480e-02
4.407999999999999829e+01,1.938086052703308013e-02
4.411999999999999744e+01,2.035842790996579207e-02
4.415999999999999659e+01,1.974555317033370797e-02
4.420000000000000284e+01,1.913254328873627980e-02
4.424000000000000199e+01,2.364371731696724571e-02
4.428000000000000114e+01,1.454881282625898782e-02
4.432000000000000028e+01,1.658591586353346317e-02
4.435999999999999943e+01,1.756268633173247232e-02
4.439999999999999858e+01,2.030633543637345301e-02
4.443999999999999773e+01,2.428676291533932163e-02
4.447999999999999687e+01,1.890193410360924836e-02
4.452000000000000313e+01,2.076170728435840912e-02
4.456000000000000227e+01,1.767374236052857150e-02
4.460000000000000142e+01,2.448089157969774582e-02
4.464000000000000057e+01,2.050918587394140458e-02
4.467999999999999972e+01,2.166168111219590742e-02
4.471999999999999886e+01,2.140045651131379165e-02
4.475999999999999801e+01,2.308282508749172693e-02
4.479999999999999716e+01,2.511848295725428726e-02
4.484000000000000341e+01,1.920250330185694840e-02
4.488000000000000256e+01,1.576022327988492108e-02
4.492000000000000171e+01,2.150626737516930093e-02
4.496000000000000085e+01,2.354149307641304964e-02
4.500000000000000000e+01,2.628341702117105091e-02
4.503999999999999915e+01,2.637472929037076169e-02
4.507999999999999829e+01,2.858634772868649809e-02
4.511999999999999744e+01,2.479004612093346424e-02
4.515999999999999659e+01,2.452765860789824295e-02
4.520000000000000284e+01,2.479527647762773401e-02
4.524000000000000199e+01,2.735990731428112818e-02
4.528000000000000114e+01,2.921764240590528708e-02
4.532000000000000028e+01,2.559756700495000731e-02
4.535999999999999943e+01,3.788045569070268986e-02
4.539999999999999858e+01,3.266989593893946525e-02
4.543999999999999773e+01,3.329036896810455559e-02
4.547999999999999687e+01,4.433609201931264926e-02
4.552000000000000313e+01,4.354279059260174334e-02
4.556000000000000227e+01,3.585808313620587190e-02
4.560000000000000142e+01,4.389964845433050322e-02
4.564000000000000057e+01,4.133909816514025337e-02
4.567999999999999972e+01,4.566979356960886721e-02
4.571999999999999886e+01,4.929361026323064721e-02
4.575999999999999801e+01,6.069217876543393786e-02
4.579999999999999716e+01,5.495071552286110578e-02
4.584000000000000341e+01,5.627720477175495589e-02
4.588000000000000256e+01,6.661535469983445590e-02
4.592000000000000171e+01,6.034357933950303815e-02
4.596000000000000085e+01,7.439230638330297796e-02
4.600000000000000000e+01,7.660202753192840719e-02
4.603999999999999915e+01,8.110879261871843660e-02
4.607999999999999829e+01,8.879610621003371229e-02
4.611999999999999744e+01,9.630665838680167734e-02
4.615999999999999659e+01,1.101783730292937580e-01
4.620000000000000284e+01,1.185723112475712271e-01
4.624000000000000199e+01,1.223719776079946198e-01
4.628000000000000114e+01,1.468455599681651180e-01
4.632000000000000028e+01,1.522354240757091137e-01
4.635999999999999943e+01,1.623961529597499898e-01
4.639999999999999858e+01,1.787413529973275461e-01
4.643999999999999773e+01,1.860747738308683452e-01
4.647999999999999687e+01,2.064839924538987570e-01
4.652000000000000313e+01,2.244193573017259358e-01
4.656000000000000227e+01,2.317526421591650787e-01
4.660000000000000142e+01,2.438568010844733291e-01
4.664000000000000057e+01,2.616153386440113748e-01
4.667999999999999972e+01,2.715990105158028745e-01
4.671999999999999886e+01,2.928914834328590344e-01
4.675999999999999801e+01,2.922730454745156026e-01
4.679999999999999716e+01,2.999595013980458358e-01
4.684000000000000341e+01,3.016381038636747891e-01
4.688000000000000256e+01,3.045535791659129132e-01
4.692000000000000171e+01,2.963368866041421468e-01
4.696000000000000085e+01,2.996057049825679997e-01
4.700000000000000000e+01,2.818471247947650360e-01
4.703999999999999915e+01,2.649720224307000049e-01
4.707999999999999829e+01,2.440327825392627215e-01
4.711999999999999744e+01,2.273343350363219717e-01
4.715999999999999659e+01,2.081620585351705022e-01
4.720000000000000284e+01,1.743236129387502054e-01
4.724000000000000199e+01,1.685805458570738824e-01
4.728000000000000114e+01,1.527655284698052895e-01
4.732000000000000028e+01,1.466690299241945050e-01
4.735999999999999943e+01,1.269665720989212321e-01
4.739999999999999858e+01,1.136253247447953224e-01
4.743999999999999773e+01,9.887046285375122867e-02
4.747999999999999687e+01,9.242052117013538348e-02
4.752000000000000313e+01,7.801904571501606933e-02
4.756000000000000227e+01,6.697487666477705548e-02
4.760000000000000142e+01,6.529583608901064207e-02
4.764000000000000057e+01,6.202648811557659458e-02
4.767999999999999972e+01,5.663673248235779473e-02
4.771999999999999886e+01,4.965667254859545965e-02
4.775999999999999801e+01,3.931930382725442458e-02
4.779999999999999716e+01,4.152768218727105609e-02
4.784000000000000341e+01,2.977671864325024884e-02
4.788000000000000256e+01,3.640262519518170509e-02
4.792000000000000171e+01,3.101289957935667030e-02
4.796000000000000085e+01,2.473968136859911598e-02
4.800000000000000000e+01,2.341409202894170413e-02
4.803999999999999915e+01,2.509242646978959365e-02
4.807999999999999829e+01,2.553387175427166214e-02
4.811999999999999744e+01,2.473842943094996596e-02
4.815999999999999659e+01,1.510797509531883707e-02
4.820000000000000284e+01,2.367770264057656587e-02
4.824000000000000199e+01,1.917160678521579245e-02
4.828000000000000114e+01,1.696264158749366535e-02
4.832000000000000028e+01,1.316339531765853624e-02
4.835999999999999943e+01,1.484189366666098520e-02
4.839999999999999858e+01,1.139610196948022056e-02
4.843999999999999773e+01,1.713877066301510571e-02
4.847999999999999687e+01,2.058436206444626271e-02
4.852000000000000313e+01,1.519495539062630692e-02
4.856000000000000227e+01,1.033568417878215177e-02
4.860000000000000142e+01,9.187160841550637974e-03
4.864000000000000057e+01,1.245618934173268154e-02
4.867999999999999972e+01,1.219124406770317331e-02
4.871999999999999886e+01,1.192633863921846102e-02
4.875999999999999801e+01,7.067258912287997623e-03
4.879999999999999716e+01,1.157335411669121496e-02
4.884000000000000341e+01,1.024837389485475959e-02
4.888000000000000256e+01,1.104384695552779530e-02
4.892000000000000171e+01,1.042576277607807841e-02
4.896000000000000085e+01,6.980518076589942514e-03
4.900000000000000000e+01,8.836342169372240693e-03
4.903999999999999915e+01,8.571811253479052345e-03
4.907999999999999829e+01,5.480124463233536879e-03
4.911999999999999744e+01,6.452606886026597197e-03
4.915999999999999659e+01,1.095915825974111413e-02
4.920000000000000284e+01,9.634648144274273948e-03
4.924000000000000199e+01,1.520152154448753574e-02
4.928000000000000114e+01,7.869312410254954843e-03
4.932000000000000028e+01,1.078580135646112041e-02
4.935999999999999943e+01,8.578037421972932453e-03
4.939999999999999858e+01,4.249932415867581359e-03
4.943999999999999773e+01,6.459817461133073209e-03
4.947999999999999687e+01,9.376574188860876957e-03
4.952000000000000313e+01,1.052639569777708700e-02
4.956000000000000227e+01,2.664558790495408745e-03
4.960000000000000142e+01,9.468945892579549647e-03
4.964000000000000057e+01,7.615078882709346540e-03
4.967999999999999972e+01,1.123900759422391538e-02
4.971999999999999886e+01,7.971691326505320543e-03
4.975999999999999801e+01,4.704455166944476220e-03
4.979999999999999716e+01,3.557707906819936212e-03
4.984000000000000341e+01,5.238253508932620012e-03
4.988000000000000256e+01,5.151877829291994469e-03
4.992000000000000171e+01,6.832594487654386484e-03
4.996000000000000085e+01,8.866800204104114888e-03
5.000000000000000000e+01,8.603987473807483272e-03
5.003999999999999915e+01,6.044157845326574886e-03
5.007999999999999829e+01,5.958229163335654680e-03
5.011999999999999744e+01,5.695693923001104303e-03
5.015999999999999659e+01,4.903152465765480035e-03
5.020000000000000284e+01,7.644720222064249615e-03
5.024000000000000199e+01,3.318362526876659103e-03
5.028000000000000114e+01,2.290092960712276362e-04
5.032000000000000028e+01,1.380572338725187054e-03
5.035999999999999943e+01,5.885320788105480490e-04
5.039999999999999858e+01,6.687920242875059450e-03
5.043999999999999773e+01,6.426193112502246417e-03
5.047999999999999687e+01,3.337364307448356052e-03
5.052000000000000313e+01,6.020462403503149158e-04
5.056000000000000227e+01,7.938773655554422909e-03
5.060000000000000142e+01,6.440583520733315567e-03
5.064000000000000057e+01,6.356112390912461822e-03
5.067999999999999972e+01,7.508661211094144576e-03
5.071999999999999886e+01,7.247722476444753287e-03
5.075999999999999801e+01,5.926698942645691748e-03
5.079999999999999716e+01,5.665999400975572746e-03
5.084000000000000341e+01,6.642326003556182738e-03
5.088000000000000256e+01,5.851770038434377270e-03
5.092000000000000171e+01,4.177836071970789447e-03
5.096000000000000085e+01,6.568142552399458545e-03
5.100000000000000000e+01,3.834259643177254529e-03
5.103999999999999915e+01,5.341320881531088673e-03
5.107999999999999829e+01,6.318411519910704238e-03
5.111999999999999744e+01,3.761622846362994935e-03
5.115999999999999659e+01,7.742890812353718684e-03
5.120000000000000284e+01,3.772767474548331841e-03
5.124000000000000199e+01,2.453290595091734902e-03
5.128000000000000114e+01,1.138258767561365833e-02
5.132000000000000028e+01,7.766282405473026902e-03
5.135999999999999943e+01,1.033464031056157729e-02
5.139999999999999858e+01,6.718620690261347880e-03
5.143999999999999773e+01,7.873662513836646865e-03
5.147999999999999687e+01,4.964737151863841264e-03
5.152000000000000313e+01,1.525858224099188153e-03
5.156000000000000227e+01,4.625051421493325300e-03
5.160000000000000142e+01,6.310791132421161333e-03
5.164000000000000057e+01,1.812162609332438647e-03
5.167999999999999972e+01,4.558413271327454303e-03
5.171999999999999886e+01,6.421316903221431505e-03
5.175999999999999801e+01,3.336761171702941516e-03
5.179999999999999716e+01,4.139777803319751731e-03
5.184000000000000341e+01,7.063362311036765900e-03
5.188000000000000256e+01,7.336599947303695628e-03
5.192000000000000171e+01,4.075989242884036148e-03
5.196000000000000085e+01,7.176765545683808784e-03
5.200000000000000000e+01,3.563085740846254259e-03
5.203999999999999915e+01,6.134095436792456370e-03
5.207999999999999829e+01,6.231466607658488373e-03
5.211999999999999744e+01,9.509620115917284330e-03
5.215999999999999659e+01,6.603425521465968936e-03
5.220000000000000284e+01,5.111010325934305619e-03
5.224000000000000199e+01,7.859585734839811058e-03
5.228000000000000114e+01,1.290544665758756697e-02
5.232000000000000028e+01,8.939756014917980137e-03
5.235999999999999943e+01,5.150946740498191408e-03
5.239999999999999858e+01,5.249733057644268182e-03
5.243999999999999773e+01,8.352613497119625030e-03
5.247999999999999687e+01,2.620649168985486263e-03
5.252000000000000313e+01,3.073392924379592713e-03
5.256000000000000227e+01,5.293331222871086247e-03
5.260000000000000142e+01,3.095944488432042854e-03
5.264000000000000057e+01,7.259971086767085316e-03
5.267999999999999972e+01,8.596981181333049338e-03
5.271999999999999886e+01,1.170119201324457993e-02
5.275999999999999801e+01,7.560874349518293194e-03
5.279999999999999716e+01,8.014970177217094899e-03
5.284000000000000341e+01,8.292564748790681034e-03
5.288000000000000256e+01,7.333455991442840161e-03
5.292000000000000171e+01,7.788154507131334579e-03
5.296000000000000085e+01,4.532344341186442596e-03
5.300000000000000000e+01,9.051566273551654024e-03
5.303999999999999915e+01,1.039038443208674563e-02
5.307999999999999829e+01,4.484686483480283467e-03
5.311999999999999744e+01,5.647222864631159557e-03
5.315999999999999659e+01,8.223575810190609375e-03
5.320000000000000284e+01,6.559327554809743499e-03
5.324000000000000199e+01,4.541892925364347279e-03
5.328000000000000114e+01,5.175183730931596365e-03
5.332000000000000028e+01,7.752399105834686596e-03
5.335999999999999943e+01,6.972522491844189603e-03
5.339999999999999858e+01,8.313274147873301115e-03
5.343999999999999773e+01,8.947445965528650139e-03
5.347999999999999687e+01,9.405141304051380102e-03
5.352000000000000313e+01,7.742655072846682876e-03
5.356000000000000227e+01,9.261006927268052719e-03
5.360000000000000142e+01,8.129078498406909145e-03
5.364000000000000057e+01,6.643979181101599372e-03
5.367999999999999972e+01,6.749417163071001757e-03
5.371999999999999886e+01,7.561890975078628882e-03
5.375999999999999801e+01,9.081402165686465119e-03
5.379999999999999716e+01,9.364245644299681523e-03
5.384000000000000341e+01,1.070753080575665914e-02
5.388000000000000256e+01,1.010734893810422835e-02
5.392000000000000171e+01,8.977306418382171790e-03
5.396000000000000085e+01,7.494105398712267233e-03
5.400000000000000000e+01,8.131555877492478365e-03
5.403999999999999915e+01,7.355647332090605763e-03
5.407999999999999829e+01,4.636279500389544998e-03
5.411999999999999744e+01,8.631783505377325569e-03
5.415999999999999659e+01,8.916825285592826916e-03
5.420000000000000284e+01,1.026232268571038511e-02
5.424000000000000199e+01,9.310965786657496995e-03
5.428000000000000114e+01,6.946259154794702864e-03
5.432000000000000028e+01,5.995413995639491643e-03
5.435999999999999943e+01,1.158274936098564571e-02
5.439999999999999858e+01,9.395517911058305985e-03
5.443999999999999773e+01,7.208547751046947769e-03
5.447999999999999687e+01,1.067625974342446132e-02
5.452000000000000313e+01,7.429613187572940529e-03
5.456000000000000227e+01,7.010442224278898814e-03
5.460000000000000142e+01,8.358544780746129943e-03
5.464000000000000057e+01,9.883616973499282504e-03
5.467999999999999972e+01,7.521546469226904341e-03
5.471999999999999886e+01,1.046076620159619094e-02
5.475999999999999801e+01,1.004294814474320126e-02
5.479999999999999716e+01,1.245261497181994470e-02
5.484000000000000341e+01,9.561540467641601107e-03
5.488000000000000256e+01,1.267856480859195188e-02
5.492000000000000171e+01,1.155505453676955625e-02
5.496000000000000085e+01,1.043182568616963374e-02
5.500000000000000000e+01,7.541873769757063799e-03
5.503999999999999915e+01,7.832817235765914335e-03
5.507999999999999829e+01,1.466196910039270669e-02
5.511999999999999744e+01,8.238863313511582062e-03
5.515999999999999659e+01,9.944274454409951849e-03
5.520000000000000284e+01,8.646066047387841041e-03
5.524000000000000199e+01,8.585054126440437930e-03
5.528000000000000114e+01,8.170934808092399776e-03
5.532000000000000028e+01,1.146782352277910325e-02
5.535999999999999943e+01,1.087759586599492713e-02
5.539999999999999858e+01,1.240807390733217504e-02
5.543999999999999773e+01,6.870827810247797165e-03
5.547999999999999687e+01,1.352622491131258604e-02
5.552000000000000313e+01,1.028669131412436252e-02
5.556000000000000227e+01,8.991169005746027162e-03
5.560000000000000142e+01,9.816360138299267540e-03
5.564000000000000057e+01,1.240886505322673014e-02
5.567999999999999972e+01,7.226852706865951811e-03
5.571999999999999886e+01,1.070348077883224655e-02
5.575999999999999801e+01,1.064640917206747736e-02
5.579999999999999716e+01,1.271005874904447552e-02
5.584000000000000341e+01,1.230021536577278335e-02
5.588000000000000256e+01,8.533377553015796327e-03
5.592000000000000171e+01,1.130478065867954532e-02
5.596000000000000085e+01,1.407650389961671682e-02
5.600000000000000000e+01,1.349123735675468623e-02
5.603999999999999915e+01,1.096258740713324138e-02
5.607999999999999829e+01,9.317765256269889412e-03
5.611999999999999744e+01,1.244418573104029077e-02
5.615999999999999659e+01,1.292042503049854740e-02
5.620000000000000284e+01,8.802778064049865056e-03
5.624000000000000199e+01,1.405059406147361051e-02
5.628000000000000114e+01,1.364432326875617170e-02
5.632000000000000028e+01,1.235488353057186649e-02
5.635999999999999943e+01,1.318618665599789568e-02
5.639999999999999858e+01,1.242752151884222826e-02
5.643999999999999773e+01,1.096239268546551383e-02
5.647999999999999687e+01,1.356171800054210147e-02
5.652000000000000313e+01,1.580798392364110572e-02
5.656000000000000227e+01,1.293027570721234226e-02
5.660000000000000142e+01,8.816008178131546150e-03
5.664000000000000057e+01,1.177011125226726761e-02
5.667999999999999972e+01,1.295755630019590661e-02
5.671999999999999886e+01,1.679585995947227919e-02
5.675999999999999801e+01,8.795574286761973989e-03
5.679999999999999716e+01,1.493168955390487829e-02
5.684000000000000341e+01,1.329333246805853609e-02
5.688000000000000256e+01,1.589614561984557112e-02
5.692000000000000171e+01,1.231479494780482638e-02
5.696000000000000085e+01,1.191441398916323266e-02
5.700000000000000000e+01,1.434160308536339828e-02
5.703999999999999915e+01,1.447204628173561977e-02
5.707999999999999829e+01,1.654655961227507327e-02
5.711999999999999744e+01,1.349712048315527060e-02
5.715999999999999659e+01,1.645586846720022145e-02
5.720000000000000284e+01,1.393726588159050969e-02
5.724000000000000199e+01,1.389284143507534160e-02
5.728000000000000114e+01,1.543909365841818898e-02
5.732000000000000028e+01,1.468861082186732891e-02
5.735999999999999943e+01,1.429190352738055406e-02
5.739999999999999858e+01,1.460237453063935494e-02
5.743999999999999773e+01,1.703363020868340141e-02
5.747999999999999687e+01,1.434094736412648910e-02
5.752000000000000313e+01,1.164864504876242206e-02
5.756000000000000227e+01,1.390434171082512854e-02
5.760000000000000142e+01,1.350991294580899602e-02
5.764000000000000057e+01,1.311586935567176856e-02
5.767999999999999972e+01,1.360571550677407843e-02
5.771999999999999886e+01,1.533285415479731725e-02
5.775999999999999801e+01,1.582347839846757337e-02
5.779999999999999716e+01,1.596109280414547901e-02
5.784000000000000341e+01,1.503889650615416324e-02
5.788000000000000256e+01,1.659090312424995120e-02
5.792000000000000171e+01,1.761320394647980514e-02
5.796000000000000085e+01,1.651549508936821578e-02
5.800000000000000000e+01,1.541818534419388959e-02
5.803999999999999915e+01,1.520477927731738767e-02
5.807999999999999829e+01,1.463837421238279105e-02
5.811999999999999744e+01,1.548597773354922456e-02
5.815999999999999659e+01,1.704078897513987972e-02
5.820000000000000284e+01,1.629889922520169274e-02
5.824000000000000199e+01,1.626422029281178461e-02
5.828000000000000114e+01,1.729015493365163372e-02
5.832000000000000028e+01,1.584269262508904152e-02
5.835999999999999943e+01,1.404224215840255835e-02
5.839999999999999858e+01,1.595291896402765280e-02
5.843999999999999773e+01,1.768731131221265920e-02
5.847999999999999687e+01,1.747841471592250992e-02
5.852000000000000313e+01,1.797673977711488486e-02
5.856000000000000227e+01,1.776868321587416269e-02
5.860000000000000142e+01,1.332023450956810844e-02
5.864000000000000057e+01,1.594023383458038901e-02
5.867999999999999972e+01,1.873735920064422203e-02
5.871999999999999886e+01,1.870770189580654719e-02
5.875999999999999801e+01,1.956197614338333821e-02
5.879999999999999716e+01,1.741277021362296409e-02
5.884000000000000341e+01,2.197861885087170133e-02
5.888000000000000256e+01,1.859337350823537030e-02
5.892000000000000171e+01,1.679886832650049483e-02
5.896000000000000085e+01,1.677180545778887352e-02
5.900000000000000000e+01,1.904228826134171659e-02
5.903999999999999915e+01,1.972290500740725774e-02
5.907999999999999829e+01,1.651654939827130672e-02
5.911999999999999744e+01,1.808155255692192945e-02
5.915999999999999659e+01,2.159070637496564651e-02
5.920000000000000284e+01,1.767888041229971272e-02
5.924000000000000199e+01,2.101222631294243429e-02
5.928000000000000114e+01,1.780809854779808604e-02
5.932000000000000028e+01,1.849183427545188566e-02
5.935999999999999943e+01,1.917602176615215356e-02
5.939999999999999858e+01,1.897715955066240842e-02
5.943999999999999773e+01,1.524474012414886621e-02
5.947999999999999687e+01,1.999440607723417321e-02
5.952000000000000313e+01,2.050371550218101080e-02
5.956000000000000227e+01,1.783287356890958519e-02
5.960000000000000142e+01,2.187711562532600879e-02
5.964000000000000057e+01,2.115090398861090015e-02
5.967999999999999972e+01,2.007175529631907707e-02
5.971999999999999886e+01,1.881637170057233466e-02
5.975999999999999801e+01,1.932846138908959552e-02
5.979999999999999716e+01,2.196142711755228252e-02
5.984000000000000341e+01,1.841034206721587491e-02
5.988000000000000256e+01,2.104425003582247392e-02
5.992000000000000171e+01,2.632914050073970405e-02
5.996000000000000085e+01,2.330957758982735162e-02
