2.003999999999999915e+01,6.191814548803952281e-03
2.007999999999999829e+01,6.096846851934264837e-03
2.012000000000000099e+01,1.025397319130938803e-02
2.016000000000000014e+01,1.304394040500297600e-02
2.019999999999999929e+01,8.240008479359873031e-03
2.023999999999999844e+01,1.239619434043836774e-02
2.028000000000000114e+01,7.363828509467716492e-03
2.032000000000000028e+01,5.216712381029235159e-03
2.035999999999999943e+01,4.739872468205288784e-03
2.039999999999999858e+01,4.110848432352567222e-03
2.044000000000000128e+01,1.289755840468404489e-02
2.048000000000000043e+01,1.074919306892330693e-02
2.051999999999999957e+01,1.171388608776030398e-02
2.055999999999999872e+01,1.191890899797745824e-02
2.060000000000000142e+01,1.212362058076556573e-02
2.064000000000000057e+01,6.253152535401511856e-03
2.067999999999999972e+01,8.583446093972418173e-03
2.071999999999999886e+01,9.926262840660985201e-03
2.076000000000000156e+01,1.514149780580637851e-02
2.080000000000000071e+01,1.291470859255152911e-02
2.083999999999999986e+01,9.548571504083995520e-03
2.087999999999999901e+01,9.143623006085729171e-03
2.092000000000000171e+01,1.185173502802188555e-02
2.096000000000000085e+01,7.041887881226706336e-03
2.100000000000000000e+01,8.838151084855911180e-03
2.103999999999999915e+01,6.913248376106649606e-03
2.107999999999999829e+01,7.417984345235073031e-03
2.112000000000000099e+01,3.062516988066681795e-03
2.116000000000000014e+01,8.806210244879972282e-03
2.119999999999999929e+01,1.189184044596938890e-02
2.123999999999999844e+01,1.004133211389731002e-02
2.128000000000000114e+01,8.418323704865643409e-03
2.132000000000000028e+01,5.883777588422486708e-03
2.135999999999999943e+01,1.185374018284941246e-02
2.139999999999999858e+01,1.334318024904376093e-02
2.144000000000000128e+01,8.985252587156461468e-03
2.148000000000000043e+01,1.009440002711192025e-02
2.151999999999999957e+01,1.158292040224120217e-02
2.155999999999999872e+01,1.307113464674945595e-02
2.160000000000000142e+01,7.345136612927981312e-03
2.164000000000000057e+01,1.270546792554643097e-02
2.167999999999999972e+01,7.586345564876867918e-03
2.171999999999999886e+01,1.605943624708304138e-02
2.176000000000000156e+01,9.117243018797460685e-03
2.180000000000000071e+01,8.781164471609571864e-03
2.183999999999999986e+01,9.735690869453472729e-03
2.187999999999999901e+01,1.311986027584833604e-02
2.192000000000000171e+01,1.316554207283289002e-03
2.196000000000000085e+01,7.205998729944258600e-03
2.200000000000000000e+01,6.109040709009257164e-03
2.203999999999999915e+01,9.112429067089514514e-04
2.207999999999999829e+01,8.925980813758777402e-03
2.212000000000000099e+01,1.192864909492212348e-02
2.216000000000000014e+01,1.310855393829235549e-02
2.219999999999999929e+01,6.466762899612232829e-03
2.223999999999999844e+01,5.519858646311626496e-03
2.228000000000000114e+01,1.914897183696219517e-03
2.232000000000000028e+01,1.023156316971590186e-02
2.235999999999999943e+01,1.611797994888515898e-02
2.239999999999999858e+01,1.516986806272659950e-02
2.244000000000000128e+01,1.285460939330497140e-02
2.248000000000000043e+01,1.972728820588745893e-02
2.251999999999999957e+01,1.080500793978944780e-02
2.255999999999999872e+01,7.501680334874599558e-03
2.260000000000000142e+01,6.703935492582518453e-03
2.264000000000000057e+01,1.266418159152662634e-02
2.267999999999999972e+01,1.148615711501571428e-02
2.271999999999999886e+01,8.865051514511626540e-03
2.276000000000000156e+01,1.657092275873310941e-02
2.280000000000000071e+01,9.393066717598166915e-03
2.283999999999999986e+01,1.185876524606472270e-02
2.287999999999999901e+01,1.629849705762973291e-02
2.292000000000000171e+01,1.132188389897049834e-02
2.296000000000000085e+01,1.652037695477362456e-02
2.300000000000000000e+01,1.511215216265112543e-02
2.303999999999999915e+01,1.066619499302490573e-02
2.307999999999999829e+01,7.131170198645553175e-03
2.312000000000000099e+01,1.422686762365757765e-02
2.316000000000000014e+01,1.463991221041288128e-02
2.319999999999999929e+01,1.398955755390760870e-02
2.323999999999999844e+01,1.660414768922088141e-02
2.328000000000000114e+01,4.031269711718950786e-03
2.332000000000000028e+01,6.341522998356460480e-03
2.335999999999999943e+01,1.928249980358736140e-02
2.339999999999999858e+01,1.247985775766150517e-02
2.344000000000000128e+01,1.159991656252233258e-02
2.348000000000000043e+01,8.061924654078388500e-03
2.351999999999999957e+01,1.128192845061127929e-02
2.355999999999999872e+01,1.450163694320657885e-02
2.360000000000000142e+01,1.149431011820977247e-02
2.364000000000000057e+01,1.456155693959937901e-02
2.367999999999999972e+01,1.884348281010380516e-02
2.371999999999999886e+01,1.158286406001739384e-02
2.376000000000000156e+01,1.290270286928689274e-02
2.380000000000000071e+01,1.209604369278087857e-02
2.383999999999999986e+01,1.113721901514153588e-02
2.387999999999999901e+01,1.906259597232189823e-02
2.392000000000000171e+01,1.058553457777447297e-02
2.396000000000000085e+01,9.094278839471323095e-03
2.400000000000000000e+01,9.880805873072228546e-03
2.403999999999999915e+01,1.013548920587952623e-02
2.407999999999999829e+01,1.342731430831529266e-02
2.412000000000000099e+01,1.565574514776484766e-02
2.416000000000000014e+01,7.404735739013889977e-03
2.419999999999999929e+01,1.699836076030576681e-02
2.423999999999999844e+01,5.481526061265127106e-03
2.428000000000000114e+01,1.340397921111448516e-02
2.432000000000000028e+01,1.418817066338926014e-02
2.435999999999999943e+01,1.497207114239982109e-02
2.439999999999999858e+01,1.188295218492855555e-02
2.444000000000000128e+01,1.319782236227151628e-02
2.448000000000000043e+01,1.868887432156522005e-02
2.451999999999999957e+01,3.297275645659276163e-03
2.455999999999999872e+01,6.661543626187684843e-03
2.460000000000000142e+01,2.073247769431886545e-02
2.464000000000000057e+01,9.212738675977345110e-03
2.467999999999999972e+01,1.394298370030275930e-02
2.471999999999999886e+01,8.193791507898987372e-03
2.476000000000000156e+01,1.801116108303814356e-02
2.480000000000000071e+01,1.453946718528414082e-02
2.483999999999999986e+01,1.243433032905273683e-02
2.487999999999999901e+01,1.594815869295721986e-02
2.492000000000000171e+01,1.323495888488068241e-02
2.496000000000000085e+01,6.800614384725084220e-03
2.500000000000000000e+01,1.350288554441168680e-02
2.503999999999999915e+01,1.238347619593829774e-02
2.507999999999999829e+01,1.711084071966632869e-02
2.512000000000000099e+01,8.473207646304912327e-03
2.516000000000000014e+01,2.124919945368270932e-02
2.519999999999999929e+01,9.725430765976187178e-03
2.523999999999999844e+01,1.080672804205386889e-02
2.528000000000000114e+01,1.439362258851011045e-02
2.532000000000000028e+01,1.213317041065052268e-02
2.535999999999999943e+01,1.321361035735957833e-02
2.539999999999999858e+01,1.231943269257127459e-02
2.544000000000000128e+01,1.096935476213352009e-02
2.548000000000000043e+01,9.770863634305614401e-03
2.551999999999999957e+01,1.373572605235805384e-02
2.555999999999999872e+01,9.802974920722545837e-03
2.560000000000000142e+01,1.634908772063437682e-02
2.564000000000000057e+01,1.879438022721099250e-02
2.567999999999999972e+01,1.356986740309778713e-02
2.571999999999999886e+01,1.844453987780437024e-02
2.576000000000000156e+01,1.139699949280866507e-02
2.580000000000000071e+01,9.892493451757546769e-03
2.583999999999999986e+01,1.294385583713048189e-02
2.587999999999999901e+01,1.584306376458711335e-02
2.592000000000000171e+01,1.038904495236452237e-02
2.596000000000000085e+01,1.169303505367251354e-02
2.600000000000000000e+01,1.413578090658230979e-02
2.603999999999999915e+01,3.441341712074131969e-03
2.607999999999999829e+01,1.119903397641688197e-02
2.612000000000000099e+01,9.236655167365916130e-03
2.616000000000000014e+01,1.251356922519973255e-02
2.619999999999999929e+01,1.609394569618083706e-02
2.623999999999999844e+01,1.443446727484608630e-02
2.628000000000000114e+01,1.368593855145173836e-02
2.632000000000000028e+01,1.240557846968285208e-02
2.635999999999999943e+01,3.683224307693635027e-03
2.639999999999999858e+01,9.540274657073398792e-03
2.644000000000000128e+01,1.144838075672275843e-02
2.648000000000000043e+01,4.927327291698559847e-03
2.651999999999999957e+01,5.164285771676270856e-03
2.655999999999999872e+01,7.071554029987092531e-03
2.660000000000000142e+01,3.511161775387994319e-03
2.664000000000000057e+01,1.073338250807446062e-02
2.667999999999999972e+01,8.463342768235711591e-03
2.671999999999999886e+01,8.243292955193323029e-03
2.676000000000000156e+01,1.250318069238358365e-02
2.680000000000000071e+01,1.061198629114087390e-02
2.683999999999999986e+01,1.418789600725240373e-02
2.687999999999999901e+01,1.282769772144968547e-02
2.692000000000000171e+01,7.138878501991983115e-03
2.696000000000000085e+01,1.375139113140338640e-02
2.700000000000000000e+01,1.071977330762759022e-02
2.703999999999999915e+01,1.254777383214861555e-02
2.707999999999999829e+01,1.938726463443168554e-02
2.712000000000000099e+01,6.027541584394835450e-03
2.716000000000000014e+01,8.158457437455237868e-03
2.719999999999999929e+01,1.936153479913789834e-03
2.723999999999999844e+01,1.348256455250820135e-02
2.728000000000000114e+01,9.993400878585655123e-03
2.732000000000000028e+01,1.789434072474670179e-02
2.735999999999999943e+01,1.326558952082650469e-02
2.739999999999999858e+01,1.387613789633480345e-02
2.744000000000000128e+01,1.372705340701418746e-02
2.748000000000000043e+01,7.502826316798686876e-03
2.751999999999999957e+01,8.947846862515346222e-03
2.755999999999999872e+01,1.570810371026081301e-02
2.760000000000000142e+01,1.183706721876987694e-02
2.764000000000000057e+01,1.760961128092052366e-02
2.767999999999999972e+01,1.745888553777604976e-02
2.771999999999999886e+01,1.419451689510131849e-02
2.776000000000000156e+01,1.358763066082397872e-02
2.780000000000000071e+01,1.290453621871210169e-02
2.783999999999999986e+01,1.373988677107930260e-02
2.787999999999999901e+01,1.449902954867925489e-02
2.792000000000000171e+01,1.351137592580016825e-02
2.796000000000000085e+01,1.639617949743810144e-02
2.800000000000000000e+01,1.290209985725599036e-02
2.803999999999999915e+01,1.616604039035523382e-02
2.807999999999999829e+01,1.935377423135564365e-02
2.812000000000000099e+01,1.168240997866008823e-02
2.816000000000000014e+01,2.269099601396330768e-02
2.819999999999999929e+01,1.866401228302391746e-02
2.823999999999999844e+01,1.425707930025752607e-02
2.828000000000000114e+01,2.025308890032854678e-02
2.832000000000000028e+01,1.668091104928905166e-02
2.835999999999999943e+01,2.404322720941430222e-02
2.839999999999999858e+01,2.586195674417893914e-02
2.844000000000000128e+01,2.737667396625063920e-02
2.848000000000000043e+01,2.274031814430338763e-02
2.851999999999999957e+01,1.742027116040202953e-02
2.855999999999999872e+01,2.576841010309924990e-02
2.860000000000000142e+01,2.363713283283310970e-02
2.864000000000000057e+01,2.545425229462207339e-02
2.867999999999999972e+01,2.058874879980051101e-02
2.871999999999999886e+01,1.853260462311575457e-02
2.876000000000000156e+01,2.239919009619558213e-02
2.880000000000000071e+01,2.611363691831685568e-02
2.883999999999999986e+01,2.094332181245673816e-02
2.887999999999999901e+01,1.326685693826838534e-02
2.892000000000000171e+01,1.318371142222491549e-02
2.896000000000000085e+01,1.788425879162873489e-02
2.900000000000000000e+01,1.818026063066260911e-02
2.903999999999999915e+01,2.455086534812813207e-02
2.907999999999999829e+01,1.793617318766594151e-02
2.912000000000000099e+01,2.111694130552249637e-02
2.916000000000000014e+01,1.799476834750105003e-02
2.919999999999999929e+01,1.692259874136339479e-02
2.923999999999999844e+01,1.539454944027469213e-02
2.928000000000000114e+01,1.508120950301426733e-02
2.932000000000000028e+01,9.679903059461873044e-03
2.935999999999999943e+01,1.832646615551000724e-02
2.939999999999999858e+01,1.140591498606560034e-02
2.944000000000000128e+01,1.253430112849797905e-02
2.948000000000000043e+01,1.464959014802987708e-02
2.951999999999999957e+01,1.486621971549791782e-02
2.955999999999999872e+01,1.766440557891269317e-02
2.960000000000000142e+01,6.642002958214584217e-03
2.964000000000000057e+01,1.080650923983830433e-02
2.967999999999999972e+01,9.655243394575968238e-03
2.971999999999999886e+01,1.397109725709195366e-02
2.976000000000000156e+01,9.250322458969461453e-03
2.980000000000000071e+01,9.465116806432688837e-03
2.983999999999999986e+01,1.226146896557827985e-02
2.987999999999999901e+01,1.034953693223185194e-02
2.992000000000000171e+01,1.542344281864625050e-02
2.996000000000000085e+01,1.206820797881620611e-02
3.000000000000000000e+01,1.152233938620033857e-02
3.003999999999999915e+01,1.014091614697829220e-02
3.007999999999999829e+01,7.999874334149401425e-03
3.012000000000000099e+01,1.193344124616123152e-02
3.016000000000000014e+01,6.222894811145560090e-03
3.019999999999999929e+01,8.865033228009199656e-03
3.023999999999999844e+01,8.925093382223676583e-03
3.028000000000000114e+01,1.741377467785053604e-02
3.032000000000000028e+01,1.041128254472492402e-02
3.035999999999999943e+01,1.009088728736770579e-02
3.039999999999999858e+01,1.311141143782132770e-02
3.044000000000000128e+01,7.626861603968746947e-03
3.048000000000000043e+01,7.229756309705690290e-03
3.051999999999999957e+01,1.002169935992302738e-02
3.055999999999999872e+01,7.497875046995023524e-03
3.060000000000000142e+01,1.264331504309164009e-02
3.064000000000000057e+01,6.777798874181992228e-03
3.067999999999999972e+01,8.809355016761440810e-03
3.071999999999999886e+01,1.084065461492982399e-02
3.076000000000000156e+01,3.000036544678634422e-03
3.080000000000000071e+01,9.055424096308580320e-03
3.083999999999999986e+01,6.226060546640471011e-03
3.087999999999999901e+01,1.288842337690969571e-02
3.092000000000000171e+01,1.059009968248250319e-02
3.096000000000000085e+01,1.034178886742042648e-02
3.100000000000000000e+01,1.085258158834009716e-02
3.103999999999999915e+01,5.971673688052697541e-03
3.107999999999999829e+01,5.570726723634143729e-03
3.112000000000000099e+01,7.599472787043936445e-03
3.116000000000000014e+01,1.152636109955576874e-02
3.119999999999999929e+01,6.644436116038285843e-03
3.123999999999999844e+01,3.954119866646762030e-04
3.128000000000000114e+01,1.381352116897015432e-02
3.132000000000000028e+01,8.627092220770795142e-03
3.135999999999999943e+01,5.490678317273239503e-03
3.139999999999999858e+01,0.000000000000000000e+00
3.144000000000000128e+01,9.164689333803691454e-03
3.148000000000000043e+01,1.167622676085693610e-03
3.151999999999999957e+01,5.775655977937814260e-03
3.155999999999999872e+01,3.852953626534874002e-03
3.160000000000000142e+01,2.385614633255874265e-03
3.164000000000000057e+01,9.180240758402082773e-04
3.167999999999999972e+01,4.613820410489780435e-03
3.171999999999999886e+01,5.803482350701599270e-03
3.176000000000000156e+01,4.335138400077915774e-03
3.180000000000000071e+01,3.625902316109354262e-03
3.183999999999999986e+01,2.460800611878196514e-03
3.187999999999999901e+01,3.649460193149357389e-03
3.192000000000000171e+01,1.952307180322587288e-03
3.196000000000000085e+01,3.368274450722552257e-03
3.200000000000000000e+01,7.213939512691576635e-03
3.203999999999999915e+01,6.427267931452331461e-03
3.207999999999999829e+01,6.095962306741017044e-03
3.211999999999999744e+01,3.106652739997235475e-03
3.215999999999999659e+01,1.143153703744515144e-02
3.220000000000000284e+01,9.201088753494157321e-03
3.224000000000000199e+01,5.223867454700167369e-03
3.228000000000000114e+01,2.765115185622403580e-03
3.232000000000000028e+01,4.862266421422917900e-03
3.235999999999999943e+01,7.946336124746971458e-03
3.239999999999999858e+01,9.435505392294171387e-03
3.243999999999999773e+01,7.051698746626885658e-03
3.247999999999999687e+01,1.013502674956101753e-02
3.252000000000000313e+01,6.080137444322496545e-03
3.256000000000000227e+01,4.379013105658663418e-03
3.260000000000000142e+01,7.993152352265869148e-03
3.264000000000000057e+01,8.493675332983993687e-03
3.267999999999999972e+01,5.500902982018182272e-03
3.271999999999999886e+01,3.039435908584738749e-03
3.275999999999999801e+01,1.348681893312791633e-02
3.279999999999999716e+01,6.392773829431901665e-03
3.284000000000000341e+01,7.423620299440184152e-03
3.288000000000000256e+01,4.429621525172899865e-03
3.292000000000000171e+01,5.080299226200377799e-03
3.296000000000000085e+01,1.022709407828231373e-03
3.300000000000000000e+01,9.418355847840495509e-03
3.303999999999999915e+01,7.942096961852255013e-03
3.307999999999999829e+01,3.504095904776693277e-03
3.311999999999999744e+01,7.722538932401102653e-03
3.315999999999999659e+01,3.967473695268695054e-03
3.320000000000000284e+01,1.107099281340913170e-02
3.324000000000000199e+01,2.911161879152019630e-03
3.328000000000000114e+01,5.761787446166509105e-03
3.332000000000000028e+01,1.104211795036109424e-02
3.335999999999999943e+01,9.487979119452857879e-03
3.339999999999999858e+01,3.377446863946791372e-03
3.343999999999999773e+01,8.277371975847000810e-03
3.347999999999999687e+01,5.963149119916873360e-03
3.352000000000000313e+01,1.055884781531202590e-02
3.356000000000000227e+01,2.852696592741627100e-03
3.360000000000000142e+01,4.486414761466553207e-03
3.364000000000000057e+01,2.702778651781312380e-03
3.367999999999999972e+01,4.632868823822229348e-04
3.371999999999999886e+01,2.324091057745494068e-03
3.375999999999999801e+01,8.892678246130488601e-03
3.379999999999999716e+01,7.867439916625938723e-03
3.384000000000000341e+01,5.551052372419401637e-03
3.388000000000000256e+01,9.461165620149801850e-03
3.392000000000000171e+01,6.764620133645865042e-03
3.396000000000000085e+01,9.079602168694833261e-03
3.400000000000000000e+01,1.131840955862785728e-02
3.403999999999999915e+01,4.064996318230588122e-03
3.407999999999999829e+01,6.683006062792642629e-03
3.411999999999999744e+01,2.466550586391582506e-03
3.415999999999999659e+01,4.552533274128826510e-03
3.420000000000000284e+01,1.170896590353083088e-03
3.424000000000000199e+01,8.647849891725555363e-03
3.428000000000000114e+01,6.784455574901164000e-03
3.432000000000000028e+01,4.844888345230163353e-03
3.435999999999999943e+01,7.992786658914455972e-03
3.439999999999999858e+01,3.470926846248504043e-03
3.443999999999999773e+01,3.429046158279539479e-03
3.447999999999999687e+01,6.120620112829853326e-03
3.452000000000000313e+01,3.952063279862190297e-03
3.456000000000000227e+01,4.972576661275416622e-03
3.460000000000000142e+01,6.144726214974852684e-03
3.464000000000000057e+01,5.190436463522828288e-03
3.467999999999999972e+01,5.147141882081430510e-03
3.471999999999999886e+01,6.926072964772842476e-03
3.475999999999999801e+01,6.730437104845236364e-03
3.479999999999999716e+01,1.219056834341060045e-03
3.484000000000000341e+01,7.021884935784389152e-03
3.488000000000000256e+01,9.559237184292634915e-03
3.492000000000000171e+01,6.097422963633973743e-03
3.496000000000000085e+01,4.457835706310100954e-03
3.500000000000000000e+01,4.336732202991863162e-03
3.503999999999999915e+01,7.480637368924242768e-03
3.507999999999999829e+01,3.410403228373002586e-03
3.511999999999999744e+01,9.667212841450716077e-03
3.515999999999999659e+01,1.951592355663985066e-03
3.520000000000000284e+01,6.309540755284891687e-03
3.524000000000000199e+01,4.592388561542454228e-03
3.528000000000000114e+01,1.887838374172910510e-03
3.532000000000000028e+01,9.358461310169260278e-03
3.535999999999999943e+01,5.134730923940782933e-03
3.539999999999999858e+01,9.263713538968491173e-03
3.543999999999999773e+01,7.317596643301233460e-03
3.547999999999999687e+01,7.117773669440757150e-03
3.552000000000000313e+01,1.413162649945180413e-02
3.556000000000000227e+01,6.413692831278032871e-03
3.560000000000000142e+01,1.084526607031423805e-02
3.564000000000000057e+01,7.379280326146772997e-03
3.567999999999999972e+01,8.089536993357140937e-03
3.571999999999999886e+01,5.686194067770889912e-03
3.575999999999999801e+01,2.827006742221532028e-03
3.579999999999999716e+01,1.067454613370203559e-02
3.584000000000000341e+01,1.016891248585294165e-02
3.588000000000000256e+01,1.224486934627013086e-02
3.592000000000000171e+01,2.170860777139612795e-03
3.596000000000000085e+01,1.016935786834743602e-02
3.600000000000000000e+01,3.587942556172149782e-03
3.603999999999999915e+01,4.523949288668952656e-03
3.607999999999999829e+01,6.978445621580415398e-03
3.611999999999999744e+01,5.332178392977730136e-03
3.615999999999999659e+01,7.938092030622604170e-03
3.620000000000000284e+01,1.494805846398010625e-02
3.624000000000000199e+01,4.264743678062445260e-03
3.628000000000000114e+01,1.188174385414961232e-02
3.632000000000000028e+01,1.152525287163977917e-02
3.635999999999999943e+01,1.033324145484328105e-02
3.639999999999999858e+01,7.394479542705306718e-03
3.643999999999999773e+01,6.809503600907806757e-03
3.647999999999999687e+01,7.818955281327389165e-03
3.652000000000000313e+01,8.144759106526415840e-03
3.656000000000000227e+01,9.685311704681291017e-03
3.660000000000000142e+01,6.745424057397486801e-03
3.664000000000000057e+01,1.534756209547335180e-02
3.667999999999999972e+01,1.483717307676958412e-02
3.671999999999999886e+01,1.227629186913083495e-02
3.675999999999999801e+01,1.168951908177336997e-02
3.679999999999999716e+01,9.052254538548243357e-03
3.684000000000000341e+01,9.907815977985966888e-03
3.688000000000000256e+01,1.349684505196306096e-02
3.692000000000000171e+01,1.123859019638802012e-02
3.696000000000000085e+01,1.125818826962546489e-02
3.700000000000000000e+01,1.332783191881192590e-02
3.703999999999999915e+01,1.372666439366127845e-02
3.707999999999999829e+01,9.417251652078822977e-03
3.711999999999999744e+01,1.262526680157747931e-02
3.715999999999999659e+01,8.543218047877524854e-03
3.720000000000000284e+01,1.737004342739139132e-02
3.724000000000000199e+01,1.381910295357145248e-02
3.728000000000000114e+01,1.330537570549044160e-02
3.732000000000000028e+01,1.810693759365326894e-02
3.735999999999999943e+01,1.873180677637994659e-02
3.739999999999999858e+01,1.571153446546410051e-02
3.743999999999999773e+01,1.671564238047605969e-02
3.747999999999999687e+01,1.916231161811536576e-02
3.752000000000000313e+01,2.449432366776414793e-02
3.756000000000000227e+01,2.299188911834527949e-02
3.760000000000000142e+01,1.784431415795225198e-02
3.764000000000000057e+01,1.884732448719520295e-02
3.767999999999999972e+01,2.182444821699380810e-02
3.771999999999999886e+01,2.806659512379882163e-02
3.775999999999999801e+01,3.104328176809285217e-02
3.779999999999999716e+01,2.475557570561853771e-02
3.784000000000000341e+01,2.697246756588557448e-02
3.788000000000000256e+01,3.473245916326492960e-02
3.792000000000000171e+01,3.922699136426803512e-02
3.796000000000000085e+01,4.592344605095955573e-02
3.800000000000000000e+01,5.504963100927035002e-02
3.803999999999999915e+01,5.878415323976599743e-02
3.807999999999999829e+01,6.365749661503113110e-02
3.811999999999999744e+01,7.498517130419918297e-02
3.815999999999999659e+01,9.557680421303500762e-02
3.820000000000000284e+01,1.139660812317501160e-01
3.824000000000000199e+01,1.511112989614140645e-01
3.828000000000000114e+01,1.680573632516515203e-01
3.832000000000000028e+01,2.036074969729736173e-01
3.835999999999999943e+01,2.466750652979206315e-01
3.839999999999999858e+01,2.911851999257693002e-01
3.843999999999999773e+01,3.399475277622845404e-01
3.847999999999999687e+01,4.177930740882871974e-01
3.852000000000000313e+01,4.945753041034240960e-01
3.856000000000000227e+01,5.849498383221108933e-01
3.860000000000000142e+01,6.850439482811301328e-01
3.864000000000000057e+01,7.754180549417938328e-01
3.867999999999999972e+01,8.720946242349002508e-01
3.871999999999999886e+01,9.520650918678731367e-01
3.875999999999999801e+01,9.868535118826051722e-01
3.879999999999999716e+01,1.000000000000000000e+00
3.884000000000000341e+01,9.647751349606611404e-01
3.888000000000000256e+01,9.003906886669473808e-01
3.892000000000000171e+01,8.334242110983902663e-01
3.896000000000000085e+01,7.533965542792557812e-01
3.900000000000000000e+01,6.649398056704857174e-01
3.903999999999999915e+01,5.744325774317333710e-01
3.907999999999999829e+01,5.251583079649869701e-01
3.911999999999999744e+01,4.849961302017850029e-01
3.915999999999999659e+01,4.076251719145782548e-01
3.920000000000000284e+01,3.620711268472304178e-01
3.924000000000000199e+01,3.306409406597647371e-01
3.928000000000000114e+01,2.866811279492509912e-01
3.932000000000000028e+01,2.620088127913550169e-01
3.935999999999999943e+01,2.294389587878865600e-01
3.939999999999999858e+01,2.067405565683551882e-01
3.943999999999999773e+01,1.914836589423919710e-01
3.947999999999999687e+01,1.693923251109771821e-01
3.952000000000000313e+01,1.556537265837864004e-01
3.956000000000000227e+01,1.501919277208875747e-01
3.960000000000000142e+01,1.343267080482497822e-01
3.964000000000000057e+01,1.277254546070255015e-01
3.967999999999999972e+01,1.316031413171997455e-01
3.971999999999999886e+01,1.189266034935135830e-01
3.975999999999999801e+01,1.097429074594480219e-01
3.979999999999999716e+01,9.957183790005982860e-02
3.984000000000000341e+01,9.874067151121920793e-02
3.988000000000000256e+01,8.492426670854119619e-02
3.992000000000000171e+01,8.082744479180660468e-02
3.996000000000000085e+01,8.356464343185220078e-02
4.000000000000000000e+01,7.194975889127860902e-02
4.003999999999999915e+01,6.056247582803579027e-02
4.007999999999999829e+01,5.957819922506247395e-02
4.011999999999999744e+01,5.791029425489870736e-02
4.015999999999999659e+01,4.971170018621856590e-02
4.020000000000000284e+01,4.500595028902935196e-02
4.024000000000000199e+01,4.591924876090461294e-02
4.028000000000000114e+01,3.468260540540194642e-02
4.032000000000000028e+01,3.430458494816508719e-02
4.035999999999999943e+01,3.005363145137996891e-02
4.039999999999999858e+01,2.580247381133151177e-02
4.043999999999999773e+01,2.884095446526145634e-02
4.047999999999999687e+01,2.982896328442123310e-02
4.052000000000000313e+01,2.656436064783889231e-02
4.056000000000000227e+01,2.216051688714223283e-02
4.060000000000000142e+01,2.360353101371017587e-02
4.064000000000000057e+01,1.821211521430289929e-02
4.067999999999999972e+01,1.638948204125629041e-02
4.071999999999999886e+01,2.542547393181212104e-02
4.075999999999999801e+01,1.935002819123138318e-02
4.079999999999999716e+01,1.669149401368091867e-02
4.084000000000000341e+01,1.782955089802289866e-02
4.088000000000000256e+01,1.820804767284843820e-02
4.092000000000000171e+01,1.524516543485706158e-02
4.096000000000000085e+01,2.017941115750748748e-02
4.100000000000000000e+01,2.010168945816272548e-02
4.103999999999999915e+01,1.827724238138198065e-02
4.107999999999999829e+01,1.121302074627626363e-02
4.111999999999999744e+01,1.637427175649244435e-02
4.115999999999999659e+01,1.523264665093104243e-02
4.120000000000000284e+01,1.021809305302848019e-02
4.124000000000000199e+01,1.674559004185741107e-02
4.128000000000000114e+01,1.400871316234713303e-02
4.132000000000000028e+01,1.886522276641876966e-02
4.135999999999999943e+01,1.597607606453272863e-02
4.139999999999999858e+01,1.574448560902486083e-02
4.143999999999999773e+01,1.163996796037779398e-02
4.147999999999999687e+01,1.345824881920175929e-02
4.152000000000000313e+01,1.352980689899375109e-02
4.156000000000000227e+01,1.132309142102744422e-02
4.160000000000000142e+01,9.571793434602085537e-03
4.164000000000000057e+01,1.138928327134541320e-02
4.167999999999999972e+01,1.123224362579430292e-02
4.171999999999999886e+01,8.645059575688167353e-03
4.175999999999999801e+01,1.122131698413163237e-02
4.179999999999999716e+01,1.341769854566157716e-02
4.184000000000000341e+01,1.318393635223748597e-02
4.188000000000000256e+01,7.482596361764676587e-03
4.192000000000000171e+01,1.408266920375281055e-02
4.196000000000000085e+01,1.141837185847406969e-02
4.200000000000000000e+01,1.520842683086401359e-02
4.203999999999999915e+01,1.436619929346271383e-02
4.207999999999999829e+01,1.116976515677509108e-02
4.211999999999999744e+01,1.116244215933162240e-02
4.215999999999999659e+01,1.593888350344590393e-02
4.220000000000000284e+01,1.517181292631506438e-02
4.224000000000000199e+01,1.159492147723835583e-02
4.228000000000000114e+01,1.356115358397748209e-02
4.232000000000000028e+01,1.294537282123515987e-02
4.235999999999999943e+01,1.506308935814478292e-02
4.239999999999999858e+01,1.353569146812036092e-02
4.243999999999999773e+01,1.132467776985826395e-02
4.247999999999999687e+01,1.321400743723187207e-02
4.252000000000000313e+01,1.183790260960098165e-02
4.256000000000000227e+01,1.236000174316754900e-02
4.260000000000000142e+01,1.409688234627387918e-02
4.264000000000000057e+01,1.074586854879968842e-02
4.267999999999999972e+01,1.088771234790385234e-02
4.271999999999999886e+01,1.680048965409131068e-02
4.275999999999999801e+01,1.322109353428813430e-02
4.279999999999999716e+01,1.556450306756704260e-02
4.284000000000000341e+01,1.236440414413953262e-02
4.288000000000000256e+01,1.182186947883589155e-02
4.292000000000000171e+01,1.219037458947850802e-02
4.296000000000000085e+01,1.369772726199814002e-02
4.300000000000000000e+01,1.368617273662864689e-02
4.303999999999999915e+01,1.526908134499777893e-02
4.307999999999999829e+01,9.713829810082612315e-03
4.311999999999999744e+01,1.273914063681869102e-02
4.315999999999999659e+01,1.371399413654034345e-02
4.320000000000000284e+01,1.468865865035540348e-02
4.324000000000000199e+01,1.171446985858062839e-02
4.328000000000000114e+01,1.557431959588042626e-02
4.332000000000000028e+01,1.723184115936905389e-02
4.335999999999999943e+01,1.949666145481144044e-02
4.339999999999999858e+01,1.720514245907299108e-02
4.343999999999999773e+01,1.438188478136996802e-02
4.347999999999999687e+01,1.801298743308136011e-02
4.352000000000000313e+01,2.202358211348403108e-02
4.356000000000000227e+01,1.403612443520101810e-02
4.360000000000000142e+01,1.941319067431293566e-02
4.364000000000000057e+01,1.613338267229772957e-02
4.367999999999999972e+01,1.877638508710528439e-02
4.371999999999999886e+01,2.210262403913530738e-02
4.375999999999999801e+01,2.117626907465034597e-02
4.379999999999999716e+01,1.842726781708677736e-02
4.384000000000000341e+01,2.205669298127489047e-02
4.388000000000000256e+01,2.097790973975477077e-02
4.392000000000000171e+01,2.498664379313661477e-02
4.396000000000000085e+01,2.542620772086321562e-02
4.400000000000000000e+01,2.594152284982224888e-02
4.403999999999999915e+01,2.797537066939594780e-02
4.407999999999999829e+01,2.993309841033801183e-02
4.411999999999999744e+01,3.295374413616777159e-02
4.415999999999999659e+01,3.103837540262784078e-02
4.420000000000000284e+01,3.899448443706524797e-02
4.424000000000000199e+01,3.958463203829760274e-02
4.428000000000000114e+01,4.009866064356670118e-02
4.432000000000000028e+01,5.154726965693406243e-02
4.435999999999999943e+01,5.661708402075159297e-02
4.439999999999999858e+01,6.928030154124351081e-02
4.443999999999999773e+01,7.267916229955598273e-02
4.447999999999999687e+01,8.329174736528163758e-02
4.452000000000000313e+01,8.722179522172929245e-02
4.456000000000000227e+01,1.005677076561630467e-01
4.460000000000000142e+01,1.179380390760512015e-01
4.464000000000000057e+01,1.328782418983420754e-01
4.467999999999999972e+01,1.526781585602774438e-01
4.471999999999999886e+01,1.649602446744804218e-01
4.475999999999999801e+01,1.807351996450124731e-01
4.479999999999999716e+01,2.063816356315268663e-01
4.484000000000000341e+01,2.354450050509719616e-01
4.488000000000000256e+01,2.593445563392563491e-01
4.492000000000000171e+01,2.846867092254302678e-01
4.496000000000000085e+01,2.984864324703910832e-01
4.500000000000000000e+01,3.194239469812371057e-01
4.503999999999999915e+01,3.287430964274717371e-01
4.507999999999999829e+01,3.347208893803909624e-01
4.511999999999999744e+01,3.276375364289175751e-01
4.515999999999999659e+01,3.241989262120413828e-01
4.520000000000000284e+01,3.071676195285800159e-01
4.524000000000000199e+01,2.958313241373573543e-01
4.528000000000000114e+01,2.682445777363169359e-01
4.532000000000000028e+01,2.546298514153448322e-01
4.535999999999999943e+01,2.331935545853162373e-01
4.539999999999999858e+01,2.145667073679639880e-01
4.543999999999999773e+01,1.926744414625649882e-01
4.547999999999999687e+01,1.724525877559241471e-01
4.552000000000000313e+01,1.541289540339721154e-01
4.556000000000000227e+01,1.508404436818104599e-01
4.560000000000000142e+01,1.325164577555517920e-01
4.564000000000000057e+01,1.116864127885718178e-01
4.567999999999999972e+01,1.047524539939975186e-01
4.571999999999999886e+01,9.971671626678045575e-02
4.575999999999999801e+01,8.997278031093755568e-02
4.579999999999999716e+01,8.569605110940754777e-02
4.584000000000000341e+01,8.324160776837007114e-02
4.588000000000000256e+01,7.030784175691386084e-02
4.592000000000000171e+01,7.058674050887391027e-02
4.596000000000000085e+01,6.410717399030230190e-02
4.600000000000000000e+01,5.534935794920958080e-02
4.603999999999999915e+01,5.889297704354561763e-02
4.607999999999999829e+01,5.658936179453953608e-02
4.611999999999999744e+01,4.851444827519071218e-02
4.615999999999999659e+01,4.757733230120338858e-02
4.620000000000000284e+01,4.603255672960891026e-02
4.624000000000000199e+01,4.023520066658686084e-02
4.628000000000000114e+01,4.301842407137582147e-02
4.632000000000000028e+01,3.813195387684765320e-02
4.635999999999999943e+01,3.704210462585811464e-02
4.639999999999999858e+01,3.010502276379580303e-02
4.643999999999999773e+01,2.795172841239368378e-02
4.647999999999999687e+01,2.215334172049169409e-02
4.652000000000000313e+01,2.493553579560272085e-02
4.656000000000000227e+01,2.407263796328122304e-02
4.660000000000000142e+01,2.115930142584074303e-02
4.664000000000000057e+01,2.151103635241463294e-02
4.667999999999999972e+01,2.406474096901661808e-02
4.671999999999999886e+01,2.570704537708625587e-02
4.675999999999999801e+01,1.603473745735503955e-02
4.679999999999999716e+01,1.843606121779517437e-02
4.684000000000000341e+01,1.233239977273303117e-02
4.688000000000000256e+01,1.511306446934975768e-02
4.692000000000000171e+01,1.728607346596533825e-02
4.696000000000000085e+01,1.475089072996513262e-02
4.700000000000000000e+01,1.791072881368500902e-02
4.703999999999999915e+01,1.355274890862515069e-02
4.707999999999999829e+01,1.352294483996994978e-02
4.711999999999999744e+01,1.280955029751624542e-02
4.715999999999999659e+01,1.391844876116608669e-02
4.720000000000000284e+01,1.168600220778492557e-02
4.724000000000000199e+01,7.706863839686314832e-03
4.728000000000000114e+01,6.840928687209328098e-03
4.732000000000000028e+01,6.734185416450654514e-03
4.735999999999999943e+01,1.110749121076370742e-02
4.739999999999999858e+01,4.925546706471690440e-03
4.743999999999999773e+01,8.311354083521295746e-03
4.747999999999999687e+01,7.216780112289903834e-03
4.752000000000000313e+01,9.311346512347865381e-03
4.756000000000000227e+01,4.875263872618025920e-03
4.760000000000000142e+01,8.640088563981709185e-03
4.764000000000000057e+01,7.089238352076282501e-03
4.767999999999999972e+01,9.183144516389109280e-03
4.771999999999999886e+01,1.241592401008549153e-02
4.775999999999999801e+01,1.230736151822220230e-02
4.779999999999999716e+01,8.857457257332924938e-03
4.784000000000000341e+01,8.824502669399473045e-03
4.788000000000000256e+01,8.487641004135735787e-03
4.792000000000000171e+01,8.530295186266780016e-03
4.796000000000000085e+01,9.104337145257683159e-03
4.800000000000000000e+01,7.779819690739425177e-03
4.803999999999999915e+01,5.999524312094138730e-03
4.807999999999999829e+01,1.036987073837222599e-02
4.811999999999999744e+01,6.994597452882504902e-03
4.815999999999999659e+01,1.037745325710917252e-02
4.820000000000000284e+01,7.913086194278122834e-03
4.824000000000000199e+01,7.726633122753927795e-03
4.828000000000000114e+01,6.628788287510459058e-03
4.832000000000000028e+01,7.125435168449802126e-03
4.835999999999999943e+01,8.760958843311369634e-03
4.839999999999999858e+01,9.864770686383210821e-03
4.843999999999999773e+01,1.149997290471893585e-02
4.847999999999999687e+01,8.351055762252543660e-03
4.852000000000000313e+01,5.429786002254543588e-03
4.856000000000000227e+01,5.317982961092705164e-03
4.860000000000000142e+01,7.028480721246463739e-03
4.864000000000000057e+01,7.296037671224019083e-03
4.867999999999999972e+01,9.082152429721679701e-03
4.871999999999999886e+01,7.071315260673441926e-03
4.875999999999999801e+01,6.806843902609810600e-03
4.879999999999999716e+01,8.516546141461538502e-03
4.884000000000000341e+01,3.012183561411471006e-03
4.888000000000000256e+01,6.619965519120784778e-03
4.892000000000000171e+01,8.481064756526719706e-03
4.896000000000000085e+01,7.456443643177304050e-03
4.900000000000000000e+01,7.570702788288787011e-03
4.903999999999999915e+01,9.203521690723401316e-03
4.907999999999999829e+01,6.431903762689462033e-03
4.911999999999999744e+01,6.393819728497346019e-03
4.915999999999999659e+01,9.772692512872091508e-03
4.920000000000000284e+01,7.532155412927942287e-03
4.924000000000000199e+01,9.771677555137928128e-03
4.928000000000000114e+01,7.910507375410548783e-03
4.932000000000000028e+01,1.121281957909602695e-02
4.935999999999999943e+01,1.352781000900556141e-02
4.939999999999999858e+01,6.046919531650505296e-03
4.943999999999999773e+01,9.348765465771820618e-03
4.947999999999999687e+01,9.461150438212622207e-03
4.952000000000000313e+01,6.611882234903723558e-03
4.956000000000000227e+01,1.074855826938670052e-02
4.960000000000000142e+01,5.544969618067702340e-03
4.964000000000000057e+01,8.162620058730755274e-03
4.967999999999999972e+01,6.679580342793096925e-03
4.971999999999999886e+01,9.524730754482178471e-03
4.975999999999999801e+01,8.345127299103622873e-03
4.979999999999999716e+01,3.824192901382468795e-03
4.984000000000000341e+01,6.289204257188886135e-03
4.988000000000000256e+01,4.197911400268697010e-03
4.992000000000000171e+01,6.662617323040728734e-03
4.996000000000000085e+01,4.343211896756344996e-03
5.000000000000000000e+01,5.516703692711569067e-03
5.003999999999999915e+01,6.765979386483153731e-03
5.007999999999999829e+01,6.496386208824833121e-03
5.011999999999999744e+01,4.859796089201713284e-03
5.015999999999999659e+01,6.184553062692925256e-03
5.020000000000000284e+01,5.686698388492400155e-03
5.024000000000000199e+01,7.390832675816440961e-03
5.028000000000000114e+01,5.449895193339059779e-03
5.032000000000000028e+01,9.811483354601899243e-03
5.035999999999999943e+01,6.275592217050918881e-03
5.039999999999999858e+01,8.510676161047503463e-03
5.043999999999999773e+01,5.885715497926006547e-03
5.047999999999999687e+01,6.601782942516714464e-03
5.052000000000000313e+01,7.013957600999243779e-03
5.056000000000000227e+01,3.856997861881743522e-03
5.060000000000000142e+01,7.458180421034367978e-03
5.064000000000000057e+01,8.097715867379976992e-03
5.067999999999999972e+01,6.307155412712216018e-03
5.071999999999999886e+01,8.768854642547193809e-03
5.075999999999999801e+01,9.104201830298960796e-03
5.079999999999999716e+01,9.667208742938181512e-03
5.084000000000000341e+01,8.483543328890091884e-03
5.088000000000000256e+01,8.438768350385291231e-03
5.092000000000000171e+01,8.469782033437539548e-03
5.096000000000000085e+01,7.513482604060589022e-03
5.100000000000000000e+01,9.518534815004956254e-03
5.103999999999999915e+01,6.359802240973424711e-03
5.107999999999999829e+01,3.656538476962158113e-03
5.111999999999999744e+01,9.609816237801450597e-03
5.115999999999999659e+01,6.830324609377483834e-03
5.120000000000000284e+01,6.556570565148947018e-03
5.124000000000000199e+01,1.068695073329223831e-02
5.128000000000000114e+01,6.084562161773295237e-03
5.132000000000000028e+01,8.695934924924755491e-03
5.135999999999999943e+01,9.256894750463753527e-03
5.139999999999999858e+01,6.552468151472570258e-03
5.143999999999999773e+01,9.543086407438639354e-03
5.147999999999999687e+01,6.990242977970612288e-03
5.152000000000000313e+01,6.335652013241653210e-03
5.156000000000000227e+01,7.275570303922619143e-03
5.160000000000000142e+01,8.139409224301591417e-03
5.164000000000000057e+01,6.876900866338032589e-03
5.167999999999999972e+01,6.905158987522565239e-03
5.171999999999999886e+01,8.831670656114553111e-03
5.175999999999999801e+01,5.670337293802340216e-03
5.179999999999999716e+01,9.646832008098871550e-03
5.184000000000000341e+01,8.687353837489985436e-03
5.188000000000000256e+01,6.360888252397684656e-03
5.192000000000000171e+01,7.982945421955314411e-03
5.196000000000000085e+01,4.820902069139951750e-03
5.200000000000000000e+01,8.872623732067369887e-03
5.203999999999999915e+01,8.671796300949084074e-03
5.207999999999999829e+01,1.006548094017840900e-02
5.211999999999999744e+01,1.054779460292061197e-02
5.215999999999999659e+01,7.309110816478068054e-03
5.220000000000000284e+01,8.930181578009651136e-03
5.224000000000000199e+01,8.880523447998025371e-03
5.228000000000000114e+01,1.057725018393376390e-02
5.232000000000000028e+01,1.045137674846216731e-02
5.235999999999999943e+01,9.793812918033996742e-03
5.239999999999999858e+01,9.515789186771438785e-03
5.243999999999999773e+01,1.197131732164513802e-02
5.247999999999999687e+01,8.883389184426418797e-03
5.252000000000000313e+01,6.706552791234295270e-03
5.256000000000000227e+01,8.478242617230770384e-03
5.260000000000000142e+01,7.592039366432805185e-03
5.264000000000000057e+01,8.907838069179489782e-03
5.267999999999999972e+01,8.552910262253287169e-03
5.271999999999999886e+01,6.603192018653575128e-03
5.275999999999999801e+01,1.004478234975930521e-02
5.279999999999999716e+01,7.335431289316331205e-03
5.284000000000000341e+01,9.333966528454707909e-03
5.288000000000000256e+01,6.320598656097336371e-03
5.292000000000000171e+01,7.331694808197326482e-03
5.296000000000000085e+01,9.102013373262782606e-03
5.300000000000000000e+01,9.505350586787550057e-03
5.303999999999999915e+01,8.845450091168150647e-03
5.307999999999999829e+01,1.015974636156657777e-02
5.311999999999999744e+01,1.230920176753089873e-02
5.315999999999999659e+01,7.244615740229585349e-03
5.320000000000000284e+01,1.030503150226955503e-02
5.324000000000000199e+01,5.012368417125590697e-03
5.328000000000000114e+01,1.073027010008724587e-02
5.332000000000000028e+01,7.715414086603756584e-03
5.335999999999999943e+01,1.236994558980196966e-02
5.339999999999999858e+01,7.076746126171013819e-03
5.343999999999999773e+01,1.021229317694623620e-02
5.347999999999999687e+01,1.220866904398189637e-02
5.352000000000000313e+01,1.040811896751183720e-02
5.356000000000000227e+01,6.329360293383943896e-03
5.360000000000000142e+01,9.008760157551266509e-03
5.364000000000000057e+01,9.258080144196640868e-03
5.367999999999999972e+01,1.148160014486489765e-02
5.371999999999999886e+01,1.127504070107857026e-02
5.375999999999999801e+01,6.360326335400011064e-03
5.379999999999999716e+01,7.975964021287891906e-03
5.384000000000000341e+01,9.819277888622027911e-03
5.388000000000000256e+01,8.549090469444825535e-03
5.392000000000000171e+01,1.084775734927241088e-02
5.396000000000000085e+01,1.026073094505314948e-02
5.400000000000000000e+01,1.415378955049450410e-02
5.403999999999999915e+01,7.567569658385406642e-03
5.407999999999999829e+01,9.561971458152580816e-03
5.411999999999999744e+01,9.278167691733268246e-03
5.415999999999999659e+01,7.703324709715334354e-03
5.420000000000000284e+01,9.089850690712178438e-03
5.424000000000000199e+01,7.666620759863573831e-03
5.428000000000000114e+01,9.052888512165655627e-03
5.432000000000000028e+01,9.679668910263752174e-03
5.435999999999999943e+01,7.876373328445963884e-03
5.439999999999999858e+01,7.136051380668539251e-03
5.443999999999999773e+01,1.224266224080486007e-02
5.447999999999999687e+01,7.021868698192496559e-03
5.452000000000000313e+01,1.038169922932677749e-02
5.456000000000000227e+01,1.161519828907630475e-02
5.460000000000000142e+01,1.292450593148032449e-02
5.464000000000000057e+01,1.165186739677272904e-02
5.467999999999999972e+01,9.923486882526961692e-03
5.471999999999999886e+01,8.726530739330986761e-03
5.475999999999999801e+01,6.770089623801388984e-03
5.479999999999999716e+01,1.126807011671422318e-02
5.484000000000000341e+01,8.552018270775445241e-03
5.488000000000000256e+01,7.886108791335329909e-03
5.492000000000000171e+01,9.801892890187449345e-03
5.496000000000000085e+01,8.300438123074448463e-03
5.500000000000000000e+01,1.044377935784098453e-02
5.503999999999999915e+01,7.954908456258402705e-03
5.507999999999999829e+01,1.184452482238821693e-02
5.511999999999999744e+01,1.269658247101613201e-02
5.515999999999999659e+01,8.460813494101677296e-03
5.520000000000000284e+01,8.173585027597917579e-03
5.524000000000000199e+01,8.189976177684479830e-03
5.528000000000000114e+01,1.086399871133203812e-02
5.532000000000000028e+01,1.004484847135176002e-02
5.535999999999999943e+01,6.871563521262982234e-03
5.539999999999999858e+01,6.963397456061866733e-03
5.543999999999999773e+01,7.586659659516562827e-03
5.547999999999999687e+01,9.880388195146347363e-03
5.552000000000000313e+01,1.004779045619942114e-02
5.556000000000000227e+01,1.226533876482350377e-02
5.560000000000000142e+01,8.939447690981264932e-03
5.564000000000000057e+01,7.284023815448806283e-03
5.567999999999999972e+01,9.653078905196812304e-03
5.571999999999999886e+01,8.073348247859395491e-03
5.575999999999999801e+01,1.226462168758107527e-02
5.579999999999999716e+01,7.571279143013573409e-03
5.584000000000000341e+01,7.813646707449715609e-03
5.588000000000000256e+01,8.131829783617728138e-03
5.592000000000000171e+01,8.677700300982704035e-03
5.596000000000000085e+01,8.767835767886951806e-03
5.600000000000000000e+01,8.250364687932687860e-03
5.603999999999999915e+01,7.580902416447846300e-03
5.607999999999999829e+01,8.505973868677433811e-03
5.611999999999999744e+01,8.291888428389548524e-03
5.615999999999999659e+01,7.166453881514996994e-03
5.620000000000000284e+01,9.533950119598637654e-03
5.624000000000000199e+01,1.266068652640851659e-02
5.628000000000000114e+01,1.168676850467294942e-02
5.632000000000000028e+01,9.421822960156835819e-03
5.635999999999999943e+01,1.087761663613070855e-02
5.639999999999999858e+01,1.035896051419995904e-02
5.643999999999999773e+01,1.189045520358089809e-02
5.647999999999999687e+01,1.038439853760467040e-02
5.652000000000000313e+01,1.366218394877298688e-02
5.656000000000000227e+01,7.599742350997552680e-03
5.660000000000000142e+01,6.169271550502642212e-03
5.664000000000000057e+01,9.218900050890412035e-03
5.667999999999999972e+01,1.173686154195778195e-02
5.671999999999999886e+01,9.242940708761504184e-03
5.675999999999999801e+01,1.244409352950033402e-02
5.679999999999999716e+01,1.093710788490569533e-02
5.684000000000000341e+01,1.132840350402799547e-02
5.688000000000000256e+01,9.213700928389781733e-03
5.692000000000000171e+01,8.997280049535830160e-03
5.696000000000000085e+01,1.105882036632838128e-02
5.700000000000000000e+01,1.076623485089281927e-02
5.703999999999999915e+01,8.575138858557061761e-03
5.707999999999999829e+01,8.358261285605966470e-03
5.711999999999999744e+01,9.280307927450390584e-03
5.715999999999999659e+01,9.442882588981302630e-03
5.720000000000000284e+01,1.066844604190934215e-02
5.724000000000000199e+01,9.388013248879846159e-03
5.728000000000000114e+01,1.068928680962905921e-02
5.732000000000000028e+01,1.001611555274802175e-02
5.735999999999999943e+01,1.169684351331587782e-02
5.739999999999999858e+01,1.087157609406089881e-02
5.743999999999999773e+01,1.247614418178783977e-02
5.747999999999999687e+01,9.068834059390833841e-03
5.752000000000000313e+01,1.181221684386289141e-02
5.756000000000000227e+01,1.060682384179826264e-02
5.760000000000000142e+01,9.401319805947534400e-03
5.764000000000000057e+01,8.499448378707228496e-03
5.767999999999999972e+01,1.283704044688211213e-02
5.771999999999999886e+01,9.201257201972394550e-03
5.775999999999999801e+01,9.741835895025269948e-03
5.779999999999999716e+01,1.149727834041174880e-02
5.784000000000000341e+01,9.000203089134396067e-03
5.788000000000000256e+01,1.318537368878904860e-02
5.792000000000000171e+01,8.485939780438964825e-03
5.796000000000000085e+01,1.191153342893667283e-02
5.800000000000000000e+01,8.806534552933960314e-03
5.803999999999999915e+01,1.025757841295806168e-02
5.807999999999999829e+01,1.239193654579147374e-02
5.811999999999999744e+01,1.164062391407952313e-02
5.815999999999999659e+01,1.058545985418996201e-02
5.820000000000000284e+01,1.294730154947627138e-02
5.824000000000000199e+01,9.917589866449782673e-03
5.828000000000000114e+01,1.235515249624061923e-02
5.832000000000000028e+01,1.107175102303165591e-02
5.835999999999999943e+01,1.540749600863875780e-02
5.839999999999999858e+01,1.184580521869933734e-02
5.843999999999999773e+01,1.337171032538337669e-02
5.847999999999999687e+01,9.961678491750922820e-03
5.852000000000000313e+01,1.186705055720637010e-02
5.856000000000000227e+01,1.248140722576669519e-02
5.860000000000000142e+01,1.674057938423670691e-02
5.864000000000000057e+01,1.196327921937653284e-02
5.867999999999999972e+01,1.265325553267037870e-02
5.871999999999999886e+01,9.698205764766799908e-03
5.875999999999999801e+01,1.312166318567305721e-02
5.879999999999999716e+01,1.570972164768047463e-02
5.884000000000000341e+01,1.579179252507707104e-02
5.888000000000000256e+01,1.412723459905364763e-02
5.892000000000000171e+01,1.314599549304653649e-02
5.896000000000000085e+01,8.519731605043986272e-03
5.900000000000000000e+01,1.239818018609322413e-02
5.903999999999999915e+01,8.607004025531701449e-03
5.907999999999999829e+01,1.316866905415784404e-02
5.911999999999999744e+01,1.173129861648627460e-02
5.915999999999999659e+01,1.295158056614144695e-02
5.920000000000000284e+01,1.014715975067464332e-02
5.924000000000000199e+01,1.038007103793052617e-02
5.928000000000000114e+01,1.235940508452566637e-02
5.932000000000000028e+01,1.168088243198260254e-02
5.935999999999999943e+01,9.939156282614904775e-03
5.939999999999999858e+01,1.138663481503599494e-02
5.943999999999999773e+01,1.131529514490548817e-02
5.947999999999999687e+01,1.139572633100271494e-02
5.952000000000000313e+01,1.140012102046420762e-02
5.956000000000000227e+01,1.307500412853493041e-02
5.960000000000000142e+01,1.512946631183150446e-02
5.964000000000000057e+01,9.893986283850965749e-03
5.967999999999999972e+01,1.111295428142034143e-02
5.971999999999999886e+01,1.263556614735086500e-02
5.975999999999999801e+01,1.575273165809325943e-02
5.979999999999999716e+01,1.211150681895317716e-02
5.984000000000000341e+01,1.188729661286931812e-02
5.988000000000000256e+01,1.135924428955562178e-02
5.992000000000000171e+01,1.493162974055687979e-02
5.996000000000000085e+01,1.311247112419305569e-02
