2.003999999999999915e+01,4.520219194098824486e-03
2.007999999999999829e+01,3.506014556203493858e-03
2.012000000000000099e+01,4.859166070748994169e-03
2.016000000000000014e+01,2.422144669594747043e-03
2.019999999999999929e+01,7.720585432325829944e-03
2.023999999999999844e+01,2.755554727579419792e-03
2.028000000000000114e+01,0.000000000000000000e+00
2.032000000000000028e+01,4.822025956302801453e-03
2.035999999999999943e+01,9.011593404049477937e-03
2.039999999999999858e+01,9.726766552792765960e-03
2.044000000000000128e+01,2.862526458675445935e-03
2.048000000000000043e+01,4.365299238218688267e-03
2.051999999999999957e+01,9.656409765036745238e-03
2.055999999999999872e+01,6.894454780638603619e-03
2.060000000000000142e+01,1.439414131418839150e-02
2.064000000000000057e+01,8.314776149803323677e-03
2.067999999999999972e+01,1.218128432446242623e-02
2.071999999999999886e+01,1.573111652143652575e-02
2.076000000000000156e+01,1.170154591334453958e-02
2.080000000000000071e+01,1.477591546329789889e-02
2.083999999999999986e+01,1.342859270115789178e-02
2.087999999999999901e+01,1.081728681517291589e-02
2.092000000000000171e+01,1.152067554117722561e-02
2.096000000000000085e+01,1.601241636642381644e-02
2.100000000000000000e+01,6.925117236254366496e-03
2.103999999999999915e+01,9.204671735233520974e-03
2.107999999999999829e+01,9.904478845636882980e-03
2.112000000000000099e+01,1.060339381395075664e-02
2.116000000000000014e+01,1.303815728083770713e-02
2.119999999999999929e+01,1.610357279178864162e-02
2.123999999999999844e+01,1.664193376800367566e-02
2.128000000000000114e+01,1.828460558025993624e-02
2.132000000000000028e+01,1.850542322646233154e-02
2.135999999999999943e+01,1.809381498221632883e-02
2.139999999999999858e+01,1.531304281630787786e-02
2.144000000000000128e+01,1.521544064709986696e-02
2.148000000000000043e+01,1.432753110744010468e-02
2.151999999999999957e+01,1.012314919523356511e-02
2.155999999999999872e+01,1.239119065412933041e-02
2.160000000000000142e+01,1.481624102180354938e-02
2.164000000000000057e+01,1.913504093891865016e-02
2.167999999999999972e+01,1.445349951204084535e-02
2.171999999999999886e+01,1.134993945570026731e-02
2.176000000000000156e+01,1.187687219891174484e-02
2.180000000000000071e+01,1.635006983475205053e-02
2.183999999999999986e+01,1.277024371055391488e-02
2.187999999999999901e+01,1.408399745349045266e-02
2.192000000000000171e+01,2.076498855081462119e-02
2.196000000000000085e+01,2.144546992656390025e-02
2.200000000000000000e+01,9.178485541709583556e-03
2.203999999999999915e+01,1.569900093039326358e-02
2.207999999999999829e+01,2.095557233696107927e-02
2.212000000000000099e+01,1.168582795533625908e-02
2.216000000000000014e+01,2.436129514494629958e-02
2.219999999999999929e+01,1.619503338876410875e-02
2.223999999999999844e+01,1.402756100146872360e-02
2.228000000000000114e+01,1.596425455767007395e-02
2.232000000000000028e+01,4.795607396886062551e-03
2.235999999999999943e+01,1.620371990766332135e-02
2.239999999999999858e+01,1.040147406232260624e-02
2.244000000000000128e+01,1.059802410949017663e-02
2.248000000000000043e+01,1.221469492278056367e-02
2.251999999999999957e+01,1.146223834668906420e-02
2.255999999999999872e+01,8.340655685939965189e-03
2.260000000000000142e+01,1.169153031912508259e-02
2.264000000000000057e+01,1.172596911204405561e-02
2.267999999999999972e+01,1.570670150152654251e-02
2.271999999999999886e+01,1.526580290095800804e-02
2.276000000000000156e+01,1.371886789276306924e-02
2.280000000000000071e+01,2.006536524970976496e-02
2.283999999999999986e+01,1.393808042779189765e-02
2.287999999999999901e+01,2.296695871256961008e-02
2.292000000000000171e+01,2.125879676386968620e-02
2.296000000000000085e+01,9.603022857297381643e-03
2.300000000000000000e+01,1.878729016193702098e-02
2.303999999999999915e+01,1.328738629286670657e-02
2.307999999999999829e+01,2.104902732399917265e-02
2.312000000000000099e+01,1.665266609768957864e-02
2.316000000000000014e+01,1.730781188386863734e-02
2.319999999999999929e+01,1.733059179691728499e-02
2.323999999999999844e+01,1.956294423673150470e-02
2.328000000000000114e+01,1.989985025945423258e-02
2.332000000000000028e+01,2.434095614850562833e-02
2.335999999999999943e+01,1.536098445505114894e-02
2.339999999999999858e+01,1.237983996748841416e-02
2.344000000000000128e+01,1.729214872065617387e-02
2.348000000000000043e+01,1.936170521529674560e-02
2.351999999999999957e+01,1.243098038326245248e-02
2.355999999999999872e+01,1.655142058965568264e-02
2.360000000000000142e+01,1.403986299146573608e-02
2.364000000000000057e+01,1.452731793816542348e-02
2.367999999999999972e+01,2.211880698306035314e-02
2.371999999999999886e+01,9.973814420920070617e-03
2.376000000000000156e+01,1.598483615875800554e-02
2.380000000000000071e+01,1.915311607586323017e-02
2.383999999999999986e+01,2.105750941872209722e-02
2.387999999999999901e+01,2.359264222217333229e-02
2.392000000000000171e+01,2.202195396565512914e-02
2.396000000000000085e+01,1.745064371312522386e-02
2.400000000000000000e+01,1.950972181405641326e-02
2.403999999999999915e+01,1.335796252060974208e-02
2.407999999999999829e+01,1.746795825612551881e-02
2.412000000000000099e+01,2.457698219322261568e-02
2.416000000000000014e+01,1.621244451800929465e-02
2.419999999999999929e+01,1.953063433351717379e-02
2.423999999999999844e+01,1.053297302968742369e-02
2.428000000000000114e+01,1.416535419108465137e-02
2.432000000000000028e+01,2.111254086603717509e-02
2.435999999999999943e+01,1.937524440187764554e-02
2.439999999999999858e+01,1.795293357137405649e-02
2.444000000000000128e+01,2.063485913947964503e-02
2.448000000000000043e+01,1.763212797199402784e-02
2.451999999999999957e+01,2.504905157961439394e-02
2.455999999999999872e+01,1.557145807458161675e-02
2.460000000000000142e+01,1.856603207839406869e-02
2.464000000000000057e+01,1.824423547815564109e-02
2.467999999999999972e+01,1.934263140387670887e-02
2.471999999999999886e+01,1.870351327675748992e-02
2.476000000000000156e+01,2.027401725592747894e-02
2.480000000000000071e+01,2.626454016457778484e-02
2.483999999999999986e+01,1.409747194023541934e-02
2.487999999999999901e+01,1.834971521221357912e-02
2.492000000000000171e+01,2.054868016662061286e-02
2.496000000000000085e+01,1.927339956059491780e-02
2.500000000000000000e+01,1.973409270667561555e-02
2.503999999999999915e+01,1.735208447847708460e-02
2.507999999999999829e+01,1.607451103512871210e-02
2.512000000000000099e+01,2.632180969698432599e-02
2.516000000000000014e+01,2.267443330639926785e-02
2.519999999999999929e+01,2.770999453529511894e-02
2.523999999999999844e+01,1.932453950372749196e-02
2.528000000000000114e+01,1.551700445250807359e-02
2.532000000000000028e+01,2.212915027088077635e-02
2.535999999999999943e+01,1.326777361867225238e-02
2.539999999999999858e+01,1.940475687661436660e-02
2.544000000000000128e+01,1.622575064629587158e-02
2.548000000000000043e+01,1.525639000730404093e-02
2.551999999999999957e+01,1.870707178283003563e-02
2.555999999999999872e+01,1.678890283867348968e-02
2.560000000000000142e+01,1.708038340001647934e-02
2.564000000000000057e+01,1.452918215794477171e-02
2.567999999999999972e+01,2.255555892216013977e-02
2.571999999999999886e+01,1.447688338160822707e-02
2.576000000000000156e+01,1.587059069755852869e-02
2.580000000000000071e+01,1.584258997657719825e-02
2.583999999999999986e+01,1.581385107097443496e-02
2.587999999999999901e+01,9.784730306778665135e-03
2.592000000000000171e+01,2.112226732679263475e-02
2.596000000000000085e+01,1.572321829368033066e-02
2.600000000000000000e+01,8.270926170553085169e-03
2.603999999999999915e+01,1.376450470887473701e-02
2.607999999999999829e+01,1.388924948892980918e-02
2.612000000000000099e+01,1.259229666984764892e-02
2.616000000000000014e+01,1.397866780493396861e-02
2.619999999999999929e+01,1.299603158527449370e-02
2.623999999999999844e+01,1.832808599528483115e-02
2.628000000000000114e+01,1.497571989294974558e-02
2.632000000000000028e+01,1.256994362774209277e-02
2.635999999999999943e+01,1.379481020538168845e-02
2.639999999999999858e+01,1.817666474806416826e-02
2.644000000000000128e+01,1.340044781476987246e-02
2.648000000000000043e+01,1.130756527343849613e-02
2.651999999999999957e+01,1.300321618802774762e-02
2.655999999999999872e+01,1.169832991368511058e-02
2.660000000000000142e+01,1.355043812800694678e-02
2.664000000000000057e+01,1.524394885801721999e-02
2.667999999999999972e+01,8.095166728748933588e-03
2.671999999999999886e+01,6.313778520784863076e-03
2.676000000000000156e+01,1.053132711555413575e-02
2.680000000000000071e+01,1.001160701379910471e-02
2.683999999999999986e+01,1.691179487181191168e-02
2.687999999999999901e+01,1.118044693393878929e-02
2.692000000000000171e+01,1.444786350704410118e-02
2.696000000000000085e+01,9.346652536469636507e-03
2.700000000000000000e+01,1.419152105137948608e-02
2.703999999999999915e+01,1.619375342822532149e-02
2.707999999999999829e+01,1.109044532897394096e-02
2.712000000000000099e+01,1.056511722738876814e-02
2.716000000000000014e+01,1.888067607095171921e-02
2.719999999999999929e+01,1.298585561466110948e-02
2.723999999999999844e+01,9.458623551742789681e-03
2.728000000000000114e+01,1.082514749374038736e-02
2.732000000000000028e+01,8.401732065686869436e-03
2.735999999999999943e+01,8.661679733530954980e-03
2.739999999999999858e+01,1.097345022529216778e-02
2.744000000000000128e+01,9.653170655351372975e-03
2.748000000000000043e+01,9.437404153719089472e-03
2.751999999999999957e+01,1.301020372611509136e-02
2.755999999999999872e+01,1.042479084416272385e-02
2.760000000000000142e+01,1.573296689426857686e-02
2.764000000000000057e+01,6.041351025607218962e-03
2.767999999999999972e+01,5.190639063509925114e-03
2.771999999999999886e+01,4.812906421362127089e-03
2.776000000000000156e+01,1.106568477676015197e-02
2.780000000000000071e+01,1.305488323627009527e-02
2.783999999999999986e+01,1.141204468132112071e-02
2.787999999999999901e+01,6.926597387518542044e-03
2.792000000000000171e+01,9.071666310159015589e-03
2.796000000000000085e+01,7.111045949984858873e-03
2.800000000000000000e+01,1.193882980987851991e-02
2.803999999999999915e+01,1.502920790904926050e-02
2.807999999999999829e+01,1.480332761045931658e-02
2.812000000000000099e+01,9.050794700366125364e-03
2.816000000000000014e+01,9.297244258356972615e-03
2.819999999999999929e+01,1.017457418716516925e-02
2.823999999999999844e+01,7.735650937109909801e-03
2.828000000000000114e+01,1.176937025184020963e-02
2.832000000000000028e+01,4.276798499992996716e-03
2.835999999999999943e+01,7.046121382608897497e-03
2.839999999999999858e+01,1.170941431307329084e-02
2.844000000000000128e+01,1.337223137664819185e-02
2.848000000000000043e+01,4.140304169247579526e-03
2.851999999999999957e+01,6.591245362793173024e-03
2.855999999999999872e+01,1.456752588913722349e-02
2.860000000000000142e+01,1.070175369362146717e-02
2.864000000000000057e+01,9.361500951004918941e-03
2.867999999999999972e+01,5.810207140725658949e-03
2.871999999999999886e+01,7.626372487965916123e-03
2.876000000000000156e+01,8.968238712930384771e-03
2.880000000000000071e+01,1.173043185045778529e-02
2.883999999999999986e+01,9.913308226576694054e-03
2.887999999999999901e+01,1.077959727811680576e-02
2.892000000000000171e+01,1.006639466704490476e-02
2.896000000000000085e+01,6.984274727204253796e-03
2.900000000000000000e+01,4.059405070138462183e-03
2.903999999999999915e+01,1.265953538125861103e-02
2.907999999999999829e+01,1.636458597096366457e-02
2.912000000000000099e+01,1.517455814397788115e-02
2.916000000000000014e+01,1.019465096425905409e-02
2.919999999999999929e+01,1.358204108809927396e-02
2.923999999999999844e+01,9.706075796778549161e-03
2.928000000000000114e+01,1.372375423593687020e-02
2.932000000000000028e+01,6.530945014977679493e-03
2.935999999999999943e+01,6.284469768888951632e-03
2.939999999999999858e+01,1.045816349557564078e-02
2.944000000000000128e+01,3.895029658846390578e-03
2.948000000000000043e+01,9.804222507327636088e-03
2.951999999999999957e+01,1.239720392812320056e-02
2.955999999999999872e+01,1.009512128419533770e-02
2.960000000000000142e+01,7.950308493906904639e-03
2.964000000000000057e+01,1.259395341738281035e-02
2.967999999999999972e+01,9.184830306784087448e-03
2.971999999999999886e+01,1.335359449027934305e-02
2.976000000000000156e+01,1.641655059290163254e-02
2.980000000000000071e+01,2.026832464948968848e-02
2.983999999999999986e+01,2.364583481135817955e-02
2.987999999999999901e+01,3.081198802598894906e-02
2.992000000000000171e+01,4.081947323304908198e-02
2.996000000000000085e+01,5.398406252561527979e-02
3.000000000000000000e+01,5.609607173255341805e-02
3.003999999999999915e+01,5.789170896256972537e-02
3.007999999999999829e+01,4.516129004453003914e-02
3.012000000000000099e+01,3.337758491242675402e-02
3.016000000000000014e+01,2.538253196615593635e-02
3.019999999999999929e+01,1.991304935703218024e-02
3.023999999999999844e+01,1.870587772571806126e-02
3.028000000000000114e+01,1.355097787977524275e-02
3.032000000000000028e+01,1.581609950461476677e-02
3.035999999999999943e+01,1.302829776504076456e-02
3.039999999999999858e+01,1.387127064546879625e-02
3.044000000000000128e+01,7.450927252465042346e-03
3.048000000000000043e+01,6.398100424850192668e-03
3.051999999999999957e+01,9.923364496467527301e-03
3.055999999999999872e+01,1.392170052346003786e-02
3.060000000000000142e+01,8.919986159979716514e-03
3.064000000000000057e+01,1.307504304101441729e-02
3.067999999999999972e+01,9.019479111905979660e-03
3.071999999999999886e+01,9.699897999827414297e-03
3.076000000000000156e+01,1.180070773180279080e-02
3.080000000000000071e+01,1.326939948826572936e-02
3.083999999999999986e+01,3.527653164134772566e-03
3.087999999999999901e+01,6.574049978917434305e-03
3.092000000000000171e+01,9.619874309065400489e-03
3.096000000000000085e+01,1.361243982436019170e-02
3.100000000000000000e+01,8.604967996425188712e-03
3.103999999999999915e+01,9.438687182547986568e-03
3.107999999999999829e+01,1.232434922722398449e-02
3.112000000000000099e+01,4.157467718552439531e-03
3.116000000000000014e+01,4.515832839107088506e-03
3.119999999999999929e+01,2.347468301277908995e-03
3.123999999999999844e+01,7.125499060361466241e-03
3.128000000000000114e+01,4.798126339399857825e-03
3.132000000000000028e+01,6.575214429627941962e-03
3.135999999999999943e+01,1.089016255083217295e-03
3.139999999999999858e+01,7.601551209987059653e-03
3.144000000000000128e+01,9.376968816385989475e-03
3.148000000000000043e+01,7.046811955709188051e-03
3.151999999999999957e+01,8.505351641491168749e-03
3.155999999999999872e+01,5.068892498764954006e-03
3.160000000000000142e+01,5.421132511946171600e-03
3.164000000000000057e+01,3.246657218710866707e-03
3.167999999999999972e+01,1.212361182293704778e-02
3.171999999999999886e+01,7.421876137860974366e-03
3.176000000000000156e+01,1.140329204705190468e-02
3.180000000000000071e+01,6.542582101675334730e-03
3.183999999999999986e+01,7.207318476490278542e-03
3.187999999999999901e+01,1.118710695775415251e-02
3.192000000000000171e+01,1.185076229479064755e-02
3.196000000000000085e+01,1.172445209914331488e-02
3.200000000000000000e+01,1.096606306971274064e-02
3.203999999999999915e+01,5.628461656818047401e-03
3.207999999999999829e+01,8.658251487632351653e-03
3.211999999999999744e+01,1.168750797554113721e-02
3.215999999999999659e+01,9.348129023277699373e-03
3.220000000000000284e+01,1.079746879778624782e-02
3.224000000000000199e+01,1.050953980762388794e-02
3.228000000000000114e+01,6.431833233224313641e-03
3.232000000000000028e+01,5.353422328888602158e-03
3.235999999999999943e+01,5.695454457579009373e-03
3.239999999999999858e+01,9.826211836662936475e-03
3.243999999999999773e+01,1.032508224458304584e-02
3.247999999999999687e+01,9.086691716178091696e-03
3.252000000000000313e+01,1.226857192904440112e-02
3.256000000000000227e+01,1.166068369074357326e-02
3.260000000000000142e+01,6.473601335118925500e-03
3.264000000000000057e+01,1.565357346803937164e-02
3.267999999999999972e+01,7.307751770635752611e-03
3.271999999999999886e+01,1.206590401781621608e-02
3.275999999999999801e+01,1.398160670250829345e-02
3.279999999999999716e+01,9.107726275031230445e-03
3.284000000000000341e+01,8.812012420796037915e-03
3.288000000000000256e+01,1.214715407946981296e-02
3.292000000000000171e+01,7.113862598385280872e-03
3.296000000000000085e+01,1.439512591934961547e-02
3.300000000000000000e+01,1.315007331582803383e-02
3.303999999999999915e+01,9.062580282888234307e-03
3.307999999999999829e+01,1.271096953506025209e-02
3.311999999999999744e+01,3.254370345809361100e-03
3.315999999999999659e+01,9.585811154105332299e-03
3.320000000000000284e+01,1.070653583923725227e-02
3.324000000000000199e+01,1.372138844385862450e-02
3.328000000000000114e+01,6.788965709478369387e-03
3.332000000000000028e+01,6.171464540969944824e-03
3.335999999999999943e+01,1.076368848382418773e-02
3.339999999999999858e+01,1.014520282713589523e-02
3.343999999999999773e+01,7.315831364977256820e-03
3.347999999999999687e+01,8.748876563296993300e-03
3.352000000000000313e+01,5.444872258775714305e-03
3.356000000000000227e+01,1.145561983781993864e-02
3.360000000000000142e+01,9.729498034123878689e-03
3.364000000000000057e+01,6.266153131107642972e-03
3.367999999999999972e+01,9.591397719010547052e-03
3.371999999999999886e+01,1.133730721121805826e-02
3.375999999999999801e+01,7.714633452225592297e-03
3.379999999999999716e+01,1.198575085755862468e-02
3.384000000000000341e+01,8.835777496849609586e-03
3.388000000000000256e+01,1.247440015068128870e-02
3.392000000000000171e+01,1.090233016638639078e-02
3.396000000000000085e+01,1.232960934585189058e-02
3.400000000000000000e+01,1.186179177433972082e-02
3.403999999999999915e+01,1.628795070615100815e-02
3.407999999999999829e+01,6.819725539041678053e-03
3.411999999999999744e+01,1.235014471198151928e-02
3.415999999999999659e+01,1.314353525766922236e-02
3.420000000000000284e+01,1.046298163423875667e-02
3.424000000000000199e+01,1.425526497951531794e-02
3.428000000000000114e+01,9.837044939836149526e-03
3.432000000000000028e+01,3.839509375326192499e-03
3.435999999999999943e+01,1.220908440250641040e-02
3.439999999999999858e+01,1.789414875507100433e-02
3.443999999999999773e+01,6.369247473533413625e-03
3.447999999999999687e+01,5.895867420158628323e-03
3.452000000000000313e+01,1.347418741032305536e-02
3.456000000000000227e+01,1.315778393695429468e-02
3.460000000000000142e+01,1.252515722523452057e-02
3.464000000000000057e+01,1.252362094494523584e-02
3.467999999999999972e+01,3.680052750238486849e-03
3.471999999999999886e+01,8.887836101388249879e-03
3.475999999999999801e+01,1.220054749132212096e-02
3.479999999999999716e+01,1.251299046553104415e-02
3.484000000000000341e+01,9.667280934563083489e-03
3.488000000000000256e+01,9.820950576014498418e-03
3.492000000000000171e+01,9.816292811085543246e-03
3.496000000000000085e+01,7.442913426033617892e-03
3.500000000000000000e+01,8.226802521750228164e-03
3.503999999999999915e+01,1.201007600878347716e-02
3.507999999999999829e+01,1.622586790654391648e-04
3.511999999999999744e+01,1.136527341049071473e-02
3.515999999999999659e+01,9.463366241432600440e-03
3.520000000000000284e+01,1.340278577776004600e-02
3.524000000000000199e+01,1.071058718427713059e-02
3.528000000000000114e+01,7.544302138580145749e-03
3.532000000000000028e+01,8.640493770679590416e-03
3.535999999999999943e+01,9.420486954189802309e-03
3.539999999999999858e+01,1.051582457053989138e-02
3.543999999999999773e+01,7.821487675872849238e-03
3.547999999999999687e+01,7.810778736137376742e-03
3.552000000000000313e+01,8.115418143414722049e-03
3.556000000000000227e+01,1.047214653836742865e-02
3.560000000000000142e+01,9.512861823728830865e-03
3.564000000000000057e+01,1.171086646544766512e-02
3.567999999999999972e+01,8.540350482733119475e-03
3.571999999999999886e+01,9.158668042529424444e-03
3.575999999999999801e+01,1.546044517967533165e-02
3.579999999999999716e+01,9.920404445336419505e-03
3.584000000000000341e+01,7.537659590976440900e-03
3.588000000000000256e+01,1.194357598737240227e-02
3.592000000000000171e+01,1.192829195273807825e-02
3.596000000000000085e+01,1.191259982873152032e-02
3.600000000000000000e+01,8.896678430729101569e-03
3.603999999999999915e+01,9.827486407208194108e-03
3.607999999999999829e+01,9.652692449254502566e-03
3.611999999999999744e+01,9.793266409178200127e-03
3.615999999999999659e+01,1.056498038005600042e-02
3.620000000000000284e+01,7.073388447149853500e-03
3.624000000000000199e+01,1.542280212115697616e-02
3.628000000000000114e+01,1.114098660948988941e-02
3.632000000000000028e+01,9.700711846140991357e-03
3.635999999999999943e+01,7.154844281429457477e-03
3.639999999999999858e+01,1.060822795800883157e-02
3.643999999999999773e+01,1.027196974167869647e-02
3.647999999999999687e+01,7.567039484749206284e-03
3.652000000000000313e+01,1.401907226680764937e-02
3.656000000000000227e+01,1.747089404101051166e-02
3.660000000000000142e+01,9.870351009095655950e-03
3.664000000000000057e+01,1.016369177693201079e-02
3.667999999999999972e+01,1.014087715208119612e-02
3.671999999999999886e+01,9.012481468386493791e-03
3.675999999999999801e+01,1.640951507532074569e-02
3.679999999999999716e+01,1.054379488129188538e-02
3.684000000000000341e+01,1.620332907668851213e-02
3.688000000000000256e+01,1.317878851168060965e-02
3.692000000000000171e+01,1.268003747750307345e-02
3.696000000000000085e+01,9.970515453594038305e-03
3.700000000000000000e+01,1.041832714666882272e-02
3.703999999999999915e+01,1.197096373716101218e-02
3.707999999999999829e+01,1.131283325209462252e-02
3.711999999999999744e+01,9.707020149603621390e-03
3.715999999999999659e+01,1.378471228981291430e-02
3.720000000000000284e+01,9.651996289940753190e-03
3.724000000000000199e+01,7.413538681988576622e-03
3.728000000000000114e+01,1.180590259596684712e-02
3.732000000000000028e+01,1.225076792679409034e-02
3.735999999999999943e+01,1.506355174624287273e-02
3.739999999999999858e+01,1.408672498616547926e-02
3.743999999999999773e+01,1.137279907557685321e-02
3.747999999999999687e+01,1.086891017360646326e-02
3.752000000000000313e+01,7.364841577163828458e-03
3.756000000000000227e+01,8.596978905607311275e-03
3.760000000000000142e+01,1.867034371224255557e-02
3.764000000000000057e+01,8.691910167548295291e-03
3.767999999999999972e+01,7.238935922142015686e-03
3.771999999999999886e+01,8.311777302052191646e-03
3.775999999999999801e+01,1.080523785276971127e-02
3.779999999999999716e+01,1.235103796637578542e-02
3.784000000000000341e+01,1.326494973594714161e-02
3.788000000000000256e+01,1.623102616720355565e-02
3.792000000000000171e+01,1.556539437452596729e-02
3.796000000000000085e+01,1.221536802769591402e-02
3.800000000000000000e+01,7.286146190671129348e-03
3.803999999999999915e+01,1.261913473139129362e-02
3.807999999999999829e+01,1.021540001849333135e-02
3.811999999999999744e+01,9.232296218921465236e-03
3.815999999999999659e+01,1.440638646268612572e-02
3.820000000000000284e+01,1.121221579030076861e-02
3.824000000000000199e+01,1.275427322311471247e-02
3.828000000000000114e+01,1.334868587550887969e-02
3.832000000000000028e+01,1.204814268715034310e-02
3.835999999999999943e+01,1.453651915310680970e-02
3.839999999999999858e+01,1.560359857028780287e-02
3.843999999999999773e+01,1.856497552111792057e-02
3.847999999999999687e+01,1.505272541898261714e-02
3.852000000000000313e+01,1.580305637258812984e-02
3.856000000000000227e+01,1.371112694872954514e-02
3.860000000000000142e+01,1.477658343082697244e-02
3.864000000000000057e+01,1.378920911578991604e-02
3.867999999999999972e+01,1.516979634527645948e-02
3.871999999999999886e+01,1.339235762784372202e-02
3.875999999999999801e+01,1.714059094790725338e-02
3.879999999999999716e+01,1.457309304697602774e-02
3.884000000000000341e+01,1.437356190946559829e-02
3.888000000000000256e+01,2.064701908868161670e-02
3.892000000000000171e+01,1.886800962513750929e-02
3.896000000000000085e+01,1.866754386830609888e-02
3.900000000000000000e+01,1.404597814421590721e-02
3.903999999999999915e+01,1.858145765674484515e-02
3.907999999999999829e+01,1.601178811046813019e-02
3.911999999999999744e+01,1.738894840244439854e-02
3.915999999999999659e+01,2.334448141410279051e-02
3.920000000000000284e+01,2.298429625200945278e-02
3.924000000000000199e+01,1.409799870242181563e-02
3.928000000000000114e+01,2.257879471496182858e-02
3.932000000000000028e+01,1.921788767175585180e-02
3.935999999999999943e+01,1.980381829514869449e-02
3.939999999999999858e+01,2.102099461216437939e-02
3.943999999999999773e+01,2.129056398576511730e-02
3.947999999999999687e+01,2.455966257508037515e-02
3.952000000000000313e+01,2.198670961096694382e-02
3.956000000000000227e+01,2.604465253806937525e-02
3.960000000000000142e+01,2.804979598142064504e-02
3.964000000000000057e+01,3.210716149432642219e-02
3.967999999999999972e+01,3.126979303775798136e-02
3.971999999999999886e+01,3.185310768348783433e-02
3.975999999999999801e+01,3.733058540811680370e-02
3.979999999999999716e+01,3.191368809874866458e-02
3.984000000000000341e+01,3.912734079236227652e-02
3.988000000000000256e+01,3.797278736824670486e-02
3.992000000000000171e+01,3.776526738752232493e-02
3.996000000000000085e+01,3.960997991414688668e-02
4.000000000000000000e+01,4.619097795384018851e-02
4.003999999999999915e+01,4.708782679569698676e-02
4.007999999999999829e+01,4.861594351148976895e-02
4.011999999999999744e+01,5.961691147981038746e-02
4.015999999999999659e+01,6.193391167511952400e-02
4.020000000000000284e+01,6.803989154206167844e-02
4.024000000000000199e+01,7.982947711547563885e-02
4.028000000000000114e+01,8.972417077962782650e-02
4.032000000000000028e+01,9.977648396353325233e-02
4.035999999999999943e+01,1.185122292574312952e-01
4.039999999999999858e+01,1.396159921989980623e-01
4.043999999999999773e+01,1.686137628891249962e-01
4.047999999999999687e+01,1.909800863683255578e-01
4.052000000000000313e+01,2.281873775492879175e-01
4.056000000000000227e+01,2.581316825520677538e-01
4.060000000000000142e+01,3.051273533845249020e-01
4.064000000000000057e+01,3.560699036347585444e-01
4.067999999999999972e+01,3.948550244015202604e-01
4.071999999999999886e+01,4.459549530868459066e-01
4.075999999999999801e+01,5.144220236090987219e-01
4.079999999999999716e+01,5.912567698049588927e-01
4.084000000000000341e+01,6.636704760508784773e-01
4.088000000000000256e+01,7.389258717836869605e-01
4.092000000000000171e+01,8.291801336596763550e-01
4.096000000000000085e+01,8.946461436511677912e-01
4.100000000000000000e+01,9.759004493661697088e-01
4.103999999999999915e+01,1.000000000000000000e+00
4.107999999999999829e+01,9.827333362750034773e-01
4.111999999999999744e+01,9.185744706997369668e-01
4.115999999999999659e+01,8.173122990178497416e-01
4.120000000000000284e+01,6.982088406235631428e-01
4.124000000000000199e+01,5.863678744956178912e-01
4.128000000000000114e+01,4.738951322299283508e-01
4.132000000000000028e+01,3.762633837604867360e-01
4.135999999999999943e+01,2.996301607648892418e-01
4.139999999999999858e+01,2.438375791536840920e-01
4.143999999999999773e+01,2.090435256257718311e-01
4.147999999999999687e+01,1.720388485419745428e-01
4.152000000000000313e+01,1.580852122752093858e-01
4.156000000000000227e+01,1.242377909142728526e-01
4.160000000000000142e+01,1.150202669215791285e-01
4.164000000000000057e+01,9.790825040155425041e-02
4.167999999999999972e+01,9.263741693094812435e-02
4.171999999999999886e+01,8.073517669586909029e-02
4.175999999999999801e+01,7.893738278371920103e-02
4.179999999999999716e+01,6.498219592037783598e-02
4.184000000000000341e+01,6.113145798941420350e-02
4.188000000000000256e+01,5.475433876145622408e-02
4.192000000000000171e+01,5.421876543256705372e-02
4.196000000000000085e+01,5.857742694241378084e-02
4.200000000000000000e+01,4.604214019940442576e-02
4.203999999999999915e+01,4.092725721139883061e-02
4.207999999999999829e+01,4.891665347346473014e-02
4.211999999999999744e+01,3.953844921431879517e-02
4.215999999999999659e+01,4.436972457392639874e-02
4.220000000000000284e+01,4.304326500828136587e-02
4.224000000000000199e+01,4.013774825321794748e-02
4.228000000000000114e+01,3.817934192027975376e-02
4.232000000000000028e+01,3.748381810254346191e-02
4.235999999999999943e+01,3.978791744067167874e-02
4.239999999999999858e+01,4.351278729762662195e-02
4.243999999999999773e+01,4.044838848096994621e-02
4.247999999999999687e+01,3.943630436929344146e-02
4.252000000000000313e+01,4.173961942073103892e-02
4.256000000000000227e+01,4.309542929724952121e-02
4.260000000000000142e+01,4.855606791721178706e-02
4.264000000000000057e+01,5.575325567269898835e-02
4.267999999999999972e+01,6.847624332866442121e-02
4.271999999999999886e+01,9.382987492776159733e-02
4.275999999999999801e+01,1.218673719416138723e-01
4.279999999999999716e+01,1.885866055471203395e-01
4.284000000000000341e+01,2.821461724857899922e-01
4.288000000000000256e+01,3.742845885048062260e-01
4.292000000000000171e+01,4.291618704308950427e-01
4.296000000000000085e+01,4.486726442988949737e-01
4.300000000000000000e+01,4.113444978055666446e-01
4.303999999999999915e+01,3.348605964033691818e-01
4.307999999999999829e+01,2.691127259567078212e-01
4.311999999999999744e+01,1.904180786438759709e-01
4.315999999999999659e+01,1.254592873853766499e-01
4.320000000000000284e+01,8.544621647244476925e-02
4.324000000000000199e+01,6.706327393210424759e-02
4.328000000000000114e+01,5.104844297958242155e-02
4.332000000000000028e+01,4.340136989829936065e-02
4.335999999999999943e+01,3.938549416769324824e-02
4.339999999999999858e+01,3.236963053708778043e-02
4.343999999999999773e+01,2.961650844331264673e-02
4.347999999999999687e+01,2.228454711722470394e-02
4.352000000000000313e+01,2.458343333940672323e-02
4.356000000000000227e+01,1.961943123772905140e-02
4.360000000000000142e+01,2.507570626465096750e-02
4.364000000000000057e+01,2.374275175969040724e-02
4.367999999999999972e+01,1.925193309362441263e-02
4.371999999999999886e+01,2.233945837515922614e-02
4.375999999999999801e+01,1.911141422151309971e-02
4.379999999999999716e+01,2.219863347150674571e-02
4.384000000000000341e+01,2.007548365500151644e-02
4.388000000000000256e+01,1.858372566124128974e-02
4.392000000000000171e+01,1.503930909395489665e-02
4.396000000000000085e+01,1.623130720744343780e-02
4.400000000000000000e+01,1.347602462673996339e-02
4.403999999999999915e+01,1.261522224108835993e-02
4.407999999999999829e+01,1.964854633390871255e-02
4.411999999999999744e+01,1.357724078449006576e-02
4.415999999999999659e+01,1.603160589969681096e-02
4.420000000000000284e+01,1.280195750839481852e-02
4.424000000000000199e+01,1.446661832511407855e-02
4.428000000000000114e+01,1.407863231082594029e-02
4.432000000000000028e+01,1.353262550036914147e-02
4.435999999999999943e+01,1.251282841011556665e-02
4.439999999999999858e+01,2.033448060118561718e-02
4.443999999999999773e+01,1.268323267516804735e-02
4.447999999999999687e+01,1.434709282245134887e-02
4.452000000000000313e+01,1.443197014960164760e-02
4.456000000000000227e+01,1.704288620992461256e-02
4.460000000000000142e+01,9.864781562400531945e-03
4.464000000000000057e+01,1.042293626531248622e-02
4.467999999999999972e+01,1.050731112622214393e-02
4.471999999999999886e+01,1.390715691008266933e-02
4.475999999999999801e+01,1.020203890598887601e-02
4.479999999999999716e+01,1.565415401881417243e-02
4.484000000000000341e+01,1.352765177060516119e-02
4.488000000000000256e+01,2.008472906623522819e-02
4.492000000000000171e+01,1.543182754422685495e-02
4.496000000000000085e+01,1.535748792692487666e-02
4.500000000000000000e+01,1.591457666464842283e-02
4.503999999999999915e+01,1.394538717859773735e-02
4.507999999999999829e+01,1.339705562790225249e-02
4.511999999999999744e+01,1.190130240464316522e-02
4.515999999999999659e+01,1.814182549323608423e-02
4.520000000000000284e+01,1.585643059825618192e-02
4.524000000000000199e+01,1.278150333906182858e-02
4.528000000000000114e+01,1.807439788259720959e-02
4.532000000000000028e+01,1.263098283826581333e-02
4.535999999999999943e+01,1.287134050511727634e-02
4.539999999999999858e+01,1.248005642082771448e-02
4.543999999999999773e+01,1.098347570759278941e-02
4.547999999999999687e+01,1.185507834201335320e-02
4.552000000000000313e+01,1.509486562881369280e-02
4.556000000000000227e+01,1.770301638337018826e-02
4.560000000000000142e+01,1.273257456665419403e-02
4.564000000000000057e+01,1.455111235342459661e-02
4.567999999999999972e+01,1.763264225223857076e-02
4.571999999999999886e+01,1.645117677165324269e-02
4.575999999999999801e+01,1.700636219508868882e-02
4.579999999999999716e+01,1.582472115539271598e-02
4.584000000000000341e+01,1.922167072433782209e-02
4.588000000000000256e+01,1.740831776772362727e-02
4.592000000000000171e+01,1.954201645249431518e-02
4.596000000000000085e+01,1.725484219203530720e-02
4.600000000000000000e+01,1.275719180953779029e-02
4.603999999999999915e+01,1.710104420206041975e-02
4.607999999999999829e+01,1.686614216935007973e-02
4.611999999999999744e+01,2.199926684923199371e-02
4.615999999999999659e+01,2.144844195409609591e-02
4.620000000000000284e+01,1.837137667219081866e-02
4.624000000000000199e+01,2.160965438210792761e-02
4.628000000000000114e+01,1.963764261370877159e-02
4.632000000000000028e+01,2.066538316888032190e-02
4.635999999999999943e+01,2.327190880476102258e-02
4.639999999999999858e+01,2.714145003772278769e-02
4.643999999999999773e+01,2.706379016467512846e-02
4.647999999999999687e+01,2.619663837386649458e-02
4.652000000000000313e+01,3.211849489047899353e-02
4.656000000000000227e+01,3.014601936084986000e-02
4.660000000000000142e+01,3.291004462379983064e-02
4.664000000000000057e+01,3.662132252382428038e-02
4.667999999999999972e+01,3.764849029959480009e-02
4.671999999999999886e+01,3.804405938012635907e-02
4.675999999999999801e+01,4.001842658861010094e-02
4.679999999999999716e+01,4.357159322977038896e-02
4.684000000000000341e+01,4.980875836756491065e-02
4.688000000000000256e+01,5.794049633583699815e-02
4.692000000000000171e+01,5.991465333632445267e-02
4.696000000000000085e+01,6.773052063114318178e-02
4.700000000000000000e+01,7.128343429774036677e-02
4.703999999999999915e+01,7.388898891854063511e-02
4.707999999999999829e+01,8.817801733236464712e-02
4.711999999999999744e+01,9.236233644762048556e-02
4.715999999999999659e+01,1.022304869866528798e-01
4.720000000000000284e+01,1.193613241959482485e-01
4.724000000000000199e+01,1.257559144441434962e-01
4.728000000000000114e+01,1.392553085778740762e-01
4.732000000000000028e+01,1.664906944572649705e-01
4.735999999999999943e+01,1.585176011924168682e-01
4.739999999999999858e+01,1.863844574673463317e-01
4.743999999999999773e+01,2.126724261670171201e-01
4.747999999999999687e+01,2.230139377261188272e-01
4.752000000000000313e+01,2.377762092981062503e-01
4.756000000000000227e+01,2.429074421060214151e-01
4.760000000000000142e+01,2.655639252528959604e-01
4.764000000000000057e+01,2.809576531577898661e-01
4.767999999999999972e+01,2.903517102788372162e-01
4.771999999999999886e+01,2.943776394974670918e-01
4.775999999999999801e+01,3.034558781340332412e-01
4.779999999999999716e+01,2.852199216871381671e-01
4.784000000000000341e+01,2.718783918734517524e-01
4.788000000000000256e+01,2.542739371354784672e-01
4.792000000000000171e+01,2.404587138809291813e-01
4.796000000000000085e+01,2.050131749521590663e-01
4.800000000000000000e+01,1.867771286212389914e-01
4.803999999999999915e+01,1.614362254897575844e-01
4.807999999999999829e+01,1.427264961557690448e-01
4.811999999999999744e+01,1.169119126306677608e-01
4.815999999999999659e+01,1.015177549727368927e-01
4.820000000000000284e+01,8.912341096041904998e-02
4.824000000000000199e+01,8.209716281108167535e-02
4.828000000000000114e+01,6.875549266040981156e-02
4.832000000000000028e+01,6.409751425986733031e-02
4.835999999999999943e+01,6.070261538789682720e-02
4.839999999999999858e+01,4.957132988117895350e-02
4.843999999999999773e+01,4.586065688535373441e-02
4.847999999999999687e+01,3.930804708369205897e-02
4.852000000000000313e+01,3.622891754796651181e-02
4.856000000000000227e+01,3.393921788190588235e-02
4.860000000000000142e+01,3.022855387176760777e-02
4.864000000000000057e+01,2.557058300480460553e-02
4.867999999999999972e+01,2.754380550619902127e-02
4.871999999999999886e+01,2.778029678933630758e-02
4.875999999999999801e+01,2.138561093947841801e-02
4.879999999999999716e+01,2.383251789061771944e-02
4.884000000000000341e+01,2.485846832602520845e-02
4.888000000000000256e+01,1.799016238920078323e-02
4.892000000000000171e+01,2.059499474425130830e-02
4.896000000000000085e+01,1.767385424916160727e-02
4.900000000000000000e+01,1.869986585922827488e-02
4.903999999999999915e+01,1.151585552760785343e-02
4.907999999999999829e+01,1.222613476499752327e-02
4.911999999999999744e+01,1.230489359060656790e-02
4.915999999999999659e+01,1.475195579850714644e-02
4.920000000000000284e+01,1.546230244484224879e-02
4.924000000000000199e+01,1.364650786345517411e-02
4.928000000000000114e+01,1.340959360765151334e-02
4.932000000000000028e+01,1.096231152192668999e-02
4.935999999999999943e+01,1.372527643728663899e-02
4.939999999999999858e+01,8.594001941830619121e-03
4.943999999999999773e+01,9.620289421965216858e-03
4.947999999999999687e+01,1.301489072218581407e-02
4.952000000000000313e+01,1.214662059181609993e-02
4.956000000000000227e+01,8.436448883166211207e-03
4.960000000000000142e+01,1.119961515735655444e-02
4.964000000000000057e+01,9.384143126777112418e-03
4.967999999999999972e+01,1.546298023607233646e-02
4.971999999999999886e+01,1.033199509464577219e-02
4.975999999999999801e+01,1.056915539572322177e-02
4.979999999999999716e+01,1.001693207115698925e-02
4.984000000000000341e+01,6.464930907204535261e-03
4.988000000000000256e+01,9.386276859162451941e-03
4.992000000000000171e+01,1.072881612876859861e-02
4.996000000000000085e+01,1.080832080909969323e-02
5.000000000000000000e+01,8.045938263117955250e-03
5.003999999999999915e+01,6.230919255776651289e-03
5.007999999999999829e+01,7.573660610266927558e-03
5.011999999999999744e+01,1.191627823713692011e-02
5.015999999999999659e+01,7.259483483719314338e-03
5.020000000000000284e+01,9.391817072358936772e-03
5.024000000000000199e+01,1.073478138732226507e-02
5.028000000000000114e+01,8.604326032338070404e-03
5.032000000000000028e+01,8.368555714121692080e-03
5.035999999999999943e+01,3.869941364525398587e-03
5.039999999999999858e+01,5.844691092255441082e-03
5.043999999999999773e+01,8.766817405868961369e-03
5.047999999999999687e+01,5.689364266337231489e-03
5.052000000000000313e+01,6.085456628956860056e-03
5.056000000000000227e+01,4.429107002284998415e-03
5.060000000000000142e+01,6.246305487213066505e-03
5.064000000000000057e+01,8.853001687469960398e-03
5.067999999999999972e+01,8.775718235903421857e-03
5.071999999999999886e+01,5.225029466356773469e-03
5.075999999999999801e+01,8.463487305007609887e-03
5.079999999999999716e+01,4.912949157426625343e-03
5.084000000000000341e+01,6.730591679905918202e-03
5.088000000000000256e+01,8.706198169354981489e-03
5.092000000000000171e+01,9.734572171264726723e-03
5.096000000000000085e+01,6.342236318482966789e-03
5.100000000000000000e+01,6.581347018720403244e-03
5.103999999999999915e+01,1.092556175922999341e-02
5.107999999999999829e+01,1.084907055922098955e-02
5.111999999999999744e+01,1.029900957782277533e-02
5.115999999999999659e+01,6.749213812940430685e-03
5.120000000000000284e+01,4.778361000408139735e-03
5.124000000000000199e+01,1.164918057705569519e-02
5.128000000000000114e+01,6.678687210524529225e-03
5.132000000000000028e+01,5.655421623159425856e-03
5.135999999999999943e+01,1.236863457991365343e-02
5.139999999999999858e+01,9.608819420305116446e-03
5.143999999999999773e+01,6.059674128749432259e-03
5.147999999999999687e+01,8.194501171195332084e-03
5.152000000000000313e+01,8.276917537733024730e-03
5.156000000000000227e+01,6.938466109791654839e-03
5.160000000000000142e+01,5.284345951328991466e-03
5.164000000000000057e+01,5.840724673888581485e-03
5.167999999999999972e+01,9.712801341428151450e-03
5.171999999999999886e+01,7.427453608099791535e-03
5.175999999999999801e+01,6.563181699085545058e-03
5.179999999999999716e+01,1.185654874439592832e-02
5.184000000000000341e+01,7.045360448606130185e-03
5.188000000000000256e+01,9.181240687470558146e-03
5.192000000000000171e+01,4.212390684031281154e-03
5.196000000000000085e+01,7.927351160633127475e-03
5.200000000000000000e+01,7.063750311199202409e-03
5.203999999999999915e+01,7.779119813325754106e-03
5.207999999999999829e+01,8.652492424151253525e-03
5.211999999999999744e+01,8.420786294990406651e-03
5.215999999999999659e+01,7.399773518919862056e-03
5.220000000000000284e+01,5.747340794840185944e-03
5.224000000000000199e+01,3.621374821651898116e-03
5.228000000000000114e+01,3.863813999250929627e-03
5.232000000000000028e+01,5.369461873128194597e-03
5.235999999999999943e+01,8.611975930536606982e-03
5.239999999999999858e+01,8.065368680033309021e-03
5.243999999999999773e+01,7.676776280747695663e-03
5.247999999999999687e+01,8.709283190813748438e-03
5.252000000000000313e+01,6.110558101317199731e-03
5.256000000000000227e+01,6.827559660735360060e-03
5.260000000000000142e+01,5.334300377625371230e-03
5.264000000000000057e+01,6.367343381997723518e-03
5.267999999999999972e+01,8.032065248462189749e-03
5.271999999999999886e+01,8.749613339981070909e-03
5.275999999999999801e+01,7.256905807869030479e-03
5.279999999999999716e+01,3.080287774321774363e-03
5.284000000000000341e+01,5.534998800459650127e-03
5.288000000000000256e+01,8.305624423958804861e-03
5.292000000000000171e+01,9.339655825252892590e-03
5.296000000000000085e+01,2.795334724546578130e-03
5.300000000000000000e+01,5.408514209241924685e-03
5.303999999999999915e+01,6.600874174257539452e-03
5.307999999999999829e+01,1.174051932630863944e-02
5.311999999999999744e+01,1.245952507878068417e-02
5.315999999999999659e+01,1.396811074421277707e-02
5.320000000000000284e+01,1.958187090502947272e-02
5.324000000000000199e+01,1.730151690856352939e-02
5.328000000000000114e+01,1.817902765187360062e-02
5.332000000000000028e+01,1.668841564351683168e-02
5.335999999999999943e+01,1.772412940767984640e-02
5.339999999999999858e+01,1.907577473062008200e-02
5.343999999999999773e+01,1.253331241989922955e-02
5.347999999999999687e+01,1.293797083280481472e-02
5.352000000000000313e+01,1.129028380601747664e-02
5.356000000000000227e+01,9.642762768552203684e-03
5.360000000000000142e+01,1.036368993777633980e-02
5.364000000000000057e+01,1.140055649412353295e-02
5.367999999999999972e+01,9.753541252970216943e-03
5.371999999999999886e+01,1.094863431520788112e-02
5.375999999999999801e+01,6.617911094221921690e-03
5.379999999999999716e+01,6.234496545308970683e-03
5.384000000000000341e+01,9.166850396488519792e-03
5.388000000000000256e+01,1.067841212719870467e-02
5.392000000000000171e+01,9.348214494577967645e-03
5.396000000000000085e+01,7.228768927641357825e-03
5.400000000000000000e+01,6.214701461227537492e-03
5.403999999999999915e+01,6.148128005884678261e-03
5.407999999999999829e+01,8.607903808099105075e-03
5.411999999999999744e+01,8.857468347309001289e-03
5.415999999999999659e+01,3.897000438890743483e-03
5.420000000000000284e+01,8.725613834308126177e-03
5.424000000000000199e+01,6.291687267255347861e-03
5.428000000000000114e+01,9.226053576553044575e-03
5.432000000000000028e+01,1.058175672317254214e-02
5.435999999999999943e+01,8.148402493371287303e-03
5.439999999999999858e+01,9.188720323978985180e-03
5.443999999999999773e+01,6.124212599262103020e-03
5.447999999999999687e+01,8.428004274517265915e-03
5.452000000000000313e+01,7.732170763129931658e-03
5.456000000000000227e+01,1.114155610775357901e-02
5.460000000000000142e+01,6.341100867368546466e-03
5.464000000000000057e+01,1.211916825366756746e-02
5.467999999999999972e+01,8.740085299349267464e-03
5.471999999999999886e+01,8.834684843234375320e-03
5.475999999999999801e+01,8.613718729818298919e-03
5.479999999999999716e+01,6.498334322063254245e-03
5.484000000000000341e+01,8.330292509213139962e-03
5.488000000000000256e+01,6.215324887182044344e-03
5.492000000000000171e+01,8.837129440385506698e-03
5.496000000000000085e+01,9.406635523971022816e-03
5.500000000000000000e+01,8.081729836839118136e-03
5.503999999999999915e+01,7.862236173062012515e-03
5.507999999999999829e+01,8.432385049011564479e-03
5.511999999999999744e+01,7.266011462592804511e-03
5.515999999999999659e+01,1.115218866810688617e-02
5.520000000000000284e+01,9.512596560472336843e-03
5.524000000000000199e+01,8.820537605637864334e-03
5.528000000000000114e+01,8.760242319975422576e-03
5.532000000000000028e+01,1.043690976744268001e-02
5.535999999999999943e+01,1.164014573429711374e-02
5.539999999999999858e+01,1.189629534273439412e-02
5.543999999999999773e+01,7.100339648897532711e-03
5.547999999999999687e+01,9.567340703254788303e-03
5.552000000000000313e+01,8.245322218196102920e-03
5.556000000000000227e+01,8.976045082965442012e-03
5.560000000000000142e+01,1.144373981393460513e-02
5.564000000000000057e+01,9.490877342955950091e-03
5.567999999999999972e+01,1.211692644279750014e-02
5.571999999999999886e+01,7.954140037496726379e-03
5.575999999999999801e+01,1.721184988633223459e-02
5.579999999999999716e+01,1.162857173648759040e-02
5.584000000000000341e+01,9.834783405479340795e-03
5.588000000000000256e+01,7.567580555274188575e-03
5.592000000000000171e+01,8.458328556649201760e-03
5.596000000000000085e+01,1.124394556091907159e-02
5.600000000000000000e+01,1.039844407664086180e-02
5.603999999999999915e+01,9.868960262944018527e-03
5.607999999999999829e+01,1.044492239543391883e-02
5.611999999999999744e+01,1.023170704872034507e-02
5.615999999999999659e+01,1.396587735281380055e-02
5.620000000000000284e+01,1.027968623175182922e-02
5.624000000000000199e+01,1.148819573600268033e-02
5.628000000000000114e+01,1.048656443236146638e-02
5.632000000000000028e+01,1.311655321007207387e-02
5.635999999999999943e+01,8.010414993172071049e-03
5.639999999999999858e+01,1.048303432147760887e-02
5.643999999999999773e+01,1.295591357925515025e-02
5.647999999999999687e+01,1.337654394693840558e-02
5.652000000000000313e+01,1.016607278748953534e-02
5.656000000000000227e+01,1.548167675720067520e-02
5.660000000000000142e+01,1.164019301306120149e-02
5.664000000000000057e+01,1.506170385412068657e-02
5.667999999999999972e+01,1.437846220441669175e-02
5.671999999999999886e+01,1.180086488714038838e-02
5.675999999999999801e+01,1.380221436824051982e-02
5.679999999999999716e+01,1.296189842615971116e-02
5.684000000000000341e+01,9.911459942327088823e-03
5.688000000000000256e+01,1.143997217104383672e-02
5.692000000000000171e+01,1.281087459174803933e-02
5.696000000000000085e+01,1.449782469169263142e-02
5.700000000000000000e+01,1.397465746878269292e-02
5.703999999999999915e+01,1.029406186268521858e-02
5.707999999999999829e+01,1.166607967528721264e-02
5.711999999999999744e+01,1.445934814526026770e-02
5.715999999999999659e+01,1.109536965687086228e-02
5.720000000000000284e+01,1.341555007805864466e-02
5.724000000000000199e+01,1.336773561056147155e-02
5.728000000000000114e+01,1.521483320186121577e-02
5.732000000000000028e+01,1.185200141875289784e-02
5.735999999999999943e+01,1.101562588059490540e-02
5.739999999999999858e+01,1.396879104552123385e-02
5.743999999999999773e+01,1.708013415220336131e-02
5.747999999999999687e+01,1.213961600820299622e-02
5.752000000000000313e+01,1.540943351839359730e-02
5.756000000000000227e+01,1.283778790581714332e-02
5.760000000000000142e+01,1.216106478983203058e-02
5.764000000000000057e+01,1.022155759163846656e-02
5.767999999999999972e+01,1.412411035388998724e-02
5.771999999999999886e+01,1.202731981809547837e-02
5.775999999999999801e+01,1.545682106384224305e-02
5.779999999999999716e+01,1.525526253363470967e-02
5.784000000000000341e+01,1.331727026231160384e-02
5.788000000000000256e+01,1.090592870800689840e-02
5.792000000000000171e+01,1.575762349007896884e-02
5.796000000000000085e+01,1.413632661992220846e-02
5.800000000000000000e+01,1.756767317712396026e-02
5.803999999999999915e+01,1.436814529736932591e-02
5.807999999999999829e+01,1.464240951265976219e-02
5.811999999999999744e+01,1.539064463837163353e-02
5.815999999999999659e+01,1.503399803746721837e-02
5.820000000000000284e+01,1.609863732149011822e-02
5.824000000000000199e+01,1.321646039317361798e-02
5.828000000000000114e+01,1.475539444858092741e-02
5.832000000000000028e+01,1.518945199626920567e-02
5.835999999999999943e+01,1.562383210019612639e-02
5.839999999999999858e+01,1.511122370002879189e-02
5.843999999999999773e+01,1.775664834907283648e-02
5.847999999999999687e+01,1.756046237335679577e-02
5.852000000000000313e+01,1.452266707760494803e-02
5.856000000000000227e+01,1.811638741711390707e-02
5.860000000000000142e+01,1.492136619163059522e-02
5.864000000000000057e+01,1.614746769238979696e-02
5.867999999999999972e+01,1.642658982212488392e-02
5.871999999999999886e+01,2.017952492249391189e-02
5.875999999999999801e+01,1.919623380105850777e-02
5.879999999999999716e+01,1.695019643441949414e-02
5.884000000000000341e+01,1.565180964576803196e-02
5.888000000000000256e+01,1.972186577676221866e-02
5.892000000000000171e+01,1.731896156891090180e-02
5.896000000000000085e+01,1.744256579498213583e-02
5.900000000000000000e+01,1.535611793441408850e-02
5.903999999999999915e+01,2.148005530756051662e-02
5.907999999999999829e+01,1.749967349470600217e-02
5.911999999999999744e+01,1.430906599873301398e-02
5.915999999999999659e+01,1.648691055547575265e-02
5.920000000000000284e+01,1.534951178996726319e-02
5.924000000000000199e+01,1.421246428463217651e-02
5.928000000000000114e+01,1.749656038112849463e-02
5.932000000000000028e+01,1.557079233943205014e-02
5.935999999999999943e+01,1.554000420219637559e-02
5.939999999999999858e+01,1.898305121590785488e-02
5.943999999999999773e+01,1.800566497648045661e-02
5.947999999999999687e+01,2.081788728580121275e-02
5.952000000000000313e+01,1.857813737472695931e-02
5.956000000000000227e+01,1.854914468008737188e-02
5.960000000000000142e+01,1.741531722890650100e-02
5.964000000000000057e+01,1.880802039196137476e-02
5.967999999999999972e+01,1.941166219627592920e-02
5.971999999999999886e+01,1.891047315822209224e-02
5.975999999999999801e+01,2.251467259033895080e-02
5.979999999999999716e+01,1.901439881084027173e-02
5.984000000000000341e+01,2.104048465854671188e-02
5.988000000000000256e+01,2.259328645948686584e-02
5.992000000000000171e+01,2.162029539409426535e-02
5.996000000000000085e+01,2.064767907391252405e-02
