2.003999999999999915e+01,2.094293249807656354e-02
2.007999999999999829e+01,2.498556869770881053e-02
2.012000000000000099e+01,1.833830445067836934e-02
2.016000000000000014e+01,2.508403428424301959e-02
2.019999999999999929e+01,3.588449234314011055e-02
2.023999999999999844e+01,2.518232023353133078e-02
2.028000000000000114e+01,2.750452510221097074e-02
2.032000000000000028e+01,1.950544299241930082e-02
2.035999999999999943e+01,2.489935269190024503e-02
2.039999999999999858e+01,2.586982633659021952e-02
2.044000000000000128e+01,2.327696686442214807e-02
2.048000000000000043e+01,3.223401914116773292e-02
2.051999999999999957e+01,3.738199356618417124e-02
2.055999999999999872e+01,1.684968914076397095e-02
2.060000000000000142e+01,2.224330894247446289e-02
2.064000000000000057e+01,2.075605170038659700e-02
2.067999999999999972e+01,2.234054192708936210e-02
2.071999999999999886e+01,1.913297672537222008e-02
2.076000000000000156e+01,3.374178766444007466e-02
2.080000000000000071e+01,3.962664104508632767e-02
2.083999999999999986e+01,3.310137901791565529e-02
2.087999999999999901e+01,3.050796558041039483e-02
2.092000000000000171e+01,2.521131696707043512e-02
2.096000000000000085e+01,1.794866420265757434e-02
2.100000000000000000e+01,3.661193112273066624e-02
2.103999999999999915e+01,2.074813599287943580e-02
2.107999999999999829e+01,9.799162486739476999e-03
2.112000000000000099e+01,2.453036347594997335e-02
2.116000000000000014e+01,2.058497785150541909e-02
2.119999999999999929e+01,3.162990936800300773e-02
2.123999999999999844e+01,2.977323328135481062e-02
2.128000000000000114e+01,2.717926854122818675e-02
2.132000000000000028e+01,1.930175390603065463e-02
2.135999999999999943e+01,2.678317033423049595e-02
2.139999999999999858e+01,1.767681994709587381e-02
2.144000000000000128e+01,2.872140432849961886e-02
2.148000000000000043e+01,2.219524568067187884e-02
2.151999999999999957e+01,2.599026783917145200e-02
2.155999999999999872e+01,1.921824511065901159e-02
2.160000000000000142e+01,2.731366306727295648e-02
2.164000000000000057e+01,3.233722193177885479e-02
2.167999999999999972e+01,2.581075924111104342e-02
2.171999999999999886e+01,1.522946124443794874e-02
2.176000000000000156e+01,2.258739994510900947e-02
2.180000000000000071e+01,3.117399469760010616e-02
2.183999999999999986e+01,1.739783771880915042e-02
2.187999999999999901e+01,1.873486207163539002e-02
2.192000000000000171e+01,1.527981736810777452e-02
2.196000000000000085e+01,2.558636204278712245e-02
2.200000000000000000e+01,2.311416239646683912e-02
2.203999999999999915e+01,5.405779711461796040e-03
2.207999999999999829e+01,1.841530905947222352e-02
2.212000000000000099e+01,1.950619611588682092e-02
2.216000000000000014e+01,1.224172590840093451e-02
2.219999999999999929e+01,2.426807844623133856e-02
2.223999999999999844e+01,2.843056046431646430e-02
2.228000000000000114e+01,3.750785047817869339e-02
2.232000000000000028e+01,3.405213636326764187e-02
2.235999999999999943e+01,2.924476176388233345e-02
2.239999999999999858e+01,3.451281415066392161e-02
2.244000000000000128e+01,3.720048601273198696e-02
2.248000000000000043e+01,3.128705315044186253e-02
2.251999999999999957e+01,3.655489313006447111e-02
2.255999999999999872e+01,2.400623398897264171e-02
2.260000000000000142e+01,2.435905356565905289e-02
2.264000000000000057e+01,1.611076660092925980e-02
2.267999999999999972e+01,1.990385405325153720e-02
2.271999999999999886e+01,1.890486336393058450e-02
2.276000000000000156e+01,2.060898078213455054e-02
2.280000000000000071e+01,1.936409784773182249e-02
2.283999999999999986e+01,2.807176498941572895e-02
2.287999999999999901e+01,3.432191852264809134e-02
2.292000000000000171e+01,4.192358730146623913e-02
2.296000000000000085e+01,1.733273857591509023e-02
2.300000000000000000e+01,1.940501830065254410e-02
2.303999999999999915e+01,3.315005261454874452e-02
2.307999999999999829e+01,3.780248773743536544e-02
2.312000000000000099e+01,4.147186948433607273e-02
2.316000000000000014e+01,5.140764027807681602e-02
2.319999999999999929e+01,8.051135054735114593e-02
2.323999999999999844e+01,9.229004162609923123e-02
2.328000000000000114e+01,6.880441373708651165e-02
2.332000000000000028e+01,4.421285828759436570e-02
2.335999999999999943e+01,2.650204917947507344e-02
2.339999999999999858e+01,1.628634552431935598e-02
2.344000000000000128e+01,1.897211104738799961e-02
2.348000000000000043e+01,3.345349807587720548e-02
2.351999999999999957e+01,3.503325160814597244e-02
2.355999999999999872e+01,3.759589737825581174e-02
2.360000000000000142e+01,2.725690874361636623e-02
2.364000000000000057e+01,2.613322962074798514e-02
2.367999999999999972e+01,2.685254476512452526e-02
2.371999999999999886e+01,2.818613459077138825e-02
2.376000000000000156e+01,2.755368846683237810e-02
2.380000000000000071e+01,2.225202384928045424e-02
2.383999999999999986e+01,2.616566647217728053e-02
2.387999999999999901e+01,2.921911900123417075e-02
2.392000000000000171e+01,2.748047976071371981e-02
2.396000000000000085e+01,2.586462482319254810e-02
2.400000000000000000e+01,1.417318494121084724e-02
2.403999999999999915e+01,2.066669968984068129e-02
2.407999999999999829e+01,2.494843102842688246e-02
2.412000000000000099e+01,1.411682761974695187e-02
2.416000000000000014e+01,2.933397992183094452e-02
2.419999999999999929e+01,2.599738299933116586e-02
2.423999999999999844e+01,3.077024155609620407e-02
2.428000000000000114e+01,1.023139475534194653e-02
2.432000000000000028e+01,2.815136507856752859e-02
2.435999999999999943e+01,8.963925471326201350e-03
2.439999999999999858e+01,8.821539798513383657e-03
2.444000000000000128e+01,3.792257639905981248e-02
2.448000000000000043e+01,2.033219247900574372e-02
2.451999999999999957e+01,2.424429939400734105e-02
2.455999999999999872e+01,3.675734580684208996e-02
2.460000000000000142e+01,2.543314618609415073e-02
2.464000000000000057e+01,1.558331419073085040e-02
2.467999999999999972e+01,2.330406999189233580e-02
2.471999999999999886e+01,2.045774501914871327e-02
2.476000000000000156e+01,2.473789431486370094e-02
2.480000000000000071e+01,2.017116871253898588e-02
2.483999999999999986e+01,3.391226056870744188e-02
2.487999999999999901e+01,3.917509235782039301e-02
2.492000000000000171e+01,2.367247230851061979e-02
2.496000000000000085e+01,3.151541679491269565e-02
2.500000000000000000e+01,3.505774489928083909e-02
2.503999999999999915e+01,2.569842224537859793e-02
2.507999999999999829e+01,2.715172762094994474e-02
2.512000000000000099e+01,3.327406491317904530e-02
2.516000000000000014e+01,2.071977016530601040e-02
2.519999999999999929e+01,1.922384591045523880e-02
2.523999999999999844e+01,1.932515438019306517e-02
2.528000000000000114e+01,3.097632008710830484e-02
2.532000000000000028e+01,1.215514827244484029e-02
2.535999999999999943e+01,2.626354567818870930e-02
2.539999999999999858e+01,1.837776666262595435e-02
2.544000000000000128e+01,2.732533533353697502e-02
2.548000000000000043e+01,2.509145503366267543e-02
2.551999999999999957e+01,2.703511445511743924e-02
2.555999999999999872e+01,2.480102304800668039e-02
2.560000000000000142e+01,2.834180532491927321e-02
2.564000000000000057e+01,2.770483586473743501e-02
2.567999999999999972e+01,1.207738585414623762e-02
2.571999999999999886e+01,2.065559514043912442e-02
2.576000000000000156e+01,2.591615471904138226e-02
2.580000000000000071e+01,2.822767987520165972e-02
2.583999999999999986e+01,3.275079050783860635e-02
2.587999999999999901e+01,2.609244762704570481e-02
2.592000000000000171e+01,2.643769392787068129e-02
2.596000000000000085e+01,1.670733302527614705e-02
2.600000000000000000e+01,3.290283502410884520e-02
2.603999999999999915e+01,3.054456690219209056e-02
2.607999999999999829e+01,4.047337841118951729e-02
2.612000000000000099e+01,2.803938958260675934e-02
2.616000000000000014e+01,3.612489765886812282e-02
2.619999999999999929e+01,2.983427884513710146e-02
2.623999999999999844e+01,3.153022088427645531e-02
2.628000000000000114e+01,3.654359062152252174e-02
2.632000000000000028e+01,3.221858054599503751e-02
2.635999999999999943e+01,2.764771177808561867e-02
2.639999999999999858e+01,3.696125387819790276e-02
2.644000000000000128e+01,3.890236541347967536e-02
2.648000000000000043e+01,3.003063236087769733e-02
2.651999999999999957e+01,1.194338913735076661e-02
2.655999999999999872e+01,1.781605184481200796e-02
2.660000000000000142e+01,2.000243956551570057e-02
2.664000000000000057e+01,1.346480340518519010e-02
2.667999999999999972e+01,1.515946692715777928e-02
2.671999999999999886e+01,3.036992194352340635e-02
2.676000000000000156e+01,2.420054465944550606e-02
2.680000000000000071e+01,2.282305212608866721e-02
2.683999999999999986e+01,2.464010901796492500e-02
2.687999999999999901e+01,2.510545409348184653e-02
2.692000000000000171e+01,2.851960385936093065e-02
2.696000000000000085e+01,3.598840507987702275e-02
2.700000000000000000e+01,3.166138050170292512e-02
2.703999999999999915e+01,2.045340619741537955e-02
2.707999999999999829e+01,2.902768687086292737e-02
2.712000000000000099e+01,2.961516969112887657e-02
2.716000000000000014e+01,3.474878934739351888e-02
2.719999999999999929e+01,3.509027998439425561e-02
2.723999999999999844e+01,2.572476462102545394e-02
2.728000000000000114e+01,2.237984768891437826e-02
2.732000000000000028e+01,2.284383429671799082e-02
2.735999999999999943e+01,3.141724095115767251e-02
2.739999999999999858e+01,3.384692527012996693e-02
2.744000000000000128e+01,3.627648245792154669e-02
2.748000000000000043e+01,3.071923770415123725e-02
2.751999999999999957e+01,2.872515039263116160e-02
2.755999999999999872e+01,4.270428329937080159e-02
2.760000000000000142e+01,3.247752036317932273e-02
2.764000000000000057e+01,2.532242585376059951e-02
2.767999999999999972e+01,4.433891899300348993e-02
2.771999999999999886e+01,3.767505196846961113e-02
2.776000000000000156e+01,3.555731496596741675e-02
2.780000000000000071e+01,4.154899301319215504e-02
2.783999999999999986e+01,3.893950546461959206e-02
2.787999999999999901e+01,5.021441197628350589e-02
2.792000000000000171e+01,4.158393597188661528e-02
2.796000000000000085e+01,4.487190250846073702e-02
2.800000000000000000e+01,4.754537598829650796e-02
2.803999999999999915e+01,5.513359204982579836e-02
2.807999999999999829e+01,3.630421238017188246e-02
2.812000000000000099e+01,4.512087832032261187e-02
2.816000000000000014e+01,4.079011424323239487e-02
2.819999999999999929e+01,5.783892729569541091e-02
2.823999999999999844e+01,5.191055636870621492e-02
2.828000000000000114e+01,5.900647156711148061e-02
2.832000000000000028e+01,6.683948111954404747e-02
2.835999999999999943e+01,4.714904454240290144e-02
2.839999999999999858e+01,4.748659177861135755e-02
2.844000000000000128e+01,5.495057149094711296e-02
2.848000000000000043e+01,5.246178729437284138e-02
2.851999999999999957e+01,5.464199640197624219e-02
2.855999999999999872e+01,7.033797610780700982e-02
2.860000000000000142e+01,6.723441279362030176e-02
2.864000000000000057e+01,6.806260994179171020e-02
2.867999999999999972e+01,7.196246370585963892e-02
2.871999999999999886e+01,5.915159561102409369e-02
2.876000000000000156e+01,6.305116558554024753e-02
2.880000000000000071e+01,6.006976584630627919e-02
2.883999999999999986e+01,5.954566134005583045e-02
2.887999999999999901e+01,5.373792108274966228e-02
2.892000000000000171e+01,7.508472969727460200e-02
2.896000000000000085e+01,7.456019337412614356e-02
2.900000000000000000e+01,5.499036566197339215e-02
2.903999999999999915e+01,6.269795737202946140e-02
2.907999999999999829e+01,5.799534009578787702e-02
2.912000000000000099e+01,5.710160591755970155e-02
2.916000000000000014e+01,4.957264176354320845e-02
2.919999999999999929e+01,5.175041163122072463e-02
2.923999999999999844e+01,5.110197992288279673e-02
2.928000000000000114e+01,4.848744957646223402e-02
2.932000000000000028e+01,4.144938187427391063e-02
2.935999999999999943e+01,4.485527785574788123e-02
2.939999999999999858e+01,4.211742878853071137e-02
2.944000000000000128e+01,4.503153788277682035e-02
2.948000000000000043e+01,4.462795502273649018e-02
2.951999999999999957e+01,3.906360105657999404e-02
2.955999999999999872e+01,3.239324866468674957e-02
2.960000000000000142e+01,3.616685723086891791e-02
2.964000000000000057e+01,3.871159454961425189e-02
2.967999999999999972e+01,4.187053886422395510e-02
2.971999999999999886e+01,4.023732554090805186e-02
2.976000000000000156e+01,3.012579673027139179e-02
2.980000000000000071e+01,3.180981765126910527e-02
2.983999999999999986e+01,3.607399436180954572e-02
2.987999999999999901e+01,2.104712586318533904e-02
2.992000000000000171e+01,2.850566217928150042e-02
2.996000000000000085e+01,3.080342239235230734e-02
3.000000000000000000e+01,2.830902178764629212e-02
3.003999999999999915e+01,2.925487809335796177e-02
3.007999999999999829e+01,3.462396616059098403e-02
3.012000000000000099e+01,2.205359733795384664e-02
3.016000000000000014e+01,3.442606886787077242e-02
3.019999999999999929e+01,2.898195451255959620e-02
3.023999999999999844e+01,2.280044974852880532e-02
3.028000000000000114e+01,2.227089360640733054e-02
3.032000000000000028e+01,2.948210815583815481e-02
3.035999999999999943e+01,2.575756214056057133e-02
3.039999999999999858e+01,1.760946650437463304e-02
3.044000000000000128e+01,3.477282378040457561e-02
3.048000000000000043e+01,3.276800094647382144e-02
3.051999999999999957e+01,2.695398669469642461e-02
3.055999999999999872e+01,1.966534692105741111e-02
3.060000000000000142e+01,2.392650396742130800e-02
3.064000000000000057e+01,1.884923214044884748e-02
3.067999999999999972e+01,1.291169299467655879e-02
3.071999999999999886e+01,2.024415609050811415e-02
3.076000000000000156e+01,3.838918271025854728e-02
3.080000000000000071e+01,3.392561201714371782e-02
3.083999999999999986e+01,3.757142184965621412e-02
3.087999999999999901e+01,3.409049452032406058e-02
3.092000000000000171e+01,2.716898697001362759e-02
3.096000000000000085e+01,2.061592805276229665e-02
3.100000000000000000e+01,9.024953134780425157e-03
3.103999999999999915e+01,2.348686728656696181e-03
3.107999999999999829e+01,1.287431969722961297e-02
3.112000000000000099e+01,1.320141494909531435e-02
3.116000000000000014e+01,8.982080035856645703e-03
3.119999999999999929e+01,2.049018017646881545e-02
3.123999999999999844e+01,1.160137244438506215e-02
3.128000000000000114e+01,4.801216495639046809e-03
3.132000000000000028e+01,1.299126275892432091e-02
3.135999999999999943e+01,1.331733493016510304e-02
3.139999999999999858e+01,1.450333839023996117e-02
3.144000000000000128e+01,1.532055355317413041e-02
3.148000000000000043e+01,1.171420683005918763e-02
3.151999999999999957e+01,1.842892734715409139e-02
3.155999999999999872e+01,1.187330732135694934e-02
3.160000000000000142e+01,1.735896041163509027e-02
3.164000000000000057e+01,1.817530597246417093e-02
3.167999999999999972e+01,2.304624938472278270e-02
3.171999999999999886e+01,1.366387513166325736e-02
3.176000000000000156e+01,8.704713561017349971e-03
3.180000000000000071e+01,2.598519162831973428e-02
3.183999999999999986e+01,1.844536613480212209e-02
3.187999999999999901e+01,1.852342170335147253e-02
3.192000000000000171e+01,2.032150604749400832e-02
3.196000000000000085e+01,1.253540270123060241e-02
3.200000000000000000e+01,6.592199135202467253e-03
3.203999999999999915e+01,1.600780534395819521e-02
3.207999999999999829e+01,1.731368545756696228e-02
3.211999999999999744e+01,3.629011884186682767e-03
3.215999999999999659e+01,1.242971768671646306e-02
3.220000000000000284e+01,9.680282462517111539e-03
3.224000000000000199e+01,1.344287699346524874e-02
3.228000000000000114e+01,1.093882185550946497e-02
3.232000000000000028e+01,1.494679556417226503e-02
3.235999999999999943e+01,1.612853226419097563e-02
3.239999999999999858e+01,2.148773055204976357e-02
3.243999999999999773e+01,2.475792240176172276e-02
3.247999999999999687e+01,3.503162893371848663e-02
3.252000000000000313e+01,3.142062445458076309e-02
3.256000000000000227e+01,3.776205966526359481e-02
3.260000000000000142e+01,3.992566409683420692e-02
3.264000000000000057e+01,2.095511327742627036e-02
3.267999999999999972e+01,2.078377853335950515e-02
3.271999999999999886e+01,1.201122277323015547e-02
3.275999999999999801e+01,8.767715557441890101e-03
3.279999999999999716e+01,1.277346321612476097e-02
3.284000000000000341e+01,2.685451929794786807e-02
3.288000000000000256e+01,3.417743124421588480e-02
3.292000000000000171e+01,3.486507051383542360e-02
3.296000000000000085e+01,5.447479459211584940e-02
3.300000000000000000e+01,9.276085919845056260e-02
3.303999999999999915e+01,1.051207593974920335e-01
3.307999999999999829e+01,8.553377098959522029e-02
3.311999999999999744e+01,6.742105390301550427e-02
3.315999999999999659e+01,4.783368176738360400e-02
3.320000000000000284e+01,4.028756457724819856e-02
3.324000000000000199e+01,2.721201829488775412e-02
3.328000000000000114e+01,1.597935725629955755e-02
3.332000000000000028e+01,1.961400380334803878e-02
3.335999999999999943e+01,1.501603780561547134e-02
3.339999999999999858e+01,1.373541864691405281e-02
3.343999999999999773e+01,1.184024465150640242e-02
3.347999999999999687e+01,3.309791619747643691e-03
3.352000000000000313e+01,1.566736764768364085e-02
3.356000000000000227e+01,8.700542311779330129e-04
3.360000000000000142e+01,6.469281313153880768e-03
3.364000000000000057e+01,1.317415807149567575e-02
3.367999999999999972e+01,9.188980387520074428e-03
3.371999999999999886e+01,2.991909815763586951e-03
3.375999999999999801e+01,1.709516865881394046e-03
3.379999999999999716e+01,9.765189957765976411e-03
3.384000000000000341e+01,1.069409227223516029e-02
3.388000000000000256e+01,1.088556283991790226e-02
3.392000000000000171e+01,1.058534503289178079e-02
3.396000000000000085e+01,9.793438396892371195e-03
3.400000000000000000e+01,1.354759091766730844e-02
3.403999999999999915e+01,5.997325341889489340e-03
3.407999999999999829e+01,1.564892507097303057e-02
3.411999999999999744e+01,6.009431438858062711e-03
3.415999999999999659e+01,1.271169881087825734e-02
3.420000000000000284e+01,0.000000000000000000e+00
3.424000000000000199e+01,7.439090593029887115e-03
3.428000000000000114e+01,1.487797637565473410e-02
3.432000000000000028e+01,1.912198715116346370e-02
3.435999999999999943e+01,9.849881758925205233e-03
3.439999999999999858e+01,6.721165852039985740e-03
3.443999999999999773e+01,5.435322015257298273e-03
3.447999999999999687e+01,3.657783444063224514e-03
3.452000000000000313e+01,1.797625796228202039e-02
3.456000000000000227e+01,1.644404769118196219e-02
3.460000000000000142e+01,1.356003793067983923e-02
3.464000000000000057e+01,1.976834084604863623e-02
3.467999999999999972e+01,2.351899614494720042e-02
3.471999999999999886e+01,1.522799414577084669e-02
3.475999999999999801e+01,6.568166145502820144e-03
3.479999999999999716e+01,8.352240048929119795e-03
3.484000000000000341e+01,7.310048779314220341e-03
3.488000000000000256e+01,2.002930016048243625e-02
3.492000000000000171e+01,1.419468057418894237e-02
3.496000000000000085e+01,2.199863081697864264e-02
3.500000000000000000e+01,2.181569371648607245e-02
3.503999999999999915e+01,1.254002159990750577e-02
3.507999999999999829e+01,1.014496272521216158e-02
3.511999999999999744e+01,1.794805829375333353e-02
3.515999999999999659e+01,1.567544217804687362e-02
3.520000000000000284e+01,1.180527593262929199e-02
3.524000000000000199e+01,7.443406321775346453e-03
3.528000000000000114e+01,1.377117698978416564e-02
3.532000000000000028e+01,1.309503198576315690e-02
3.535999999999999943e+01,2.273991061256285320e-02
3.539999999999999858e+01,1.616547917097677090e-02
3.543999999999999773e+01,7.502007221408574407e-03
3.547999999999999687e+01,1.874356676720787332e-02
3.552000000000000313e+01,2.998490742040364407e-02
3.556000000000000227e+01,4.466644229552019923e-02
3.560000000000000142e+01,8.416788383005197050e-02
3.564000000000000057e+01,1.108904261393998114e-01
3.567999999999999972e+01,1.239739653771021882e-01
3.571999999999999886e+01,1.194865998674216334e-01
3.575999999999999801e+01,1.145075250868666933e-01
3.579999999999999716e+01,9.601231778504377978e-02
3.584000000000000341e+01,7.272488334283144784e-02
3.588000000000000256e+01,7.364299281432790112e-02
3.592000000000000171e+01,6.718856406031450956e-02
3.596000000000000085e+01,6.220837437484068311e-02
3.600000000000000000e+01,5.784231991144483248e-02
3.603999999999999915e+01,5.605635082659897461e-02
3.607999999999999829e+01,4.874092039675069488e-02
3.611999999999999744e+01,4.646301270034400993e-02
3.615999999999999659e+01,4.185031249285273147e-02
3.620000000000000284e+01,4.805011402931239767e-02
3.624000000000000199e+01,3.323859134416229377e-02
3.628000000000000114e+01,4.177250463787904322e-02
3.632000000000000028e+01,4.047643690002061118e-02
3.635999999999999943e+01,3.930301264317584420e-02
3.639999999999999858e+01,4.390433941894747449e-02
3.643999999999999773e+01,4.604799859061223244e-02
3.647999999999999687e+01,3.418402986582895486e-02
3.652000000000000313e+01,2.354855002354072635e-02
3.656000000000000227e+01,3.429255236953159675e-02
3.660000000000000142e+01,4.110442233630536013e-02
3.664000000000000057e+01,4.336979990374235927e-02
3.667999999999999972e+01,3.887699018049971950e-02
3.671999999999999886e+01,2.750312079914183500e-02
3.675999999999999801e+01,3.173375141570242142e-02
3.679999999999999716e+01,3.178650355538151229e-02
3.684000000000000341e+01,2.692414528488841843e-02
3.688000000000000256e+01,2.292165606899700461e-02
3.692000000000000171e+01,3.820982242909701926e-02
3.696000000000000085e+01,3.801589248352305050e-02
3.700000000000000000e+01,4.138501231951999954e-02
3.703999999999999915e+01,4.008476330036445101e-02
3.707999999999999829e+01,3.546673601667330727e-02
3.711999999999999744e+01,3.121708740931293871e-02
3.715999999999999659e+01,2.967038337426838521e-02
3.720000000000000284e+01,3.635585954997141989e-02
3.724000000000000199e+01,4.783310191336880013e-02
3.728000000000000114e+01,4.444260390283162609e-02
3.732000000000000028e+01,4.621248691097293304e-02
3.735999999999999943e+01,7.280225659089273327e-02
3.739999999999999858e+01,1.224917057039322105e-01
3.743999999999999773e+01,2.393918506242259381e-01
3.747999999999999687e+01,3.043169351216122864e-01
3.752000000000000313e+01,3.106318754305912311e-01
3.756000000000000227e+01,3.202641153350963554e-01
3.760000000000000142e+01,3.232610294140100260e-01
3.764000000000000057e+01,3.314183208774864609e-01
3.767999999999999972e+01,3.207759662029106562e-01
3.771999999999999886e+01,3.639512656200957763e-01
3.775999999999999801e+01,4.606984748484354020e-01
3.779999999999999716e+01,6.648354914025751405e-01
3.784000000000000341e+01,8.795392472494805158e-01
3.788000000000000256e+01,1.000000000000000000e+00
3.792000000000000171e+01,9.776833434973133397e-01
3.796000000000000085e+01,8.627210178609351354e-01
3.800000000000000000e+01,7.223239591411534377e-01
3.803999999999999915e+01,5.933537408350123554e-01
3.807999999999999829e+01,4.565194721203958972e-01
3.811999999999999744e+01,3.715369023441591478e-01
3.815999999999999659e+01,3.096540033700169725e-01
3.820000000000000284e+01,2.749255478783492190e-01
3.824000000000000199e+01,2.313500648557797468e-01
3.828000000000000114e+01,2.236529302422986254e-01
3.832000000000000028e+01,1.822886407288394073e-01
3.835999999999999943e+01,1.555458577373516338e-01
3.839999999999999858e+01,1.409671425501502762e-01
3.843999999999999773e+01,1.058685658094773441e-01
3.847999999999999687e+01,8.809467631774510477e-02
3.852000000000000313e+01,7.523541039041517497e-02
3.856000000000000227e+01,7.355723514494559578e-02
3.860000000000000142e+01,7.433624429192883798e-02
3.864000000000000057e+01,6.454801458097150779e-02
3.867999999999999972e+01,6.778395288664648688e-02
3.871999999999999886e+01,5.811808507560237841e-02
3.875999999999999801e+01,4.931206496872989065e-02
3.879999999999999716e+01,6.077965439278695814e-02
3.884000000000000341e+01,5.651938233439793291e-02
3.888000000000000256e+01,6.307158158424031047e-02
3.892000000000000171e+01,6.851767611046001571e-02
3.896000000000000085e+01,5.995611457583454457e-02
3.900000000000000000e+01,6.318999829201535356e-02
3.903999999999999915e+01,7.146137158033141756e-02
3.907999999999999829e+01,7.444899328015196216e-02
3.911999999999999744e+01,7.362732589526478633e-02
3.915999999999999659e+01,7.366550167190451248e-02
3.920000000000000284e+01,7.087736276067582719e-02
3.924000000000000199e+01,7.337245497660212223e-02
3.928000000000000114e+01,6.837209889563201914e-02
3.932000000000000028e+01,5.735075702155332383e-02
3.935999999999999943e+01,7.213225441139792249e-02
3.939999999999999858e+01,7.843532683618442691e-02
3.943999999999999773e+01,6.950201861724189523e-02
3.947999999999999687e+01,8.489708534137686835e-02
3.952000000000000313e+01,8.947915938741084207e-02
3.956000000000000227e+01,7.759613229521207522e-02
3.960000000000000142e+01,8.574096182231140395e-02
3.964000000000000057e+01,8.000099947924060872e-02
3.967999999999999972e+01,8.986550397278200708e-02
3.971999999999999886e+01,7.896438855004679624e-02
3.975999999999999801e+01,8.735389645052563101e-02
3.979999999999999716e+01,8.996815693306431383e-02
3.984000000000000341e+01,9.479384389951528433e-02
3.988000000000000256e+01,9.322992297364196546e-02
3.992000000000000171e+01,9.535189058120432937e-02
3.996000000000000085e+01,1.127097061060144123e-01
4.000000000000000000e+01,1.074588198371312225e-01
4.003999999999999915e+01,1.014704318647332154e-01
4.007999999999999829e+01,1.160013827131437802e-01
4.011999999999999744e+01,1.173847677192367961e-01
4.015999999999999659e+01,1.282290184522169585e-01
4.020000000000000284e+01,1.320692980929019378e-01
4.024000000000000199e+01,1.393497188065647707e-01
4.028000000000000114e+01,1.777164606024222437e-01
4.032000000000000028e+01,2.077276388983098909e-01
4.035999999999999943e+01,2.146386236594398089e-01
4.039999999999999858e+01,2.489497707448402319e-01
4.043999999999999773e+01,2.559830783391390807e-01
4.047999999999999687e+01,2.588384656642250814e-01
4.052000000000000313e+01,2.287639045838133489e-01
4.056000000000000227e+01,2.081502046876440304e-01
4.060000000000000142e+01,1.994548037848731525e-01
4.064000000000000057e+01,1.493512911050102199e-01
4.067999999999999972e+01,1.625265362155065840e-01
4.071999999999999886e+01,1.422803429964986377e-01
4.075999999999999801e+01,1.328465997352921424e-01
4.079999999999999716e+01,1.111253863014692311e-01
4.084000000000000341e+01,1.057458580096150291e-01
4.088000000000000256e+01,1.047894388278753502e-01
4.092000000000000171e+01,9.707478420342217917e-02
4.096000000000000085e+01,8.579656342443769956e-02
4.100000000000000000e+01,8.520791796449679600e-02
4.103999999999999915e+01,8.695355727370504550e-02
4.107999999999999829e+01,8.206383123631290355e-02
4.111999999999999744e+01,7.139884279025314473e-02
4.115999999999999659e+01,7.179204358569210576e-02
4.120000000000000284e+01,6.493551810588213402e-02
4.124000000000000199e+01,6.926005287221305429e-02
4.128000000000000114e+01,6.977527402355486463e-02
4.132000000000000028e+01,6.734128449784032577e-02
4.135999999999999943e+01,6.785593567301431706e-02
4.139999999999999858e+01,5.436290307721048515e-02
4.143999999999999773e+01,5.966898707282892317e-02
4.147999999999999687e+01,6.694073510117422299e-02
4.152000000000000313e+01,6.659413748064176020e-02
4.156000000000000227e+01,6.243822306526893712e-02
4.160000000000000142e+01,6.307402532276328022e-02
4.164000000000000057e+01,5.154521978125835985e-02
4.167999999999999972e+01,5.414639540508982274e-02
4.171999999999999886e+01,6.055631103362678347e-02
4.175999999999999801e+01,4.951812523401689925e-02
4.179999999999999716e+01,3.725093009057141302e-02
4.184000000000000341e+01,4.071104916662776629e-02
4.188000000000000256e+01,3.901025676884668780e-02
4.192000000000000171e+01,4.074958636493569708e-02
4.196000000000000085e+01,3.745087549182934961e-02
4.200000000000000000e+01,3.095720239282860609e-02
4.203999999999999915e+01,2.974672862246995064e-02
4.207999999999999829e+01,3.357370990014683920e-02
4.211999999999999744e+01,2.867649149643967249e-02
4.215999999999999659e+01,3.901509602543447308e-02
4.220000000000000284e+01,2.957102777912371319e-02
4.224000000000000199e+01,3.708298834138035877e-02
4.228000000000000114e+01,2.554950669882868550e-02
4.232000000000000028e+01,2.679440790850052753e-02
4.235999999999999943e+01,3.688579029465852838e-02
4.239999999999999858e+01,2.350834023905781084e-02
4.243999999999999773e+01,2.991297072363576295e-02
4.247999999999999687e+01,1.776364438476719237e-02
4.252000000000000313e+01,2.478203811169323034e-02
4.256000000000000227e+01,2.467356203154936686e-02
4.260000000000000142e+01,2.935679126766094910e-02
4.264000000000000057e+01,2.371848004572696747e-02
4.267999999999999972e+01,2.029156305492786985e-02
4.271999999999999886e+01,2.620261080491875436e-02
4.275999999999999801e+01,2.805858430579316609e-02
4.279999999999999716e+01,2.069886275010338755e-02
4.284000000000000341e+01,2.107976970118685678e-02
4.288000000000000256e+01,2.723535409404264501e-02
4.292000000000000171e+01,2.466672972022499605e-02
4.296000000000000085e+01,1.878026030499461638e-02
4.300000000000000000e+01,1.989718610045347960e-02
4.303999999999999915e+01,2.383986160452206821e-02
4.307999999999999829e+01,2.593915366243690693e-02
4.311999999999999744e+01,2.435198312236808160e-02
4.315999999999999659e+01,2.116717205395863416e-02
4.320000000000000284e+01,2.904052705955989175e-02
4.324000000000000199e+01,2.585510331412249618e-02
4.328000000000000114e+01,3.016455925220704049e-02
4.332000000000000028e+01,3.312211667123512310e-02
4.335999999999999943e+01,3.460490320377126311e-02
4.339999999999999858e+01,3.154112056627522004e-02
4.343999999999999773e+01,3.597221579524333829e-02
4.347999999999999687e+01,3.708546007736068795e-02
4.352000000000000313e+01,3.967285757203278806e-02
4.356000000000000227e+01,5.000087539671774911e-02
4.360000000000000142e+01,5.541370604053508925e-02
4.364000000000000057e+01,5.824591539946991081e-02
4.367999999999999972e+01,6.586981780951944865e-02
4.371999999999999886e+01,8.676357482522012443e-02
4.375999999999999801e+01,9.795013822932527314e-02
4.379999999999999716e+01,1.372740568242470649e-01
4.384000000000000341e+01,1.676280123780704845e-01
4.388000000000000256e+01,2.205900861214853959e-01
4.392000000000000171e+01,2.752720523611524861e-01
4.396000000000000085e+01,3.136117394066660902e-01
4.400000000000000000e+01,3.380665850671824013e-01
4.403999999999999915e+01,3.220962556434948665e-01
4.407999999999999829e+01,3.177984418658548194e-01
4.411999999999999744e+01,3.169407250975391777e-01
4.415999999999999659e+01,2.889279985046970811e-01
4.420000000000000284e+01,2.650925994916765172e-01
4.424000000000000199e+01,2.222117360148886389e-01
4.428000000000000114e+01,1.959182624396671735e-01
4.432000000000000028e+01,1.688872385546325849e-01
4.435999999999999943e+01,1.489824663484662082e-01
4.439999999999999858e+01,1.290773744029839742e-01
4.443999999999999773e+01,1.102778094824607286e-01
4.447999999999999687e+01,9.749864765947303946e-02
4.452000000000000313e+01,8.705373108462560738e-02
4.456000000000000227e+01,7.587126147437829593e-02
4.460000000000000142e+01,6.542570133251894571e-02
4.464000000000000057e+01,5.080217367794195166e-02
4.467999999999999972e+01,4.379638172080156655e-02
4.471999999999999886e+01,3.789611360876882912e-02
4.475999999999999801e+01,3.088967445050075714e-02
4.479999999999999716e+01,3.162384154004689585e-02
4.484000000000000341e+01,3.174332432751287431e-02
4.488000000000000256e+01,3.075663470595010537e-02
4.492000000000000171e+01,1.858827534106981955e-02
4.496000000000000085e+01,2.079560371818137826e-02
4.500000000000000000e+01,2.459994041323342387e-02
4.503999999999999915e+01,2.066301957096333339e-02
4.507999999999999829e+01,1.807736231176268471e-02
4.511999999999999744e+01,2.065199748966891485e-02
4.515999999999999659e+01,2.506938299479977150e-02
4.520000000000000284e+01,2.432581932214220380e-02
4.524000000000000199e+01,2.677659611306165352e-02
4.528000000000000114e+01,1.632549228788898743e-02
4.532000000000000028e+01,2.160166316120925092e-02
4.535999999999999943e+01,2.405144938993269976e-02
4.539999999999999858e+01,1.851423016661174828e-02
4.543999999999999773e+01,1.703145252774262638e-02
4.547999999999999687e+01,2.095470706394223295e-02
4.552000000000000313e+01,1.566223565359371739e-02
4.556000000000000227e+01,2.241087882102046555e-02
4.560000000000000142e+01,1.785497260946269579e-02
4.564000000000000057e+01,1.059555048662786172e-02
4.567999999999999972e+01,1.771180792902442985e-02
4.571999999999999886e+01,1.634956863257674281e-02
4.575999999999999801e+01,1.007211762498004710e-02
4.579999999999999716e+01,1.731024142762418311e-02
4.584000000000000341e+01,1.901879304473524934e-02
4.588000000000000256e+01,1.237171801911519931e-02
4.592000000000000171e+01,7.198768950181727057e-03
4.596000000000000085e+01,2.008765366175922773e-02
4.600000000000000000e+01,1.884593044877388643e-02
4.603999999999999915e+01,2.485331174872005069e-02
4.607999999999999829e+01,1.697582804191647560e-02
4.611999999999999744e+01,1.745329515805474005e-02
4.615999999999999659e+01,2.087934846334512165e-02
4.620000000000000284e+01,1.533541192593347938e-02
4.624000000000000199e+01,1.556611467207868853e-02
4.628000000000000114e+01,1.800817076555646240e-02
4.632000000000000028e+01,1.750095939891916849e-02
4.635999999999999943e+01,1.502745542327053700e-02
4.639999999999999858e+01,1.845146082729188022e-02
4.643999999999999773e+01,2.433256158792999543e-02
4.647999999999999687e+01,2.112079741284373854e-02
4.652000000000000313e+01,2.245495020975277894e-02
4.656000000000000227e+01,2.550896552145894003e-02
4.660000000000000142e+01,2.057596175318661749e-02
4.664000000000000057e+01,2.485800629461524386e-02
4.667999999999999972e+01,2.619077928754851708e-02
4.671999999999999886e+01,1.462165531086877419e-02
4.675999999999999801e+01,1.411065697866194062e-02
4.679999999999999716e+01,2.011152304933556609e-02
4.684000000000000341e+01,2.353173149396910538e-02
4.688000000000000256e+01,1.196121862802420818e-02
4.692000000000000171e+01,1.292329254754670878e-02
4.696000000000000085e+01,1.806266270264226745e-02
4.700000000000000000e+01,2.393891507025758258e-02
4.703999999999999915e+01,2.207388718732724783e-02
4.707999999999999829e+01,1.947127765033545774e-02
4.711999999999999744e+01,1.441087922062326936e-02
4.715999999999999659e+01,1.561659727906921855e-02
4.720000000000000284e+01,1.596186040748924506e-02
4.724000000000000199e+01,2.552216503164315281e-02
4.728000000000000114e+01,3.803104312554402705e-02
4.732000000000000028e+01,4.034119952562745942e-02
4.735999999999999943e+01,4.818023866352050960e-02
4.739999999999999858e+01,4.471470798052786660e-02
4.743999999999999773e+01,3.756266563898882915e-02
4.747999999999999687e+01,3.507940128026881127e-02
4.752000000000000313e+01,3.050695922569684679e-02
4.756000000000000227e+01,2.114215693124578063e-02
4.760000000000000142e+01,2.689024387635770286e-02
4.764000000000000057e+01,2.035078296962894093e-02
4.767999999999999972e+01,2.560666873831645915e-02
4.771999999999999886e+01,1.918936531248947863e-02
4.775999999999999801e+01,1.780945242914330415e-02
4.779999999999999716e+01,1.335738336472565985e-02
4.784000000000000341e+01,1.554003880548328852e-02
4.788000000000000256e+01,1.944254177031050357e-02
4.792000000000000171e+01,2.445053223908780216e-02
4.796000000000000085e+01,2.061138479069739640e-02
4.800000000000000000e+01,1.677187671918885584e-02
4.803999999999999915e+01,2.448196740837435548e-02
4.807999999999999829e+01,2.223907159905948866e-02
4.811999999999999744e+01,1.643252832187325208e-02
4.815999999999999659e+01,1.541762721818105628e-02
4.820000000000000284e+01,2.005447122591568973e-02
4.824000000000000199e+01,1.522981457077620011e-02
4.828000000000000114e+01,1.310797620242987703e-02
4.832000000000000028e+01,2.708199420225431212e-02
4.835999999999999943e+01,1.144351641636264655e-02
4.839999999999999858e+01,1.128653452425765202e-02
4.843999999999999773e+01,2.009883667361039503e-02
4.847999999999999687e+01,2.534748726671153668e-02
4.852000000000000313e+01,2.015165871171905806e-02
4.856000000000000227e+01,1.937885204806286121e-02
4.860000000000000142e+01,9.021668719981255219e-03
4.864000000000000057e+01,2.225552482938740126e-02
4.867999999999999972e+01,1.791832900972239670e-02
4.871999999999999886e+01,1.824989709067785862e-02
4.875999999999999801e+01,2.325022861798931723e-02
4.879999999999999716e+01,1.325981703002777901e-02
4.884000000000000341e+01,2.980936852433631323e-02
4.888000000000000256e+01,2.055544763579248216e-02
4.892000000000000171e+01,1.965644577167758797e-02
4.896000000000000085e+01,2.293471742991223458e-02
4.900000000000000000e+01,8.396189698617910133e-03
4.903999999999999915e+01,2.076623851778439458e-02
4.907999999999999829e+01,2.023436356573407938e-02
4.911999999999999744e+01,2.191380970823897378e-02
4.915999999999999659e+01,2.260990674858786784e-02
4.920000000000000284e+01,1.753064961884618495e-02
4.924000000000000199e+01,2.031482022673362572e-02
4.928000000000000114e+01,1.916671445356694925e-02
4.932000000000000028e+01,2.760224229389482073e-02
4.935999999999999943e+01,2.276722744364155851e-02
4.939999999999999858e+01,1.928342711589499381e-02
4.943999999999999773e+01,1.653648129053553531e-02
4.947999999999999687e+01,1.722957160306133259e-02
4.952000000000000313e+01,2.910362812898269202e-02
4.956000000000000227e+01,2.770713969300055493e-02
4.960000000000000142e+01,2.913632646625511149e-02
4.964000000000000057e+01,3.081087781789032184e-02
4.967999999999999972e+01,3.223930564095756762e-02
4.971999999999999886e+01,2.531206321190459380e-02
4.975999999999999801e+01,3.165460679456783000e-02
4.979999999999999716e+01,3.369625235122575280e-02
4.984000000000000341e+01,3.008540838273265211e-02
4.988000000000000256e+01,3.052895557533523083e-02
4.992000000000000171e+01,3.072637651378306786e-02
4.996000000000000085e+01,2.269099638769485339e-02
5.000000000000000000e+01,3.050570972432761069e-02
5.003999999999999915e+01,2.885890195618509915e-02
5.007999999999999829e+01,2.008513897925238295e-02
5.011999999999999744e+01,3.035613784469396934e-02
5.015999999999999659e+01,2.698796919475191999e-02
5.020000000000000284e+01,2.804280381130287367e-02
5.024000000000000199e+01,2.504247923128148645e-02
5.028000000000000114e+01,2.388484683263255443e-02
5.032000000000000028e+01,1.461728119423836257e-02
5.035999999999999943e+01,1.763651944822514084e-02
5.039999999999999858e+01,2.790481270031621580e-02
5.043999999999999773e+01,2.490255099668545191e-02
5.047999999999999687e+01,2.202277241871042693e-02
5.052000000000000313e+01,2.307450582042858134e-02
5.056000000000000227e+01,1.699927856218285196e-02
5.060000000000000142e+01,2.075341420731069420e-02
5.064000000000000057e+01,2.045238611322146641e-02
5.067999999999999972e+01,2.482009966079366803e-02
5.071999999999999886e+01,2.795870256355349054e-02
5.075999999999999801e+01,2.495331784039533929e-02
5.079999999999999716e+01,2.907411165952577051e-02
5.084000000000000341e+01,2.115306511199994272e-02
5.088000000000000256e+01,3.215389986265246997e-02
5.092000000000000171e+01,1.956293350004314341e-02
5.096000000000000085e+01,2.024173952121595746e-02
5.100000000000000000e+01,2.264035763382975242e-02
5.103999999999999915e+01,2.417847720702849881e-02
5.107999999999999829e+01,2.485609778654774421e-02
5.111999999999999744e+01,2.614768187617530840e-02
5.115999999999999659e+01,1.883783553381964890e-02
5.120000000000000284e+01,2.320042397843590995e-02
5.124000000000000199e+01,2.068178786693437160e-02
5.128000000000000114e+01,2.062019214604876582e-02
5.132000000000000028e+01,2.989646349909213033e-02
5.135999999999999943e+01,2.651652901418598968e-02
5.139999999999999858e+01,2.633086503612845283e-02
5.143999999999999773e+01,2.553044180235325075e-02
5.147999999999999687e+01,2.178069250834635540e-02
5.152000000000000313e+01,2.601721697206476822e-02
5.156000000000000227e+01,2.582995150897020309e-02
5.160000000000000142e+01,2.871408236823094068e-02
5.164000000000000057e+01,2.889462917654410726e-02
5.167999999999999972e+01,1.998225199475182901e-02
5.171999999999999886e+01,2.507687004474292228e-02
5.175999999999999801e+01,2.132430702244166726e-02
5.179999999999999716e+01,2.064313805117334519e-02
5.184000000000000341e+01,2.057592441325289609e-02
5.188000000000000256e+01,2.198276904661305639e-02
5.192000000000000171e+01,2.019453879649029879e-02
5.196000000000000085e+01,2.295216373839487761e-02
5.200000000000000000e+01,2.300620054097175099e-02
5.203999999999999915e+01,2.146249596849561861e-02
5.207999999999999829e+01,2.040987209060953975e-02
5.211999999999999744e+01,2.586905219842941528e-02
5.215999999999999659e+01,2.186668712545708493e-02
5.220000000000000284e+01,2.720217913259542417e-02
5.224000000000000199e+01,3.020269601433228993e-02
5.228000000000000114e+01,3.271131601396859434e-02
5.232000000000000028e+01,3.300783189284550029e-02
5.235999999999999943e+01,2.912629258596207901e-02
5.239999999999999858e+01,2.917624390834174311e-02
5.243999999999999773e+01,3.266619775303587769e-02
5.247999999999999687e+01,3.627861201016226167e-02
5.252000000000000313e+01,3.559009735129943508e-02
5.256000000000000227e+01,3.342670732511653087e-02
5.260000000000000142e+01,3.802085965980799009e-02
5.264000000000000057e+01,4.396618972158412852e-02
5.267999999999999972e+01,3.713242704151220597e-02
5.271999999999999886e+01,4.037374701513897490e-02
5.275999999999999801e+01,3.427638690717755426e-02
5.279999999999999716e+01,3.174189714632145998e-02
5.284000000000000341e+01,3.547345936806874794e-02
5.288000000000000256e+01,2.937485249275031268e-02
5.292000000000000171e+01,2.978804051784845336e-02
5.296000000000000085e+01,3.314973750713883643e-02
5.300000000000000000e+01,2.483818533900466682e-02
5.303999999999999915e+01,2.402140201386186377e-02
5.307999999999999829e+01,3.057651516427490820e-02
5.311999999999999744e+01,2.951315092911390575e-02
5.315999999999999659e+01,2.906372703657332177e-02
5.320000000000000284e+01,2.787665198750730738e-02
5.324000000000000199e+01,2.840936359107198300e-02
5.328000000000000114e+01,3.520812218033094604e-02
5.332000000000000028e+01,4.642984860345427539e-02
5.335999999999999943e+01,4.573257795443073231e-02
5.339999999999999858e+01,3.889128969803423708e-02
5.343999999999999773e+01,3.917615000247131468e-02
5.347999999999999687e+01,3.516007048857187900e-02
5.352000000000000313e+01,3.089782383671536500e-02
5.356000000000000227e+01,3.118141420630746175e-02
5.360000000000000142e+01,3.257042757429488150e-02
5.364000000000000057e+01,2.855265208834863178e-02
5.367999999999999972e+01,3.043230330593887922e-02
5.371999999999999886e+01,2.567644562935628497e-02
5.375999999999999801e+01,2.509780696338682893e-02
5.379999999999999716e+01,2.415012606643798798e-02
5.384000000000000341e+01,2.209617100521916663e-02
5.388000000000000256e+01,3.134600455573969408e-02
5.392000000000000171e+01,2.646514023733227347e-02
5.396000000000000085e+01,2.834180283480728507e-02
5.400000000000000000e+01,2.493454440313942408e-02
5.403999999999999915e+01,2.693322093394370786e-02
5.407999999999999829e+01,2.549105422464162732e-02
5.411999999999999744e+01,2.318835399756033130e-02
5.415999999999999659e+01,2.235968614868482501e-02
5.420000000000000284e+01,2.398802552911892191e-02
5.424000000000000199e+01,2.254413559190190236e-02
5.428000000000000114e+01,2.318863623595238815e-02
5.432000000000000028e+01,2.321834491724335953e-02
5.435999999999999943e+01,2.189602970248416894e-02
5.439999999999999858e+01,2.413656666425145064e-02
5.443999999999999773e+01,2.330487203704521490e-02
5.447999999999999687e+01,2.136689597733746476e-02
5.452000000000000313e+01,2.336038647087588724e-02
5.456000000000000227e+01,3.149703750047448680e-02
5.460000000000000142e+01,2.304554467522862762e-02
5.464000000000000057e+01,3.302440279461684586e-02
5.467999999999999972e+01,2.039439240525125346e-02
5.471999999999999886e+01,2.902078605492445715e-02
5.475999999999999801e+01,2.941432412832523102e-02
5.479999999999999716e+01,2.501541973997781568e-02
5.484000000000000341e+01,2.565382548930009166e-02
5.488000000000000256e+01,2.420296995810792065e-02
5.492000000000000171e+01,2.262880330287326755e-02
5.496000000000000085e+01,2.584620159617281865e-02
5.500000000000000000e+01,2.869454403055889460e-02
5.503999999999999915e+01,2.552172214589976465e-02
5.507999999999999829e+01,2.922928637088886145e-02
5.511999999999999744e+01,2.839014832635613356e-02
5.515999999999999659e+01,2.607610538731283678e-02
5.520000000000000284e+01,2.671054597365148803e-02
5.524000000000000199e+01,2.697592797548981763e-02
5.528000000000000114e+01,3.092702407320736813e-02
5.532000000000000028e+01,2.983992797739658948e-02
5.535999999999999943e+01,3.022685063185754500e-02
5.539999999999999858e+01,4.007446593844257721e-02
5.543999999999999773e+01,3.505413463502368709e-02
5.547999999999999687e+01,3.064771732688591557e-02
5.552000000000000313e+01,2.685521355976477204e-02
5.556000000000000227e+01,2.994309045111828368e-02
5.560000000000000142e+01,3.241616084324920599e-02
5.564000000000000057e+01,2.677923757846037076e-02
5.567999999999999972e+01,2.249345751665650719e-02
5.571999999999999886e+01,2.680826308066374536e-02
5.575999999999999801e+01,2.129286684056342152e-02
5.579999999999999716e+01,2.683549358116585695e-02
5.584000000000000341e+01,2.549684352523647404e-02
5.588000000000000256e+01,2.636943779316687497e-02
5.592000000000000171e+01,1.876341948481315830e-02
5.596000000000000085e+01,2.627019547474824385e-02
5.600000000000000000e+01,2.591271754572540414e-02
5.603999999999999915e+01,1.965693585421660061e-02
5.607999999999999829e+01,1.806983447866583256e-02
5.611999999999999744e+01,2.631203331799173220e-02
5.615999999999999659e+01,2.705859216081494406e-02
5.620000000000000284e+01,2.645310621142238014e-02
5.624000000000000199e+01,1.835197935699814722e-02
5.628000000000000114e+01,2.646949038528618320e-02
5.632000000000000028e+01,2.954879786343419037e-02
5.635999999999999943e+01,2.746702942400667050e-02
5.639999999999999858e+01,2.071567226542325030e-02
5.643999999999999773e+01,2.281063638223253254e-02
5.647999999999999687e+01,2.281632104794862476e-02
5.652000000000000313e+01,2.011836624245184196e-02
5.656000000000000227e+01,2.110611099637119126e-02
5.660000000000000142e+01,1.865298389152257597e-02
5.664000000000000057e+01,2.148289030878453021e-02
5.667999999999999972e+01,1.780012612947388245e-02
5.671999999999999886e+01,2.271793621936260554e-02
5.675999999999999801e+01,2.161456245683392174e-02
5.679999999999999716e+01,3.034048118668591920e-02
5.684000000000000341e+01,2.776172288923735298e-02
5.688000000000000256e+01,2.444527164293216343e-02
5.692000000000000171e+01,2.309430908326849316e-02
5.696000000000000085e+01,2.530616962720521820e-02
5.700000000000000000e+01,1.965376489557229059e-02
5.703999999999999915e+01,1.891577340389211798e-02
5.707999999999999829e+01,2.247783513204512640e-02
5.711999999999999744e+01,2.407348205404438030e-02
5.715999999999999659e+01,2.247399458391520152e-02
5.720000000000000284e+01,2.136552966252387720e-02
5.724000000000000199e+01,2.701455440732838595e-02
5.728000000000000114e+01,2.344771965183067158e-02
5.732000000000000028e+01,2.295221625886897585e-02
5.735999999999999943e+01,2.479081229515273446e-02
5.739999999999999858e+01,2.687468478250998327e-02
5.743999999999999773e+01,2.588629161105845955e-02
5.747999999999999687e+01,2.661763694020381765e-02
5.752000000000000313e+01,2.513681909420873925e-02
5.756000000000000227e+01,2.844753666955723501e-02
5.760000000000000142e+01,2.426259789488211666e-02
5.764000000000000057e+01,2.167452389057499679e-02
5.767999999999999972e+01,2.608967838189661312e-02
5.771999999999999886e+01,2.079748072332264844e-02
5.775999999999999801e+01,2.213989491233540538e-02
5.779999999999999716e+01,2.200737422538257340e-02
5.784000000000000341e+01,1.880258333697626752e-02
5.788000000000000256e+01,2.235527484653428848e-02
5.792000000000000171e+01,2.295856715928099728e-02
5.796000000000000085e+01,2.110394747363596168e-02
5.800000000000000000e+01,2.391798629925435266e-02
5.803999999999999915e+01,2.120231438867639651e-02
5.807999999999999829e+01,2.438401921254327101e-02
5.811999999999999744e+01,2.523068213413155389e-02
5.815999999999999659e+01,2.730558818113660094e-02
5.820000000000000284e+01,2.643109185147902648e-02
5.824000000000000199e+01,2.236144886455224481e-02
5.828000000000000114e+01,1.878281616122268183e-02
5.832000000000000028e+01,2.429622720919784318e-02
5.835999999999999943e+01,2.636874641076831713e-02
5.839999999999999858e+01,2.672058009606410531e-02
5.843999999999999773e+01,2.989798859814872534e-02
5.847999999999999687e+01,2.484249927736523200e-02
5.852000000000000313e+01,2.494715021509117878e-02
5.856000000000000227e+01,2.566568016973405295e-02
5.860000000000000142e+01,2.466352233677989239e-02
5.864000000000000057e+01,2.341513922001652037e-02
5.867999999999999972e+01,2.708115071836264195e-02
5.871999999999999886e+01,2.681477862923981048e-02
5.875999999999999801e+01,3.699203633939378982e-02
5.879999999999999716e+01,3.758480154768256698e-02
5.884000000000000341e+01,3.940580215889213922e-02
5.888000000000000256e+01,4.048908710802159860e-02
5.892000000000000171e+01,3.997455254860921708e-02
5.896000000000000085e+01,3.528188784979899989e-02
5.900000000000000000e+01,2.837704316806293273e-02
5.903999999999999915e+01,2.380627883646454362e-02
5.907999999999999829e+01,2.673021475392253418e-02
5.911999999999999744e+01,2.830207271785849590e-02
5.915999999999999659e+01,2.028943409154896488e-02
5.920000000000000284e+01,2.431775513883048523e-02
5.924000000000000199e+01,2.257060799563950781e-02
5.928000000000000114e+01,2.536923291407789174e-02
5.932000000000000028e+01,2.693864952084284656e-02
5.935999999999999943e+01,2.052090213726338527e-02
5.939999999999999858e+01,2.577549641643956529e-02
5.943999999999999773e+01,2.451738875479467575e-02
5.947999999999999687e+01,2.989387340736431378e-02
5.952000000000000313e+01,2.691457651301856074e-02
5.956000000000000227e+01,2.848104850045089093e-02
5.960000000000000142e+01,2.636087073293795491e-02
5.964000000000000057e+01,2.817210137281906182e-02
5.967999999999999972e+01,1.978446995116144719e-02
5.971999999999999886e+01,2.061173829472309760e-02
5.975999999999999801e+01,2.451031029068817188e-02
5.979999999999999716e+01,2.447648643404358795e-02
5.984000000000000341e+01,2.653099001590522588e-02
5.988000000000000256e+01,2.698766318687781385e-02
5.992000000000000171e+01,2.658373697172302860e-02
5.996000000000000085e+01,2.409049178446608097e-02
