2.003999999999999915e+01,2.390853393403563967e-02
2.007999999999999829e+01,1.343452101012867009e-02
2.012000000000000099e+01,1.540863669622540878e-02
2.016000000000000014e+01,2.314577395789024772e-02
2.019999999999999929e+01,1.474644575700619770e-02
2.023999999999999844e+01,2.743977825158230854e-02
2.028000000000000114e+01,1.546737030681868616e-02
2.032000000000000028e+01,1.432944126212432577e-02
2.035999999999999943e+01,8.696349990062617746e-03
2.039999999999999858e+01,7.904192641893185295e-03
2.044000000000000128e+01,1.425817763990121917e-02
2.048000000000000043e+01,1.127605931091672092e-02
2.051999999999999957e+01,1.947419789981381238e-02
2.055999999999999872e+01,5.427060911140440050e-03
2.060000000000000142e+01,1.316414132273336854e-02
2.064000000000000057e+01,1.629079436811471659e-02
2.067999999999999972e+01,1.134920574090268752e-02
2.071999999999999886e+01,1.539792204877077179e-02
2.076000000000000156e+01,1.483620898288267632e-02
2.080000000000000071e+01,1.807807905791104439e-02
2.083999999999999986e+01,2.016733205802048387e-02
2.087999999999999901e+01,1.153734958444162760e-02
2.092000000000000171e+01,1.985064006559621522e-02
2.096000000000000085e+01,2.459084191824685225e-02
2.100000000000000000e+01,2.057123401741146884e-02
2.103999999999999915e+01,1.251749433141567842e-02
2.107999999999999829e+01,1.956285765025349635e-02
2.112000000000000099e+01,2.142148329983434296e-02
2.116000000000000014e+01,1.970701697500356481e-02
2.119999999999999929e+01,2.133508528098026699e-02
2.123999999999999844e+01,2.065792527448904320e-02
2.128000000000000114e+01,1.951970355952185876e-02
2.132000000000000028e+01,9.506406283042893174e-03
2.135999999999999943e+01,2.185361596524732983e-02
2.139999999999999858e+01,1.207079647164215411e-02
2.144000000000000128e+01,2.287954411128006668e-03
2.148000000000000043e+01,1.302145002857926781e-02
2.151999999999999957e+01,1.026944855567700834e-02
2.155999999999999872e+01,1.085997569094831333e-02
2.160000000000000142e+01,1.248782167374476969e-02
2.164000000000000057e+01,2.206861310928548078e-02
2.167999999999999972e+01,2.242854159696034202e-02
2.171999999999999886e+01,1.921536874168183404e-02
2.176000000000000156e+01,5.859247963587484696e-03
2.180000000000000071e+01,1.486362678317960581e-02
2.183999999999999986e+01,1.994912088855355092e-02
2.187999999999999901e+01,2.399724097486143765e-02
2.192000000000000171e+01,2.274334955370792277e-02
2.196000000000000085e+01,1.630270641048480254e-02
2.200000000000000000e+01,1.550979360590504057e-02
2.203999999999999915e+01,2.209351728938736478e-02
2.207999999999999829e+01,1.496121360482771147e-02
2.212000000000000099e+01,1.151721052361988351e-02
2.216000000000000014e+01,2.155864601531684230e-02
2.219999999999999929e+01,1.281259213019996825e-02
2.223999999999999844e+01,1.847405911621137833e-02
2.228000000000000114e+01,1.549095538950038577e-02
2.232000000000000028e+01,1.446724210163323303e-02
2.235999999999999943e+01,1.713182540202864632e-02
2.239999999999999858e+01,1.449438916478393638e-02
2.244000000000000128e+01,1.208743454023814869e-02
2.248000000000000043e+01,7.836272676889690161e-03
2.251999999999999957e+01,1.027017654398444148e-02
2.255999999999999872e+01,8.554662742446421386e-03
2.260000000000000142e+01,2.343949239373835976e-03
2.264000000000000057e+01,2.379570219154910488e-02
2.267999999999999972e+01,2.277162319038468150e-02
2.271999999999999886e+01,1.448609157038077341e-02
2.276000000000000156e+01,1.115671484713070746e-02
2.280000000000000071e+01,1.923807780756025404e-02
2.283999999999999986e+01,2.224793477849930715e-02
2.287999999999999901e+01,1.050440690660517373e-02
2.292000000000000171e+01,6.713803073645626882e-03
2.296000000000000085e+01,3.323665079766818103e-02
2.300000000000000000e+01,1.815042575572326303e-02
2.303999999999999915e+01,2.369577274823632049e-02
2.307999999999999829e+01,2.013549382610238525e-02
2.312000000000000099e+01,8.391671956726744555e-03
2.316000000000000014e+01,9.902751021570293730e-03
2.319999999999999929e+01,9.684871256916322696e-03
2.323999999999999844e+01,1.914881699634466902e-02
2.328000000000000114e+01,2.238864483955189250e-02
2.332000000000000028e+01,1.721440548046297009e-02
2.335999999999999943e+01,1.250115325204398734e-02
2.339999999999999858e+01,1.770024476012769382e-02
2.344000000000000128e+01,2.566553115198520058e-02
2.348000000000000043e+01,1.818875386430904599e-03
2.351999999999999957e+01,1.935066544835829100e-02
2.355999999999999872e+01,1.878650610873900881e-02
2.360000000000000142e+01,1.845280897555373611e-02
2.364000000000000057e+01,1.915639656163407173e-02
2.367999999999999972e+01,2.112778910694535633e-02
2.371999999999999886e+01,1.975656775937213727e-02
2.376000000000000156e+01,1.377486684942600542e-02
2.380000000000000071e+01,2.392956753112775517e-02
2.383999999999999986e+01,1.414414685383849624e-02
2.387999999999999901e+01,1.623048961062018708e-02
2.392000000000000171e+01,1.462843376488949867e-02
2.396000000000000085e+01,2.051824274107959950e-02
2.400000000000000000e+01,1.614980586571351101e-02
2.403999999999999915e+01,2.169370201994525599e-02
2.407999999999999829e+01,2.066768553060477701e-02
2.412000000000000099e+01,1.929582027547128292e-02
2.416000000000000014e+01,2.103591922256350596e-02
2.419999999999999929e+01,1.954865670116589377e-02
2.423999999999999844e+01,1.852236658844399336e-02
2.428000000000000114e+01,1.150246275910882070e-02
2.432000000000000028e+01,1.646957545742084791e-02
2.435999999999999943e+01,1.947718901082361870e-02
2.439999999999999858e+01,1.556910320348173747e-02
2.444000000000000128e+01,1.961391600617526029e-02
2.448000000000000043e+01,2.273657174757497818e-02
2.451999999999999957e+01,1.421784748317814380e-02
2.455999999999999872e+01,1.653353118560570850e-02
2.460000000000000142e+01,1.343189809083428568e-02
2.464000000000000057e+01,1.494060707756350581e-02
2.467999999999999972e+01,2.405642929551876641e-02
2.471999999999999886e+01,1.726623134255588637e-02
2.476000000000000156e+01,9.092829825734874763e-03
2.480000000000000071e+01,7.028153623141805174e-03
2.483999999999999986e+01,6.922825700954568333e-03
2.487999999999999901e+01,2.110971402933971980e-02
2.492000000000000171e+01,9.708700656737852264e-03
2.496000000000000085e+01,1.836292492501250331e-02
2.500000000000000000e+01,1.618258433932536974e-02
2.503999999999999915e+01,1.319533777837607683e-02
2.507999999999999829e+01,2.207983457605103284e-02
2.512000000000000099e+01,7.105333145431350257e-03
2.516000000000000014e+01,2.797674828632898056e-02
2.519999999999999929e+01,7.123793401700174652e-03
2.523999999999999844e+01,2.430670238711905504e-02
2.528000000000000114e+01,2.834983274283832400e-02
2.532000000000000028e+01,9.571305615515337054e-03
2.535999999999999943e+01,1.949254353025432415e-02
2.539999999999999858e+01,2.053863762696285164e-02
2.544000000000000128e+01,1.697422405567314968e-02
2.548000000000000043e+01,1.387076214843097413e-02
2.551999999999999957e+01,1.526236714612178545e-02
2.555999999999999872e+01,1.630809928748356771e-02
2.560000000000000142e+01,2.346254335944209304e-02
2.564000000000000057e+01,2.105027687084069440e-02
2.567999999999999972e+01,1.437328006287185399e-02
2.571999999999999886e+01,1.541863954198197974e-02
2.576000000000000156e+01,2.314901054782937673e-02
2.580000000000000071e+01,1.243761331424293910e-02
2.583999999999999986e+01,2.408664809100583351e-02
2.587999999999999901e+01,1.591078783509171715e-02
2.592000000000000171e+01,1.107738324656149138e-02
2.596000000000000085e+01,1.823096774923483460e-02
2.600000000000000000e+01,1.662465885072767283e-02
2.603999999999999915e+01,2.446960770444720629e-02
2.607999999999999829e+01,2.171049454544967880e-02
2.612000000000000099e+01,1.699185279755440273e-02
2.616000000000000014e+01,1.342571406506026625e-02
2.619999999999999929e+01,2.150077904496017905e-02
2.623999999999999844e+01,3.072834570189810974e-02
2.628000000000000114e+01,1.505955063311612864e-02
2.632000000000000028e+01,1.633393817955755903e-02
2.635999999999999943e+01,2.175759721439933861e-02
2.639999999999999858e+01,1.692297024679157574e-02
2.644000000000000128e+01,1.888860388440792223e-02
2.648000000000000043e+01,1.140277336322519618e-02
2.651999999999999957e+01,2.869783302234552025e-02
2.655999999999999872e+01,1.959814036202159673e-02
2.660000000000000142e+01,3.554188079137374071e-04
2.664000000000000057e+01,9.697180427484746942e-03
2.667999999999999972e+01,7.858567723748599576e-03
2.671999999999999886e+01,1.604750366901941741e-02
2.676000000000000156e+01,1.893434713586064286e-02
2.680000000000000071e+01,1.386810699990370481e-02
2.683999999999999986e+01,1.087644213984823374e-02
2.687999999999999901e+01,1.837336507036687466e-02
2.692000000000000171e+01,1.930032784542285579e-02
2.696000000000000085e+01,1.826774797876850806e-02
2.700000000000000000e+01,1.043468570914176351e-02
2.703999999999999915e+01,1.654802219056326212e-02
2.707999999999999829e+01,1.908816765870289742e-02
2.712000000000000099e+01,1.137001507912500757e-02
2.716000000000000014e+01,2.382232379001154865e-02
2.719999999999999929e+01,1.621919447608295359e-02
2.723999999999999844e+01,2.567449284077534533e-02
2.728000000000000114e+01,2.245102093498366203e-02
2.732000000000000028e+01,2.752618082187545737e-02
2.735999999999999943e+01,2.983496819322793356e-02
2.739999999999999858e+01,3.398780056279336603e-02
2.744000000000000128e+01,3.053331998637577593e-02
2.748000000000000043e+01,1.393902397527304812e-02
2.751999999999999957e+01,2.454607096097475780e-02
2.755999999999999872e+01,2.443377071966852318e-02
2.760000000000000142e+01,2.858598167670773488e-02
2.764000000000000057e+01,2.513087634185615094e-02
2.767999999999999972e+01,2.905231314046725910e-02
2.771999999999999886e+01,1.072835457800952984e-02
2.776000000000000156e+01,2.306354863446740192e-02
2.780000000000000071e+01,2.767616326773485180e-02
2.783999999999999986e+01,2.306781189917690364e-02
2.787999999999999901e+01,3.586365886605503983e-02
2.792000000000000171e+01,1.661696848722211614e-02
2.796000000000000085e+01,2.399531147132982420e-02
2.800000000000000000e+01,4.047909805404800720e-02
2.803999999999999915e+01,2.837815892071075125e-02
2.807999999999999829e+01,3.402719614062185011e-02
2.812000000000000099e+01,2.377015630918253436e-02
2.816000000000000014e+01,4.601642967801686246e-02
2.819999999999999929e+01,4.382735101871003403e-02
2.823999999999999844e+01,4.774694012401728416e-02
2.828000000000000114e+01,4.636441132199580623e-02
2.832000000000000028e+01,5.028372576421195200e-02
2.835999999999999943e+01,5.097560914305646063e-02
2.839999999999999858e+01,5.235891624484161760e-02
2.844000000000000128e+01,4.129395457902423905e-02
2.848000000000000043e+01,4.717213939262628053e-02
2.851999999999999957e+01,4.601929546521008052e-02
2.855999999999999872e+01,5.374136485871584129e-02
2.860000000000000142e+01,4.889990235331954926e-02
2.864000000000000057e+01,6.019476046860305213e-02
2.867999999999999972e+01,5.512249034570090855e-02
2.871999999999999886e+01,4.809064813710004632e-02
2.876000000000000156e+01,4.463173499313940334e-02
2.880000000000000071e+01,4.543731297207755787e-02
2.883999999999999986e+01,4.094076367514524334e-02
2.887999999999999901e+01,5.154318689264315162e-02
2.892000000000000171e+01,4.185962240137239970e-02
2.896000000000000085e+01,5.107862408708932489e-02
2.900000000000000000e+01,4.093372036226114452e-02
2.903999999999999915e+01,4.346731692909672207e-02
2.907999999999999829e+01,4.254294947814597772e-02
2.912000000000000099e+01,4.449994234176143232e-02
2.916000000000000014e+01,3.596808212025340984e-02
2.919999999999999929e+01,3.815529178593599080e-02
2.923999999999999844e+01,3.584719066594593828e-02
2.928000000000000114e+01,2.431809945359447722e-02
2.932000000000000028e+01,3.042370339528975565e-02
2.935999999999999943e+01,3.399342227151462559e-02
2.939999999999999858e+01,2.684376313837994257e-02
2.944000000000000128e+01,4.113239215266776411e-02
2.948000000000000043e+01,1.865277908565661155e-02
2.951999999999999957e+01,2.348973601094558189e-02
2.955999999999999872e+01,3.097752498065695775e-02
2.960000000000000142e+01,3.466155986950173601e-02
2.964000000000000057e+01,2.670412909731088510e-02
2.967999999999999972e+01,2.024492381626418272e-02
2.971999999999999886e+01,1.724337108492718026e-02
2.976000000000000156e+01,2.092676296217184720e-02
2.980000000000000071e+01,2.391842968612261852e-02
2.983999999999999986e+01,2.333685922326410658e-02
2.987999999999999901e+01,2.425351090564212622e-02
2.992000000000000171e+01,2.263426815400789924e-02
2.996000000000000085e+01,1.386871211624608052e-02
3.000000000000000000e+01,1.939528667381756541e-02
3.003999999999999915e+01,2.157914160781873938e-02
3.007999999999999829e+01,2.687486170517549081e-02
3.012000000000000099e+01,1.753233629241087582e-02
3.016000000000000014e+01,2.501766879886692038e-02
3.019999999999999929e+01,2.939079991417318030e-02
3.023999999999999844e+01,2.062406942126690859e-02
3.028000000000000114e+01,2.234586983850259459e-02
3.032000000000000028e+01,2.372171776680415817e-02
3.035999999999999943e+01,4.065755526811173221e-02
3.039999999999999858e+01,1.759784256889088128e-02
3.044000000000000128e+01,2.588880038086148472e-02
3.048000000000000043e+01,1.285640029482262858e-02
3.051999999999999957e+01,1.734341483281052337e-02
3.055999999999999872e+01,1.468410604694747601e-02
3.060000000000000142e+01,1.824868599856012408e-02
3.064000000000000057e+01,1.605006674283886506e-02
3.067999999999999972e+01,1.938377215879013085e-02
3.071999999999999886e+01,9.692868390923524771e-03
3.076000000000000156e+01,1.371778023107393836e-02
3.080000000000000071e+01,1.186422973259092239e-02
3.083999999999999986e+01,9.895238954960144592e-03
3.087999999999999901e+01,1.737742495858789551e-02
3.092000000000000171e+01,1.863536525231748384e-02
3.096000000000000085e+01,1.678109144044769713e-02
3.100000000000000000e+01,1.146882149007694487e-02
3.103999999999999915e+01,2.621168746498633850e-02
3.107999999999999829e+01,2.677733368771040290e-02
3.112000000000000099e+01,4.739811449735159554e-02
3.116000000000000014e+01,3.954937784934939998e-02
3.119999999999999929e+01,2.616795353461814910e-02
3.123999999999999844e+01,2.892280634376555998e-02
3.128000000000000114e+01,1.300527832645939456e-02
3.132000000000000028e+01,1.460715154954885311e-02
3.135999999999999943e+01,1.286628306607666763e-02
3.139999999999999858e+01,8.935276752594815269e-03
3.144000000000000128e+01,1.618434467042983646e-02
3.148000000000000043e+01,1.548025069122474680e-02
3.151999999999999957e+01,1.636273689997402685e-03
3.155999999999999872e+01,1.499357209823743223e-02
3.160000000000000142e+01,1.094634932687822866e-02
3.164000000000000057e+01,8.282058802193728239e-03
3.167999999999999972e+01,6.539658036709013710e-03
3.171999999999999886e+01,8.024355452709401593e-03
3.176000000000000156e+01,1.746182901852057906e-02
3.180000000000000071e+01,1.548832169663882062e-02
3.183999999999999986e+01,1.005680418344336025e-02
3.187999999999999901e+01,7.391340356713451895e-03
3.192000000000000171e+01,0.000000000000000000e+00
3.196000000000000085e+01,1.635211472373797326e-02
3.200000000000000000e+01,2.198480794131531593e-02
3.203999999999999915e+01,8.829847163416127895e-03
3.207999999999999829e+01,1.065854491084945212e-02
3.211999999999999744e+01,1.513803187508558530e-02
3.215999999999999659e+01,6.016583292101165999e-03
3.220000000000000284e+01,6.692070771103945936e-03
3.224000000000000199e+01,1.278459636912524650e-02
3.228000000000000114e+01,1.011712350446184600e-02
3.232000000000000028e+01,1.136830151100032792e-02
3.235999999999999943e+01,1.169719062747860347e-02
3.239999999999999858e+01,8.798581093248131202e-03
3.243999999999999773e+01,1.719528951536906589e-02
3.247999999999999687e+01,5.802720340556715350e-04
3.252000000000000313e+01,1.059021162898564176e-02
3.256000000000000227e+01,8.036553076039617410e-03
3.260000000000000142e+01,2.357857662254616779e-02
3.264000000000000057e+01,1.122736022455854930e-02
3.267999999999999972e+01,2.492479595322133479e-02
3.271999999999999886e+01,2.456024494782839060e-02
3.275999999999999801e+01,1.739511517731898160e-02
3.279999999999999716e+01,3.720071916250208832e-02
3.284000000000000341e+01,4.179172986035129683e-02
3.288000000000000256e+01,4.108054569499292735e-02
3.292000000000000171e+01,7.460150191590321500e-02
3.296000000000000085e+01,1.175736001206310888e-01
3.300000000000000000e+01,1.516704273628329824e-01
3.303999999999999915e+01,2.087038684355709273e-01
3.307999999999999829e+01,2.474106799324052308e-01
3.311999999999999744e+01,2.584547643637135073e-01
3.315999999999999659e+01,2.220113228736984301e-01
3.320000000000000284e+01,1.834929738950769607e-01
3.324000000000000199e+01,1.387503403940271163e-01
3.328000000000000114e+01,9.977050897699542287e-02
3.332000000000000028e+01,5.975311215497273315e-02
3.335999999999999943e+01,4.359440744662043676e-02
3.339999999999999858e+01,3.158485645071471698e-02
3.343999999999999773e+01,2.579914668039426026e-02
3.347999999999999687e+01,2.162685928354365905e-02
3.352000000000000313e+01,3.497393632210310521e-02
3.356000000000000227e+01,3.034015711830041068e-02
3.360000000000000142e+01,1.752265964168842408e-02
3.364000000000000057e+01,3.628630005089010513e-02
3.367999999999999972e+01,2.554303675285036351e-02
3.371999999999999886e+01,2.482720499704537884e-02
3.375999999999999801e+01,2.146015411122552397e-02
3.379999999999999716e+01,1.901495751798302353e-02
3.384000000000000341e+01,8.962340909708616660e-03
3.388000000000000256e+01,1.101184134926301746e-02
3.392000000000000171e+01,1.029485952750300130e-02
3.396000000000000085e+01,1.015394795787401966e-02
3.400000000000000000e+01,6.785510970274111729e-03
3.403999999999999915e+01,1.632601153579021219e-02
3.407999999999999829e+01,3.044708067503352870e-03
3.411999999999999744e+01,1.027953081581030326e-02
3.415999999999999659e+01,1.094427228679300049e-02
3.420000000000000284e+01,1.080195453993728835e-02
3.424000000000000199e+01,6.625284178007903070e-03
3.428000000000000114e+01,1.259129644434487175e-02
3.432000000000000028e+01,9.797276119737826153e-03
3.435999999999999943e+01,1.345760253868695001e-02
3.439999999999999858e+01,1.412091775699626621e-02
3.443999999999999773e+01,2.319800610824556200e-02
3.447999999999999687e+01,3.354271873970574025e-02
3.452000000000000313e+01,7.108865726119820150e-02
3.456000000000000227e+01,1.070207073602048448e-01
3.460000000000000142e+01,1.751101815575345777e-01
3.464000000000000057e+01,2.329412319010143173e-01
3.467999999999999972e+01,2.488172327137923301e-01
3.471999999999999886e+01,2.297690710556610783e-01
3.475999999999999801e+01,2.021913903547354341e-01
3.479999999999999716e+01,1.492561635741252724e-01
3.484000000000000341e+01,1.066941309623863493e-01
3.488000000000000256e+01,6.424711139330931131e-02
3.492000000000000171e+01,2.491187601661961834e-02
3.496000000000000085e+01,2.395812326257972316e-02
3.500000000000000000e+01,2.530933018055065917e-02
3.503999999999999915e+01,2.435507791841695635e-02
3.507999999999999829e+01,1.809859398809012324e-02
3.511999999999999744e+01,1.783540226857648070e-02
3.515999999999999659e+01,1.745669799830716282e-02
3.520000000000000284e+01,3.592267777592419390e-03
3.524000000000000199e+01,1.116602867297467223e-02
3.528000000000000114e+01,1.101708500821570354e-02
3.532000000000000028e+01,5.565905660174214238e-03
3.535999999999999943e+01,7.721660871883483795e-03
3.539999999999999858e+01,9.300857699454309624e-03
3.543999999999999773e+01,9.266151382545101747e-03
3.547999999999999687e+01,2.408721592800698401e-04
3.552000000000000313e+01,1.819296637946566644e-03
3.556000000000000227e+01,3.282201874041816136e-03
3.560000000000000142e+01,8.087400835584655084e-03
3.564000000000000057e+01,2.015374830888732802e-02
3.567999999999999972e+01,6.286232707644476107e-03
3.571999999999999886e+01,9.592263373106117361e-03
3.575999999999999801e+01,1.451167826868894617e-02
3.579999999999999716e+01,1.020999399531682776e-02
3.584000000000000341e+01,1.397627806981018364e-02
3.588000000000000256e+01,2.362058118609383292e-02
3.592000000000000171e+01,6.524194030729230445e-03
3.596000000000000085e+01,1.420853912882068422e-02
3.600000000000000000e+01,1.301756307576941614e-02
3.603999999999999915e+01,1.689778020576886489e-02
3.607999999999999829e+01,1.155689348254244214e-02
3.611999999999999744e+01,1.278558451345710931e-02
3.615999999999999659e+01,1.009515126315675346e-02
3.620000000000000284e+01,1.270642942832756611e-02
3.624000000000000199e+01,1.404957242910724428e-02
3.628000000000000114e+01,1.642978868778111057e-02
3.632000000000000028e+01,1.751186167152283396e-03
3.635999999999999943e+01,8.164974661816822021e-03
3.639999999999999858e+01,4.896612131509702273e-03
3.643999999999999773e+01,2.041543018666594489e-02
3.647999999999999687e+01,1.680073860347299636e-02
3.652000000000000313e+01,1.814197171857870328e-02
3.656000000000000227e+01,1.302834386004024340e-02
3.660000000000000142e+01,9.758607087957001797e-03
3.664000000000000057e+01,9.254844369734116505e-03
3.667999999999999972e+01,1.704955685571076310e-02
3.671999999999999886e+01,1.850466614589035830e-02
3.675999999999999801e+01,2.180366384579893527e-02
3.679999999999999716e+01,2.060722428472088266e-02
3.684000000000000341e+01,1.445430497518123379e-02
3.688000000000000256e+01,1.037579297697262606e-02
3.692000000000000171e+01,2.081981671483488019e-02
3.696000000000000085e+01,7.750425510382096851e-03
3.700000000000000000e+01,1.139351734053067541e-02
3.703999999999999915e+01,2.275877607937799862e-02
3.707999999999999829e+01,2.179088196198026434e-02
3.711999999999999744e+01,2.958249750607828271e-02
3.715999999999999659e+01,4.832357067938409384e-02
3.720000000000000284e+01,8.308556081394341541e-02
3.724000000000000199e+01,1.589952463375641778e-01
3.728000000000000114e+01,2.972605502225604823e-01
3.732000000000000028e+01,4.784024549768554069e-01
3.735999999999999943e+01,4.893043794251498158e-01
3.739999999999999858e+01,3.720363888175334255e-01
3.743999999999999773e+01,2.808169707039623320e-01
3.747999999999999687e+01,1.748439234962904654e-01
3.752000000000000313e+01,7.209787743877808797e-02
3.756000000000000227e+01,4.726760642577223365e-02
3.760000000000000142e+01,4.571965432032512600e-02
3.764000000000000057e+01,3.276062362667794131e-02
3.767999999999999972e+01,3.858875277386587810e-02
3.771999999999999886e+01,3.715517835913111772e-02
3.775999999999999801e+01,3.560604789683956273e-02
3.779999999999999716e+01,2.276109662419504090e-02
3.784000000000000341e+01,3.158481387999308165e-02
3.788000000000000256e+01,4.109979626270308245e-02
3.792000000000000171e+01,2.871499400676761141e-02
3.796000000000000085e+01,4.641287145558432858e-02
3.800000000000000000e+01,5.477435247588716832e-02
3.803999999999999915e+01,7.143428594821667199e-02
3.807999999999999829e+01,1.086102793881659062e-01
3.811999999999999744e+01,1.601935280341660051e-01
3.815999999999999659e+01,3.009880662351372416e-01
3.820000000000000284e+01,5.224646196834703549e-01
3.824000000000000199e+01,7.129358072284112113e-01
3.828000000000000114e+01,7.933329563634625714e-01
3.832000000000000028e+01,9.733148332883602150e-01
3.835999999999999943e+01,1.000000000000000000e+00
3.839999999999999858e+01,7.168647585185963234e-01
3.843999999999999773e+01,5.746927460113254726e-01
3.847999999999999687e+01,4.131566694974810328e-01
3.852000000000000313e+01,2.231509523965869712e-01
3.856000000000000227e+01,1.361877727076500899e-01
3.860000000000000142e+01,9.002648429188170320e-02
3.864000000000000057e+01,7.348682238648565623e-02
3.867999999999999972e+01,5.498742176918351016e-02
3.871999999999999886e+01,5.412255904826258901e-02
3.875999999999999801e+01,4.622649627584522747e-02
3.879999999999999716e+01,3.706225551141713315e-02
3.884000000000000341e+01,2.893504517726371017e-02
3.888000000000000256e+01,3.233356597037791852e-02
3.892000000000000171e+01,3.077557221758970771e-02
3.896000000000000085e+01,2.230163552197058849e-02
3.900000000000000000e+01,2.558394885522113915e-02
3.903999999999999915e+01,2.448604790789128335e-02
3.907999999999999829e+01,2.972715428612069874e-02
3.911999999999999744e+01,3.058804504540661717e-02
3.915999999999999659e+01,2.948918906260776518e-02
3.920000000000000284e+01,2.919683657830287118e-02
3.924000000000000199e+01,3.639609328856450304e-02
3.928000000000000114e+01,4.301872670407684562e-02
3.932000000000000028e+01,7.038792025172745104e-02
3.935999999999999943e+01,1.283008119010691783e-01
3.939999999999999858e+01,2.644752291762859642e-01
3.943999999999999773e+01,4.291186550325103988e-01
3.947999999999999687e+01,6.376759897133895683e-01
3.952000000000000313e+01,8.034713707105853864e-01
3.956000000000000227e+01,8.147021564187703069e-01
3.960000000000000142e+01,7.392567539124633713e-01
3.964000000000000057e+01,6.054892343475266614e-01
3.967999999999999972e+01,4.130538156910585901e-01
3.971999999999999886e+01,2.531215168413945560e-01
3.975999999999999801e+01,1.560058366821431286e-01
3.979999999999999716e+01,9.842416272030668489e-02
3.984000000000000341e+01,6.481633291930199992e-02
3.988000000000000256e+01,4.158161297029261405e-02
3.992000000000000171e+01,3.125573220471054847e-02
3.996000000000000085e+01,2.288894676890639371e-02
4.000000000000000000e+01,2.431896690468612898e-02
4.003999999999999915e+01,2.471130921297361865e-02
4.007999999999999829e+01,2.591014029776087663e-02
4.011999999999999744e+01,2.019300903345213130e-02
4.015999999999999659e+01,2.265903429997418242e-02
4.020000000000000284e+01,1.578862633299685236e-02
4.024000000000000199e+01,1.802345719507401911e-02
4.028000000000000114e+01,1.195919757644876152e-02
4.032000000000000028e+01,1.292548726619467334e-02
4.035999999999999943e+01,1.354565650243599005e-02
4.039999999999999858e+01,2.476944780045903238e-02
4.043999999999999773e+01,1.847330957518578815e-02
4.047999999999999687e+01,1.920771798155744559e-02
4.052000000000000313e+01,2.524376553179223659e-02
4.056000000000000227e+01,2.102129018930685295e-02
4.060000000000000142e+01,1.368643946846724579e-02
4.064000000000000057e+01,1.764676952176016250e-02
4.067999999999999972e+01,1.849472285833573398e-02
4.071999999999999886e+01,1.196566198979856846e-02
4.075999999999999801e+01,9.585631704301733960e-03
4.079999999999999716e+01,1.504296587901078446e-02
4.084000000000000341e+01,1.312328384106249343e-02
4.088000000000000256e+01,1.339320265086297451e-02
4.092000000000000171e+01,6.286103909642942050e-03
4.096000000000000085e+01,8.053711043062737260e-03
4.100000000000000000e+01,1.581451201760707137e-02
4.103999999999999915e+01,1.608303297901288176e-02
4.107999999999999829e+01,5.862501439191642252e-03
4.111999999999999744e+01,1.131703991711137218e-02
4.115999999999999659e+01,1.020138001093471788e-02
4.120000000000000284e+01,1.208213878106784503e-02
4.124000000000000199e+01,1.246415782996868928e-02
4.128000000000000114e+01,1.906988694486989530e-02
4.132000000000000028e+01,3.545253631546733692e-03
4.135999999999999943e+01,1.614381541479660565e-02
4.139999999999999858e+01,1.179873388725959441e-02
4.143999999999999773e+01,1.690465247705043653e-02
4.147999999999999687e+01,1.267411641953209399e-02
4.152000000000000313e+01,1.466728641292480532e-02
4.156000000000000227e+01,1.239546042187246108e-02
4.160000000000000142e+01,2.061197596258185910e-02
4.164000000000000057e+01,1.303744872314850645e-02
4.167999999999999972e+01,1.641230349540715935e-02
4.171999999999999886e+01,1.252538778758750977e-02
4.175999999999999801e+01,8.983890932348966712e-03
4.179999999999999716e+01,1.016770953429703764e-02
4.184000000000000341e+01,1.319533155991653786e-02
4.188000000000000256e+01,9.998524519891676537e-03
4.192000000000000171e+01,1.567640729414924647e-02
4.196000000000000085e+01,1.132626466347891325e-02
4.200000000000000000e+01,9.280964598047178674e-03
4.203999999999999915e+01,9.655766883245870194e-03
4.207999999999999829e+01,1.394905675934686624e-02
4.211999999999999744e+01,1.685885264679471904e-02
4.215999999999999659e+01,7.435410691939933238e-03
4.220000000000000284e+01,2.622017047882903729e-03
4.224000000000000199e+01,7.029089228375931531e-03
4.228000000000000114e+01,1.650725019959698239e-02
4.232000000000000028e+01,1.780154701642965367e-02
4.235999999999999943e+01,1.310192764658598373e-02
4.239999999999999858e+01,1.658542733340602482e-02
4.243999999999999773e+01,1.868542767812049130e-02
4.247999999999999687e+01,1.605937482892071111e-02
4.252000000000000313e+01,2.230800175628009155e-02
4.256000000000000227e+01,3.374297324466993264e-02
4.260000000000000142e+01,3.849246180385404448e-02
4.264000000000000057e+01,2.698984903506305988e-02
4.267999999999999972e+01,2.597555973013184957e-02
4.271999999999999886e+01,2.334724548967742619e-02
4.275999999999999801e+01,2.290850064543873202e-02
4.279999999999999716e+01,1.613005088980655477e-02
4.284000000000000341e+01,2.525716328625516108e-02
4.288000000000000256e+01,1.536591942987907203e-02
4.292000000000000171e+01,9.623670020739346839e-03
4.296000000000000085e+01,1.436973939118847340e-02
4.300000000000000000e+01,1.623391414153671844e-02
4.303999999999999915e+01,2.190129996785661684e-02
4.307999999999999829e+01,2.122897619851214432e-02
4.311999999999999744e+01,2.643455034909649587e-02
4.315999999999999659e+01,2.495463220193324880e-02
4.320000000000000284e+01,3.534615427414972838e-02
4.324000000000000199e+01,5.011718634929680782e-02
4.328000000000000114e+01,5.647381730055147514e-02
4.332000000000000028e+01,6.329110146087989219e-02
4.335999999999999943e+01,6.215502497724618991e-02
4.339999999999999858e+01,5.479449399906898693e-02
4.343999999999999773e+01,4.639622831296733724e-02
4.347999999999999687e+01,4.030278043238676861e-02
4.352000000000000313e+01,3.132742923234506371e-02
4.356000000000000227e+01,2.557897813604808820e-02
4.360000000000000142e+01,2.225060329230081624e-02
4.364000000000000057e+01,2.295595039594857181e-02
4.367999999999999972e+01,1.732157786620862686e-02
4.371999999999999886e+01,1.214785185372682999e-02
4.375999999999999801e+01,1.688612896433606264e-02
4.379999999999999716e+01,1.620676807059968916e-02
4.384000000000000341e+01,1.253023804937641178e-02
4.388000000000000256e+01,1.945727187113956494e-02
4.392000000000000171e+01,1.301369431545155476e-02
4.396000000000000085e+01,1.832628381012034458e-02
4.400000000000000000e+01,1.741440877252231276e-02
4.403999999999999915e+01,9.932287169755823694e-03
4.407999999999999829e+01,1.800992561072195172e-02
4.411999999999999744e+01,1.836471160242308595e-02
4.415999999999999659e+01,1.341711402171793209e-02
4.420000000000000284e+01,7.201248109492094582e-03
4.424000000000000199e+01,7.900605471271606589e-03
4.428000000000000114e+01,8.599558163474116390e-03
4.432000000000000028e+01,1.171857506295837653e-02
4.435999999999999943e+01,1.541348822736925833e-02
4.439999999999999858e+01,1.588070198660478105e-02
4.443999999999999773e+01,5.858807033362547698e-03
4.447999999999999687e+01,2.338375270766534716e-02
4.452000000000000313e+01,2.315817969300647955e-02
4.456000000000000227e+01,3.653293096415462932e-02
4.460000000000000142e+01,2.408893038784369611e-02
4.464000000000000057e+01,2.420790866781652798e-02
4.467999999999999972e+01,2.524855922298363184e-02
4.471999999999999886e+01,2.133259820092270331e-02
4.475999999999999801e+01,9.347992658971860866e-03
4.479999999999999716e+01,7.736414659684982473e-03
4.484000000000000341e+01,1.142640353265326515e-02
4.488000000000000256e+01,1.430915451630784298e-02
4.492000000000000171e+01,1.811357376006725306e-02
4.496000000000000085e+01,1.465616832004244634e-02
4.500000000000000000e+01,1.442563889322630646e-02
4.503999999999999915e+01,1.649990117385058061e-02
4.507999999999999829e+01,1.465488994577296769e-02
4.511999999999999744e+01,1.937930590598645544e-02
4.515999999999999659e+01,1.223147565357401295e-02
4.520000000000000284e+01,1.753135443433023744e-02
4.524000000000000199e+01,7.155390663177014360e-03
4.528000000000000114e+01,7.382967313655767853e-03
4.532000000000000028e+01,1.717673962542485763e-02
4.535999999999999943e+01,1.417617874207349402e-02
4.539999999999999858e+01,1.348040354352854006e-02
4.543999999999999773e+01,1.485889245146167735e-02
4.547999999999999687e+01,8.514506157956968496e-03
4.552000000000000313e+01,1.116000990696806167e-02
4.556000000000000227e+01,1.576451530033928447e-02
4.560000000000000142e+01,2.417218894206263347e-02
4.564000000000000057e+01,1.840239924951445061e-02
4.567999999999999972e+01,1.378478601176830534e-02
4.571999999999999886e+01,1.481450628800314896e-02
4.575999999999999801e+01,8.006086223955889355e-03
4.579999999999999716e+01,1.064859333644693762e-02
4.584000000000000341e+01,8.334470134626440277e-03
4.588000000000000256e+01,1.351184504323423539e-02
4.592000000000000171e+01,1.131211875312710183e-02
4.596000000000000085e+01,1.072560605184449435e-02
4.600000000000000000e+01,1.924423581747237641e-02
4.603999999999999915e+01,1.162596782926630067e-02
4.607999999999999829e+01,9.193985514113850455e-03
4.611999999999999744e+01,1.563662274918051903e-02
4.615999999999999659e+01,2.253986568143047028e-02
4.620000000000000284e+01,1.549615682001385941e-02
4.624000000000000199e+01,1.271664731833783459e-02
4.628000000000000114e+01,1.385555514350083652e-02
4.632000000000000028e+01,1.291933598850727484e-02
4.635999999999999943e+01,1.244371918478920890e-02
4.639999999999999858e+01,1.162188088115169438e-02
4.643999999999999773e+01,2.197986586574775941e-02
4.647999999999999687e+01,2.934063755687430983e-02
4.652000000000000313e+01,2.056450346398823112e-02
4.656000000000000227e+01,1.420839610421677571e-02
4.660000000000000142e+01,1.822528617393931114e-02
4.664000000000000057e+01,1.567188618169231343e-02
4.667999999999999972e+01,1.842002227934893405e-02
4.671999999999999886e+01,1.044849061203246242e-02
4.675999999999999801e+01,9.853181878576705230e-03
4.679999999999999716e+01,1.525096995491999514e-02
4.684000000000000341e+01,9.007004622158750612e-03
4.688000000000000256e+01,1.232920885260716318e-02
4.692000000000000171e+01,6.084346517908158225e-03
4.696000000000000085e+01,1.678232150074985760e-02
4.700000000000000000e+01,1.399437312458727371e-02
4.703999999999999915e+01,2.273201936265502321e-02
4.707999999999999829e+01,1.890582453994210654e-02
4.711999999999999744e+01,8.509331625081032260e-03
4.715999999999999659e+01,2.058817450137350596e-02
4.720000000000000284e+01,1.480119339896675615e-02
4.724000000000000199e+01,5.786465379494194067e-03
4.728000000000000114e+01,1.567399705185679518e-02
4.732000000000000028e+01,9.309349102002342086e-03
4.735999999999999943e+01,1.504659268579250017e-02
4.739999999999999858e+01,2.066811894927097354e-02
4.743999999999999773e+01,1.660730949366850256e-02
4.747999999999999687e+01,1.104765592451105970e-02
4.752000000000000313e+01,1.747463075769868993e-02
4.756000000000000227e+01,1.387348650054061674e-02
4.760000000000000142e+01,1.983849976132419715e-02
4.764000000000000057e+01,1.404648577479880589e-02
4.767999999999999972e+01,1.205760523918460690e-02
4.771999999999999886e+01,1.410237839444679515e-02
4.775999999999999801e+01,7.617415022909013005e-03
4.779999999999999716e+01,1.127490809627186390e-02
4.784000000000000341e+01,1.804396921637962253e-02
4.788000000000000256e+01,1.997162634848981960e-02
4.792000000000000171e+01,1.336954427707386962e-02
4.796000000000000085e+01,1.379788370035192960e-02
4.800000000000000000e+01,1.238158894699482003e-02
4.803999999999999915e+01,1.707363071338185642e-02
4.807999999999999829e+01,1.392749332695655644e-02
4.811999999999999744e+01,1.873385839508584852e-02
4.815999999999999659e+01,1.466469888087958313e-02
4.820000000000000284e+01,1.555126866395779156e-02
4.824000000000000199e+01,1.563054434647159069e-02
4.828000000000000114e+01,1.847559935101315831e-02
4.832000000000000028e+01,1.440455482423985689e-02
4.835999999999999943e+01,1.402137191771795147e-02
4.839999999999999858e+01,1.202406905189202201e-02
4.843999999999999773e+01,1.117889646734078306e-02
4.847999999999999687e+01,9.411165312562438587e-03
4.852000000000000313e+01,1.398228355649631244e-02
4.856000000000000227e+01,1.751558143726661410e-02
4.860000000000000142e+01,1.540064010275793253e-02
4.864000000000000057e+01,1.778037888624325880e-02
4.867999999999999972e+01,1.324401211577966829e-02
4.871999999999999886e+01,1.274128230665356500e-02
4.875999999999999801e+01,1.200755197046956581e-02
4.879999999999999716e+01,2.037891725848717944e-02
4.884000000000000341e+01,1.503380749600223207e-02
4.888000000000000256e+01,1.452915520014195529e-02
4.892000000000000171e+01,2.140068970233843793e-02
4.896000000000000085e+01,1.109793350928730930e-02
4.900000000000000000e+01,1.866006414210434269e-02
4.903999999999999915e+01,1.296675819680444958e-02
4.907999999999999829e+01,1.891427319204886173e-02
4.911999999999999744e+01,1.610150799917376557e-02
4.915999999999999659e+01,1.893601877066587377e-02
4.920000000000000284e+01,1.623754074372902104e-02
4.924000000000000199e+01,1.964737916108968627e-02
4.928000000000000114e+01,1.614110198677811553e-02
4.932000000000000028e+01,1.747527491809412747e-02
4.935999999999999943e+01,1.892421864834891929e-02
4.939999999999999858e+01,1.426386796140026794e-02
4.943999999999999773e+01,1.767125810058822744e-02
4.947999999999999687e+01,1.473883157506290266e-02
4.952000000000000313e+01,2.056570726475117142e-02
4.956000000000000227e+01,9.333542676041837322e-03
4.960000000000000142e+01,1.331526442029036875e-02
4.964000000000000057e+01,1.545232455145991932e-02
4.967999999999999972e+01,1.562946194579559536e-02
4.971999999999999886e+01,1.649766638930281679e-02
4.975999999999999801e+01,1.967058357682687636e-02
4.979999999999999716e+01,1.765628329191866464e-02
4.984000000000000341e+01,1.287523441143697753e-02
4.988000000000000256e+01,2.054181626988190248e-02
4.992000000000000171e+01,1.322404000961551092e-02
4.996000000000000085e+01,1.754706996789922799e-02
5.000000000000000000e+01,2.394428774596372989e-02
5.003999999999999915e+01,2.457798176363995210e-02
5.007999999999999829e+01,1.529877498710581485e-02
5.011999999999999744e+01,2.457599902679638917e-02
5.015999999999999659e+01,2.682183229824716686e-02
5.020000000000000284e+01,1.857846049507619682e-02
5.024000000000000199e+01,1.771125340697067910e-02
5.028000000000000114e+01,1.937927127266842603e-02
5.032000000000000028e+01,1.343959342053346884e-02
5.035999999999999943e+01,1.867967327683967005e-02
5.039999999999999858e+01,1.827148380469690095e-02
5.043999999999999773e+01,1.786278660901761961e-02
5.047999999999999687e+01,1.295842329225973741e-02
5.052000000000000313e+01,2.119324273496367775e-02
5.056000000000000227e+01,1.790150698925178571e-02
5.060000000000000142e+01,2.244697175426467808e-02
5.064000000000000057e+01,1.754056817481886715e-02
5.067999999999999972e+01,2.058662422230805519e-02
5.071999999999999886e+01,1.971331240649606964e-02
5.075999999999999801e+01,1.561219478564139680e-02
5.079999999999999716e+01,1.669728387441676495e-02
5.084000000000000341e+01,1.720555627497332568e-02
5.088000000000000256e+01,1.137398858946215424e-02
5.092000000000000171e+01,1.049810469688970162e-02
5.096000000000000085e+01,1.999514529302166832e-02
5.100000000000000000e+01,1.335520515680680212e-02
5.103999999999999915e+01,1.824079271666671428e-02
5.107999999999999829e+01,1.471184866223092073e-02
5.111999999999999744e+01,1.902009641915969329e-02
5.115999999999999659e+01,1.848688531520339615e-02
5.120000000000000284e+01,1.806841422783432571e-02
5.124000000000000199e+01,1.119483657719022411e-02
5.128000000000000114e+01,1.319579215234459486e-02
5.132000000000000028e+01,2.003716437404874998e-02
5.135999999999999943e+01,2.272863711640012163e-02
5.139999999999999858e+01,1.723609380015002357e-02
5.143999999999999773e+01,2.142490421498559339e-02
5.147999999999999687e+01,1.616183223254981718e-02
5.152000000000000313e+01,1.965802900624979976e-02
5.156000000000000227e+01,1.842802068182246983e-02
5.160000000000000142e+01,2.307576841083418609e-02
5.164000000000000057e+01,2.334309106707551859e-02
5.167999999999999972e+01,2.845082434723265885e-02
5.171999999999999886e+01,3.678532121809718891e-02
5.175999999999999801e+01,6.978502556112999022e-02
5.179999999999999716e+01,9.759747897265277916e-02
5.184000000000000341e+01,1.052388216889489497e-01
5.188000000000000256e+01,9.605160622346398114e-02
5.192000000000000171e+01,8.282974236465782958e-02
5.196000000000000085e+01,7.421776353634987333e-02
5.200000000000000000e+01,5.523180997482356192e-02
5.203999999999999915e+01,4.465933510635274051e-02
5.207999999999999829e+01,2.878434416752768954e-02
5.211999999999999744e+01,3.100470876755618416e-02
5.215999999999999659e+01,1.893224050214625462e-02
5.220000000000000284e+01,1.942262461770612875e-02
5.224000000000000199e+01,2.071929407857290087e-02
5.228000000000000114e+01,1.602188139573757983e-02
5.232000000000000028e+01,1.443596181131292719e-02
5.235999999999999943e+01,2.356872465795830859e-02
5.239999999999999858e+01,1.944599471523611109e-02
5.243999999999999773e+01,2.154678813686028427e-02
5.247999999999999687e+01,2.134183061522166441e-02
5.252000000000000313e+01,1.929216329943209129e-02
5.256000000000000227e+01,1.793351552092359996e-02
5.260000000000000142e+01,1.749640751966135416e-02
5.264000000000000057e+01,1.855714089933053340e-02
5.267999999999999972e+01,1.281696226146860317e-02
5.271999999999999886e+01,1.814124139576274441e-02
5.275999999999999801e+01,1.666460717416268222e-02
5.279999999999999716e+01,1.991310438482154707e-02
5.284000000000000341e+01,1.958797962927677841e-02
5.288000000000000256e+01,1.303824178315985891e-02
5.292000000000000171e+01,1.374936336237082314e-02
5.296000000000000085e+01,1.964665551540782304e-02
5.300000000000000000e+01,1.643782120599435528e-02
5.303999999999999915e+01,1.772359340460378380e-02
5.307999999999999829e+01,2.200558553260099914e-02
5.311999999999999744e+01,2.144608600981691079e-02
5.315999999999999659e+01,1.546879189420324006e-02
5.320000000000000284e+01,1.490818524647296271e-02
5.324000000000000199e+01,1.872692130628443932e-02
5.328000000000000114e+01,1.770416303858840870e-02
5.332000000000000028e+01,1.310777477451009927e-02
5.335999999999999943e+01,1.923005221196288569e-02
5.339999999999999858e+01,1.947348922320338988e-02
5.343999999999999773e+01,1.718063832167706848e-02
5.347999999999999687e+01,2.284020020437689535e-02
5.352000000000000313e+01,2.100727328929288470e-02
5.356000000000000227e+01,1.825170281792425769e-02
5.360000000000000142e+01,8.579944483275390998e-03
5.364000000000000057e+01,1.469830716711401086e-02
5.367999999999999972e+01,2.104662883285680908e-02
5.371999999999999886e+01,2.151610471893484686e-02
5.375999999999999801e+01,1.806616188391348479e-02
5.379999999999999716e+01,1.715138511471849675e-02
5.384000000000000341e+01,1.370031374094119771e-02
5.388000000000000256e+01,1.543539754981411438e-02
5.392000000000000171e+01,2.178033359928905482e-02
5.396000000000000085e+01,2.028699212626302456e-02
5.400000000000000000e+01,1.936938564540872931e-02
5.403999999999999915e+01,2.121746212443822652e-02
5.407999999999999829e+01,1.303731043652847990e-02
5.411999999999999744e+01,1.603685355399372611e-02
5.415999999999999659e+01,1.696113853171750049e-02
5.420000000000000284e+01,1.776959242826519486e-02
5.424000000000000199e+01,2.099794457506888937e-02
5.428000000000000114e+01,2.295785975659986669e-02
5.432000000000000028e+01,1.512006366524897699e-02
5.435999999999999943e+01,1.534992609070339950e-02
5.439999999999999858e+01,1.696233999852739607e-02
5.443999999999999773e+01,2.260829517472645600e-02
5.447999999999999687e+01,1.649710867357052912e-02
5.452000000000000313e+01,2.041300574024056472e-02
5.456000000000000227e+01,2.190785661163354575e-02
5.460000000000000142e+01,2.005957698198116215e-02
5.464000000000000057e+01,1.936332391046242593e-02
5.467999999999999972e+01,2.558211945656302735e-02
5.471999999999999886e+01,2.246423885625959890e-02
5.475999999999999801e+01,2.614614508063910561e-02
5.479999999999999716e+01,2.003033200195802194e-02
5.484000000000000341e+01,2.878253622973102333e-02
5.488000000000000256e+01,2.462498754260002490e-02
5.492000000000000171e+01,3.084029709519945164e-02
5.496000000000000085e+01,3.371247012411950766e-02
5.500000000000000000e+01,4.349968641720649426e-02
5.503999999999999915e+01,4.418074211958371300e-02
5.507999999999999829e+01,6.134345747735246018e-02
5.511999999999999744e+01,6.686428090543471148e-02
5.515999999999999659e+01,8.022222855754446158e-02
5.520000000000000284e+01,8.666396157911175624e-02
5.524000000000000199e+01,9.356614839364921221e-02
5.528000000000000114e+01,1.175262937905372368e-01
5.532000000000000028e+01,1.225831352737101199e-01
5.535999999999999943e+01,1.153065180846670479e-01
5.539999999999999858e+01,1.029578501923473499e-01
5.543999999999999773e+01,9.360536274770367426e-02
5.547999999999999687e+01,8.736431553612782064e-02
5.552000000000000313e+01,7.282392288567693384e-02
5.556000000000000227e+01,5.401830003723659401e-02
5.560000000000000142e+01,5.204010950854764256e-02
5.564000000000000057e+01,4.256939471545240217e-02
5.567999999999999972e+01,3.448120999091705552e-02
5.571999999999999886e+01,2.881289875692009603e-02
5.575999999999999801e+01,2.302873034366635652e-02
5.579999999999999716e+01,1.828130862770777423e-02
5.584000000000000341e+01,2.655772021549080916e-02
5.588000000000000256e+01,2.422957125029789535e-02
5.592000000000000171e+01,1.510045606386789703e-02
5.596000000000000085e+01,1.738152580960800747e-02
5.600000000000000000e+01,2.150616208874888899e-02
5.603999999999999915e+01,1.825352786624131335e-02
5.607999999999999829e+01,1.615289611133133643e-02
5.611999999999999744e+01,1.462796388197066220e-02
5.615999999999999659e+01,1.552289778215129416e-02
5.620000000000000284e+01,1.883769714269172002e-02
5.624000000000000199e+01,1.270053447335560762e-02
5.628000000000000114e+01,2.027876047420407862e-02
5.632000000000000028e+01,1.633033492449272039e-02
5.635999999999999943e+01,1.825958579561528725e-02
5.639999999999999858e+01,1.915088514398942399e-02
5.643999999999999773e+01,2.292308775592733980e-02
5.647999999999999687e+01,1.931801250521971575e-02
5.652000000000000313e+01,1.905488099800613580e-02
5.656000000000000227e+01,1.844535801875797978e-02
5.660000000000000142e+01,1.691314062542700197e-02
5.664000000000000057e+01,1.111567496620453552e-02
5.667999999999999972e+01,1.661312173931086059e-02
5.671999999999999886e+01,1.646219345328242892e-02
5.675999999999999801e+01,1.792429807705856262e-02
5.679999999999999716e+01,1.892474675913743618e-02
5.684000000000000341e+01,1.865671564832408966e-02
5.688000000000000256e+01,2.438161271355778273e-02
5.692000000000000171e+01,2.365130819173554347e-02
5.696000000000000085e+01,2.096095914203635266e-02
5.700000000000000000e+01,1.965311807790568258e-02
5.703999999999999915e+01,1.707679387497497772e-02
5.707999999999999829e+01,1.046573495430240530e-02
5.711999999999999744e+01,1.687848792356168651e-02
5.715999999999999659e+01,1.199509619859518393e-02
5.720000000000000284e+01,1.264358547792985253e-02
5.724000000000000199e+01,1.525088100061045525e-02
5.728000000000000114e+01,2.027802391574883012e-02
5.732000000000000028e+01,1.550740536938864655e-02
5.735999999999999943e+01,1.776705106005695145e-02
5.739999999999999858e+01,1.760560304355781799e-02
5.743999999999999773e+01,1.410097701412286325e-02
5.747999999999999687e+01,1.163306957635772132e-02
5.752000000000000313e+01,9.395056879067444425e-03
5.756000000000000227e+01,1.614673280064474886e-02
5.760000000000000142e+01,1.851788394139993257e-02
5.764000000000000057e+01,1.696955145044481625e-02
5.767999999999999972e+01,1.576637147781165954e-02
5.771999999999999886e+01,1.352521789943872746e-02
5.775999999999999801e+01,1.889062413914546767e-02
5.779999999999999716e+01,2.079758588870909974e-02
5.784000000000000341e+01,1.855453975150792370e-02
5.788000000000000256e+01,1.711768460501431749e-02
5.792000000000000171e+01,1.625649887090005116e-02
5.796000000000000085e+01,1.331999142479654667e-02
5.800000000000000000e+01,1.107441250728261051e-02
5.803999999999999915e+01,1.297757508637706510e-02
5.807999999999999829e+01,1.222911167307092969e-02
5.811999999999999744e+01,1.297839796282311033e-02
5.815999999999999659e+01,1.511017283187868383e-02
5.820000000000000284e+01,1.090198515464192372e-02
5.824000000000000199e+01,1.245618199213260717e-02
5.828000000000000114e+01,1.654546994711547994e-02
5.832000000000000028e+01,1.464057471198141995e-02
5.835999999999999943e+01,1.538602971054977772e-02
5.839999999999999858e+01,1.843605290991896448e-02
5.843999999999999773e+01,1.699027682108001855e-02
5.847999999999999687e+01,1.588963986693193997e-02
5.852000000000000313e+01,1.444257865085304265e-02
5.856000000000000227e+01,1.080492523048828292e-02
5.860000000000000142e+01,1.546538030283062769e-02
5.864000000000000057e+01,1.240274001300331781e-02
5.867999999999999972e+01,1.660086278635987053e-02
5.871999999999999886e+01,1.641844204181076156e-02
5.875999999999999801e+01,1.565907211109480654e-02
5.879999999999999716e+01,1.685848232564411686e-02
5.884000000000000341e+01,1.448417019675648891e-02
5.888000000000000256e+01,1.176342778330408817e-02
5.892000000000000171e+01,1.192354714415904716e-02
5.896000000000000085e+01,1.600187170129992176e-02
5.900000000000000000e+01,1.247235532821053781e-02
5.903999999999999915e+01,1.482047054079084318e-02
5.907999999999999829e+01,1.716793348661861326e-02
5.911999999999999744e+01,1.594166940473860233e-02
5.915999999999999659e+01,9.066989443648955371e-03
5.920000000000000284e+01,2.097910930371757118e-02
5.924000000000000199e+01,1.179791103338508410e-02
5.928000000000000114e+01,1.886778124523412481e-02
5.932000000000000028e+01,1.314308471759983304e-02
5.935999999999999943e+01,1.099080533071590711e-02
5.939999999999999858e+01,1.494667241601435777e-02
5.943999999999999773e+01,1.037260757349864337e-02
5.947999999999999687e+01,1.432715741084247645e-02
5.952000000000000313e+01,1.436219216494293363e-02
5.956000000000000227e+01,1.312870162180535157e-02
5.960000000000000142e+01,1.039616420310156449e-02
5.964000000000000057e+01,6.856141967090040486e-03
5.967999999999999972e+01,1.138368924673689025e-02
5.971999999999999886e+01,1.464270855241951025e-02
5.975999999999999801e+01,1.063965557714238210e-02
5.979999999999999716e+01,1.389734692796553567e-02
5.984000000000000341e+01,1.657807102471985788e-02
5.988000000000000256e+01,8.308386286622688327e-03
5.992000000000000171e+01,1.409981068690856557e-02
5.996000000000000085e+01,8.479783095686393990e-03
