2.003999999999999915e+01,5.396332459535801984e-03
2.007999999999999829e+01,4.111097859842608761e-03
2.012000000000000099e+01,2.105435732287763012e-02
2.016000000000000014e+01,6.391487006367731379e-03
2.019999999999999929e+01,1.061863172683468436e-02
2.023999999999999844e+01,6.025388423174864519e-03
2.028000000000000114e+01,1.833759492435405383e-02
2.032000000000000028e+01,1.521419730809341758e-02
2.035999999999999943e+01,1.032664068537878996e-02
2.039999999999999858e+01,6.835527736274639443e-03
2.044000000000000128e+01,9.959528190256470778e-03
2.048000000000000043e+01,0.000000000000000000e+00
2.051999999999999957e+01,9.739010878166516269e-03
2.055999999999999872e+01,1.565579425709661548e-02
2.060000000000000142e+01,1.223767025147897737e-02
2.064000000000000057e+01,1.352359594540850779e-02
2.067999999999999972e+01,8.341207067693159893e-03
2.071999999999999886e+01,6.392819419739943429e-03
2.076000000000000156e+01,8.707466237580242449e-03
2.080000000000000071e+01,1.418261131321232188e-02
2.083999999999999986e+01,1.377745981947716032e-02
2.087999999999999901e+01,2.887767947612102136e-04
2.092000000000000171e+01,1.032075447206085017e-02
2.096000000000000085e+01,3.961592283048927937e-03
2.100000000000000000e+01,7.745654397531381331e-03
2.103999999999999915e+01,1.380818430229821536e-02
2.107999999999999829e+01,2.597130622901028599e-02
2.112000000000000099e+01,2.100826318849559338e-02
2.116000000000000014e+01,2.802600316232392585e-02
2.119999999999999929e+01,1.438946264972919969e-02
2.123999999999999844e+01,1.046823829258279994e-03
2.128000000000000114e+01,5.712163516097581474e-03
2.132000000000000028e+01,8.907346846788340849e-03
2.135999999999999943e+01,1.636556031315894097e-02
2.139999999999999858e+01,6.550602002339285870e-03
2.144000000000000128e+01,1.636067372581313448e-02
2.148000000000000043e+01,1.433675029676359861e-02
2.151999999999999957e+01,9.960640332732320634e-03
2.155999999999999872e+01,1.021507103411882153e-02
2.160000000000000142e+01,9.807869699477117162e-03
2.164000000000000057e+01,1.307567732282083513e-02
2.167999999999999972e+01,1.847494332841741888e-02
2.171999999999999886e+01,6.086518485077017579e-03
2.176000000000000156e+01,1.016251839789749853e-02
2.180000000000000071e+01,1.129831059804188576e-02
2.183999999999999986e+01,8.097349299021165681e-03
2.187999999999999901e+01,3.312119502963119938e-02
2.192000000000000171e+01,1.551353908575495329e-02
2.196000000000000085e+01,7.461081360216462177e-03
2.200000000000000000e+01,1.822512328669190912e-02
2.203999999999999915e+01,1.252451515802934651e-02
2.207999999999999829e+01,1.777564987949656339e-02
2.212000000000000099e+01,1.817551231872613707e-02
2.216000000000000014e+01,1.269506866233825922e-02
2.219999999999999929e+01,1.250668260417663741e-02
2.223999999999999844e+01,1.636081314699589645e-02
2.228000000000000114e+01,1.374661757120034314e-02
2.232000000000000028e+01,5.472621928955803336e-03
2.235999999999999943e+01,4.475247385029904566e-03
2.239999999999999858e+01,9.872464915286441323e-03
2.244000000000000128e+01,1.409352758500282896e-02
2.248000000000000043e+01,6.260080701474175086e-03
2.251999999999999957e+01,1.158344533131345534e-02
2.255999999999999872e+01,1.536314226148069104e-02
2.260000000000000142e+01,1.546760175926856565e-02
2.264000000000000057e+01,7.339675069449555847e-03
2.267999999999999972e+01,1.494114255006549416e-02
2.271999999999999886e+01,1.137012748085281140e-02
2.276000000000000156e+01,7.725491161033462735e-03
2.280000000000000071e+01,4.301242880420432131e-03
2.283999999999999986e+01,2.248657918529170865e-02
2.287999999999999901e+01,1.612199596446451874e-02
2.292000000000000171e+01,1.475545556723993450e-02
2.296000000000000085e+01,1.125722542662612596e-02
2.300000000000000000e+01,2.187133446537310039e-02
2.303999999999999915e+01,1.205165692254711596e-02
2.307999999999999829e+01,1.524178206240594732e-02
2.312000000000000099e+01,1.321311573006184528e-02
2.316000000000000014e+01,1.809355274944231609e-02
2.319999999999999929e+01,1.099297741406312680e-02
2.323999999999999844e+01,1.183053837776556518e-02
2.328000000000000114e+01,1.619609167456571505e-02
2.332000000000000028e+01,1.438732092570797760e-02
2.335999999999999943e+01,1.603303953797757114e-02
2.339999999999999858e+01,2.150075919580939771e-02
2.344000000000000128e+01,1.439944560986157647e-02
2.348000000000000043e+01,1.112013249212745990e-02
2.351999999999999957e+01,1.761651351830095455e-02
2.355999999999999872e+01,1.874709510761119260e-02
2.360000000000000142e+01,1.737847036163519404e-02
2.364000000000000057e+01,1.894981619371406689e-02
2.367999999999999972e+01,1.993301737332573223e-02
2.371999999999999886e+01,2.326816939666914025e-02
2.376000000000000156e+01,2.116401814515621316e-02
2.380000000000000071e+01,1.457609446019641347e-02
2.383999999999999986e+01,2.202700149781634462e-02
2.387999999999999901e+01,1.220471886044278802e-02
2.392000000000000171e+01,8.115495776033843436e-03
2.396000000000000085e+01,7.995274484991361438e-03
2.400000000000000000e+01,2.029683008015140122e-02
2.403999999999999915e+01,1.517819005637728938e-02
2.407999999999999829e+01,1.336702940835046011e-02
2.412000000000000099e+01,2.214008491495768685e-02
2.416000000000000014e+01,2.010815945257258403e-02
2.419999999999999929e+01,1.359245866999819405e-02
2.423999999999999844e+01,1.347133668259091130e-02
2.428000000000000114e+01,1.092450584705701062e-02
2.432000000000000028e+01,1.256718139068691183e-02
2.435999999999999943e+01,1.854636781404989457e-02
2.439999999999999858e+01,2.040928944696153088e-02
2.444000000000000128e+01,1.080570653856466508e-02
2.448000000000000043e+01,1.281537071143919009e-02
2.451999999999999957e+01,1.901453982010628888e-02
2.455999999999999872e+01,1.073360534194713403e-02
2.460000000000000142e+01,1.877007033483373000e-02
2.464000000000000057e+01,1.548703413228424107e-02
2.467999999999999972e+01,2.190618130746741984e-02
2.471999999999999886e+01,1.149314711322890065e-02
2.476000000000000156e+01,2.129313815029604609e-02
2.480000000000000071e+01,1.793606697168440706e-02
2.483999999999999986e+01,2.567772351392319519e-02
2.487999999999999901e+01,1.886577176531998093e-02
2.492000000000000171e+01,1.624332206576679927e-02
2.496000000000000085e+01,2.596913992961235457e-02
2.500000000000000000e+01,1.621668819693066269e-02
2.503999999999999915e+01,2.307564233836535694e-02
2.507999999999999829e+01,1.876209689819085397e-02
2.512000000000000099e+01,1.981409037764444644e-02
2.516000000000000014e+01,2.387954586015335334e-02
2.519999999999999929e+01,1.890407033906339046e-02
2.523999999999999844e+01,1.672154905981474912e-02
2.528000000000000114e+01,1.475939792196922541e-02
2.532000000000000028e+01,1.022452564122301732e-02
2.535999999999999943e+01,1.715588930167112613e-02
2.539999999999999858e+01,2.100001447951730868e-02
2.544000000000000128e+01,2.381496793549850791e-02
2.548000000000000043e+01,1.435488300380068950e-02
2.551999999999999957e+01,2.033016216817898694e-02
2.555999999999999872e+01,1.888156041257047293e-02
2.560000000000000142e+01,1.243465647082118465e-02
2.564000000000000057e+01,2.686229296114057974e-02
2.567999999999999972e+01,1.945957831957204065e-02
2.571999999999999886e+01,2.095051320936565029e-02
2.576000000000000156e+01,1.700213039059054326e-02
2.580000000000000071e+01,1.562619058835178557e-02
2.583999999999999986e+01,2.160034916439406219e-02
2.587999999999999901e+01,1.662250956920777178e-02
2.592000000000000171e+01,1.818624143411386521e-02
2.596000000000000085e+01,1.629521880186942176e-02
2.600000000000000000e+01,2.403286762648561281e-02
2.603999999999999915e+01,1.927496683811791983e-02
2.607999999999999829e+01,2.245518185296032851e-02
2.612000000000000099e+01,1.585943527847797144e-02
2.616000000000000014e+01,1.470272251271510441e-02
2.619999999999999929e+01,2.141062228951772645e-02
2.623999999999999844e+01,9.154760283244323463e-03
2.628000000000000114e+01,1.711191253865517944e-02
2.632000000000000028e+01,2.183481488271274418e-02
2.635999999999999943e+01,1.920733292792041469e-02
2.639999999999999858e+01,1.937279684341622343e-02
2.644000000000000128e+01,1.872958900405634688e-02
2.648000000000000043e+01,1.441111573091526099e-02
2.651999999999999957e+01,2.214688918438996457e-02
2.655999999999999872e+01,2.003319547850136370e-02
2.660000000000000142e+01,2.115346056726066445e-02
2.664000000000000057e+01,1.279176989241729602e-02
2.667999999999999972e+01,1.986543494209685665e-02
2.671999999999999886e+01,2.296982324746237036e-02
2.676000000000000156e+01,1.725377647479893820e-02
2.680000000000000071e+01,1.366915113408474422e-02
2.683999999999999986e+01,1.743461695479538859e-02
2.687999999999999901e+01,2.487505391716516787e-02
2.692000000000000171e+01,2.643515043168218059e-02
2.696000000000000085e+01,2.351145170748681484e-02
2.700000000000000000e+01,2.338069452346601060e-02
2.703999999999999915e+01,3.581869707564852567e-02
2.707999999999999829e+01,3.693718082326599012e-02
2.712000000000000099e+01,3.401288254520513227e-02
2.716000000000000014e+01,4.836149639312192772e-02
2.719999999999999929e+01,3.720462840843800217e-02
2.723999999999999844e+01,3.714647082414970075e-02
2.728000000000000114e+01,3.223700371864593461e-02
2.732000000000000028e+01,2.916494471383893755e-02
2.735999999999999943e+01,2.807729831029806555e-02
2.739999999999999858e+01,2.662198759145053065e-02
2.744000000000000128e+01,2.509302184710945210e-02
2.748000000000000043e+01,2.819455404439762461e-02
2.751999999999999957e+01,2.431320554439182074e-02
2.755999999999999872e+01,2.057870833673520680e-02
2.760000000000000142e+01,2.478231596266738945e-02
2.764000000000000057e+01,2.251755878763567892e-02
2.767999999999999972e+01,3.046948010212092994e-02
2.771999999999999886e+01,2.768989715022774842e-02
2.776000000000000156e+01,1.880946050445713932e-02
2.780000000000000071e+01,2.654040981427979382e-02
2.783999999999999986e+01,3.250714613556432431e-02
2.787999999999999901e+01,2.715435787879886403e-02
2.792000000000000171e+01,2.474150931194384062e-02
2.796000000000000085e+01,2.041744210128438458e-02
2.800000000000000000e+01,2.300244331276556781e-02
2.803999999999999915e+01,2.301470375149733752e-02
2.807999999999999829e+01,2.787796498561014719e-02
2.812000000000000099e+01,2.862493458256662460e-02
2.816000000000000014e+01,2.106597576024828514e-02
2.819999999999999929e+01,1.975456236510297198e-02
2.823999999999999844e+01,2.682226355248941083e-02
2.828000000000000114e+01,3.197874378667742851e-02
2.832000000000000028e+01,2.927030881462465775e-02
2.835999999999999943e+01,3.641103545151747750e-02
2.839999999999999858e+01,3.458431038549354686e-02
2.844000000000000128e+01,3.430097575880015209e-02
2.848000000000000043e+01,2.784327984747101206e-02
2.851999999999999957e+01,3.498336651610376574e-02
2.855999999999999872e+01,2.859885186056945056e-02
2.860000000000000142e+01,2.478676001437419771e-02
2.864000000000000057e+01,3.236737804346330460e-02
2.867999999999999972e+01,2.554136514690060616e-02
2.871999999999999886e+01,2.386035800541828206e-02
2.876000000000000156e+01,3.151399282378632150e-02
2.880000000000000071e+01,2.586353176980726518e-02
2.883999999999999986e+01,2.307950137160916237e-02
2.887999999999999901e+01,2.521996838992894563e-02
2.892000000000000171e+01,3.015336309205940077e-02
2.896000000000000085e+01,1.884256498227262350e-02
2.900000000000000000e+01,2.436365135171721444e-02
2.903999999999999915e+01,2.503341549827957369e-02
2.907999999999999829e+01,2.989265167177026714e-02
2.912000000000000099e+01,2.769549320637535589e-02
2.916000000000000014e+01,1.800092544568962505e-02
2.919999999999999929e+01,2.058109225431058870e-02
2.923999999999999844e+01,1.566384919029230327e-02
2.928000000000000114e+01,2.221281377739215551e-02
2.932000000000000028e+01,1.479615718778331222e-02
2.935999999999999943e+01,2.230032021916999660e-02
2.939999999999999858e+01,2.326260335330420162e-02
2.944000000000000128e+01,1.430189614890749542e-02
2.948000000000000043e+01,2.180555798654201446e-02
2.951999999999999957e+01,1.710765467502049775e-02
2.955999999999999872e+01,1.865728697574756470e-02
2.960000000000000142e+01,1.366503793585085655e-02
2.964000000000000057e+01,2.116802747370971974e-02
2.967999999999999972e+01,1.499940281527891578e-02
2.971999999999999886e+01,1.155019767255196367e-02
2.976000000000000156e+01,1.772963685130652875e-02
2.980000000000000071e+01,1.663216929984782586e-02
2.983999999999999986e+01,1.097738333050917586e-02
2.987999999999999901e+01,2.127244675410655539e-02
2.992000000000000171e+01,1.635234396231038945e-02
2.996000000000000085e+01,8.859486541401005374e-03
3.000000000000000000e+01,1.121577889379309599e-02
3.003999999999999915e+01,1.364540224610925195e-02
3.007999999999999829e+01,1.504582039034780758e-02
3.012000000000000099e+01,1.115389414976843824e-02
3.016000000000000014e+01,1.483254229451693579e-02
3.019999999999999929e+01,4.031046149370451706e-03
3.023999999999999844e+01,9.767415956066373417e-03
3.028000000000000114e+01,2.483841675299127208e-02
3.032000000000000028e+01,1.653548264475724131e-02
3.035999999999999943e+01,1.389205921831226410e-02
3.039999999999999858e+01,1.514408871405823441e-02
3.044000000000000128e+01,1.250031701340701198e-02
3.048000000000000043e+01,1.338448568448914050e-02
3.051999999999999957e+01,1.147538850115301622e-02
3.055999999999999872e+01,1.485828858312561451e-02
3.060000000000000142e+01,6.627634878712086036e-03
3.064000000000000057e+01,3.100958705284089390e-03
3.067999999999999972e+01,5.454298088116698619e-03
3.071999999999999886e+01,1.192359526761173176e-02
3.076000000000000156e+01,6.264820743670868747e-03
3.080000000000000071e+01,1.258675966357961258e-02
3.083999999999999986e+01,1.574791844656701564e-02
3.087999999999999901e+01,1.657891441312377959e-04
3.092000000000000171e+01,1.222038247397175086e-02
3.096000000000000085e+01,6.340213481880691525e-03
3.100000000000000000e+01,6.781072104387223659e-03
3.103999999999999915e+01,1.773259454626126969e-02
3.107999999999999829e+01,9.058798723878951423e-03
3.112000000000000099e+01,8.911101488726334841e-03
3.116000000000000014e+01,1.427590437263414475e-02
3.119999999999999929e+01,1.140825929264628093e-02
3.123999999999999844e+01,6.335362319078386741e-03
3.128000000000000114e+01,1.361068729837827153e-02
3.132000000000000028e+01,7.949410191962710120e-03
3.135999999999999943e+01,1.074072754610948949e-02
3.139999999999999858e+01,1.551642834542351669e-02
3.144000000000000128e+01,8.311057323083083023e-03
3.148000000000000043e+01,6.324174531921853901e-03
3.151999999999999957e+01,6.909693476879722948e-03
3.155999999999999872e+01,1.227268570793731313e-02
3.160000000000000142e+01,8.300691169029310312e-03
3.164000000000000057e+01,1.425133696240051505e-02
3.167999999999999972e+01,9.984966672995669243e-03
3.171999999999999886e+01,7.996987097851415011e-03
3.176000000000000156e+01,5.641311741907639905e-03
3.180000000000000071e+01,9.827165410941999732e-03
3.183999999999999986e+01,1.415983948418115049e-02
3.187999999999999901e+01,5.335400246399883695e-03
3.192000000000000171e+01,9.447197499673081617e-03
3.196000000000000085e+01,8.634149062222165605e-03
3.200000000000000000e+01,6.644876771086148139e-03
3.203999999999999915e+01,1.097662458901729754e-02
3.207999999999999829e+01,2.959783993396893943e-03
3.211999999999999744e+01,2.366498848822611457e-03
3.215999999999999659e+01,4.419113216201305677e-03
3.220000000000000284e+01,1.110219146164812334e-02
3.224000000000000199e+01,1.014083339464343959e-02
3.228000000000000114e+01,1.675003441323152237e-02
3.232000000000000028e+01,4.101420191770711009e-03
3.235999999999999943e+01,6.667613519224342526e-03
3.239999999999999858e+01,1.342325491364388529e-02
3.243999999999999773e+01,1.459252560165191434e-02
3.247999999999999687e+01,8.925884586003057092e-03
3.252000000000000313e+01,8.036709928272026474e-03
3.256000000000000227e+01,5.309785823819953253e-03
3.260000000000000142e+01,1.125595441489411590e-02
3.264000000000000057e+01,1.043971254223626834e-02
3.267999999999999972e+01,1.395992150506823216e-02
3.271999999999999886e+01,2.485451229174922595e-03
3.275999999999999801e+01,7.181316745537335948e-03
3.279999999999999716e+01,7.319842482125618090e-03
3.284000000000000341e+01,8.781219720011787869e-03
3.288000000000000256e+01,8.919361964135754522e-03
3.292000000000000171e+01,7.587264136579628497e-03
3.296000000000000085e+01,6.181471446483911489e-03
3.300000000000000000e+01,8.597610520131276912e-03
3.303999999999999915e+01,1.329213078178905459e-02
3.307999999999999829e+01,3.653490758249769085e-03
3.311999999999999744e+01,1.216974858368738421e-02
3.315999999999999659e+01,8.190405412125132192e-03
3.320000000000000284e+01,9.723547637236784960e-03
3.324000000000000199e+01,5.596810987830155154e-03
3.328000000000000114e+01,7.938090287832681377e-03
3.332000000000000028e+01,6.310045212270475740e-03
3.335999999999999943e+01,5.857843095997306189e-03
3.339999999999999858e+01,4.008899838574916767e-03
3.343999999999999773e+01,4.438334882420486016e-03
3.347999999999999687e+01,1.082126766995117860e-02
3.352000000000000313e+01,1.102980279989105618e-02
3.356000000000000227e+01,8.077538163060867318e-03
3.360000000000000142e+01,7.256645883557971514e-03
3.364000000000000057e+01,6.141546650187800632e-03
3.367999999999999972e+01,1.134745569024069554e-02
3.371999999999999886e+01,4.057759691854260706e-03
3.375999999999999801e+01,7.793224645339423030e-03
3.379999999999999716e+01,5.354289920514047722e-03
3.384000000000000341e+01,7.325300054247169124e-03
3.388000000000000256e+01,1.128067573534423731e-02
3.392000000000000171e+01,4.945516773285622662e-03
3.396000000000000085e+01,1.176708676376038258e-02
3.400000000000000000e+01,1.528084902280468782e-02
3.403999999999999915e+01,1.100315718981273796e-02
3.407999999999999829e+01,7.901303119973368191e-03
3.411999999999999744e+01,8.768377520241819184e-03
3.415999999999999659e+01,1.154631305253263872e-02
3.420000000000000284e+01,1.395653519489490485e-02
3.424000000000000199e+01,1.313245026840307618e-02
3.428000000000000114e+01,1.605678547345659735e-02
3.432000000000000028e+01,1.133666935499776270e-02
3.435999999999999943e+01,1.234953744552519210e-02
3.439999999999999858e+01,3.659886585780606095e-03
3.443999999999999773e+01,4.966358245739793675e-03
3.447999999999999687e+01,8.183688728327398118e-03
3.452000000000000313e+01,1.485542803192752871e-02
3.456000000000000227e+01,5.209431714594110058e-03
3.460000000000000142e+01,9.308178887980755184e-03
3.464000000000000057e+01,2.748874248966128638e-03
3.467999999999999972e+01,8.317259841642856560e-03
3.471999999999999886e+01,8.519765457341474044e-03
3.475999999999999801e+01,1.122114703192338137e-02
3.479999999999999716e+01,1.208476299402646940e-02
3.484000000000000341e+01,7.656000507750554754e-03
3.488000000000000256e+01,1.645746272912215410e-02
3.492000000000000171e+01,1.268980885720523769e-02
3.496000000000000085e+01,9.509967240632842891e-03
3.500000000000000000e+01,1.845781354635781316e-02
3.503999999999999915e+01,1.219045668638569016e-02
3.507999999999999829e+01,8.421973475902904890e-03
3.511999999999999744e+01,4.800286998336675444e-03
3.515999999999999659e+01,3.383464014423971222e-03
3.520000000000000284e+01,9.610681437505872934e-03
3.524000000000000199e+01,1.723423543605266325e-02
3.528000000000000114e+01,1.677231681517425341e-02
3.532000000000000028e+01,1.447262882905182499e-02
3.535999999999999943e+01,1.254024302766595760e-02
3.539999999999999858e+01,1.318023096099729154e-02
3.543999999999999773e+01,1.058590316524709966e-02
3.547999999999999687e+01,1.166648444619304732e-02
3.552000000000000313e+01,4.220577007937331010e-03
3.556000000000000227e+01,9.857884580623267265e-03
3.560000000000000142e+01,1.652401415759678985e-02
3.564000000000000057e+01,8.709960184977792730e-03
3.567999999999999972e+01,8.833952733749723257e-03
3.571999999999999886e+01,1.072179036700477740e-02
3.575999999999999801e+01,9.963329118758960934e-03
3.579999999999999716e+01,1.273276984857164319e-02
3.584000000000000341e+01,1.344393027650958757e-02
3.588000000000000256e+01,1.415487716330976128e-02
3.592000000000000171e+01,1.126399288382832521e-02
3.596000000000000085e+01,1.528211958031252399e-02
3.600000000000000000e+01,1.797698876644327620e-02
3.603999999999999915e+01,1.177785350749801715e-02
3.607999999999999829e+01,1.785340316588912221e-02
3.611999999999999744e+01,1.077180891378966450e-02
3.615999999999999659e+01,1.081973137815009367e-02
3.620000000000000284e+01,1.704163914021236334e-02
3.624000000000000199e+01,7.827827892484645958e-03
3.628000000000000114e+01,7.728097149983433403e-03
3.632000000000000028e+01,1.012723110806992323e-02
3.635999999999999943e+01,1.252614806092766132e-02
3.639999999999999858e+01,6.839584311481274048e-03
3.643999999999999773e+01,1.041410470180808776e-02
3.647999999999999687e+01,1.553195750794179875e-02
3.652000000000000313e+01,1.873852989398227045e-02
3.656000000000000227e+01,1.738773536486939650e-02
3.660000000000000142e+01,1.059754489646701735e-02
3.664000000000000057e+01,1.012834133959343748e-02
3.667999999999999972e+01,1.568611482708707691e-02
3.671999999999999886e+01,1.734804179632684282e-02
3.675999999999999801e+01,1.496711716939486125e-02
3.679999999999999716e+01,1.133643165324635209e-02
3.684000000000000341e+01,1.571728668155744982e-02
3.688000000000000256e+01,1.429123177675016738e-02
3.692000000000000171e+01,1.793662105418085406e-02
3.696000000000000085e+01,1.151196093307862468e-02
3.700000000000000000e+01,1.243731865014255887e-02
3.703999999999999915e+01,1.497950713619578163e-02
3.707999999999999829e+01,1.311132974357415160e-02
3.711999999999999744e+01,1.234546578024050580e-02
3.715999999999999659e+01,1.598952271550291987e-02
3.720000000000000284e+01,1.617874403615148296e-02
3.724000000000000199e+01,8.723492960067726065e-03
3.728000000000000114e+01,1.523347321739498307e-02
3.732000000000000028e+01,1.681856910164906960e-02
3.735999999999999943e+01,1.583085695205427301e-02
3.739999999999999858e+01,1.954707354749736156e-02
3.743999999999999773e+01,2.583564915527104822e-02
3.747999999999999687e+01,2.278919555796486349e-02
3.752000000000000313e+01,2.113906208169155296e-02
3.756000000000000227e+01,2.117925801626417692e-02
3.760000000000000142e+01,2.430632857082321366e-02
3.764000000000000057e+01,2.706566090946846415e-02
3.767999999999999972e+01,3.136831700369327458e-02
3.771999999999999886e+01,3.059908104885877833e-02
3.775999999999999801e+01,2.953560840670962223e-02
3.779999999999999716e+01,2.494379342521107004e-02
3.784000000000000341e+01,3.225913868627289932e-02
3.788000000000000256e+01,3.531111708441855151e-02
3.792000000000000171e+01,4.130296300391299302e-02
3.796000000000000085e+01,3.773926907037114531e-02
3.800000000000000000e+01,3.491037024217474860e-02
3.803999999999999915e+01,4.457664937014209350e-02
3.807999999999999829e+01,5.461021105299723732e-02
3.811999999999999744e+01,5.398569580879168661e-02
3.815999999999999659e+01,6.556234807623982641e-02
3.820000000000000284e+01,6.978853059726100594e-02
3.824000000000000199e+01,6.945733407881055088e-02
3.828000000000000114e+01,8.397339041237684987e-02
3.832000000000000028e+01,8.937491866256963569e-02
3.835999999999999943e+01,1.143278524432276844e-01
3.839999999999999858e+01,1.225220085224935640e-01
3.843999999999999773e+01,1.558537515461352052e-01
3.847999999999999687e+01,1.761753384167494274e-01
3.852000000000000313e+01,2.053904824429668152e-01
3.856000000000000227e+01,2.529809922423290613e-01
3.860000000000000142e+01,3.307072506656544286e-01
3.864000000000000057e+01,4.300429796481367029e-01
3.867999999999999972e+01,5.739944284177337375e-01
3.871999999999999886e+01,7.621940847126622565e-01
3.875999999999999801e+01,8.904155526704949919e-01
3.879999999999999716e+01,9.835761437793580919e-01
3.884000000000000341e+01,1.000000000000000000e+00
3.888000000000000256e+01,9.004368423156903223e-01
3.892000000000000171e+01,7.879370276975583565e-01
3.896000000000000085e+01,6.719088623685237627e-01
3.900000000000000000e+01,5.214813402987447111e-01
3.903999999999999915e+01,4.203001862791871934e-01
3.907999999999999829e+01,3.264690350867350821e-01
3.911999999999999744e+01,2.718144233039658242e-01
3.915999999999999659e+01,2.185561198065852917e-01
3.920000000000000284e+01,1.802920673109575656e-01
3.924000000000000199e+01,1.551847056628626598e-01
3.928000000000000114e+01,1.275045221245550142e-01
3.932000000000000028e+01,1.165091437982794242e-01
3.935999999999999943e+01,1.121287423321712245e-01
3.939999999999999858e+01,9.584071399285529202e-02
3.943999999999999773e+01,8.447710686005616143e-02
3.947999999999999687e+01,7.318676260005886614e-02
3.952000000000000313e+01,7.431808322065643069e-02
3.956000000000000227e+01,6.258624468326549894e-02
3.960000000000000142e+01,5.430877830525780020e-02
3.964000000000000057e+01,5.757094720636022483e-02
3.967999999999999972e+01,5.362964046933225287e-02
3.971999999999999886e+01,4.564546077423828341e-02
3.975999999999999801e+01,4.096864729458687265e-02
3.979999999999999716e+01,4.378883623514805146e-02
3.984000000000000341e+01,3.462789273246297955e-02
3.988000000000000256e+01,3.186141515331456647e-02
3.992000000000000171e+01,3.813548941541436421e-02
3.996000000000000085e+01,3.125239205429594658e-02
4.000000000000000000e+01,3.723197047741231419e-02
4.003999999999999915e+01,2.196911329156084683e-02
4.007999999999999829e+01,3.265235755528115430e-02
4.011999999999999744e+01,2.444524226058363003e-02
4.015999999999999659e+01,3.218790216954073302e-02
4.020000000000000284e+01,2.655288153936864737e-02
4.024000000000000199e+01,2.995841044105081175e-02
4.028000000000000114e+01,3.071760784104223332e-02
4.032000000000000028e+01,2.860996626680320856e-02
4.035999999999999943e+01,2.172442316949192709e-02
4.039999999999999858e+01,2.512896915790898897e-02
4.043999999999999773e+01,2.250607233733423543e-02
4.047999999999999687e+01,2.127947427589808177e-02
4.052000000000000313e+01,2.181668665803543003e-02
4.056000000000000227e+01,2.066309664784609507e-02
4.060000000000000142e+01,2.333138355329298155e-02
4.064000000000000057e+01,1.850217831394022211e-02
4.067999999999999972e+01,1.212917460548171289e-02
4.071999999999999886e+01,1.751630556579412967e-02
4.075999999999999801e+01,1.180432617881459895e-02
4.079999999999999716e+01,1.527989707149352526e-02
4.084000000000000341e+01,1.831420425969710816e-02
4.088000000000000256e+01,1.465954391189569495e-02
4.092000000000000171e+01,1.614980127352943010e-02
4.096000000000000085e+01,1.322966475508638440e-02
4.100000000000000000e+01,1.501343100099900192e-02
4.103999999999999915e+01,1.856100393771992554e-02
4.107999999999999829e+01,1.380255521338438242e-02
4.111999999999999744e+01,1.543856346368383849e-02
4.115999999999999659e+01,1.655980330549217810e-02
4.120000000000000284e+01,1.297663795669091492e-02
4.124000000000000199e+01,1.578792871650190610e-02
4.128000000000000114e+01,1.073421073961618004e-02
4.132000000000000028e+01,1.626458478743844638e-02
4.135999999999999943e+01,1.687004530608864072e-02
4.139999999999999858e+01,1.446165426706007111e-02
4.143999999999999773e+01,1.337605266436633564e-02
4.147999999999999687e+01,1.640633120496270275e-02
4.152000000000000313e+01,1.914234592286523026e-02
4.156000000000000227e+01,9.823713389907059307e-03
4.160000000000000142e+01,1.064815649320619180e-02
4.164000000000000057e+01,1.544147379585479249e-02
4.167999999999999972e+01,1.236977947506420761e-02
4.171999999999999886e+01,1.554553300955123854e-02
4.175999999999999801e+01,1.078277194862878319e-02
4.179999999999999716e+01,1.660409944832335824e-02
4.184000000000000341e+01,7.871696259295344819e-03
4.188000000000000256e+01,1.273697923303086094e-02
4.192000000000000171e+01,1.275084703077667900e-02
4.196000000000000085e+01,1.033887838637888648e-02
4.200000000000000000e+01,8.955685558389200884e-03
4.203999999999999915e+01,1.352592869779586579e-02
4.207999999999999829e+01,1.103968366786098158e-02
4.211999999999999744e+01,8.847189642093173864e-03
4.215999999999999659e+01,1.128508761450607197e-02
4.220000000000000284e+01,1.453125277609032540e-02
4.224000000000000199e+01,1.799766568119710863e-02
4.228000000000000114e+01,1.889123504552265090e-02
4.232000000000000028e+01,1.155227619451189812e-02
4.235999999999999943e+01,2.170662695713061752e-02
4.239999999999999858e+01,1.591069749177256853e-02
4.243999999999999773e+01,1.702373223715219694e-02
4.247999999999999687e+01,1.688696510157226133e-02
4.252000000000000313e+01,1.645592692644230401e-02
4.256000000000000227e+01,1.168798571888749957e-02
4.260000000000000142e+01,1.279997404266776384e-02
4.264000000000000057e+01,1.699880061347937982e-02
4.267999999999999972e+01,1.149504847844994015e-02
4.271999999999999886e+01,1.429680403125315781e-02
4.275999999999999801e+01,9.307042561034369749e-03
4.279999999999999716e+01,1.122624270348502283e-02
4.284000000000000341e+01,9.617064133631213554e-03
4.288000000000000256e+01,1.013919094867951620e-02
4.292000000000000171e+01,1.161658454600639559e-02
4.296000000000000085e+01,9.859608143493396593e-03
4.300000000000000000e+01,1.310052965011103757e-02
4.303999999999999915e+01,1.178403747634743960e-02
4.307999999999999829e+01,1.039377740545980797e-02
4.311999999999999744e+01,1.752952931952787494e-02
4.315999999999999659e+01,1.040555059711057058e-02
4.320000000000000284e+01,1.202809046616594608e-02
4.324000000000000199e+01,6.226621821217487134e-03
4.328000000000000114e+01,1.439034120854303100e-02
4.332000000000000028e+01,8.367831199308031070e-03
4.335999999999999943e+01,1.241488173004166515e-02
4.339999999999999858e+01,1.462410458333342385e-02
4.343999999999999773e+01,1.367245636731617697e-02
4.347999999999999687e+01,1.301454934054162814e-02
4.352000000000000313e+01,1.029830658643696682e-02
4.356000000000000227e+01,8.463823601201150154e-03
4.360000000000000142e+01,9.716171934814755995e-03
4.364000000000000057e+01,1.479037524482182051e-02
4.367999999999999972e+01,9.500471080535191279e-03
4.371999999999999886e+01,1.398611527966164662e-02
4.375999999999999801e+01,2.273462795688980381e-02
4.379999999999999716e+01,1.472432396170242699e-02
4.384000000000000341e+01,1.443150041449422182e-02
4.388000000000000256e+01,8.405218810796272894e-03
4.392000000000000171e+01,1.193397694327468818e-02
4.396000000000000085e+01,1.678550632561044004e-02
4.400000000000000000e+01,1.436002649837533895e-02
4.403999999999999915e+01,1.906400651877347696e-02
4.407999999999999829e+01,1.097829715561515068e-02
4.411999999999999744e+01,1.325615242610205316e-02
4.415999999999999659e+01,1.935585892021721849e-02
4.420000000000000284e+01,1.185734882391303868e-02
4.424000000000000199e+01,8.695206136241414446e-03
4.428000000000000114e+01,1.846921073928203469e-02
4.432000000000000028e+01,1.523301704285522432e-02
4.435999999999999943e+01,1.162903663324119791e-02
4.439999999999999858e+01,1.508101107857040199e-02
4.443999999999999773e+01,1.360804976681053921e-02
4.447999999999999687e+01,1.015024819416050425e-02
4.452000000000000313e+01,1.249885990185989164e-02
4.456000000000000227e+01,1.969835347115065846e-02
4.460000000000000142e+01,1.396114911487606088e-02
4.464000000000000057e+01,1.292782125360072108e-02
4.467999999999999972e+01,1.424629297075185978e-02
4.471999999999999886e+01,6.670697600515450472e-03
4.475999999999999801e+01,9.752671823623677155e-03
4.479999999999999716e+01,5.631133458297907408e-03
4.484000000000000341e+01,1.363721200140484771e-02
4.488000000000000256e+01,1.113216962074703442e-02
4.492000000000000171e+01,1.259597776815043861e-02
4.496000000000000085e+01,7.076779356288396411e-03
4.500000000000000000e+01,1.258266077883460170e-02
4.503999999999999915e+01,7.062903360566299624e-03
4.507999999999999829e+01,7.423057575829789499e-03
4.511999999999999744e+01,1.697073089393307671e-02
4.515999999999999659e+01,1.608078366217373031e-02
4.520000000000000284e+01,1.158893829170754702e-02
4.524000000000000199e+01,1.349152016242896081e-02
4.528000000000000114e+01,1.201271050096053283e-02
4.532000000000000028e+01,9.725092830391997636e-03
4.535999999999999943e+01,1.140632251246799858e-02
4.539999999999999858e+01,8.383116693138497472e-03
4.543999999999999773e+01,1.300387738019643039e-02
4.547999999999999687e+01,9.906603809005411210e-03
4.552000000000000313e+01,1.283624348517313149e-02
4.556000000000000227e+01,1.223748481918761517e-02
4.560000000000000142e+01,1.193245204270971561e-02
4.564000000000000057e+01,1.339119275950173722e-02
4.567999999999999972e+01,9.263467218706593689e-03
4.571999999999999886e+01,1.064813671954614911e-02
4.575999999999999801e+01,1.247353574443998449e-02
4.579999999999999716e+01,1.106454427362242240e-02
4.584000000000000341e+01,1.575596613539143737e-02
4.588000000000000256e+01,1.037727422427053153e-02
4.592000000000000171e+01,1.146650704149684667e-02
4.596000000000000085e+01,1.049738652226403675e-02
4.600000000000000000e+01,1.643720452176094041e-02
4.603999999999999915e+01,1.752557761182075083e-02
4.607999999999999829e+01,1.310098395217274697e-02
4.611999999999999744e+01,1.683486865380279945e-02
4.615999999999999659e+01,9.837116010226742979e-03
4.620000000000000284e+01,1.327641538385691128e-02
4.624000000000000199e+01,1.010021093375487039e-02
4.628000000000000114e+01,1.030482803981504734e-02
4.632000000000000028e+01,1.374326162411953697e-02
4.635999999999999943e+01,1.174222883261830455e-02
4.639999999999999858e+01,1.312201673125656942e-02
4.643999999999999773e+01,9.870864017580744179e-03
4.647999999999999687e+01,9.192005075855798693e-03
4.652000000000000313e+01,1.527507611085167707e-02
4.656000000000000227e+01,1.319909072566297602e-02
4.660000000000000142e+01,1.420991500875521535e-02
4.664000000000000057e+01,9.928275684565668335e-03
4.667999999999999972e+01,1.806824956828076770e-02
4.671999999999999886e+01,2.084225687274378694e-02
4.675999999999999801e+01,1.861780928238961422e-02
4.679999999999999716e+01,1.235043763862776582e-02
4.684000000000000341e+01,1.166895534824354333e-02
4.688000000000000256e+01,1.135469210441284946e-02
4.692000000000000171e+01,8.394049438966497481e-03
4.696000000000000085e+01,9.916759341547579099e-03
4.700000000000000000e+01,1.335023771171786958e-02
4.703999999999999915e+01,1.553388129206449871e-02
4.707999999999999829e+01,6.838876098453671240e-03
4.711999999999999744e+01,1.357907911682576345e-02
4.715999999999999659e+01,1.826092013851131346e-02
4.720000000000000284e+01,7.286455869797849906e-03
4.724000000000000199e+01,9.101112740658709455e-03
4.728000000000000114e+01,1.679566536796778253e-02
4.732000000000000028e+01,8.098887892636812483e-03
4.735999999999999943e+01,1.175021632312644830e-02
4.739999999999999858e+01,1.224064510555667069e-02
4.743999999999999773e+01,6.777082955623721025e-03
4.747999999999999687e+01,1.535218092179071493e-02
4.752000000000000313e+01,1.113756467841602385e-02
4.756000000000000227e+01,1.346436372236627099e-02
4.760000000000000142e+01,1.351229041034780753e-02
4.764000000000000057e+01,9.884798955871625104e-03
4.767999999999999972e+01,6.110004012111253449e-03
4.771999999999999886e+01,8.288604044004223639e-03
4.775999999999999801e+01,1.473004368657420543e-02
4.779999999999999716e+01,1.595251374493111482e-02
4.784000000000000341e+01,1.798321028939060817e-02
4.788000000000000256e+01,1.920508034959821780e-02
4.792000000000000171e+01,1.844208532293047098e-02
4.796000000000000085e+01,2.061888536037558700e-02
4.800000000000000000e+01,2.338340354536084728e-02
4.803999999999999915e+01,1.769484505072706215e-02
4.807999999999999829e+01,1.788617653905655303e-02
4.811999999999999744e+01,2.028227799058368239e-02
4.815999999999999659e+01,1.363728273949440031e-02
4.820000000000000284e+01,1.250466463223652569e-02
4.824000000000000199e+01,1.622290182853935309e-02
4.828000000000000114e+01,1.200257737553045954e-02
4.832000000000000028e+01,1.263310764873377262e-02
4.835999999999999943e+01,1.230780318435059466e-02
4.839999999999999858e+01,1.955294146983877976e-02
4.843999999999999773e+01,1.547840679871417303e-02
4.847999999999999687e+01,1.162407483792957628e-02
4.852000000000000313e+01,1.695723744267384550e-02
4.856000000000000227e+01,1.258777890646278069e-02
4.860000000000000142e+01,1.373069462734065500e-02
4.864000000000000057e+01,1.715187895327277209e-02
4.867999999999999972e+01,1.167896761306692378e-02
4.871999999999999886e+01,1.407050629182580136e-02
4.875999999999999801e+01,1.388915466457548917e-02
4.879999999999999716e+01,1.164942920499452590e-02
4.884000000000000341e+01,1.227599006407121413e-02
4.888000000000000256e+01,1.444579384993836119e-02
4.892000000000000171e+01,9.559060103167793185e-03
4.896000000000000085e+01,1.826996142381909563e-02
4.900000000000000000e+01,1.654321448188006416e-02
4.903999999999999915e+01,1.121454168850651197e-02
4.907999999999999829e+01,1.536736899770968674e-02
4.911999999999999744e+01,1.400720761796231222e-02
4.915999999999999659e+01,1.022115783470693880e-02
4.920000000000000284e+01,2.047375575455890814e-02
4.924000000000000199e+01,1.088039716818104026e-02
4.928000000000000114e+01,1.422314978823458094e-02
4.932000000000000028e+01,1.756559187260349486e-02
4.935999999999999943e+01,1.561555071984185687e-02
4.939999999999999858e+01,4.918413494049489638e-03
4.943999999999999773e+01,1.222905154889772708e-02
4.947999999999999687e+01,1.608476536613838784e-02
4.952000000000000313e+01,1.119338224432559793e-02
4.956000000000000227e+01,1.806206999427523857e-02
4.960000000000000142e+01,1.515462670311731007e-02
4.964000000000000057e+01,1.518696635175392079e-02
4.967999999999999972e+01,1.396945215806657745e-02
4.971999999999999886e+01,1.466268680211966699e-02
4.975999999999999801e+01,1.190099518784546763e-02
4.979999999999999716e+01,1.112355422858503362e-02
4.984000000000000341e+01,1.071331095398388861e-02
4.988000000000000256e+01,9.641231550662186095e-03
4.992000000000000171e+01,1.452253124591025395e-02
4.996000000000000085e+01,1.455235774164506321e-02
5.000000000000000000e+01,1.377334245339291094e-02
5.003999999999999915e+01,1.571360003432733729e-02
5.007999999999999829e+01,1.118533086804552289e-02
5.011999999999999744e+01,1.128739625376933182e-02
5.015999999999999659e+01,9.478082781481782584e-03
5.020000000000000284e+01,1.229910328385135261e-02
5.024000000000000199e+01,8.504591095064045758e-03
5.028000000000000114e+01,5.591790177872113868e-03
5.032000000000000028e+01,1.120494928427148706e-02
5.035999999999999943e+01,1.321617301298620185e-02
5.039999999999999858e+01,1.089043712912374229e-02
5.043999999999999773e+01,9.740420940646992223e-03
5.047999999999999687e+01,1.035414331585631821e-02
5.052000000000000313e+01,9.203489024229731530e-03
5.056000000000000227e+01,9.081548772722445109e-03
5.060000000000000142e+01,9.914819878038398995e-03
5.064000000000000057e+01,1.427588586326733640e-02
5.067999999999999972e+01,1.246243034965365329e-02
5.071999999999999886e+01,7.782060806505395820e-03
5.075999999999999801e+01,1.067211698144793913e-02
5.079999999999999716e+01,1.525240701606076638e-02
5.084000000000000341e+01,1.307015524015937846e-02
5.088000000000000256e+01,1.470970619061277851e-02
5.092000000000000171e+01,1.392335603589135197e-02
5.096000000000000085e+01,9.902578146480716867e-03
5.100000000000000000e+01,1.426075058395552368e-02
5.103999999999999915e+01,1.656053302334187585e-02
5.107999999999999829e+01,1.305330305025229932e-02
5.111999999999999744e+01,1.211833336290097166e-02
5.115999999999999659e+01,1.404963325110097395e-02
5.120000000000000284e+01,1.267300127794444842e-02
5.124000000000000199e+01,1.129604491273943599e-02
5.128000000000000114e+01,1.065378781303000233e-02
5.132000000000000028e+01,1.427434463198963381e-02
5.135999999999999943e+01,1.194088222850994870e-02
5.139999999999999858e+01,1.313520922013253558e-02
5.143999999999999773e+01,1.330017685162982605e-02
5.147999999999999687e+01,1.383233033214231050e-02
5.152000000000000313e+01,1.392314303215559830e-02
5.156000000000000227e+01,7.545418304005519460e-03
5.160000000000000142e+01,8.738113231787100407e-03
5.164000000000000057e+01,1.536965808279302896e-02
5.167999999999999972e+01,1.648819576969661263e-02
5.171999999999999886e+01,1.047667332214342016e-02
5.175999999999999801e+01,1.534317713380713849e-02
5.179999999999999716e+01,1.146256755198533928e-02
5.184000000000000341e+01,1.125674897909278646e-02
5.188000000000000256e+01,1.310866844477499675e-02
5.192000000000000171e+01,1.518076579481201192e-02
5.196000000000000085e+01,1.504746171800925257e-02
5.200000000000000000e+01,1.131221042787775195e-02
5.203999999999999915e+01,7.282619393725503314e-03
5.207999999999999829e+01,8.544870318137233120e-03
5.211999999999999744e+01,1.855357545966468055e-02
5.215999999999999659e+01,1.621354727316876368e-02
5.220000000000000284e+01,1.571074763198816379e-02
5.224000000000000199e+01,1.667766427433949733e-02
5.228000000000000114e+01,9.044468848357989713e-03
5.232000000000000028e+01,1.383284592721236578e-02
5.235999999999999943e+01,8.845072046436154231e-03
5.239999999999999858e+01,1.179522402121580341e-02
5.243999999999999773e+01,1.827315788556732254e-02
5.247999999999999687e+01,1.203484413939238766e-02
5.252000000000000313e+01,1.395496256661606614e-02
5.256000000000000227e+01,1.389018242075172258e-02
5.260000000000000142e+01,1.522161356572926914e-02
5.264000000000000057e+01,1.420063358716120230e-02
5.267999999999999972e+01,8.842677541583876880e-03
5.271999999999999886e+01,1.281919053998314961e-02
5.275999999999999801e+01,1.319375084024298518e-02
5.279999999999999716e+01,1.533203296108263773e-02
5.284000000000000341e+01,1.364785462256882902e-02
5.288000000000000256e+01,9.464258639220252817e-03
5.292000000000000171e+01,1.498264222958622244e-02
5.296000000000000085e+01,8.740305875418527895e-03
5.300000000000000000e+01,1.815364248198496691e-02
5.303999999999999915e+01,1.558575138280378879e-02
5.307999999999999829e+01,1.419356092650803612e-02
5.311999999999999744e+01,1.456508998139808934e-02
5.315999999999999659e+01,1.287821373846464654e-02
5.320000000000000284e+01,9.720951066008053434e-03
5.324000000000000199e+01,1.317856508375519868e-02
5.328000000000000114e+01,1.229919870437941841e-02
5.332000000000000028e+01,8.920411504752184112e-03
5.335999999999999943e+01,1.539060549266637462e-02
5.339999999999999858e+01,1.274616256701604361e-02
5.343999999999999773e+01,1.318847994635048704e-02
5.347999999999999687e+01,1.245441845392935773e-02
5.352000000000000313e+01,1.319006400746425105e-02
5.356000000000000227e+01,8.118679250719932836e-03
5.360000000000000142e+01,1.194074281938781006e-02
5.364000000000000057e+01,1.833504848731640907e-02
5.367999999999999972e+01,1.436517451238965813e-02
5.371999999999999886e+01,1.370256600559343479e-02
5.375999999999999801e+01,1.553869633741336055e-02
5.379999999999999716e+01,1.171479941615220961e-02
5.384000000000000341e+01,1.340323893565369823e-02
5.388000000000000256e+01,1.928097150405064936e-02
5.392000000000000171e+01,1.450051311905944072e-02
5.396000000000000085e+01,1.118975860460759073e-02
5.400000000000000000e+01,1.522889924176705316e-02
5.403999999999999915e+01,1.118243187127965221e-02
5.407999999999999829e+01,1.353032794497132166e-02
5.411999999999999744e+01,1.786244349685814706e-02
5.415999999999999659e+01,1.241839509877327302e-02
5.420000000000000284e+01,1.145764701867722259e-02
5.424000000000000199e+01,1.034954810672054394e-02
5.428000000000000114e+01,1.321023217305135854e-02
5.432000000000000028e+01,1.585006243555121472e-02
5.435999999999999943e+01,1.224184224655595031e-02
5.439999999999999858e+01,1.686554305789149041e-02
5.443999999999999773e+01,1.575570960273619051e-02
5.447999999999999687e+01,1.126441822031432755e-02
5.452000000000000313e+01,1.324098950127667630e-02
5.456000000000000227e+01,1.683426511190828923e-02
5.460000000000000142e+01,1.601704840454500067e-02
5.464000000000000057e+01,1.306791332378924066e-02
5.467999999999999972e+01,1.614562538398971875e-02
5.471999999999999886e+01,1.187274847529942549e-02
5.475999999999999801e+01,6.055971484168540600e-03
5.479999999999999716e+01,1.699739038275811451e-02
5.484000000000000341e+01,1.529604703366249825e-02
5.488000000000000256e+01,1.440287936400209967e-02
5.492000000000000171e+01,1.358286313888432302e-02
5.496000000000000085e+01,1.754015132543199421e-02
5.500000000000000000e+01,1.554339402018388959e-02
5.503999999999999915e+01,1.214973940101916200e-02
5.507999999999999829e+01,1.463592424682451029e-02
5.511999999999999744e+01,1.954733572169981698e-02
5.515999999999999659e+01,1.277151376957974885e-02
5.520000000000000284e+01,1.724120522380052922e-02
5.524000000000000199e+01,1.810892608207856358e-02
5.528000000000000114e+01,2.000532691691482221e-02
5.532000000000000028e+01,2.572349843526450588e-02
5.535999999999999943e+01,2.269453086812072903e-02
5.539999999999999858e+01,2.297281664478907637e-02
5.543999999999999773e+01,2.736688181743546916e-02
5.547999999999999687e+01,2.404284056327123456e-02
5.552000000000000313e+01,2.784817630723148557e-02
5.556000000000000227e+01,2.591996970182201820e-02
5.560000000000000142e+01,3.222367543651596250e-02
5.564000000000000057e+01,3.007424964348400995e-02
5.567999999999999972e+01,2.939451530799879614e-02
5.571999999999999886e+01,3.650567807886326982e-02
5.575999999999999801e+01,3.339965098505523478e-02
5.579999999999999716e+01,4.359720001688556501e-02
5.584000000000000341e+01,4.379806579056039900e-02
5.588000000000000256e+01,5.090779878042597101e-02
5.592000000000000171e+01,5.610611134318869986e-02
5.596000000000000085e+01,5.836396966546870263e-02
5.600000000000000000e+01,6.223852192514508358e-02
5.603999999999999915e+01,6.523068641640145104e-02
5.607999999999999829e+01,6.146027128081729685e-02
5.611999999999999744e+01,5.901253963811944198e-02
5.615999999999999659e+01,5.700546246417175639e-02
5.620000000000000284e+01,5.779111609819851531e-02
5.624000000000000199e+01,5.629783502261925809e-02
5.628000000000000114e+01,5.039404950472672201e-02
5.632000000000000028e+01,4.147630475366142350e-02
5.635999999999999943e+01,4.556812250830773181e-02
5.639999999999999858e+01,4.091279367193012551e-02
5.643999999999999773e+01,3.765364841366672377e-02
5.647999999999999687e+01,3.240957629223918668e-02
5.652000000000000313e+01,3.400086437359262775e-02
5.656000000000000227e+01,3.375422980367708686e-02
5.660000000000000142e+01,2.931759566591979685e-02
5.664000000000000057e+01,2.598313408441815103e-02
5.667999999999999972e+01,2.411835674360705839e-02
5.671999999999999886e+01,2.975045971380218743e-02
5.675999999999999801e+01,2.126973868751174529e-02
5.679999999999999716e+01,1.962437584328257864e-02
5.684000000000000341e+01,2.753395949344809857e-02
5.688000000000000256e+01,2.603487153690233619e-02
5.692000000000000171e+01,2.313887269875030891e-02
5.696000000000000085e+01,2.244758002678738304e-02
5.700000000000000000e+01,2.109439984208802063e-02
5.703999999999999915e+01,2.179892045698559114e-02
5.707999999999999829e+01,1.397679675726257523e-02
5.711999999999999744e+01,1.482758879575258627e-02
5.715999999999999659e+01,1.611902808613659838e-02
5.720000000000000284e+01,1.152990840226308239e-02
5.724000000000000199e+01,1.326162696268134121e-02
5.728000000000000114e+01,1.822708290460034117e-02
5.732000000000000028e+01,1.856151971481016447e-02
5.735999999999999943e+01,1.397092752614926235e-02
5.739999999999999858e+01,1.548066524321767799e-02
5.743999999999999773e+01,1.294740211952879159e-02
5.747999999999999687e+01,1.114879351682723438e-02
5.752000000000000313e+01,1.081986309265705985e-02
5.756000000000000227e+01,1.129908900674754003e-02
5.760000000000000142e+01,1.251296857580260283e-02
5.764000000000000057e+01,1.740159729602116026e-02
5.767999999999999972e+01,1.236703187369068806e-02
5.771999999999999886e+01,7.626104872571068220e-03
5.775999999999999801e+01,1.295463448869127454e-02
5.779999999999999716e+01,1.049153854027275005e-02
5.784000000000000341e+01,1.096816635342816142e-02
5.788000000000000256e+01,9.606861989064442719e-03
5.792000000000000171e+01,1.147929038741353318e-02
5.796000000000000085e+01,9.455718981483765898e-03
5.800000000000000000e+01,1.265044441570767342e-02
5.803999999999999915e+01,1.569779159401750793e-02
5.807999999999999829e+01,1.073300400320338632e-02
5.811999999999999744e+01,1.157453154349481587e-02
5.815999999999999659e+01,1.131314883176565665e-02
5.820000000000000284e+01,1.105139149866912578e-02
5.824000000000000199e+01,1.622843645754623587e-02
5.828000000000000114e+01,1.464288591249923201e-02
5.832000000000000028e+01,1.467401256174234378e-02
5.835999999999999943e+01,1.492527061878652812e-02
5.839999999999999858e+01,1.385310950789917991e-02
5.843999999999999773e+01,1.145752894040604104e-02
5.847999999999999687e+01,9.355581309313099406e-03
5.852000000000000313e+01,1.276593634409592740e-02
5.856000000000000227e+01,1.205978006062072630e-02
5.860000000000000142e+01,1.252928458298495362e-02
5.864000000000000057e+01,9.102784393608133115e-03
5.867999999999999972e+01,1.603974376045077394e-02
5.871999999999999886e+01,1.290649668997033428e-02
5.875999999999999801e+01,1.271296674155615071e-02
5.879999999999999716e+01,1.376859855023196584e-02
5.884000000000000341e+01,1.247177449085393186e-02
5.888000000000000256e+01,1.235060921659556984e-02
5.892000000000000171e+01,1.178804975710238089e-02
5.896000000000000085e+01,6.226947357146785274e-03
5.900000000000000000e+01,1.249935009645325966e-02
5.903999999999999915e+01,5.467438725682186897e-03
5.907999999999999829e+01,7.181931342707879341e-03
5.911999999999999744e+01,1.426171750625200747e-02
5.915999999999999659e+01,8.110691088317663680e-03
5.920000000000000284e+01,8.795005531989797537e-03
5.924000000000000199e+01,1.183101447666267715e-02
5.928000000000000114e+01,8.030918305933413756e-03
5.932000000000000028e+01,1.143367410389705199e-02
5.935999999999999943e+01,7.338802657513628785e-03
5.939999999999999858e+01,7.727194001466967770e-03
5.943999999999999773e+01,3.999067676328846473e-03
5.947999999999999687e+01,1.004637597695061564e-02
5.952000000000000313e+01,1.315320434508174957e-02
5.956000000000000227e+01,1.052646149641844886e-02
5.960000000000000142e+01,1.128044407539324258e-02
5.964000000000000057e+01,1.026998416980388733e-02
5.967999999999999972e+01,1.021467009198375256e-02
5.971999999999999886e+01,7.659889006032696498e-03
5.975999999999999801e+01,6.501267538233359601e-03
5.979999999999999716e+01,9.531896395540995562e-03
5.984000000000000341e+01,1.638426331617219914e-02
5.988000000000000256e+01,1.404844416338907678e-02
5.992000000000000171e+01,8.037118245154526233e-03
5.996000000000000085e+01,6.141539102708120333e-03
