2.003999999999999915e+01,2.935600686517907815e-02
2.007999999999999829e+01,2.674789145578227584e-02
2.012000000000000099e+01,2.313014630365903962e-02
2.016000000000000014e+01,0.000000000000000000e+00
2.019999999999999929e+01,3.708757559649982632e-02
2.023999999999999844e+01,1.765720722383787994e-02
2.028000000000000114e+01,1.269225335845863833e-02
2.032000000000000028e+01,2.118347174205109998e-02
2.035999999999999943e+01,4.060775701674128324e-02
2.039999999999999858e+01,2.521280198158943817e-02
2.044000000000000128e+01,1.503187507753767083e-02
2.048000000000000043e+01,4.168789419240236799e-02
2.051999999999999957e+01,3.217901633311660847e-02
2.055999999999999872e+01,4.756438632343660405e-02
2.060000000000000142e+01,3.771831467479715150e-02
2.064000000000000057e+01,2.467591964445143768e-02
2.067999999999999972e+01,3.989191210915351421e-02
2.071999999999999886e+01,1.137369114221126881e-02
2.076000000000000156e+01,3.399001079094630950e-02
2.080000000000000071e+01,3.860778931672938230e-02
2.083999999999999986e+01,2.926399479312486590e-02
2.087999999999999901e+01,3.219892075394840958e-02
2.092000000000000171e+01,2.823696774613767765e-02
2.096000000000000085e+01,2.511565808663201310e-02
2.100000000000000000e+01,8.705602654244080571e-03
2.103999999999999915e+01,3.518794295191737809e-02
2.107999999999999829e+01,4.585843192689869480e-02
2.112000000000000099e+01,3.802575721025147626e-02
2.116000000000000014e+01,4.533132082254242440e-02
2.119999999999999929e+01,5.499138973108425033e-02
2.123999999999999844e+01,3.958822094075109543e-02
2.128000000000000114e+01,3.209038842785982837e-02
2.132000000000000028e+01,3.064761487878629731e-02
2.135999999999999943e+01,3.122293183609422054e-02
2.139999999999999858e+01,4.189027563884806932e-02
2.144000000000000128e+01,1.656092506398303479e-02
2.148000000000000043e+01,6.709254227613464794e-02
2.151999999999999957e+01,4.563116435941711596e-02
2.155999999999999872e+01,1.205848706014927760e-02
2.160000000000000142e+01,4.189945815346356878e-02
2.164000000000000057e+01,4.112635826347879608e-02
2.167999999999999972e+01,4.338058941076151226e-02
2.171999999999999886e+01,6.699671560918972479e-02
2.176000000000000156e+01,6.992298390119858209e-02
2.180000000000000071e+01,4.845883985147700357e-02
2.183999999999999986e+01,3.927341167971660357e-02
2.187999999999999901e+01,7.264396118523380741e-02
2.192000000000000171e+01,4.175903615139639480e-02
2.196000000000000085e+01,4.687001497952623941e-02
2.200000000000000000e+01,5.551294434262211974e-02
2.203999999999999915e+01,3.926083917918321564e-02
2.207999999999999829e+01,4.352959228415192311e-02
2.212000000000000099e+01,4.662049903852796134e-02
2.216000000000000014e+01,2.447995666843574489e-02
2.219999999999999929e+01,3.328910667681862778e-02
2.223999999999999844e+01,1.552115108836086589e-02
2.228000000000000114e+01,3.290806277106888417e-02
2.232000000000000028e+01,3.431491017000234262e-02
2.235999999999999943e+01,4.244963958666449905e-02
2.239999999999999858e+01,4.621058809899337982e-02
2.244000000000000128e+01,4.795265366992795819e-02
2.248000000000000043e+01,4.599376599690702810e-02
2.251999999999999957e+01,5.227662267343281821e-02
2.255999999999999872e+01,2.172174454281571021e-02
2.260000000000000142e+01,4.381526129837679667e-02
2.264000000000000057e+01,3.411725319479805979e-02
2.267999999999999972e+01,3.181995361770907638e-02
2.271999999999999886e+01,3.776439743048619346e-02
2.276000000000000156e+01,4.236278481063013301e-02
2.280000000000000071e+01,2.442103217232802215e-02
2.283999999999999986e+01,2.834579024414736123e-02
2.287999999999999901e+01,3.361580348452534311e-02
2.292000000000000171e+01,2.711092483864974492e-02
2.296000000000000085e+01,2.279233603277312087e-02
2.300000000000000000e+01,3.411659775996038479e-02
2.303999999999999915e+01,3.635727920208588898e-02
2.307999999999999829e+01,2.968258717827603616e-02
2.312000000000000099e+01,2.216645802759551614e-02
2.316000000000000014e+01,3.433014690773462940e-02
2.319999999999999929e+01,3.219583739212968782e-02
2.323999999999999844e+01,1.761380641053203813e-02
2.328000000000000114e+01,2.758959620475865196e-02
2.332000000000000028e+01,3.066849551418349140e-02
2.335999999999999943e+01,4.367120525312145202e-02
2.339999999999999858e+01,3.009680382907126139e-02
2.344000000000000128e+01,3.233345783785020189e-02
2.348000000000000043e+01,3.473791505870817142e-02
2.351999999999999957e+01,3.663734725545916837e-02
2.355999999999999872e+01,2.558443541754095579e-02
2.360000000000000142e+01,4.918176348370896511e-02
2.364000000000000057e+01,3.711880063789611828e-02
2.367999999999999972e+01,3.666171679673262129e-02
2.371999999999999886e+01,2.745746342971853299e-02
2.376000000000000156e+01,3.288681488260679353e-02
2.380000000000000071e+01,3.226030860277217388e-02
2.383999999999999986e+01,4.778126985853050485e-02
2.387999999999999901e+01,2.511883388475346160e-02
2.392000000000000171e+01,2.280904033925998733e-02
2.396000000000000085e+01,4.505706430667665019e-02
2.400000000000000000e+01,5.435274212812669231e-02
2.403999999999999915e+01,3.942620387048565572e-02
2.407999999999999829e+01,4.367485819594599250e-02
2.412000000000000099e+01,4.220406727531957058e-02
2.416000000000000014e+01,4.241493940342067059e-02
2.419999999999999929e+01,3.741098693475035375e-02
2.423999999999999844e+01,2.197779233443434774e-02
2.428000000000000114e+01,2.857930854560182185e-02
2.432000000000000028e+01,3.803993611519014550e-02
2.435999999999999943e+01,4.716374164107527828e-02
2.439999999999999858e+01,4.131671496888240230e-02
2.444000000000000128e+01,2.201271900623810035e-02
2.448000000000000043e+01,3.096709230470964802e-02
2.451999999999999957e+01,4.093029888023368840e-02
2.455999999999999872e+01,2.986722009168472219e-02
2.460000000000000142e+01,1.476676386444066187e-02
2.464000000000000057e+01,2.321487982081741480e-02
2.467999999999999972e+01,3.855907367369022787e-02
2.471999999999999886e+01,3.186773932837041329e-02
2.476000000000000156e+01,4.922959762405079709e-02
2.480000000000000071e+01,3.850047493941592680e-02
2.483999999999999986e+01,1.683748621090596850e-02
2.487999999999999901e+01,3.453452755427650206e-02
2.492000000000000171e+01,4.516646372433764933e-02
2.496000000000000085e+01,4.604198235215307272e-02
2.500000000000000000e+01,4.742171092059976889e-02
2.503999999999999915e+01,2.222432045667731282e-02
2.507999999999999829e+01,3.588233807176687690e-02
2.512000000000000099e+01,3.810186726624126968e-02
2.516000000000000014e+01,3.847070747872726598e-02
2.519999999999999929e+01,2.706464486460059132e-02
2.523999999999999844e+01,2.188182941561411451e-02
2.528000000000000114e+01,4.075220411245806390e-02
2.532000000000000028e+01,3.624139164356751652e-02
2.535999999999999943e+01,5.426990583707257815e-02
2.539999999999999858e+01,3.798377676190748536e-02
2.544000000000000128e+01,2.287468356032660091e-02
2.548000000000000043e+01,3.804243895420844623e-02
2.551999999999999957e+01,2.999721323373767332e-02
2.555999999999999872e+01,3.624916967391882128e-02
2.560000000000000142e+01,5.074285568456506773e-02
2.564000000000000057e+01,3.428603749617470386e-02
2.567999999999999972e+01,3.666799019131560672e-02
2.571999999999999886e+01,4.140442649392542945e-02
2.576000000000000156e+01,3.537519934919181736e-02
2.580000000000000071e+01,4.498880930199336547e-02
2.583999999999999986e+01,3.038019453857832008e-02
2.587999999999999901e+01,2.334047995782548637e-02
2.592000000000000171e+01,4.691402588336311685e-02
2.596000000000000085e+01,3.129492253231205140e-02
2.600000000000000000e+01,2.290830476598973431e-02
2.603999999999999915e+01,2.091313733714758941e-02
2.607999999999999829e+01,5.323178389022681367e-02
2.612000000000000099e+01,2.718218113784616821e-02
2.616000000000000014e+01,4.503419161407778981e-02
2.619999999999999929e+01,1.561961513110326528e-02
2.623999999999999844e+01,4.221755628936992716e-02
2.628000000000000114e+01,4.593892670862239486e-02
2.632000000000000028e+01,3.653973283855076887e-02
2.635999999999999943e+01,5.809021138559718189e-02
2.639999999999999858e+01,7.511839340043095434e-04
2.644000000000000128e+01,3.979435581897498853e-02
2.648000000000000043e+01,3.173914641224930694e-02
2.651999999999999957e+01,4.706429315708406808e-02
2.655999999999999872e+01,3.766259069766435957e-02
2.660000000000000142e+01,3.397950784436896271e-02
2.664000000000000057e+01,3.803352853801200695e-02
2.667999999999999972e+01,2.291153081665511793e-02
2.671999999999999886e+01,4.227155101730407927e-02
2.676000000000000156e+01,6.230397972445739230e-02
2.680000000000000071e+01,3.389236951592518310e-02
2.683999999999999986e+01,2.179641945883879425e-02
2.687999999999999901e+01,4.788304079938916075e-02
2.692000000000000171e+01,4.133708168832170293e-02
2.696000000000000085e+01,4.236001757764110837e-02
2.700000000000000000e+01,4.388715381078580474e-02
2.703999999999999915e+01,2.270592266919261443e-02
2.707999999999999829e+01,2.524145901417919682e-02
2.712000000000000099e+01,4.442906818918383738e-02
2.716000000000000014e+01,5.116893708845572653e-02
2.719999999999999929e+01,4.714313563068385504e-02
2.723999999999999844e+01,3.807070200005725769e-02
2.728000000000000114e+01,5.591096810651774440e-02
2.732000000000000028e+01,5.575266180443782388e-02
2.735999999999999943e+01,3.995068105675676773e-02
2.739999999999999858e+01,2.431648471141455506e-02
2.744000000000000128e+01,3.559498733541478777e-02
2.748000000000000043e+01,3.947195848006855579e-02
2.751999999999999957e+01,2.888270348881421742e-02
2.755999999999999872e+01,3.830965943753087549e-02
2.760000000000000142e+01,2.788776451246663055e-02
2.764000000000000057e+01,3.899594324306377563e-02
2.767999999999999972e+01,4.102051942400881251e-02
2.771999999999999886e+01,3.850308216205331618e-02
2.776000000000000156e+01,6.643068956626400901e-02
2.780000000000000071e+01,4.507321820107335758e-02
2.783999999999999986e+01,4.995561584161392621e-02
2.787999999999999901e+01,4.827751513875928879e-02
2.792000000000000171e+01,4.071174394482361680e-02
2.796000000000000085e+01,4.525645225155932455e-02
2.800000000000000000e+01,5.467873839134258090e-02
2.803999999999999915e+01,7.907102283598786696e-02
2.807999999999999829e+01,6.612092495311747142e-02
2.812000000000000099e+01,6.174895857086133005e-02
2.816000000000000014e+01,3.887379471621880966e-02
2.819999999999999929e+01,5.182629777044552022e-02
2.823999999999999844e+01,5.384491846622657674e-02
2.828000000000000114e+01,5.249897210943905990e-02
2.832000000000000028e+01,5.922653526039770022e-02
2.835999999999999943e+01,7.470043577141645408e-02
2.839999999999999858e+01,8.294100739962040336e-02
2.844000000000000128e+01,8.378004294201085722e-02
2.848000000000000043e+01,7.402160899646394177e-02
2.851999999999999957e+01,7.334592566535776126e-02
2.855999999999999872e+01,6.224097947350448745e-02
2.860000000000000142e+01,6.812451303215769083e-02
2.864000000000000057e+01,5.752333094794107732e-02
2.867999999999999972e+01,7.232097878348436870e-02
2.871999999999999886e+01,6.861542645953552788e-02
2.876000000000000156e+01,6.575048005634735737e-02
2.880000000000000071e+01,5.783889399479574117e-02
2.883999999999999986e+01,6.405626734407127154e-02
2.887999999999999901e+01,5.597561504267282301e-02
2.892000000000000171e+01,4.772632582791552086e-02
2.896000000000000085e+01,6.790359138849053067e-02
2.900000000000000000e+01,8.000649013189627123e-02
2.903999999999999915e+01,4.770230747669377408e-02
2.907999999999999829e+01,5.694482588389124245e-02
2.912000000000000099e+01,5.306676656623565691e-02
2.916000000000000014e+01,4.582413597341660622e-02
2.919999999999999929e+01,4.514114756618636815e-02
2.923999999999999844e+01,6.043739377210969460e-02
2.928000000000000114e+01,5.504374598762232923e-02
2.932000000000000028e+01,6.798423058729126389e-02
2.935999999999999943e+01,4.475977579492609187e-02
2.939999999999999858e+01,5.820401720865901740e-02
2.944000000000000128e+01,6.054616349480008292e-02
2.948000000000000043e+01,5.447752663841333443e-02
2.951999999999999957e+01,3.310161899399961805e-02
2.955999999999999872e+01,4.906723483218963094e-02
2.960000000000000142e+01,5.628565292991836305e-02
2.964000000000000057e+01,3.759975796687341915e-02
2.967999999999999972e+01,4.683579329112296658e-02
2.971999999999999886e+01,2.545771886097624934e-02
2.976000000000000156e+01,2.981488319043910235e-02
2.980000000000000071e+01,4.443224106982416460e-02
2.983999999999999986e+01,3.331349193981744672e-02
2.987999999999999901e+01,3.413700608648581603e-02
2.992000000000000171e+01,3.731498368732986959e-02
2.996000000000000085e+01,5.849067657922726177e-02
3.000000000000000000e+01,4.938867239530055075e-02
3.003999999999999915e+01,3.742671374680322377e-02
3.007999999999999829e+01,4.228502073611328793e-02
3.012000000000000099e+01,4.411516586591792549e-02
3.016000000000000014e+01,3.888018067878083045e-02
3.019999999999999929e+01,3.330834542526633912e-02
3.023999999999999844e+01,3.766028758825162859e-02
3.028000000000000114e+01,5.395449110855082137e-02
3.032000000000000028e+01,3.593402775203646121e-02
3.035999999999999943e+01,4.263955820971478822e-02
3.039999999999999858e+01,3.370139963464634930e-02
3.044000000000000128e+01,2.425818283052125907e-02
3.048000000000000043e+01,4.223227144178064857e-02
3.051999999999999957e+01,2.824659037142113194e-02
3.055999999999999872e+01,4.521056156488657135e-02
3.060000000000000142e+01,3.492455900261128010e-02
3.064000000000000057e+01,3.607619503703706626e-02
3.067999999999999972e+01,5.371167980810341580e-02
3.071999999999999886e+01,3.955560094893271345e-02
3.076000000000000156e+01,2.825860254646662614e-02
3.080000000000000071e+01,2.654896485126959430e-02
3.083999999999999986e+01,3.610875778203057052e-02
3.087999999999999901e+01,4.617273243881264699e-02
3.092000000000000171e+01,3.453756316942784010e-02
3.096000000000000085e+01,2.677071546344211503e-02
3.100000000000000000e+01,4.675758469979623272e-02
3.103999999999999915e+01,4.369965334567507687e-02
3.107999999999999829e+01,4.013666069151924226e-02
3.112000000000000099e+01,5.070261650783134538e-02
3.116000000000000014e+01,5.403523019773594921e-02
3.119999999999999929e+01,2.910862518648281438e-02
3.123999999999999844e+01,2.638490460088987674e-02
3.128000000000000114e+01,2.096943061176903544e-02
3.132000000000000028e+01,1.319861704930906134e-02
3.135999999999999943e+01,3.116303456901372421e-02
3.139999999999999858e+01,3.735251951200631304e-02
3.144000000000000128e+01,3.815893810672623537e-02
3.148000000000000043e+01,3.290946211698733692e-02
3.151999999999999957e+01,2.917340684866652489e-02
3.155999999999999872e+01,1.534448834651434140e-02
3.160000000000000142e+01,2.338203852047220435e-02
3.164000000000000057e+01,3.242838780685224076e-02
3.167999999999999972e+01,3.693270464865543862e-02
3.171999999999999886e+01,1.166393719456864340e-02
3.176000000000000156e+01,1.717660923516059826e-02
3.180000000000000071e+01,2.790325489699307590e-02
3.183999999999999986e+01,1.928565037300304652e-02
3.187999999999999901e+01,2.446057665056950922e-02
3.192000000000000171e+01,5.099734903556948223e-02
3.196000000000000085e+01,2.673515959024847996e-02
3.200000000000000000e+01,3.089951033311431547e-02
3.203999999999999915e+01,2.463458151679016189e-02
3.207999999999999829e+01,3.098473346490434460e-02
3.211999999999999744e+01,2.337325823764352037e-02
3.215999999999999659e+01,2.131216892632309054e-02
3.220000000000000284e+01,3.102512474832008760e-02
3.224000000000000199e+01,2.088920743194572216e-02
3.228000000000000114e+01,3.732955183851761893e-02
3.232000000000000028e+01,1.861418471615725045e-02
3.235999999999999943e+01,2.226990365630806754e-02
3.239999999999999858e+01,3.366269850459525925e-02
3.243999999999999773e+01,3.328055578583113266e-02
3.247999999999999687e+01,3.256155206033053973e-02
3.252000000000000313e+01,3.857038160078284789e-02
3.256000000000000227e+01,2.422571543418725395e-02
3.260000000000000142e+01,7.693910563359170063e-03
3.264000000000000057e+01,4.954632847301231394e-03
3.267999999999999972e+01,1.533505404982716397e-02
3.271999999999999886e+01,2.706068320462505158e-02
3.275999999999999801e+01,1.439584742719410455e-02
3.279999999999999716e+01,2.242002549035180051e-02
3.284000000000000341e+01,3.380789506272317835e-02
3.288000000000000256e+01,4.115834746562146290e-02
3.292000000000000171e+01,2.193164302473381636e-02
3.296000000000000085e+01,2.844016198856572086e-02
3.300000000000000000e+01,1.964139346592780680e-02
3.303999999999999915e+01,2.093459593532347174e-02
3.307999999999999829e+01,1.196672086625240328e-02
3.311999999999999744e+01,2.570634223503124455e-02
3.315999999999999659e+01,1.169135653096967792e-02
3.320000000000000284e+01,1.668331263751046678e-02
3.324000000000000199e+01,2.268406017902844726e-02
3.328000000000000114e+01,4.045884767158839518e-02
3.332000000000000028e+01,3.973041293200176710e-02
3.335999999999999943e+01,5.191917761643623924e-03
3.339999999999999858e+01,2.296535163258493425e-02
3.343999999999999773e+01,2.627253096107149202e-02
3.347999999999999687e+01,2.184173599766792498e-02
3.352000000000000313e+01,1.993359422525125407e-02
3.356000000000000227e+01,2.408045268419825233e-02
3.360000000000000142e+01,2.604016764050950949e-02
3.364000000000000057e+01,2.665377395756161893e-02
3.367999999999999972e+01,3.214493085273138762e-02
3.371999999999999886e+01,2.754321414951896654e-02
3.375999999999999801e+01,3.084677383967719677e-02
3.379999999999999716e+01,2.590773666926869320e-02
3.384000000000000341e+01,1.491279359016989790e-02
3.388000000000000256e+01,2.141092595919672978e-02
3.392000000000000171e+01,1.176073137191019358e-02
3.396000000000000085e+01,3.255555170069056314e-02
3.400000000000000000e+01,2.929631516934727217e-02
3.403999999999999915e+01,3.226028357719658290e-02
3.407999999999999829e+01,1.941233828311316953e-02
3.411999999999999744e+01,2.153436211960086180e-02
3.415999999999999659e+01,1.625482242340917788e-02
3.420000000000000284e+01,2.325393929691613182e-02
3.424000000000000199e+01,1.763707491093362278e-02
3.428000000000000114e+01,1.403823903596414929e-02
3.432000000000000028e+01,3.953876026113624376e-02
3.435999999999999943e+01,1.592237825044506838e-02
3.439999999999999858e+01,3.301163671933671218e-02
3.443999999999999773e+01,2.638325023893230842e-02
3.447999999999999687e+01,3.354738208423627827e-02
3.452000000000000313e+01,1.833952468487205431e-02
3.456000000000000227e+01,1.860625533796916864e-02
3.460000000000000142e+01,2.677825835377826286e-02
3.464000000000000057e+01,3.780932320848785777e-02
3.467999999999999972e+01,2.142218771890938220e-02
3.471999999999999886e+01,4.422682807386210668e-02
3.475999999999999801e+01,4.289795377526642653e-03
3.479999999999999716e+01,2.255193039191415172e-02
3.484000000000000341e+01,1.945131669251957962e-02
3.488000000000000256e+01,2.291031792378401405e-02
3.492000000000000171e+01,2.367754828533314912e-02
3.496000000000000085e+01,7.791825667042227496e-03
3.500000000000000000e+01,3.109787754972960505e-02
3.503999999999999915e+01,2.479903621689109883e-02
3.507999999999999829e+01,3.128346826434401373e-02
3.511999999999999744e+01,3.103916021690064642e-02
3.515999999999999659e+01,1.330086317462398846e-02
3.520000000000000284e+01,2.180239982183151959e-02
3.524000000000000199e+01,1.516484524520869334e-02
3.528000000000000114e+01,1.559152471307117052e-02
3.532000000000000028e+01,2.930609744279590728e-02
3.535999999999999943e+01,2.031226287506882749e-02
3.539999999999999858e+01,2.881149646189450422e-02
3.543999999999999773e+01,2.099418878777167125e-02
3.547999999999999687e+01,2.545553154139147331e-02
3.552000000000000313e+01,2.487020239137887126e-02
3.556000000000000227e+01,3.286296904186135348e-02
3.560000000000000142e+01,1.915656930965037655e-02
3.564000000000000057e+01,1.823344027062501899e-02
3.567999999999999972e+01,1.445032970403545107e-02
3.571999999999999886e+01,2.160021232507168543e-02
3.575999999999999801e+01,3.850563886435996730e-02
3.579999999999999716e+01,2.160099326477319878e-02
3.584000000000000341e+01,3.362749046069274383e-02
3.588000000000000256e+01,2.378661291930340288e-02
3.592000000000000171e+01,2.067355232929635536e-02
3.596000000000000085e+01,2.445651550979806299e-02
3.600000000000000000e+01,1.680093806305829954e-02
3.603999999999999915e+01,3.370312016451895709e-02
3.607999999999999829e+01,2.369171623711470095e-02
3.611999999999999744e+01,2.982772092091285840e-02
3.615999999999999659e+01,3.360836280710088192e-02
3.620000000000000284e+01,3.251053653780491826e-02
3.624000000000000199e+01,1.661002826840044314e-02
3.628000000000000114e+01,2.594010643982972916e-02
3.632000000000000028e+01,4.553034687559281285e-02
3.635999999999999943e+01,2.172271285481181674e-02
3.639999999999999858e+01,2.280925067693107683e-02
3.643999999999999773e+01,3.365132915438825284e-02
3.647999999999999687e+01,4.432473444255895234e-02
3.652000000000000313e+01,1.984240804850418566e-02
3.656000000000000227e+01,2.462763501723056261e-02
3.660000000000000142e+01,3.109446534254969169e-02
3.664000000000000057e+01,4.462552318652594774e-02
3.667999999999999972e+01,4.940934931734685537e-02
3.671999999999999886e+01,3.400786679082542369e-02
3.675999999999999801e+01,3.710868795940360648e-02
3.679999999999999716e+01,3.263972591645573212e-02
3.684000000000000341e+01,3.136622917804646887e-02
3.688000000000000256e+01,3.766157983986508778e-02
3.692000000000000171e+01,4.412466922322485358e-02
3.696000000000000085e+01,2.552444547681263429e-02
3.700000000000000000e+01,4.056515526950951050e-02
3.703999999999999915e+01,4.954994379862614345e-02
3.707999999999999829e+01,4.137714814210055603e-02
3.711999999999999744e+01,5.641645076299985767e-02
3.715999999999999659e+01,3.966415885194597701e-02
3.720000000000000284e+01,4.208699656894444169e-02
3.724000000000000199e+01,4.720067663793268281e-02
3.728000000000000114e+01,4.894974646872422147e-02
3.732000000000000028e+01,3.841923428306966148e-02
3.735999999999999943e+01,5.631523656616117118e-02
3.739999999999999858e+01,5.150282176305844700e-02
3.743999999999999773e+01,7.057533174614168126e-02
3.747999999999999687e+01,7.501336079015917535e-02
3.752000000000000313e+01,7.070415409036268084e-02
3.756000000000000227e+01,7.093606532875471049e-02
3.760000000000000142e+01,9.421186553027556532e-02
3.764000000000000057e+01,1.053762891909238858e-01
3.767999999999999972e+01,1.160356198820769180e-01
3.771999999999999886e+01,1.283765485556112584e-01
3.775999999999999801e+01,1.398759698536529983e-01
3.779999999999999716e+01,1.781198333985182791e-01
3.784000000000000341e+01,2.084574947193932326e-01
3.788000000000000256e+01,2.458593776089053884e-01
3.792000000000000171e+01,2.940260361184938720e-01
3.796000000000000085e+01,3.437060844477844435e-01
3.800000000000000000e+01,4.150843637323424207e-01
3.803999999999999915e+01,5.105157719351071099e-01
3.807999999999999829e+01,6.039282221494525205e-01
3.811999999999999744e+01,7.065915839246311725e-01
3.815999999999999659e+01,8.218699972899569106e-01
3.820000000000000284e+01,8.659963705443621818e-01
3.824000000000000199e+01,9.335030437130434899e-01
3.828000000000000114e+01,1.000000000000000000e+00
3.832000000000000028e+01,9.956813296223524512e-01
3.835999999999999943e+01,9.905211489901706301e-01
3.839999999999999858e+01,9.774547634468928603e-01
3.843999999999999773e+01,8.944137857185149310e-01
3.847999999999999687e+01,8.048122587836690212e-01
3.852000000000000313e+01,7.118461156606066265e-01
3.856000000000000227e+01,5.746410524692003863e-01
3.860000000000000142e+01,4.865519601572095842e-01
3.864000000000000057e+01,4.159559204529454379e-01
3.867999999999999972e+01,3.537697545670960841e-01
3.871999999999999886e+01,3.193372685799145683e-01
3.875999999999999801e+01,2.793534741090868967e-01
3.879999999999999716e+01,2.632545978986169932e-01
3.884000000000000341e+01,2.130092209400014369e-01
3.888000000000000256e+01,2.001053227428724046e-01
3.892000000000000171e+01,1.974615743342290897e-01
3.896000000000000085e+01,1.689134681436949836e-01
3.900000000000000000e+01,1.282539788864600072e-01
3.903999999999999915e+01,1.313278340433425562e-01
3.907999999999999829e+01,1.301960352695902268e-01
3.911999999999999744e+01,1.009731868023898693e-01
3.915999999999999659e+01,1.146426471181860585e-01
3.920000000000000284e+01,9.668871012434925027e-02
3.924000000000000199e+01,9.000416344988425299e-02
3.928000000000000114e+01,7.322671649791565041e-02
3.932000000000000028e+01,8.083880634432272227e-02
3.935999999999999943e+01,6.826557486560312638e-02
3.939999999999999858e+01,7.032587315976113196e-02
3.943999999999999773e+01,5.791988812104578721e-02
3.947999999999999687e+01,7.730454759971207290e-02
3.952000000000000313e+01,4.572200196106726566e-02
3.956000000000000227e+01,5.030348274355726790e-02
3.960000000000000142e+01,3.671812518205411213e-02
3.964000000000000057e+01,4.449457668431228141e-02
3.967999999999999972e+01,4.840178539901864030e-02
3.971999999999999886e+01,5.415878951036254968e-02
3.975999999999999801e+01,5.924248366047022568e-02
3.979999999999999716e+01,4.077671415290357038e-02
3.984000000000000341e+01,3.408495311885440665e-02
3.988000000000000256e+01,4.387699667613696036e-02
3.992000000000000171e+01,3.516578633181227653e-02
3.996000000000000085e+01,4.731176248257241979e-02
4.000000000000000000e+01,3.338516885004001733e-02
4.003999999999999915e+01,2.736382147690657324e-02
4.007999999999999829e+01,3.715344969117422014e-02
4.011999999999999744e+01,3.264499832071680874e-02
4.015999999999999659e+01,5.235787270691391604e-02
4.020000000000000284e+01,3.405547856469930135e-02
4.024000000000000199e+01,4.047903082845447781e-02
4.028000000000000114e+01,2.924036251848985413e-02
4.032000000000000028e+01,3.885887897618493791e-02
4.035999999999999943e+01,3.636600584135093323e-02
4.039999999999999858e+01,3.202237059686505183e-02
4.043999999999999773e+01,3.861170589154216265e-02
4.047999999999999687e+01,4.772366098032052723e-02
4.052000000000000313e+01,2.218448622644847781e-02
4.056000000000000227e+01,3.314574711743312890e-02
4.060000000000000142e+01,3.956493276208503107e-02
4.064000000000000057e+01,2.563058392859183729e-02
4.067999999999999972e+01,3.860887053358368765e-02
4.071999999999999886e+01,3.392493445355840298e-02
4.075999999999999801e+01,3.512775704533171311e-02
4.079999999999999716e+01,1.900477059034063471e-02
4.084000000000000341e+01,3.198110994990278205e-02
4.088000000000000256e+01,3.032295205582854342e-02
4.092000000000000171e+01,4.565321479593430209e-02
4.096000000000000085e+01,4.550794484321882272e-02
4.100000000000000000e+01,2.669120879555823139e-02
4.103999999999999915e+01,3.377786439258251977e-02
4.107999999999999829e+01,3.649064945110304381e-02
4.111999999999999744e+01,4.172605123274680805e-02
4.115999999999999659e+01,2.862640017382601931e-02
4.120000000000000284e+01,3.806599977059529211e-02
4.124000000000000199e+01,4.060862289517860879e-02
4.128000000000000114e+01,3.877737452157763165e-02
4.132000000000000028e+01,3.240404744679366983e-02
4.135999999999999943e+01,2.872154295457868961e-02
4.139999999999999858e+01,2.941193096362168524e-02
4.143999999999999773e+01,4.322197585723725616e-02
4.147999999999999687e+01,3.886517338586175513e-02
4.152000000000000313e+01,2.592932298812230044e-02
4.156000000000000227e+01,4.175638092796085665e-02
4.160000000000000142e+01,2.343692487606115551e-02
4.164000000000000057e+01,3.606706792167983788e-02
4.167999999999999972e+01,1.942869991250092618e-02
4.171999999999999886e+01,3.996359002628113027e-02
4.175999999999999801e+01,3.577155800007934816e-02
4.179999999999999716e+01,2.602820290308605761e-02
4.184000000000000341e+01,3.613278321380459374e-02
4.188000000000000256e+01,3.042541239504599135e-02
4.192000000000000171e+01,4.826653084350233242e-02
4.196000000000000085e+01,3.566168781617060773e-02
4.200000000000000000e+01,3.012104658805516214e-02
4.203999999999999915e+01,4.224164866415834607e-02
4.207999999999999829e+01,3.770926359579118703e-02
4.211999999999999744e+01,5.537971074645818559e-02
4.215999999999999659e+01,5.959310357897035920e-02
4.220000000000000284e+01,5.455461717795442866e-02
4.224000000000000199e+01,3.807756020766163430e-02
4.228000000000000114e+01,7.525804575734848512e-02
4.232000000000000028e+01,4.246392050413153735e-02
4.235999999999999943e+01,6.315913037595947965e-02
4.239999999999999858e+01,5.694072389301476494e-02
4.243999999999999773e+01,4.197505805811278107e-02
4.247999999999999687e+01,4.988505075906988356e-02
4.252000000000000313e+01,5.173909590119762231e-02
4.256000000000000227e+01,4.635974421512230326e-02
4.260000000000000142e+01,5.864163314615977035e-02
4.264000000000000057e+01,4.501914663718296211e-02
4.267999999999999972e+01,4.283424095213370780e-02
4.271999999999999886e+01,4.334015132382514068e-02
4.275999999999999801e+01,4.098604619525825915e-02
4.279999999999999716e+01,4.451868994974763488e-02
4.284000000000000341e+01,4.300462667629371266e-02
4.288000000000000256e+01,4.048082444846074629e-02
4.292000000000000171e+01,4.922639488187607881e-02
4.296000000000000085e+01,3.644097062741340903e-02
4.300000000000000000e+01,4.316706219239000580e-02
4.303999999999999915e+01,3.441761108386681006e-02
4.307999999999999829e+01,6.502810271628720051e-02
4.311999999999999744e+01,4.753089114520796937e-02
4.315999999999999659e+01,6.552486067676223380e-02
4.320000000000000284e+01,5.223182772719603406e-02
4.324000000000000199e+01,4.818968177063895353e-02
4.328000000000000114e+01,4.667014217265426368e-02
4.332000000000000028e+01,4.985989988511866505e-02
4.335999999999999943e+01,4.598446394172001767e-02
4.339999999999999858e+01,4.698653193596062649e-02
4.343999999999999773e+01,6.127645422903007372e-02
4.347999999999999687e+01,6.934221734574065599e-02
4.352000000000000313e+01,5.587698308746752440e-02
4.356000000000000227e+01,6.747409332659080883e-02
4.360000000000000142e+01,6.023151798385834726e-02
4.364000000000000057e+01,5.887568749352346115e-02
4.367999999999999972e+01,8.123654483627650025e-02
4.371999999999999886e+01,7.718840052355235848e-02
4.375999999999999801e+01,8.188651967548012112e-02
4.379999999999999716e+01,8.994827774612330906e-02
4.384000000000000341e+01,9.649567122273289277e-02
4.388000000000000256e+01,9.395938441555962140e-02
4.392000000000000171e+01,8.957231860835547510e-02
4.396000000000000085e+01,1.006597957486232708e-01
4.400000000000000000e+01,1.341183030979898327e-01
4.403999999999999915e+01,1.235060710948262253e-01
4.407999999999999829e+01,1.598230925320161533e-01
4.411999999999999744e+01,1.675444192505549379e-01
4.415999999999999659e+01,1.846848355586344637e-01
4.420000000000000284e+01,2.110761342532561646e-01
4.424000000000000199e+01,2.156000180959188328e-01
4.428000000000000114e+01,2.273562998085012776e-01
4.432000000000000028e+01,2.550917437743179805e-01
4.435999999999999943e+01,2.872000660381193726e-01
4.439999999999999858e+01,2.871803450074040254e-01
4.443999999999999773e+01,2.848052214483006161e-01
4.447999999999999687e+01,3.125386483039381269e-01
4.452000000000000313e+01,3.153769327649385557e-01
4.456000000000000227e+01,3.155234000996174903e-01
4.460000000000000142e+01,2.973347980872251273e-01
4.464000000000000057e+01,2.895745254275150504e-01
4.467999999999999972e+01,2.429579276872347593e-01
4.471999999999999886e+01,2.309914685087665065e-01
4.475999999999999801e+01,2.207065735319216071e-01
4.479999999999999716e+01,2.110940004983886953e-01
4.484000000000000341e+01,1.848284270767928950e-01
4.488000000000000256e+01,1.531797228163863933e-01
4.492000000000000171e+01,1.506303247930483036e-01
4.496000000000000085e+01,1.405111044032147094e-01
4.500000000000000000e+01,1.221492334106993177e-01
4.503999999999999915e+01,1.053007182651918144e-01
4.507999999999999829e+01,9.232045692963128380e-02
4.511999999999999744e+01,9.128238574308220055e-02
4.515999999999999659e+01,8.031959307548169891e-02
4.520000000000000284e+01,6.447828906676907057e-02
4.524000000000000199e+01,7.285828643882306943e-02
4.528000000000000114e+01,6.895866359914200328e-02
4.532000000000000028e+01,5.563893954385262103e-02
4.535999999999999943e+01,7.293238271389697325e-02
4.539999999999999858e+01,7.071330362070991915e-02
4.543999999999999773e+01,4.746783897279259479e-02
4.547999999999999687e+01,4.911650259827524817e-02
4.552000000000000313e+01,4.857796552415698937e-02
4.556000000000000227e+01,4.181525929300132505e-02
4.560000000000000142e+01,4.564908481912353239e-02
4.564000000000000057e+01,5.032343526896169983e-02
4.567999999999999972e+01,4.507306174257885018e-02
4.571999999999999886e+01,3.898114264541457236e-02
4.575999999999999801e+01,3.860775121697072876e-02
4.579999999999999716e+01,3.015991235818514526e-02
4.584000000000000341e+01,3.634557237056101203e-02
4.588000000000000256e+01,5.060465763072417855e-02
4.592000000000000171e+01,3.357672735811032677e-02
4.596000000000000085e+01,2.865919021491179428e-02
4.600000000000000000e+01,4.678550172825594183e-02
4.603999999999999915e+01,3.211093403345204739e-02
4.607999999999999829e+01,4.115304265556858632e-02
4.611999999999999744e+01,3.724269899104148962e-02
4.615999999999999659e+01,3.518211982143579220e-02
4.620000000000000284e+01,3.614875403225298323e-02
4.624000000000000199e+01,3.408714903330643115e-02
4.628000000000000114e+01,3.538917105303554522e-02
4.632000000000000028e+01,2.996239923575340705e-02
4.635999999999999943e+01,3.647781161746281586e-02
4.639999999999999858e+01,2.263966188222513165e-02
4.643999999999999773e+01,3.806901810154564997e-02
4.647999999999999687e+01,2.843501551029648314e-02
4.652000000000000313e+01,3.259347347198202766e-02
4.656000000000000227e+01,3.187341356672718923e-02
4.660000000000000142e+01,3.048001087915869559e-02
4.664000000000000057e+01,2.235781281908990129e-02
4.667999999999999972e+01,2.415931328977357490e-02
4.671999999999999886e+01,1.620429180495945240e-02
4.675999999999999801e+01,3.129311532990157463e-02
4.679999999999999716e+01,1.997292242028484918e-02
4.684000000000000341e+01,3.455609332461483107e-02
4.688000000000000256e+01,2.525335257645141412e-02
4.692000000000000171e+01,3.092051953929910238e-02
4.696000000000000085e+01,3.154095970478261457e-02
4.700000000000000000e+01,1.567659612871496327e-02
4.703999999999999915e+01,2.655663046222596704e-02
4.707999999999999829e+01,3.676331971018981237e-02
4.711999999999999744e+01,2.846672050804393075e-02
4.715999999999999659e+01,2.824354041172931137e-02
4.720000000000000284e+01,3.037474085318444053e-02
4.724000000000000199e+01,3.334645854091050632e-02
4.728000000000000114e+01,3.446738110597116073e-02
4.732000000000000028e+01,3.609240651130554700e-02
4.735999999999999943e+01,4.410877995216537506e-02
4.739999999999999858e+01,3.042593038917491485e-02
4.743999999999999773e+01,3.238581408627597136e-02
4.747999999999999687e+01,1.634702863902968636e-02
4.752000000000000313e+01,4.067740669419216831e-02
4.756000000000000227e+01,3.052482813700879011e-02
4.760000000000000142e+01,3.147339277348455006e-02
4.764000000000000057e+01,2.804805539393208369e-02
4.767999999999999972e+01,2.563144016041570689e-02
4.771999999999999886e+01,2.270968378143670141e-02
4.775999999999999801e+01,2.500182444118437264e-02
4.779999999999999716e+01,2.729344460478468765e-02
4.784000000000000341e+01,1.259563596298765749e-02
4.788000000000000256e+01,3.439822784173641318e-02
4.792000000000000171e+01,2.525020861302696915e-02
4.796000000000000085e+01,2.249353454080115292e-02
4.800000000000000000e+01,3.100620875393577877e-02
4.803999999999999915e+01,2.320228124624248642e-02
4.807999999999999829e+01,2.750873669534992239e-02
4.811999999999999744e+01,1.987197232738255326e-02
4.815999999999999659e+01,2.367276248809355166e-02
4.820000000000000284e+01,3.773365790810934151e-02
4.824000000000000199e+01,2.757222112767839309e-02
4.828000000000000114e+01,2.918475232224253604e-02
4.832000000000000028e+01,2.036792583961390818e-02
4.835999999999999943e+01,2.399789499235809032e-02
4.839999999999999858e+01,2.830016881416311941e-02
4.843999999999999773e+01,3.075164194715515609e-02
4.847999999999999687e+01,2.546506881221004617e-02
4.852000000000000313e+01,2.791549423514299091e-02
4.856000000000000227e+01,1.320828038676580447e-02
4.860000000000000142e+01,3.146911637177138288e-02
4.864000000000000057e+01,2.887175845821931056e-02
4.867999999999999972e+01,3.518884741223834989e-02
4.871999999999999886e+01,3.359968193564098760e-02
4.875999999999999801e+01,4.277524006443016863e-02
4.879999999999999716e+01,2.520535813972920453e-02
4.884000000000000341e+01,2.378282379054291393e-02
4.888000000000000256e+01,3.043370029393451318e-02
4.892000000000000171e+01,2.732804428534148580e-02
4.896000000000000085e+01,2.489469025870353139e-02
4.900000000000000000e+01,3.137578156414767838e-02
4.903999999999999915e+01,3.499682723536186313e-02
4.907999999999999829e+01,3.441217099190982398e-02
4.911999999999999744e+01,2.979001965291799489e-02
4.915999999999999659e+01,2.735403243576322793e-02
4.920000000000000284e+01,3.500993866844751001e-02
4.924000000000000199e+01,2.819951454390780959e-02
4.928000000000000114e+01,3.686360783933533697e-02
4.932000000000000028e+01,2.937930028304145888e-02
4.935999999999999943e+01,2.744529611015428597e-02
4.939999999999999858e+01,3.139800915086270877e-02
4.943999999999999773e+01,3.535019382604267374e-02
4.947999999999999687e+01,2.971405031319475018e-02
4.952000000000000313e+01,2.979641642707155091e-02
4.956000000000000227e+01,3.946605323017473438e-02
4.960000000000000142e+01,3.786529115881652474e-02
4.964000000000000057e+01,3.289985954099897136e-02
4.967999999999999972e+01,2.860672645028619968e-02
4.971999999999999886e+01,2.212637250667941202e-02
4.975999999999999801e+01,3.095232666874386113e-02
4.979999999999999716e+01,2.480732675329098275e-02
4.984000000000000341e+01,3.464146260388712567e-02
4.988000000000000256e+01,3.085030008159385731e-02
4.992000000000000171e+01,3.445971537728916012e-02
4.996000000000000085e+01,4.429225922159940598e-02
5.000000000000000000e+01,4.470467939377458649e-02
5.003999999999999915e+01,3.132359341425335064e-02
5.007999999999999829e+01,3.930426640316478371e-02
5.011999999999999744e+01,3.197756975694492076e-02
5.015999999999999659e+01,3.322889885453451236e-02
5.020000000000000284e+01,2.976989963005882353e-02
5.024000000000000199e+01,1.823643167033155155e-02
5.028000000000000114e+01,3.496120917291939412e-02
5.032000000000000028e+01,2.914571460500721065e-02
5.035999999999999943e+01,4.620584076153748387e-02
5.039999999999999858e+01,3.382920701013241577e-02
5.043999999999999773e+01,3.743170614573450294e-02
5.047999999999999687e+01,3.750132469315606981e-02
5.052000000000000313e+01,3.841144474808636661e-02
5.056000000000000227e+01,3.259275062077615637e-02
5.060000000000000142e+01,2.475503842903959209e-02
5.064000000000000057e+01,3.525135631950482989e-02
5.067999999999999972e+01,3.313161406473315307e-02
5.071999999999999886e+01,3.504830556797734059e-02
5.075999999999999801e+01,3.662804834967588186e-02
5.079999999999999716e+01,4.443091564933063925e-02
5.084000000000000341e+01,3.440330469306618344e-02
5.088000000000000256e+01,4.085944554569899412e-02
5.092000000000000171e+01,3.688621624529086346e-02
5.096000000000000085e+01,2.551134279903093105e-02
5.100000000000000000e+01,3.919877815004813720e-02
5.103999999999999915e+01,3.371007819696529573e-02
5.107999999999999829e+01,3.124856820809810559e-02
5.111999999999999744e+01,2.542238157113488328e-02
5.115999999999999659e+01,3.961229263182895755e-02
5.120000000000000284e+01,4.135434806317896811e-02
5.124000000000000199e+01,3.098496169537393735e-02
5.128000000000000114e+01,3.592187613966743576e-02
5.132000000000000028e+01,2.958838345624609234e-02
5.135999999999999943e+01,3.469242994661321522e-02
5.139999999999999858e+01,4.063697372189428725e-02
5.143999999999999773e+01,3.581573082683972564e-02
5.147999999999999687e+01,2.981650070007675624e-02
5.152000000000000313e+01,1.927514292841890631e-02
5.156000000000000227e+01,3.278684920055736918e-02
5.160000000000000142e+01,3.368249091292812442e-02
5.164000000000000057e+01,2.969959038247056010e-02
5.167999999999999972e+01,3.547215737968732047e-02
5.171999999999999886e+01,3.838466588295377097e-02
5.175999999999999801e+01,3.927815075564627251e-02
5.179999999999999716e+01,3.007867527482812817e-02
5.184000000000000341e+01,3.467163481944010583e-02
5.188000000000000256e+01,3.018087569304422901e-02
5.192000000000000171e+01,2.720343940064270591e-02
5.196000000000000085e+01,3.280402021492502540e-02
5.200000000000000000e+01,2.242439432882812472e-02
5.203999999999999915e+01,2.903313571866842149e-02
5.207999999999999829e+01,2.672636448888273883e-02
5.211999999999999744e+01,2.593291513341089774e-02
5.215999999999999659e+01,3.304465388069213749e-02
5.220000000000000284e+01,2.569004806747610808e-02
5.224000000000000199e+01,3.078221927182886800e-02
5.228000000000000114e+01,3.587384848318826702e-02
5.232000000000000028e+01,3.642334621093028246e-02
5.235999999999999943e+01,2.553422480955579513e-02
5.239999999999999858e+01,3.011960585713079758e-02
5.243999999999999773e+01,2.814437071252988420e-02
5.247999999999999687e+01,2.095417527231708404e-02
5.252000000000000313e+01,2.772461860568281589e-02
5.256000000000000227e+01,3.836327985694009540e-02
5.260000000000000142e+01,2.814372820796330610e-02
5.264000000000000057e+01,3.306226383419431925e-02
5.267999999999999972e+01,2.923349097281994005e-02
5.271999999999999886e+01,2.590879504034240138e-02
5.275999999999999801e+01,1.938762160145020980e-02
5.279999999999999716e+01,2.312653134920843526e-02
5.284000000000000341e+01,3.460241892574310307e-02
5.288000000000000256e+01,2.471547122530331347e-02
5.292000000000000171e+01,2.946198842333086834e-02
5.296000000000000085e+01,3.151664818845068688e-02
5.300000000000000000e+01,3.407538353891443467e-02
5.303999999999999915e+01,3.108274188453552175e-02
5.307999999999999829e+01,3.179010864181602142e-02
5.311999999999999744e+01,3.014203122056935066e-02
5.315999999999999659e+01,2.311078322973415464e-02
5.320000000000000284e+01,3.138582683806340201e-02
5.324000000000000199e+01,3.966032384693230634e-02
5.328000000000000114e+01,3.027253790284080773e-02
5.332000000000000028e+01,2.878993449535486443e-02
5.335999999999999943e+01,3.437147837722568516e-02
5.339999999999999858e+01,3.187853836089100251e-02
5.343999999999999773e+01,4.267340465935397231e-02
5.347999999999999687e+01,3.311467486817561839e-02
5.352000000000000313e+01,2.136870599017135983e-02
5.356000000000000227e+01,3.148910041534452864e-02
5.360000000000000142e+01,4.430025869063237282e-02
5.364000000000000057e+01,4.567279169484771834e-02
5.367999999999999972e+01,1.895420514086553973e-02
5.371999999999999886e+01,2.638109292987979998e-02
5.375999999999999801e+01,2.808839324813857535e-02
5.379999999999999716e+01,3.130900737939384948e-02
5.384000000000000341e+01,3.486548605427194220e-02
5.388000000000000256e+01,3.690755195914899311e-02
5.392000000000000171e+01,3.373465065871369267e-02
5.396000000000000085e+01,3.089761332609279251e-02
5.400000000000000000e+01,3.226520102378795801e-02
5.403999999999999915e+01,3.245478920586267885e-02
5.407999999999999829e+01,3.180279170250584903e-02
5.411999999999999744e+01,2.913175924434377104e-02
5.415999999999999659e+01,2.763762484962800983e-02
5.420000000000000284e+01,3.673998094592322711e-02
5.424000000000000199e+01,3.490832992529165069e-02
5.428000000000000114e+01,4.333675498967370920e-02
5.432000000000000028e+01,3.124337292269339580e-02
5.435999999999999943e+01,3.294241378916736712e-02
5.439999999999999858e+01,2.925827813603286073e-02
5.443999999999999773e+01,3.230187056785479432e-02
5.447999999999999687e+01,3.769980860507167464e-02
5.452000000000000313e+01,3.889201862430938239e-02
5.456000000000000227e+01,2.864559895794365971e-02
5.460000000000000142e+01,3.017311694066526079e-02
5.464000000000000057e+01,3.674629193803755078e-02
5.467999999999999972e+01,3.188083667399805449e-02
5.471999999999999886e+01,3.357490114029957479e-02
5.475999999999999801e+01,3.089502942594267790e-02
5.479999999999999716e+01,3.056950178149169667e-02
5.484000000000000341e+01,2.502900251719741842e-02
5.488000000000000256e+01,3.193526760268769471e-02
5.492000000000000171e+01,2.740290127514937932e-02
5.496000000000000085e+01,3.969068120114866566e-02
5.500000000000000000e+01,2.641044040099607693e-02
5.503999999999999915e+01,2.910931041519630030e-02
5.507999999999999829e+01,3.483535119999962848e-02
5.511999999999999744e+01,2.205806514746821295e-02
5.515999999999999659e+01,3.535230999723208006e-02
5.520000000000000284e+01,3.771254312360204641e-02
5.524000000000000199e+01,3.754911488776770112e-02
5.528000000000000114e+01,2.695629557785477956e-02
5.532000000000000028e+01,3.251079274980427092e-02
5.535999999999999943e+01,3.739190510542873824e-02
5.539999999999999858e+01,4.429094462979222407e-02
5.543999999999999773e+01,3.083637865964437494e-02
5.547999999999999687e+01,4.143485792355256631e-02
5.552000000000000313e+01,3.470745750820237313e-02
5.556000000000000227e+01,3.420315877040960156e-02
5.560000000000000142e+01,3.874451244080047430e-02
5.564000000000000057e+01,2.343688069018685233e-02
5.567999999999999972e+01,3.218229321394876219e-02
5.571999999999999886e+01,3.167576162977223109e-02
5.575999999999999801e+01,2.746811711078418761e-02
5.579999999999999716e+01,3.772571665979995714e-02
5.584000000000000341e+01,3.503081728169370190e-02
5.588000000000000256e+01,2.308397302790454048e-02
5.592000000000000171e+01,2.896651248756108854e-02
5.596000000000000085e+01,3.619414838460091599e-02
5.600000000000000000e+01,3.181494067527429470e-02
5.603999999999999915e+01,3.349062532920903806e-02
5.607999999999999829e+01,2.810105529159302035e-02
5.611999999999999744e+01,2.472940896786573681e-02
5.615999999999999659e+01,3.716866107321725732e-02
5.620000000000000284e+01,3.059996012577117022e-02
5.624000000000000199e+01,4.135602032309421833e-02
5.628000000000000114e+01,3.663647431606013166e-02
5.632000000000000028e+01,3.410305807429672015e-02
5.635999999999999943e+01,2.938238911824259461e-02
5.639999999999999858e+01,3.441716504139993166e-02
5.643999999999999773e+01,3.894675797701938058e-02
5.647999999999999687e+01,3.590647326853928234e-02
5.652000000000000313e+01,2.731479485677356170e-02
5.656000000000000227e+01,3.621608306535051974e-02
5.660000000000000142e+01,4.949019083945798564e-02
5.664000000000000057e+01,4.426096448265796901e-02
5.667999999999999972e+01,4.323635029645370859e-02
5.671999999999999886e+01,3.161413111540779114e-02
5.675999999999999801e+01,3.378432335164867351e-02
5.679999999999999716e+01,3.578574489505149947e-02
5.684000000000000341e+01,3.930046566430534655e-02
5.688000000000000256e+01,3.373144377053576004e-02
5.692000000000000171e+01,3.959993437143320694e-02
5.696000000000000085e+01,3.302054170418462081e-02
5.700000000000000000e+01,2.778624048398009930e-02
5.703999999999999915e+01,2.759758476225868118e-02
5.707999999999999829e+01,2.841760608158401535e-02
5.711999999999999744e+01,4.218900203545838945e-02
5.715999999999999659e+01,2.988774586544258940e-02
5.720000000000000284e+01,4.332159678685459925e-02
5.724000000000000199e+01,3.741107564300464455e-02
5.728000000000000114e+01,4.344268629958421973e-02
5.732000000000000028e+01,3.921310310440530994e-02
5.735999999999999943e+01,3.952454283903301252e-02
5.739999999999999858e+01,3.092044442653019490e-02
5.743999999999999773e+01,3.509951210202487404e-02
5.747999999999999687e+01,3.877339179964239130e-02
5.752000000000000313e+01,3.790511506194636088e-02
5.756000000000000227e+01,4.830614073687680698e-02
5.760000000000000142e+01,3.583044538680742186e-02
5.764000000000000057e+01,2.856859966724186947e-02
5.767999999999999972e+01,3.139860670705691553e-02
5.771999999999999886e+01,4.432046631431636741e-02
5.775999999999999801e+01,3.301994804033137054e-02
5.779999999999999716e+01,3.870776940348166772e-02
5.784000000000000341e+01,3.682570659670407476e-02
5.788000000000000256e+01,3.359741883737552004e-02
5.792000000000000171e+01,2.902290593355991502e-02
5.796000000000000085e+01,2.680272193669632277e-02
5.800000000000000000e+01,2.744148768803622920e-02
5.803999999999999915e+01,3.850851849345659356e-02
5.807999999999999829e+01,3.527738353483186179e-02
5.811999999999999744e+01,4.230630623535285711e-02
5.815999999999999659e+01,3.537347681008140565e-02
5.820000000000000284e+01,3.247704525077049764e-02
5.824000000000000199e+01,3.378521837654638316e-02
5.828000000000000114e+01,4.400779230522338520e-02
5.832000000000000028e+01,2.597101740004991929e-02
5.835999999999999943e+01,4.056583147371965042e-02
5.839999999999999858e+01,2.858336644029175685e-02
5.843999999999999773e+01,3.964469037127160700e-02
5.847999999999999687e+01,3.674426064097010419e-02
5.852000000000000313e+01,3.182477484288957076e-02
5.856000000000000227e+01,2.707292392890657193e-02
5.860000000000000142e+01,3.695451065846115657e-02
5.864000000000000057e+01,3.220151491473977751e-02
5.867999999999999972e+01,3.030746565630777767e-02
5.871999999999999886e+01,3.497291693460432421e-02
5.875999999999999801e+01,3.072282353994203880e-02
5.879999999999999716e+01,2.563112181138544471e-02
5.884000000000000341e+01,4.223755103937519573e-02
5.888000000000000256e+01,3.563083907828412666e-02
5.892000000000000171e+01,4.500321931374170331e-02
5.896000000000000085e+01,3.284452808687130659e-02
5.900000000000000000e+01,3.380540948461464162e-02
5.903999999999999915e+01,2.332763969990853462e-02
5.907999999999999829e+01,3.034282444356921349e-02
5.911999999999999744e+01,3.348867311872140429e-02
5.915999999999999659e+01,2.856001025686600789e-02
5.920000000000000284e+01,3.574167699356859546e-02
5.924000000000000199e+01,3.737193697532916609e-02
5.928000000000000114e+01,4.102010550802463046e-02
5.932000000000000028e+01,3.188396542621769331e-02
5.935999999999999943e+01,2.964373683228632705e-02
5.939999999999999858e+01,2.773934610285638119e-02
5.943999999999999773e+01,3.037596832255454529e-02
5.947999999999999687e+01,4.798243798532054322e-02
5.952000000000000313e+01,3.295617076852697114e-02
5.956000000000000227e+01,3.458182072155406572e-02
5.960000000000000142e+01,3.704792861258952158e-02
5.964000000000000057e+01,3.564469793994682473e-02
5.967999999999999972e+01,2.599874622406442987e-02
5.971999999999999886e+01,4.141506146338391064e-02
5.975999999999999801e+01,2.823560693702739655e-02
5.979999999999999716e+01,3.288551750631247411e-02
5.984000000000000341e+01,4.056257600580173706e-02
5.988000000000000256e+01,3.444608113730781435e-02
5.992000000000000171e+01,3.102031979302083409e-02
5.996000000000000085e+01,3.667715820138023330e-02
