2.003999999999999915e+01,2.791237866575834239e-02
2.007999999999999829e+01,3.253008834392281945e-02
2.012000000000000099e+01,2.049499272945855266e-02
2.016000000000000014e+01,3.183002155348352291e-02
2.019999999999999929e+01,3.952669250123872630e-02
2.023999999999999844e+01,4.204566102904970515e-02
2.028000000000000114e+01,3.364937307053583043e-02
2.032000000000000028e+01,2.329400788878852741e-02
2.035999999999999943e+01,4.022709077331334399e-02
2.039999999999999858e+01,3.379022576477194728e-02
2.044000000000000128e+01,4.372646195943558078e-02
2.048000000000000043e+01,2.931316593503724421e-02
2.051999999999999957e+01,2.637505789998940628e-02
2.055999999999999872e+01,3.505207711970016043e-02
2.060000000000000142e+01,3.505287651574014868e-02
2.064000000000000057e+01,2.511799217928211217e-02
2.067999999999999972e+01,4.065232336646774219e-02
2.071999999999999886e+01,3.155723538765246167e-02
2.076000000000000156e+01,2.652049226264763943e-02
2.080000000000000071e+01,2.274328659096736677e-02
2.083999999999999986e+01,3.198060398417373190e-02
2.087999999999999901e+01,3.086241038051959831e-02
2.092000000000000171e+01,4.597736503846314854e-02
2.096000000000000085e+01,2.484784787215979507e-02
2.100000000000000000e+01,3.800377781106063779e-02
2.103999999999999915e+01,1.561493540880173198e-02
2.107999999999999829e+01,3.954640530614121630e-02
2.112000000000000099e+01,2.765322012344320624e-02
2.116000000000000014e+01,3.996977498339303325e-02
2.119999999999999929e+01,2.611755456149912613e-02
2.123999999999999844e+01,4.697059588498831567e-02
2.128000000000000114e+01,2.696112649313088874e-02
2.132000000000000028e+01,4.123709579035540057e-02
2.135999999999999943e+01,2.528601639239208554e-02
2.139999999999999858e+01,1.801129549097111454e-02
2.144000000000000128e+01,3.599676165216753911e-03
2.148000000000000043e+01,2.137438655912970997e-02
2.151999999999999957e+01,3.691010753450248150e-02
2.155999999999999872e+01,1.466199741373965838e-02
2.160000000000000142e+01,2.446027353917461927e-02
2.164000000000000057e+01,3.747722946954178125e-02
2.167999999999999972e+01,3.048277146051743547e-02
2.171999999999999886e+01,3.678269400688988916e-02
2.176000000000000156e+01,2.880875352420565402e-02
2.180000000000000071e+01,2.811175784367503372e-02
2.183999999999999986e+01,3.063343670800011687e-02
2.187999999999999901e+01,2.685784748036454048e-02
2.192000000000000171e+01,2.490152751931844211e-02
2.196000000000000085e+01,1.790740021909288313e-02
2.200000000000000000e+01,2.980525880709873968e-02
2.203999999999999915e+01,2.630972446255210040e-02
2.207999999999999829e+01,4.342109150119763221e-03
2.212000000000000099e+01,3.527197370379436814e-02
2.216000000000000014e+01,9.246167894077620547e-03
2.219999999999999929e+01,3.345897381538988358e-02
2.223999999999999844e+01,2.310655805704734181e-02
2.228000000000000114e+01,3.724373351977074836e-02
2.232000000000000028e+01,3.612744900325806641e-02
2.235999999999999943e+01,4.410731868719068582e-02
2.239999999999999858e+01,2.997665073410302541e-02
2.244000000000000128e+01,1.402679011839351800e-02
2.248000000000000043e+01,2.354609768563810379e-02
2.251999999999999957e+01,3.222579270819510289e-02
2.255999999999999872e+01,3.432832111968387584e-02
2.260000000000000142e+01,2.999362218551265141e-02
2.264000000000000057e+01,2.355984469379607260e-02
2.267999999999999972e+01,3.573815457120315536e-02
2.271999999999999886e+01,2.650561998258498322e-02
2.276000000000000156e+01,3.728457383329557284e-02
2.280000000000000071e+01,2.301423286093802131e-02
2.283999999999999986e+01,2.497698965344275976e-02
2.287999999999999901e+01,3.869475300124103345e-02
2.292000000000000171e+01,1.728751551543006304e-02
2.296000000000000085e+01,2.568758342851940046e-02
2.300000000000000000e+01,2.233268141370068141e-02
2.303999999999999915e+01,3.577063317336186266e-02
2.307999999999999829e+01,3.353528401322523889e-02
2.312000000000000099e+01,3.829696430388977724e-02
2.316000000000000014e+01,1.856910157304247563e-02
2.319999999999999929e+01,1.633378999573147430e-02
2.323999999999999844e+01,3.075138661540027796e-02
2.328000000000000114e+01,3.187466245139495419e-02
2.332000000000000028e+01,1.704475042065281901e-02
2.335999999999999943e+01,3.817950723529345974e-02
2.339999999999999858e+01,2.628835535349435468e-02
2.344000000000000128e+01,1.957500037986765681e-02
2.348000000000000043e+01,3.595180189261185794e-02
2.351999999999999957e+01,3.329672329522467139e-02
2.355999999999999872e+01,2.084582448564464494e-02
2.360000000000000142e+01,2.476794377005948899e-02
2.364000000000000057e+01,1.497591185039155032e-02
2.367999999999999972e+01,1.959773147675813662e-02
2.371999999999999886e+01,2.184056350631849094e-02
2.376000000000000156e+01,1.960530212570430267e-02
2.380000000000000071e+01,1.093278183897041130e-02
2.383999999999999986e+01,2.870897618863461551e-02
2.387999999999999901e+01,3.626952095771289464e-02
2.392000000000000171e+01,2.857656366694218825e-02
2.396000000000000085e+01,3.697673436718135198e-02
2.400000000000000000e+01,2.816423645961125405e-02
2.403999999999999915e+01,2.816796793299606791e-02
2.407999999999999829e+01,3.488882297396717069e-02
2.412000000000000099e+01,2.495676752077743976e-02
2.416000000000000014e+01,2.552022210157897306e-02
2.419999999999999929e+01,3.070169233256779193e-02
2.423999999999999844e+01,2.706690668906822084e-02
2.428000000000000114e+01,2.749037332203100800e-02
2.432000000000000028e+01,4.582618260437179569e-02
2.435999999999999943e+01,4.457032841456537442e-02
2.439999999999999858e+01,1.910477922561923045e-02
2.444000000000000128e+01,2.736482539886575527e-02
2.448000000000000043e+01,1.701278716588378037e-02
2.451999999999999957e+01,1.589678664194342853e-02
2.455999999999999872e+01,4.626733324537302822e-02
2.460000000000000142e+01,1.674339864658251631e-02
2.464000000000000057e+01,3.997693731951008217e-02
2.467999999999999972e+01,2.794548855273073715e-02
2.471999999999999886e+01,2.626959477430487050e-02
2.476000000000000156e+01,2.529337302999240533e-02
2.480000000000000071e+01,1.130267116027079341e-02
2.483999999999999986e+01,1.578405953342210469e-02
2.487999999999999901e+01,3.691831297092502268e-02
2.492000000000000171e+01,2.754554344902976695e-02
2.496000000000000085e+01,1.691327625724175013e-02
2.500000000000000000e+01,3.986664938200818603e-02
2.503999999999999915e+01,1.538021798308166453e-02
2.507999999999999829e+01,2.196049908305513013e-02
2.512000000000000099e+01,2.896056211415718590e-02
2.516000000000000014e+01,2.028726952066478573e-02
2.519999999999999929e+01,8.955069770952209587e-03
2.523999999999999844e+01,4.450283418093904653e-02
2.528000000000000114e+01,2.519395093169293082e-02
2.532000000000000028e+01,6.304844353498781882e-03
2.535999999999999943e+01,4.409152099860615126e-02
2.539999999999999858e+01,2.254345667088126018e-02
2.544000000000000128e+01,3.192215505649508012e-02
2.548000000000000043e+01,2.968575860667459557e-02
2.551999999999999957e+01,3.766495578747761780e-02
2.555999999999999872e+01,4.536422174012289671e-02
2.560000000000000142e+01,3.822976240054645064e-02
2.564000000000000057e+01,2.171924909625123565e-02
2.567999999999999972e+01,3.809465663713251099e-02
2.571999999999999886e+01,4.915227731454704235e-02
2.576000000000000156e+01,3.068243516220641245e-02
2.580000000000000071e+01,3.866125609751317610e-02
2.583999999999999986e+01,4.496073526631964162e-02
2.587999999999999901e+01,3.446731733486736032e-02
2.592000000000000171e+01,3.069097457829684378e-02
2.596000000000000085e+01,3.349176562716901090e-02
2.600000000000000000e+01,4.846730212641039981e-02
2.603999999999999915e+01,4.091238430296664785e-02
2.607999999999999829e+01,3.503668601909567387e-02
2.612000000000000099e+01,2.496271289099313145e-02
2.616000000000000014e+01,3.280103401956394743e-02
2.619999999999999929e+01,2.258698677494167667e-02
2.623999999999999844e+01,2.776630596933829867e-02
2.628000000000000114e+01,2.454913658873578847e-02
2.632000000000000028e+01,1.867303059548421421e-02
2.635999999999999943e+01,1.237703201634498228e-02
2.639999999999999858e+01,1.895546995453949168e-02
2.644000000000000128e+01,3.644917891412283173e-02
2.648000000000000043e+01,3.435116864474688919e-02
2.651999999999999957e+01,3.281284380338686524e-02
2.655999999999999872e+01,2.091885857899079479e-02
2.660000000000000142e+01,2.861643984818205283e-02
2.664000000000000057e+01,2.399919418637710619e-02
2.667999999999999972e+01,2.903775037705716433e-02
2.671999999999999886e+01,4.653091371667768261e-02
2.676000000000000156e+01,3.897467808371359033e-02
2.680000000000000071e+01,2.722014972225748550e-02
2.683999999999999986e+01,3.561694281199100781e-02
2.687999999999999901e+01,2.484182710488270704e-02
2.692000000000000171e+01,4.093516598126343414e-02
2.696000000000000085e+01,4.149504220978385283e-02
2.700000000000000000e+01,3.631727695807686340e-02
2.703999999999999915e+01,3.379828821953966694e-02
2.707999999999999829e+01,4.690548600636159846e-03
2.712000000000000099e+01,3.127896369439532587e-02
2.716000000000000014e+01,2.805999850301606202e-02
2.719999999999999929e+01,2.638028307735698283e-02
2.723999999999999844e+01,3.295695160173298804e-02
2.728000000000000114e+01,2.190104430077304334e-02
2.732000000000000028e+01,2.260002678140609830e-02
2.735999999999999943e+01,1.770129863109721688e-02
2.739999999999999858e+01,2.091900990533863969e-02
2.744000000000000128e+01,5.002557986490513420e-02
2.748000000000000043e+01,4.064846144295089503e-02
2.751999999999999957e+01,3.770849548041835253e-02
2.755999999999999872e+01,3.294920219730303884e-02
2.760000000000000142e+01,4.372317990210931871e-02
2.764000000000000057e+01,3.812403517025347854e-02
2.767999999999999972e+01,3.854221773748749830e-02
2.771999999999999886e+01,3.630142687153632003e-02
2.776000000000000156e+01,3.741909516959694010e-02
2.780000000000000071e+01,4.329462475388947545e-02
2.783999999999999986e+01,2.887869775358419336e-02
2.787999999999999901e+01,4.175102104067089648e-02
2.792000000000000171e+01,4.986526087314258060e-02
2.796000000000000085e+01,5.811932730880802617e-02
2.800000000000000000e+01,4.370294755561396349e-02
2.803999999999999915e+01,4.132131928258427067e-02
2.807999999999999829e+01,4.887533667635055729e-02
2.812000000000000099e+01,4.719317519787164655e-02
2.816000000000000014e+01,6.048450870940571406e-02
2.819999999999999929e+01,4.592759902733256627e-02
2.823999999999999844e+01,5.306131746757167256e-02
2.828000000000000114e+01,5.795586869868178670e-02
2.832000000000000028e+01,5.865208722471781239e-02
2.835999999999999943e+01,5.626949453305279264e-02
2.839999999999999858e+01,3.513477402023445356e-02
2.844000000000000128e+01,5.654178366576003562e-02
2.848000000000000043e+01,5.527833449824229306e-02
2.851999999999999957e+01,4.981654736557396268e-02
2.855999999999999872e+01,4.127594375512802505e-02
2.860000000000000142e+01,4.477007689663187878e-02
2.864000000000000057e+01,5.554097494566991727e-02
2.867999999999999972e+01,5.707567939424824238e-02
2.871999999999999886e+01,3.733932189192697843e-02
2.876000000000000156e+01,4.908940105536700044e-02
2.880000000000000071e+01,4.740507393959512983e-02
2.883999999999999986e+01,6.881076234014130155e-02
2.887999999999999901e+01,5.257236744317177191e-02
2.892000000000000171e+01,4.249120755024062002e-02
2.896000000000000085e+01,3.492883335632045866e-02
2.900000000000000000e+01,4.513873840856235525e-02
2.903999999999999915e+01,4.415327594827719165e-02
2.907999999999999829e+01,4.036886396886234935e-02
2.912000000000000099e+01,4.190203982886802486e-02
2.916000000000000014e+01,5.099184755505568184e-02
2.919999999999999929e+01,4.342861118113676422e-02
2.923999999999999844e+01,4.496134806102820847e-02
2.928000000000000114e+01,4.145608508293663341e-02
2.932000000000000028e+01,5.026542055536628584e-02
2.935999999999999943e+01,3.668415470526272676e-02
2.939999999999999858e+01,3.849617218496765442e-02
2.944000000000000128e+01,4.394648527888818379e-02
2.948000000000000043e+01,4.407891261990200260e-02
2.951999999999999957e+01,3.427542268101677059e-02
2.955999999999999872e+01,3.468742011920770280e-02
2.960000000000000142e+01,2.516349817346899206e-02
2.964000000000000057e+01,2.935356943636441632e-02
2.967999999999999972e+01,4.487864745967832386e-02
2.971999999999999886e+01,3.801311469232114548e-02
2.976000000000000156e+01,3.534563039275105678e-02
2.980000000000000071e+01,3.281792430367001800e-02
2.983999999999999986e+01,1.713566521782588711e-02
2.987999999999999901e+01,2.888154413603131326e-02
2.992000000000000171e+01,2.313471811331307970e-02
2.996000000000000085e+01,3.585984767550697006e-02
3.000000000000000000e+01,3.305143463667627179e-02
3.003999999999999915e+01,1.946744873720608962e-02
3.007999999999999829e+01,3.275183431201472706e-02
3.012000000000000099e+01,3.218195793883530526e-02
3.016000000000000014e+01,2.601429729364167220e-02
3.019999999999999929e+01,2.446449449633721074e-02
3.023999999999999844e+01,3.648872881001354040e-02
3.028000000000000114e+01,3.801726458580560047e-02
3.032000000000000028e+01,2.135338331340316809e-02
3.035999999999999943e+01,2.386114869287732018e-02
3.039999999999999858e+01,3.084682634274051385e-02
3.044000000000000128e+01,3.657286219661215476e-02
3.048000000000000043e+01,2.900438790405206538e-02
3.051999999999999957e+01,1.989638907662260800e-02
3.055999999999999872e+01,2.688134465767518660e-02
3.060000000000000142e+01,2.085166757109718771e-02
3.064000000000000057e+01,2.629691231399350695e-02
3.067999999999999972e+01,3.580024101090109601e-02
3.071999999999999886e+01,1.661561833269505420e-02
3.076000000000000156e+01,1.968131876953042175e-02
3.080000000000000071e+01,3.786038508079105080e-02
3.083999999999999986e+01,4.316475272975266869e-02
3.087999999999999901e+01,4.147191399618886665e-02
3.092000000000000171e+01,3.628037576367294098e-02
3.096000000000000085e+01,4.550249761040319613e-02
3.100000000000000000e+01,4.632800674432670934e-02
3.103999999999999915e+01,5.946806909211267700e-02
3.107999999999999829e+01,5.133700742009505991e-02
3.112000000000000099e+01,3.145076226105950751e-02
3.116000000000000014e+01,3.031632176132356693e-02
3.119999999999999929e+01,2.470359217656341658e-02
3.123999999999999844e+01,3.098558959331845081e-02
3.128000000000000114e+01,3.628780375660735358e-02
3.132000000000000028e+01,2.703602282433088116e-02
3.135999999999999943e+01,3.163813018145322092e-02
3.139999999999999858e+01,1.538892605492008826e-02
3.144000000000000128e+01,2.111014652432080183e-02
3.148000000000000043e+01,2.711104133699061142e-02
3.151999999999999957e+01,2.373572753868966045e-02
3.155999999999999872e+01,3.169537105608711408e-02
3.160000000000000142e+01,2.594065401835324650e-02
3.164000000000000057e+01,1.573664263648655217e-03
3.167999999999999972e+01,1.764921469269391599e-02
3.171999999999999886e+01,3.736300077108141438e-02
3.176000000000000156e+01,3.958403351584057622e-02
3.180000000000000071e+01,3.186908901582755083e-02
3.183999999999999986e+01,2.709267542199301354e-02
3.187999999999999901e+01,4.764524247008892349e-02
3.192000000000000171e+01,1.334098722440879917e-02
3.196000000000000085e+01,2.815556447863098999e-02
3.200000000000000000e+01,2.239869510381498410e-02
3.203999999999999915e+01,2.139957550160700647e-02
3.207999999999999829e+01,4.740871509033535436e-02
3.211999999999999744e+01,4.514968743568455872e-02
3.215999999999999659e+01,3.379431497266496137e-02
3.220000000000000284e+01,4.189042140366429356e-02
3.224000000000000199e+01,4.914665965025327016e-02
3.228000000000000114e+01,3.261281660295528573e-02
3.232000000000000028e+01,4.238752484738397136e-02
3.235999999999999943e+01,4.894337635515608881e-02
3.239999999999999858e+01,5.451941515303306007e-02
3.243999999999999773e+01,5.267838558751644640e-02
3.247999999999999687e+01,7.840536596247718593e-02
3.252000000000000313e+01,7.264554127316404097e-02
3.256000000000000227e+01,9.319426156348566137e-02
3.260000000000000142e+01,1.101042978527881494e-01
3.264000000000000057e+01,1.246351119458681128e-01
3.267999999999999972e+01,1.657543484973839631e-01
3.271999999999999886e+01,2.130307201114828575e-01
3.275999999999999801e+01,2.741609431944445063e-01
3.279999999999999716e+01,3.560020922480071071e-01
3.284000000000000341e+01,4.788455122465695712e-01
3.288000000000000256e+01,6.030880923072530209e-01
3.292000000000000171e+01,7.259310250295718525e-01
3.296000000000000085e+01,8.135087525450124257e-01
3.300000000000000000e+01,7.871748154095274952e-01
3.303999999999999915e+01,7.451673154024300860e-01
3.307999999999999829e+01,6.239533473614155001e-01
3.311999999999999744e+01,4.957421140250176106e-01
3.315999999999999659e+01,3.690699737040571971e-01
3.320000000000000284e+01,2.997731119985134751e-01
3.324000000000000199e+01,2.324351621566472792e-01
3.328000000000000114e+01,1.667762424915961994e-01
3.332000000000000028e+01,1.382012522595017778e-01
3.335999999999999943e+01,1.208212316849929246e-01
3.339999999999999858e+01,9.798328194265240598e-02
3.343999999999999773e+01,1.067715860977043602e-01
3.347999999999999687e+01,1.141602281861768819e-01
3.352000000000000313e+01,1.442189417529042839e-01
3.356000000000000227e+01,1.247385219553222846e-01
3.360000000000000142e+01,1.326861423243650140e-01
3.364000000000000057e+01,1.174034069006941461e-01
3.367999999999999972e+01,1.100970054177446700e-01
3.371999999999999886e+01,1.124462206325838320e-01
3.375999999999999801e+01,9.954167499180543999e-02
3.379999999999999716e+01,1.213420607635996018e-01
3.384000000000000341e+01,1.494394924589713403e-01
3.388000000000000256e+01,1.354146191973589763e-01
3.392000000000000171e+01,1.710682881565924462e-01
3.396000000000000085e+01,1.784537414797420507e-01
3.400000000000000000e+01,1.707253679526057055e-01
3.403999999999999915e+01,1.273119398619069198e-01
3.407999999999999829e+01,8.893608852588204272e-02
3.411999999999999744e+01,6.301464971596347497e-02
3.415999999999999659e+01,4.506953222258252428e-02
3.420000000000000284e+01,4.321727340428944963e-02
3.424000000000000199e+01,4.178455665763197713e-02
3.428000000000000114e+01,2.803681204505212993e-02
3.432000000000000028e+01,2.114586200156032270e-02
3.435999999999999943e+01,2.740901975920059103e-02
3.439999999999999858e+01,4.920526966215804654e-02
3.443999999999999773e+01,4.693150082755412345e-02
3.447999999999999687e+01,3.766043092904596684e-02
3.452000000000000313e+01,4.000412113194971170e-02
3.456000000000000227e+01,4.024841927674262937e-02
3.460000000000000142e+01,2.495905383874915881e-02
3.464000000000000057e+01,2.786164026502821467e-02
3.467999999999999972e+01,1.984859147946719041e-02
3.471999999999999886e+01,1.869232674284095064e-02
3.475999999999999801e+01,2.103427738496907451e-02
3.479999999999999716e+01,1.469963473798789957e-02
3.484000000000000341e+01,2.221878885507277968e-02
3.488000000000000256e+01,1.784272027827615500e-02
3.492000000000000171e+01,3.179853651906836692e-02
3.496000000000000085e+01,9.229632095404619735e-03
3.500000000000000000e+01,1.660765673145322280e-02
3.503999999999999915e+01,1.838776874961860208e-02
3.507999999999999829e+01,1.764865408120337015e-02
3.511999999999999744e+01,2.656511929004065978e-02
3.515999999999999659e+01,1.421035317351167226e-02
3.520000000000000284e+01,2.144692736727618620e-02
3.524000000000000199e+01,1.063089543238537535e-02
3.528000000000000114e+01,1.968608233860453041e-02
3.532000000000000028e+01,1.712591561362076381e-02
3.535999999999999943e+01,2.771983038938615612e-02
3.539999999999999858e+01,1.242447705271639870e-02
3.543999999999999773e+01,1.434147231804801768e-02
3.547999999999999687e+01,4.004801005227219546e-02
3.552000000000000313e+01,2.027363207871907963e-02
3.556000000000000227e+01,2.218968970867470775e-02
3.560000000000000142e+01,1.920752157965040924e-02
3.564000000000000057e+01,2.574097933425578688e-02
3.567999999999999972e+01,2.541704478192092012e-02
3.571999999999999886e+01,2.551261337665476983e-02
3.575999999999999801e+01,1.259341359378174721e-02
3.579999999999999716e+01,3.423915230529168963e-02
3.584000000000000341e+01,2.201901323905596994e-02
3.588000000000000256e+01,3.106948040793581362e-02
3.592000000000000171e+01,2.136762197678221398e-02
3.596000000000000085e+01,1.866245529951197912e-02
3.600000000000000000e+01,3.288974186118149429e-02
3.603999999999999915e+01,4.165902982200830884e-02
3.607999999999999829e+01,2.397927051644537996e-02
3.611999999999999744e+01,2.980915621268285381e-02
3.615999999999999659e+01,1.156897793470017949e-02
3.620000000000000284e+01,2.145647302946427845e-02
3.624000000000000199e+01,3.666136870492198163e-02
3.628000000000000114e+01,2.933554074177260537e-02
3.632000000000000028e+01,2.914633538179230848e-02
3.635999999999999943e+01,2.615798903589407892e-02
3.639999999999999858e+01,2.246960541341576009e-02
3.643999999999999773e+01,2.437849774640157494e-02
3.647999999999999687e+01,1.719093165336398402e-02
3.652000000000000313e+01,2.161807306097230860e-02
3.656000000000000227e+01,2.058720219153874209e-02
3.660000000000000142e+01,3.243049957553232471e-02
3.664000000000000057e+01,1.950401877400425796e-02
3.667999999999999972e+01,0.000000000000000000e+00
3.671999999999999886e+01,2.709576282245121023e-02
3.675999999999999801e+01,3.166078938211146221e-02
3.679999999999999716e+01,3.146749893975564483e-02
3.684000000000000341e+01,2.693571139563910588e-02
3.688000000000000256e+01,2.534232220377079237e-02
3.692000000000000171e+01,4.376004903780787020e-02
3.696000000000000085e+01,3.376954101718853546e-02
3.700000000000000000e+01,2.769701041473635050e-02
3.703999999999999915e+01,4.611368283969695392e-02
3.707999999999999829e+01,4.927650709176843030e-02
3.711999999999999744e+01,5.817652973246711934e-02
3.715999999999999659e+01,8.302939288169647325e-02
3.720000000000000284e+01,1.071821977140393206e-01
3.724000000000000199e+01,2.081618790301241473e-01
3.728000000000000114e+01,3.104006643692215350e-01
3.732000000000000028e+01,2.393929768521558255e-01
3.735999999999999943e+01,1.938540661683452737e-01
3.739999999999999858e+01,1.446763452416771623e-01
3.743999999999999773e+01,8.598231968834735284e-02
3.747999999999999687e+01,5.611563543039176788e-02
3.752000000000000313e+01,5.829491871653660895e-02
3.756000000000000227e+01,4.941855072831480983e-02
3.760000000000000142e+01,5.215686183632523704e-02
3.764000000000000057e+01,5.293564019846876828e-02
3.767999999999999972e+01,5.105518317561238972e-02
3.771999999999999886e+01,5.617137161796532246e-02
3.775999999999999801e+01,7.584098161438365682e-02
3.779999999999999716e+01,8.585433719857886448e-02
3.784000000000000341e+01,9.754660302984273501e-02
3.788000000000000256e+01,1.093784345645009703e-01
3.792000000000000171e+01,1.221894726550795257e-01
3.796000000000000085e+01,1.621485556077658929e-01
3.800000000000000000e+01,2.106436201532133901e-01
3.803999999999999915e+01,2.496223642917693442e-01
3.807999999999999829e+01,3.887979958314774498e-01
3.811999999999999744e+01,6.856859841813993661e-01
3.815999999999999659e+01,9.842528743622673826e-01
3.820000000000000284e+01,1.000000000000000000e+00
3.824000000000000199e+01,9.726451237891136081e-01
3.828000000000000114e+01,8.669232846868598630e-01
3.832000000000000028e+01,7.305541298826520036e-01
3.835999999999999943e+01,6.055197535515381979e-01
3.839999999999999858e+01,5.363211755821906124e-01
3.843999999999999773e+01,4.843348673136950722e-01
3.847999999999999687e+01,4.141559273858799739e-01
3.852000000000000313e+01,3.923959458403369349e-01
3.856000000000000227e+01,4.357078193984525449e-01
3.860000000000000142e+01,4.588678936972727662e-01
3.864000000000000057e+01,4.114976534123062080e-01
3.867999999999999972e+01,4.455722822135070316e-01
3.871999999999999886e+01,4.222709841647037110e-01
3.875999999999999801e+01,4.131032604173120459e-01
3.879999999999999716e+01,3.998768686542562012e-01
3.884000000000000341e+01,4.560604744708815494e-01
3.888000000000000256e+01,4.478711333582642284e-01
3.892000000000000171e+01,4.060957140975685054e-01
3.896000000000000085e+01,3.346525445246386066e-01
3.900000000000000000e+01,2.459963118381545411e-01
3.903999999999999915e+01,1.916250517979654622e-01
3.907999999999999829e+01,1.266179214590981983e-01
3.911999999999999744e+01,9.603570197991879998e-02
3.915999999999999659e+01,8.504471866151624981e-02
3.920000000000000284e+01,8.720771585039215068e-02
3.924000000000000199e+01,7.691561440602250055e-02
3.928000000000000114e+01,7.278047549372344827e-02
3.932000000000000028e+01,8.767680726444576633e-02
3.935999999999999943e+01,8.018227470880487373e-02
3.939999999999999858e+01,6.135216185124552773e-02
3.943999999999999773e+01,5.525620223660208941e-02
3.947999999999999687e+01,4.440185513491612390e-02
3.952000000000000313e+01,4.936034615543342940e-02
3.956000000000000227e+01,5.557788123409002079e-02
3.960000000000000142e+01,3.100812662887878282e-02
3.964000000000000057e+01,3.386625333597907683e-02
3.967999999999999972e+01,3.868312253229039960e-02
3.971999999999999886e+01,2.376798396514800960e-02
3.975999999999999801e+01,2.480561752554047428e-02
3.979999999999999716e+01,3.885727549555805654e-02
3.984000000000000341e+01,2.352104064385137847e-02
3.988000000000000256e+01,2.455739571590426565e-02
3.992000000000000171e+01,2.307439680752284075e-02
3.996000000000000085e+01,2.900780540376343003e-02
4.000000000000000000e+01,3.550054489885706016e-02
4.003999999999999915e+01,2.464025361057472704e-02
4.007999999999999829e+01,3.812914507911730616e-02
4.011999999999999744e+01,2.209019604440490628e-02
4.015999999999999659e+01,3.683768226396985646e-02
4.020000000000000284e+01,4.612706047309888396e-02
4.024000000000000199e+01,2.658829661004457473e-02
4.028000000000000114e+01,2.720050072103233352e-02
4.032000000000000028e+01,3.872761080409289208e-02
4.035999999999999943e+01,2.884341248237209943e-02
4.039999999999999858e+01,3.183328247262301458e-02
4.043999999999999773e+01,2.012897719039213537e-02
4.047999999999999687e+01,2.703629113046768923e-02
4.052000000000000313e+01,3.618220610227963763e-02
4.056000000000000227e+01,1.454080614185612221e-02
4.060000000000000142e+01,1.682875430978780437e-02
4.064000000000000057e+01,2.891207749428136367e-02
4.067999999999999972e+01,2.210300957149481313e-02
4.071999999999999886e+01,2.886770313167517227e-02
4.075999999999999801e+01,2.611600474792228482e-02
4.079999999999999716e+01,2.462331780983370924e-02
4.084000000000000341e+01,1.333435618893416899e-02
4.088000000000000256e+01,2.191646612699979166e-02
4.092000000000000171e+01,1.692391070778803686e-02
4.096000000000000085e+01,2.746427490338097799e-02
4.100000000000000000e+01,2.680895703386616119e-02
4.103999999999999915e+01,1.467807541238121474e-02
4.107999999999999829e+01,2.801587278672662898e-02
4.111999999999999744e+01,2.302102875131754531e-02
4.115999999999999659e+01,2.726178478657702992e-02
4.120000000000000284e+01,2.058673413149927911e-02
4.124000000000000199e+01,1.545056398476442848e-02
4.128000000000000114e+01,3.116503709880637935e-02
4.132000000000000028e+01,1.777145910140430149e-02
4.135999999999999943e+01,2.145013369031267131e-02
4.139999999999999858e+01,1.827126553408999973e-02
4.143999999999999773e+01,1.201324215115666394e-02
4.147999999999999687e+01,3.416263390979495940e-02
4.152000000000000313e+01,2.342558072647686618e-02
4.156000000000000227e+01,2.906107328227492542e-02
4.160000000000000142e+01,2.839877910255955012e-02
4.164000000000000057e+01,2.913541459361032593e-02
4.167999999999999972e+01,1.615742442166915455e-02
4.171999999999999886e+01,1.843245324139442323e-02
4.175999999999999801e+01,2.896348412959361476e-02
4.179999999999999716e+01,1.318525763063585314e-02
4.184000000000000341e+01,1.084082284079252931e-02
4.188000000000000256e+01,2.850737362695492105e-02
4.192000000000000171e+01,2.448269434489135782e-02
4.196000000000000085e+01,1.961789123869471865e-02
4.200000000000000000e+01,2.482830801538615795e-02
4.203999999999999915e+01,2.905865854649030550e-02
4.207999999999999829e+01,2.475216463912039561e-02
4.211999999999999744e+01,2.030524428667389997e-02
4.215999999999999659e+01,1.557795611971188321e-02
4.220000000000000284e+01,3.128146606490360415e-02
4.224000000000000199e+01,3.187093244465349223e-02
4.228000000000000114e+01,3.176020690157126125e-02
4.232000000000000028e+01,2.703095949578229393e-02
4.235999999999999943e+01,4.105322218500336712e-02
4.239999999999999858e+01,5.381552852565215511e-02
4.243999999999999773e+01,4.138808318628724864e-02
4.247999999999999687e+01,4.309411431090935662e-02
4.252000000000000313e+01,3.794257323397143972e-02
4.256000000000000227e+01,2.761274271254075471e-02
4.260000000000000142e+01,3.001698232481573442e-02
4.264000000000000057e+01,3.423994625974453171e-02
4.267999999999999972e+01,1.593201823361499805e-02
4.271999999999999886e+01,1.749511337374592621e-02
4.275999999999999801e+01,1.863788460170801714e-02
4.279999999999999716e+01,1.950027118290945799e-02
4.284000000000000341e+01,1.350507714642837018e-02
4.288000000000000256e+01,3.115929063858209266e-02
4.292000000000000171e+01,2.572284458789149755e-02
4.296000000000000085e+01,2.056577095207314312e-02
4.300000000000000000e+01,2.100580074120642418e-02
4.303999999999999915e+01,1.444830433515702402e-02
4.307999999999999829e+01,3.797746479914893003e-02
4.311999999999999744e+01,3.239852681100744564e-02
4.315999999999999659e+01,3.227674772233279227e-02
4.320000000000000284e+01,2.837606553115568087e-02
4.324000000000000199e+01,3.944848172021578336e-02
4.328000000000000114e+01,3.554676730885920205e-02
4.332000000000000028e+01,2.408775806851852844e-02
4.335999999999999943e+01,2.508291833874529836e-02
4.339999999999999858e+01,2.719708135621710585e-02
4.343999999999999773e+01,2.581221559394161758e-02
4.347999999999999687e+01,2.526646984003338980e-02
4.352000000000000313e+01,1.982229002811179003e-02
4.356000000000000227e+01,1.773615383415069746e-02
4.360000000000000142e+01,2.334621004626457469e-02
4.364000000000000057e+01,2.461759031401332398e-02
4.367999999999999972e+01,2.280975644219348369e-02
4.371999999999999886e+01,3.275638102568552423e-02
4.375999999999999801e+01,2.716910111488284388e-02
4.379999999999999716e+01,2.340051501828972411e-02
4.384000000000000341e+01,1.809205406572574060e-02
4.388000000000000256e+01,1.362270260137582976e-02
4.392000000000000171e+01,2.328678972846145306e-02
4.396000000000000085e+01,2.119535567161151546e-02
4.400000000000000000e+01,3.491664191124896344e-02
4.403999999999999915e+01,2.834604550008394327e-02
4.407999999999999829e+01,2.373407585644482162e-02
4.411999999999999744e+01,2.457923986390479418e-02
4.415999999999999659e+01,2.472416250381261060e-02
4.420000000000000284e+01,3.172561986502440284e-02
4.424000000000000199e+01,3.914635629404180500e-02
4.428000000000000114e+01,2.907401010863566726e-02
4.432000000000000028e+01,2.501855358394626874e-02
4.435999999999999943e+01,4.489234629817200756e-02
4.439999999999999858e+01,3.775711165712728606e-02
4.443999999999999773e+01,2.684294130110516027e-02
4.447999999999999687e+01,1.788738719245568098e-02
4.452000000000000313e+01,2.530430097378863485e-02
4.456000000000000227e+01,2.166537937807393524e-02
4.460000000000000142e+01,2.124453373049782837e-02
4.464000000000000057e+01,2.096307599572700200e-02
4.467999999999999972e+01,3.299581273759454036e-02
4.471999999999999886e+01,2.039849910426929161e-02
4.475999999999999801e+01,2.725233403215252675e-02
4.479999999999999716e+01,2.514943203224937265e-02
4.484000000000000341e+01,2.892346569944023726e-02
4.488000000000000256e+01,2.318099906511987898e-02
4.492000000000000171e+01,2.569445139006316242e-02
4.496000000000000085e+01,3.058632829046585913e-02
4.500000000000000000e+01,3.351847887418281380e-02
4.503999999999999915e+01,3.407108113692803447e-02
4.507999999999999829e+01,2.608676006005024653e-02
4.511999999999999744e+01,2.635835268235948992e-02
4.515999999999999659e+01,2.313087128826268532e-02
4.520000000000000284e+01,2.368121133176888035e-02
4.524000000000000199e+01,2.003277366772066026e-02
4.528000000000000114e+01,2.995797755689284803e-02
4.532000000000000028e+01,2.280989243151393051e-02
4.535999999999999943e+01,2.111890834475923726e-02
4.539999999999999858e+01,2.978293535443749668e-02
4.543999999999999773e+01,2.585176035107205478e-02
4.547999999999999687e+01,2.219989148561373957e-02
4.552000000000000313e+01,3.366100135294296247e-02
4.556000000000000227e+01,2.245120319668730130e-02
4.560000000000000142e+01,1.963724643285838511e-02
4.564000000000000057e+01,2.284014461324063508e-02
4.567999999999999972e+01,3.052055319415971149e-02
4.571999999999999886e+01,1.874867684417422242e-02
4.575999999999999801e+01,3.636368529208586914e-02
4.579999999999999716e+01,3.382670511794451385e-02
4.584000000000000341e+01,1.911433336287693754e-02
4.588000000000000256e+01,1.559660198459976096e-02
4.592000000000000171e+01,1.851553913869711729e-02
4.596000000000000085e+01,2.843090504284789127e-02
4.600000000000000000e+01,3.106878626783522723e-02
4.603999999999999915e+01,2.488983826998476812e-02
4.607999999999999829e+01,2.486767396160049007e-02
4.611999999999999744e+01,1.742808150058323957e-02
4.615999999999999659e+01,2.440174935299068912e-02
4.620000000000000284e+01,2.787631583659374787e-02
4.624000000000000199e+01,3.442897481828376127e-02
4.628000000000000114e+01,4.196062048469220013e-02
4.632000000000000028e+01,4.179495210354396834e-02
4.635999999999999943e+01,2.581543021225818704e-02
4.639999999999999858e+01,3.264558136771782137e-02
4.643999999999999773e+01,2.758020579686852949e-02
4.647999999999999687e+01,2.965118561729699134e-02
4.652000000000000313e+01,2.766329438310441771e-02
4.656000000000000227e+01,2.483515834301689915e-02
4.660000000000000142e+01,2.102683612759567375e-02
4.664000000000000057e+01,2.869301493552081986e-02
4.667999999999999972e+01,3.565888609892866462e-02
4.671999999999999886e+01,3.324814888554412234e-02
4.675999999999999801e+01,2.328002636985795210e-02
4.679999999999999716e+01,2.674556511338651785e-02
4.684000000000000341e+01,3.720750946263146064e-02
4.688000000000000256e+01,2.891683995964524842e-02
4.692000000000000171e+01,2.636311110153288437e-02
4.696000000000000085e+01,2.128984310828984858e-02
4.700000000000000000e+01,3.174933587553817327e-02
4.703999999999999915e+01,2.835412169231809471e-02
4.707999999999999829e+01,3.027602299363994776e-02
4.711999999999999744e+01,3.191742603054659178e-02
4.715999999999999659e+01,2.474197038818650232e-02
4.720000000000000284e+01,2.694189627960518613e-02
4.724000000000000199e+01,2.340364837104445817e-02
4.728000000000000114e+01,3.022036211419666316e-02
4.732000000000000028e+01,2.752051138290314072e-02
4.735999999999999943e+01,2.761884305842048776e-02
4.739999999999999858e+01,3.037541577130984521e-02
4.743999999999999773e+01,3.131213831200245490e-02
4.747999999999999687e+01,2.972930804136527522e-02
4.752000000000000313e+01,3.500292517476048804e-02
4.756000000000000227e+01,3.565788263144210879e-02
4.760000000000000142e+01,2.903531332834748471e-02
4.764000000000000057e+01,2.996888986035701682e-02
4.767999999999999972e+01,2.712344546414823324e-02
4.771999999999999886e+01,3.085456257704816824e-02
4.775999999999999801e+01,2.786790999180473183e-02
4.779999999999999716e+01,2.879895078059202182e-02
4.784000000000000341e+01,4.134440134968965508e-02
4.788000000000000256e+01,2.492156859425434176e-02
4.792000000000000171e+01,2.627051748173472173e-02
4.796000000000000085e+01,2.537978156854855602e-02
4.800000000000000000e+01,2.126977758071573257e-02
4.803999999999999915e+01,2.695495398661060943e-02
4.807999999999999829e+01,1.430730593208529716e-02
4.811999999999999744e+01,2.754797267096470090e-02
4.815999999999999659e+01,2.119634998858137276e-02
4.820000000000000284e+01,2.310056000020550143e-02
4.824000000000000199e+01,2.346477943417355286e-02
4.828000000000000114e+01,2.228900723847023618e-02
4.832000000000000028e+01,2.685013886710455044e-02
4.835999999999999943e+01,3.029109771430750150e-02
4.839999999999999858e+01,3.121247955382831438e-02
4.843999999999999773e+01,3.297285095181672065e-02
4.847999999999999687e+01,3.417280768202195229e-02
4.852000000000000313e+01,3.439252774015810754e-02
4.856000000000000227e+01,3.027344245604475167e-02
4.860000000000000142e+01,3.315071648897366385e-02
4.864000000000000057e+01,2.903031704457512824e-02
4.867999999999999972e+01,2.183057195869298958e-02
4.871999999999999886e+01,2.750467636559607645e-02
4.875999999999999801e+01,2.842014921790244134e-02
4.879999999999999716e+01,3.045448279538561301e-02
4.884000000000000341e+01,3.220827287179484077e-02
4.888000000000000256e+01,3.396139902996187648e-02
4.892000000000000171e+01,2.507839609368205797e-02
4.896000000000000085e+01,2.766983316386004491e-02
4.900000000000000000e+01,2.508281141507877343e-02
4.903999999999999915e+01,2.739303264981807207e-02
4.907999999999999829e+01,3.068216692820342761e-02
4.911999999999999744e+01,3.732919859441975047e-02
4.915999999999999659e+01,3.222057231470890765e-02
4.920000000000000284e+01,1.857491433779708684e-02
4.924000000000000199e+01,2.773885471454302920e-02
4.928000000000000114e+01,2.990510478171631153e-02
4.932000000000000028e+01,3.948751618192680030e-02
4.935999999999999943e+01,3.073706945722692180e-02
4.939999999999999858e+01,3.416075275393407051e-02
4.943999999999999773e+01,2.428942724894781954e-02
4.947999999999999687e+01,3.358924553251519535e-02
4.952000000000000313e+01,3.029375449747628846e-02
4.956000000000000227e+01,2.713752197735830318e-02
4.960000000000000142e+01,2.831875644285225535e-02
4.964000000000000057e+01,2.698038128818916817e-02
4.967999999999999972e+01,3.305815799842532626e-02
4.971999999999999886e+01,3.409739727085003141e-02
4.975999999999999801e+01,3.107768027541269948e-02
4.979999999999999716e+01,3.099602183127526250e-02
4.984000000000000341e+01,3.035391295083380084e-02
4.988000000000000256e+01,2.579278496390789363e-02
4.992000000000000171e+01,3.382559427446051731e-02
4.996000000000000085e+01,3.010272459877960660e-02
5.000000000000000000e+01,2.553951964388623957e-02
5.003999999999999915e+01,2.419424756304796101e-02
5.007999999999999829e+01,2.872577333529677951e-02
5.011999999999999744e+01,4.165302162224119448e-02
5.015999999999999659e+01,2.183353804934371617e-02
5.020000000000000284e+01,2.342422440750086335e-02
5.024000000000000199e+01,2.319498695238885952e-02
5.028000000000000114e+01,3.388039351753496797e-02
5.032000000000000028e+01,1.797643798141388555e-02
5.035999999999999943e+01,1.914449832815624808e-02
5.039999999999999858e+01,2.800857223836922608e-02
5.043999999999999773e+01,2.959504469571820964e-02
5.047999999999999687e+01,2.096516798229347903e-02
5.052000000000000313e+01,3.598449786257749972e-02
5.056000000000000227e+01,2.875260916963229274e-02
5.060000000000000142e+01,2.921672878008110472e-02
5.064000000000000057e+01,2.324288358213061345e-02
5.067999999999999972e+01,3.769961346908604766e-02
5.071999999999999886e+01,2.962523993990394053e-02
5.075999999999999801e+01,3.036639304544288404e-02
5.079999999999999716e+01,3.474527998901646986e-02
5.084000000000000341e+01,3.842374987847948370e-02
5.088000000000000256e+01,3.902281626561632244e-02
5.092000000000000171e+01,4.703800190517755386e-02
5.096000000000000085e+01,4.329748225812220935e-02
5.100000000000000000e+01,4.459409436326032539e-02
5.103999999999999915e+01,4.938849367691761777e-02
5.107999999999999829e+01,4.690527470546580757e-02
5.111999999999999744e+01,6.289345480282176881e-02
5.115999999999999659e+01,5.383159419824785907e-02
5.120000000000000284e+01,6.114202579709791807e-02
5.124000000000000199e+01,9.657973521093442260e-02
5.128000000000000114e+01,9.563223505548792969e-02
5.132000000000000028e+01,8.516806522406368540e-02
5.135999999999999943e+01,7.764191291534189299e-02
5.139999999999999858e+01,7.025497072883626903e-02
5.143999999999999773e+01,6.146789412087255711e-02
5.147999999999999687e+01,5.715817537122432068e-02
5.152000000000000313e+01,4.473118485975716846e-02
5.156000000000000227e+01,3.902059518135157085e-02
5.160000000000000142e+01,2.589243322421417443e-02
5.164000000000000057e+01,3.011613412029703896e-02
5.167999999999999972e+01,3.265981364798280218e-02
5.171999999999999886e+01,2.764597742346725992e-02
5.175999999999999801e+01,2.431068534468902240e-02
5.179999999999999716e+01,3.916689381561109379e-02
5.184000000000000341e+01,2.547453576475420395e-02
5.188000000000000256e+01,2.913403425502563218e-02
5.192000000000000171e+01,3.251290823904347954e-02
5.196000000000000085e+01,3.449163412540409701e-02
5.200000000000000000e+01,2.891283689545614405e-02
5.203999999999999915e+01,2.557233771683245158e-02
5.207999999999999829e+01,3.160709172611848861e-02
5.211999999999999744e+01,3.498223057287411231e-02
5.215999999999999659e+01,3.751697733158999848e-02
5.220000000000000284e+01,3.025515063514403954e-02
5.224000000000000199e+01,3.012952783976980894e-02
5.228000000000000114e+01,3.308183868816919754e-02
5.232000000000000028e+01,3.015590181321999713e-02
5.235999999999999943e+01,2.904843362120186623e-02
5.239999999999999858e+01,2.360205909346354408e-02
5.243999999999999773e+01,2.599158479383803164e-02
5.247999999999999687e+01,3.537736776576879544e-02
5.252000000000000313e+01,3.286746410506197896e-02
5.256000000000000227e+01,3.371536735886859759e-02
5.260000000000000142e+01,3.344298631761993129e-02
5.264000000000000057e+01,3.764793262624247655e-02
5.267999999999999972e+01,3.779384586988459444e-02
5.271999999999999886e+01,3.486030721849584652e-02
5.275999999999999801e+01,2.898725593748444421e-02
5.279999999999999716e+01,3.416872271718960491e-02
5.284000000000000341e+01,3.473139095415887778e-02
5.288000000000000256e+01,2.787645324790610779e-02
5.292000000000000171e+01,3.445501584252416011e-02
5.296000000000000085e+01,2.549943197932392006e-02
5.300000000000000000e+01,3.725424281898814804e-02
5.303999999999999915e+01,3.151574065287386650e-02
5.307999999999999829e+01,3.347318156520375648e-02
5.311999999999999744e+01,1.933671054195989364e-02
5.315999999999999659e+01,2.465116715670737091e-02
5.320000000000000284e+01,3.822132496354721520e-02
5.324000000000000199e+01,3.219905974317874287e-02
5.328000000000000114e+01,3.359285170633079243e-02
5.332000000000000028e+01,3.624532583435206845e-02
5.335999999999999943e+01,3.651803282221503799e-02
5.339999999999999858e+01,3.343138939593959941e-02
5.343999999999999773e+01,3.426229100953478296e-02
5.347999999999999687e+01,3.061431756557253525e-02
5.352000000000000313e+01,2.458657277339075520e-02
5.356000000000000227e+01,3.339171462407009711e-02
5.360000000000000142e+01,3.156060429451008897e-02
5.364000000000000057e+01,3.434673533186181904e-02
5.367999999999999972e+01,3.881136001821550857e-02
5.371999999999999886e+01,3.305955032055455517e-02
5.375999999999999801e+01,3.528354645192444128e-02
5.379999999999999716e+01,3.232895752249662080e-02
5.384000000000000341e+01,3.413154501732749979e-02
5.388000000000000256e+01,2.669727614204722016e-02
5.392000000000000171e+01,3.157695872786638047e-02
5.396000000000000085e+01,2.959876823574405028e-02
5.400000000000000000e+01,3.195792900754846483e-02
5.403999999999999915e+01,4.691091871925345130e-02
5.407999999999999829e+01,3.541438775767472708e-02
5.411999999999999744e+01,3.427263855318923164e-02
5.415999999999999659e+01,2.739253355007396223e-02
5.420000000000000284e+01,2.890804375609165588e-02
5.424000000000000199e+01,3.867922780180346742e-02
5.428000000000000114e+01,3.501533543454456165e-02
5.432000000000000028e+01,3.135063607495995608e-02
5.435999999999999943e+01,4.587736993609521641e-02
5.439999999999999858e+01,4.710896454563734403e-02
5.443999999999999773e+01,4.819980868938427560e-02
5.447999999999999687e+01,3.977390004794320588e-02
5.452000000000000313e+01,3.834419502527708357e-02
5.456000000000000227e+01,4.349087161709994792e-02
5.460000000000000142e+01,3.716162782375920237e-02
5.464000000000000057e+01,4.776434703021916611e-02
5.467999999999999972e+01,4.465209866870811090e-02
5.471999999999999886e+01,5.497330326737849548e-02
5.475999999999999801e+01,6.599339088867239855e-02
5.479999999999999716e+01,6.553755286472606745e-02
5.484000000000000341e+01,8.075420972369190542e-02
5.488000000000000256e+01,7.399941502662105153e-02
5.492000000000000171e+01,9.453215945458594283e-02
5.496000000000000085e+01,1.185625879935685995e-01
5.500000000000000000e+01,1.344756532453995623e-01
5.503999999999999915e+01,1.638221630412893814e-01
5.507999999999999829e+01,2.212958496586948653e-01
5.511999999999999744e+01,2.304892987323453601e-01
5.515999999999999659e+01,2.554951745902089844e-01
5.520000000000000284e+01,2.686052933304086121e-01
5.524000000000000199e+01,2.749974456456000249e-01
5.528000000000000114e+01,2.774704368322388759e-01
5.532000000000000028e+01,2.448175750528592265e-01
5.535999999999999943e+01,2.116041176590613693e-01
5.539999999999999858e+01,2.032992013699151668e-01
5.543999999999999773e+01,1.837982232381307757e-01
5.547999999999999687e+01,1.623372431616467715e-01
5.552000000000000313e+01,1.379366778664830040e-01
5.556000000000000227e+01,1.142349745536363620e-01
5.560000000000000142e+01,9.696968518545687199e-02
5.564000000000000057e+01,7.438582204635139916e-02
5.567999999999999972e+01,7.223240249023694937e-02
5.571999999999999886e+01,6.671957150309547335e-02
5.575999999999999801e+01,6.596386644347732031e-02
5.579999999999999716e+01,5.779047864351874453e-02
5.584000000000000341e+01,5.521385657159413179e-02
5.588000000000000256e+01,4.507960933787492908e-02
5.592000000000000171e+01,4.362081271147701111e-02
5.596000000000000085e+01,3.418456786698323424e-02
5.600000000000000000e+01,4.210007120603986158e-02
5.603999999999999915e+01,3.811979533511073576e-02
5.607999999999999829e+01,4.155550300662973900e-02
5.611999999999999744e+01,4.233149031408627722e-02
5.615999999999999659e+01,3.429038223882909658e-02
5.620000000000000284e+01,4.010250915145713302e-02
5.624000000000000199e+01,3.289932905463443386e-02
5.628000000000000114e+01,3.087308216140651276e-02
5.632000000000000028e+01,4.535893313106516972e-02
5.635999999999999943e+01,2.989669552697829524e-02
5.639999999999999858e+01,3.430512129991240139e-02
5.643999999999999773e+01,2.863698146921361820e-02
5.647999999999999687e+01,3.066469529565689703e-02
5.652000000000000313e+01,3.563029093482624615e-02
5.656000000000000227e+01,3.177878067112869381e-02
5.660000000000000142e+01,2.862610503734996925e-02
5.664000000000000057e+01,2.925094996479267462e-02
5.667999999999999972e+01,3.365331440144152947e-02
5.671999999999999886e+01,4.085361507331636971e-02
5.675999999999999801e+01,3.195990807622340474e-02
5.679999999999999716e+01,3.090198663757336150e-02
5.684000000000000341e+01,3.642038684853906444e-02
5.688000000000000256e+01,2.892346321780898954e-02
5.692000000000000171e+01,3.695903944777084033e-02
5.696000000000000085e+01,2.876066243126472119e-02
5.700000000000000000e+01,2.210075142906546553e-02
5.703999999999999915e+01,3.573130792391273486e-02
5.707999999999999829e+01,3.186844515943412087e-02
5.711999999999999744e+01,2.170738747749793168e-02
5.715999999999999659e+01,3.463560048503324523e-02
5.720000000000000284e+01,2.979051044234961101e-02
5.724000000000000199e+01,3.250131375109333032e-02
5.728000000000000114e+01,3.409170967898935561e-02
5.732000000000000028e+01,2.658509908088025481e-02
5.735999999999999943e+01,2.915330439177639052e-02
5.739999999999999858e+01,2.906175567411984142e-02
5.743999999999999773e+01,3.610627409554341416e-02
5.747999999999999687e+01,2.411801924582892415e-02
5.752000000000000313e+01,1.968565038343459903e-02
5.756000000000000227e+01,2.392868899573340549e-02
5.760000000000000142e+01,3.110958101634472145e-02
5.764000000000000057e+01,2.541506952439270134e-02
5.767999999999999972e+01,2.643679790715825970e-02
5.771999999999999886e+01,1.584258353014169479e-02
5.775999999999999801e+01,2.329977263511918278e-02
5.779999999999999716e+01,1.886113624143688494e-02
5.784000000000000341e+01,2.435736281515236273e-02
5.788000000000000256e+01,3.083227098914349124e-02
5.792000000000000171e+01,2.835009717432329657e-02
5.796000000000000085e+01,3.076493174360734814e-02
5.800000000000000000e+01,3.359868348742689470e-02
5.803999999999999915e+01,3.167355960909546547e-02
5.807999999999999829e+01,2.918776857930411445e-02
5.811999999999999744e+01,2.656113029830813738e-02
5.815999999999999659e+01,2.981107736330460695e-02
5.820000000000000284e+01,2.354417380568832666e-02
5.824000000000000199e+01,2.637248079077538290e-02
5.828000000000000114e+01,2.192298012799575105e-02
5.832000000000000028e+01,1.901191076301745123e-02
5.835999999999999943e+01,2.015819735744887875e-02
5.839999999999999858e+01,2.144350997141554818e-02
5.843999999999999773e+01,3.308349072482091174e-02
5.847999999999999687e+01,2.079276079688115175e-02
5.852000000000000313e+01,2.977204166338587657e-02
5.856000000000000227e+01,3.021404466110475667e-02
5.860000000000000142e+01,1.862026080243394874e-02
5.864000000000000057e+01,3.039558934351476588e-02
5.867999999999999972e+01,2.705644194085722251e-02
5.871999999999999886e+01,1.811875912724702359e-02
5.875999999999999801e+01,1.995555698922349061e-02
5.879999999999999716e+01,2.025208654149947621e-02
5.884000000000000341e+01,1.481013720935330479e-02
5.888000000000000256e+01,2.685980063307803062e-02
5.892000000000000171e+01,2.547426561005496082e-02
5.896000000000000085e+01,2.030941299049339455e-02
5.900000000000000000e+01,2.675867663896793272e-02
5.903999999999999915e+01,2.005261931949579510e-02
5.907999999999999829e+01,2.048258600647567471e-02
5.911999999999999744e+01,2.888821755243355452e-02
5.915999999999999659e+01,2.455834592666941013e-02
5.920000000000000284e+01,2.694467419904070238e-02
5.924000000000000199e+01,2.009400513124800017e-02
5.928000000000000114e+01,2.009947417498361005e-02
5.932000000000000028e+01,2.458209488203195667e-02
5.935999999999999943e+01,2.542532778981216116e-02
5.939999999999999858e+01,2.011024613268505221e-02
5.943999999999999773e+01,2.640926917142549790e-02
5.947999999999999687e+01,1.563463078219153035e-02
5.952000000000000313e+01,2.473057371278364683e-02
5.956000000000000227e+01,1.843213692045322927e-02
5.960000000000000142e+01,2.416762156819970281e-02
5.964000000000000057e+01,3.046192057527715574e-02
5.967999999999999972e+01,2.066213511626836113e-02
5.971999999999999886e+01,2.023740191024316765e-02
5.975999999999999801e+01,2.065136054235005778e-02
5.979999999999999716e+01,2.862114519690385495e-02
5.984000000000000341e+01,2.035690085988656542e-02
5.988000000000000256e+01,2.244728678975645153e-02
5.992000000000000171e+01,2.635594257166192292e-02
5.996000000000000085e+01,2.480597064756334680e-02
