2.003999999999999915e+01,2.805486679085895246e-02
2.007999999999999829e+01,3.410650191057369718e-02
2.012000000000000099e+01,3.162851904800684927e-02
2.016000000000000014e+01,4.106811304830357279e-02
2.019999999999999929e+01,4.649403106128966595e-02
2.023999999999999844e+01,2.821173254416952519e-02
2.028000000000000114e+01,4.003622988332052740e-02
2.032000000000000028e+01,3.643174037995822873e-02
2.035999999999999943e+01,4.461937672594712412e-02
2.039999999999999858e+01,4.766434268641280003e-02
2.044000000000000128e+01,2.700108402634601029e-02
2.048000000000000043e+01,2.352399205412940980e-02
2.051999999999999957e+01,3.572775007462993674e-02
2.055999999999999872e+01,2.296884938946890803e-02
2.060000000000000142e+01,3.354281376918126500e-02
2.064000000000000057e+01,2.454816189981649452e-02
2.067999999999999972e+01,1.630664570343611647e-02
2.071999999999999886e+01,4.256240987244534757e-02
2.076000000000000156e+01,3.708158939865096454e-02
2.080000000000000071e+01,4.565084959084171612e-02
2.083999999999999986e+01,1.759124790365253904e-02
2.087999999999999901e+01,1.800765980132049138e-02
2.092000000000000171e+01,3.648832104951197502e-02
2.096000000000000085e+01,2.912820694957799286e-02
2.100000000000000000e+01,3.606905127137726569e-02
2.103999999999999915e+01,2.946252347143836145e-02
2.107999999999999829e+01,3.163746224122001433e-02
2.112000000000000099e+01,1.838338180678305775e-02
2.116000000000000014e+01,4.627503886242612108e-02
2.119999999999999929e+01,2.436631255175272098e-02
2.123999999999999844e+01,1.274436141550671156e-02
2.128000000000000114e+01,2.533334829829588311e-02
2.132000000000000028e+01,2.048622111704300267e-02
2.135999999999999943e+01,4.223344425731397067e-02
2.139999999999999858e+01,5.118593825160321770e-02
2.144000000000000128e+01,4.157332701980864104e-02
2.148000000000000043e+01,2.945230309902265725e-02
2.151999999999999957e+01,2.046779641008958719e-02
2.155999999999999872e+01,2.854396979761726974e-02
2.160000000000000142e+01,1.140655656309180407e-02
2.164000000000000057e+01,1.622209416926227374e-02
2.167999999999999972e+01,3.508767684354192895e-02
2.171999999999999886e+01,2.246752188714632587e-02
2.176000000000000156e+01,3.154942707101628108e-02
2.180000000000000071e+01,3.072177415906034506e-02
2.183999999999999986e+01,2.299519168728923410e-02
2.187999999999999901e+01,2.605713019293053045e-02
2.192000000000000171e+01,2.159292128714938863e-02
2.196000000000000085e+01,3.356216166153976055e-02
2.200000000000000000e+01,2.671538831047787568e-02
2.203999999999999915e+01,3.266421623388453960e-02
2.207999999999999829e+01,2.167867104197830630e-02
2.212000000000000099e+01,4.004718973589707631e-02
2.216000000000000014e+01,2.730628176946457361e-02
2.219999999999999929e+01,3.714551660597102678e-02
2.223999999999999844e+01,2.377822570045720965e-02
2.228000000000000114e+01,2.521361313029753942e-02
2.232000000000000028e+01,2.777839866088831905e-02
2.235999999999999943e+01,4.389143005978937695e-02
2.239999999999999858e+01,2.864413924365303427e-02
2.244000000000000128e+01,3.735685367590453609e-02
2.248000000000000043e+01,2.562277696554539352e-02
2.251999999999999957e+01,1.802872041960612917e-02
2.255999999999999872e+01,5.166463188452027899e-03
2.260000000000000142e+01,2.730318196502940983e-02
2.264000000000000057e+01,2.924398897282975973e-02
2.267999999999999972e+01,3.519936674962154122e-02
2.271999999999999886e+01,2.472211721408544907e-02
2.276000000000000156e+01,2.867119782761840679e-02
2.280000000000000071e+01,3.563130097118839129e-02
2.283999999999999986e+01,3.067471717931858147e-02
2.287999999999999901e+01,4.026990160534917040e-02
2.292000000000000171e+01,3.092359216687913179e-02
2.296000000000000085e+01,3.424740386382917057e-02
2.300000000000000000e+01,2.051136230641788932e-02
2.303999999999999915e+01,1.957088157134345696e-02
2.307999999999999829e+01,2.226862665514595455e-02
2.312000000000000099e+01,3.713471470967820431e-02
2.316000000000000014e+01,3.381195672972203692e-02
2.319999999999999929e+01,3.726349279157013111e-02
2.323999999999999844e+01,3.670122989162716287e-02
2.328000000000000114e+01,2.359504764186973538e-02
2.332000000000000028e+01,4.047009535081588089e-02
2.335999999999999943e+01,4.091248985807002803e-02
2.339999999999999858e+01,5.289600139402038381e-02
2.344000000000000128e+01,5.672608941587160836e-02
2.348000000000000043e+01,4.713414953587062584e-02
2.351999999999999957e+01,5.786432644642303808e-02
2.355999999999999872e+01,3.221641729397219794e-02
2.360000000000000142e+01,3.441719708114365089e-02
2.364000000000000057e+01,4.891174172702367901e-02
2.367999999999999972e+01,2.288857899376298133e-02
2.371999999999999886e+01,3.437320542359276893e-02
2.376000000000000156e+01,4.422742739518228244e-02
2.380000000000000071e+01,4.392112452050805221e-02
2.383999999999999986e+01,3.395606687383410233e-02
2.387999999999999901e+01,4.142792422393740820e-02
2.392000000000000171e+01,2.644584541096338740e-02
2.396000000000000085e+01,2.400840435819053681e-02
2.400000000000000000e+01,3.336294190900955525e-02
2.403999999999999915e+01,2.879365721243335591e-02
2.407999999999999829e+01,3.150040265213498863e-02
2.412000000000000099e+01,2.517559660867658977e-02
2.416000000000000014e+01,2.863567592707182835e-02
2.419999999999999929e+01,2.996356129593953990e-02
2.423999999999999844e+01,3.630949771317200370e-02
2.428000000000000114e+01,2.409021402026666897e-02
2.432000000000000028e+01,1.764163567807947725e-02
2.435999999999999943e+01,2.624653737698734793e-02
2.439999999999999858e+01,3.648252472856103323e-02
2.444000000000000128e+01,1.598532195818533341e-02
2.448000000000000043e+01,1.806816975988836949e-02
2.451999999999999957e+01,3.294651851477350263e-02
2.455999999999999872e+01,4.155304229548190814e-02
2.460000000000000142e+01,4.501672579171429184e-02
2.464000000000000057e+01,2.452112892228655236e-02
2.467999999999999972e+01,3.287772068887747506e-02
2.471999999999999886e+01,1.740047177672499751e-02
2.476000000000000156e+01,4.156349964993073798e-02
2.480000000000000071e+01,9.653852374779907722e-03
2.483999999999999986e+01,2.365662480318295874e-02
2.487999999999999901e+01,2.398642685057496282e-02
2.492000000000000171e+01,3.660994197794708443e-02
2.496000000000000085e+01,3.932377118075741640e-02
2.500000000000000000e+01,2.184159314775996341e-02
2.503999999999999915e+01,2.794298641834616279e-02
2.507999999999999829e+01,2.438557475628934032e-02
2.512000000000000099e+01,2.120479039049045014e-02
2.516000000000000014e+01,1.639354493346690048e-02
2.519999999999999929e+01,3.039903323036747054e-02
2.523999999999999844e+01,3.148419412201367701e-02
2.528000000000000114e+01,3.307141876066382880e-02
2.532000000000000028e+01,3.064476029708922133e-02
2.535999999999999943e+01,3.737572403737358939e-02
2.539999999999999858e+01,1.751307528354398638e-02
2.544000000000000128e+01,4.005042011554406367e-02
2.548000000000000043e+01,1.667593906181155314e-02
2.551999999999999957e+01,4.435701005076376352e-02
2.555999999999999872e+01,2.437005099459014709e-02
2.560000000000000142e+01,3.110271366598955922e-02
2.564000000000000057e+01,6.079170875425693454e-02
2.567999999999999972e+01,4.983747263603302557e-02
2.571999999999999886e+01,4.314857015849503374e-02
2.576000000000000156e+01,5.301840616611563223e-02
2.580000000000000071e+01,5.134776426924859277e-02
2.583999999999999986e+01,3.914018623450731676e-02
2.587999999999999901e+01,2.291870244434735665e-02
2.592000000000000171e+01,3.078252605224450836e-02
2.596000000000000085e+01,2.070827620585944523e-02
2.600000000000000000e+01,3.384123005974955245e-02
2.603999999999999915e+01,2.464560491513049026e-02
2.607999999999999829e+01,2.975073269541604268e-02
2.612000000000000099e+01,2.419347008814310904e-02
2.616000000000000014e+01,2.290152332261824811e-02
2.619999999999999929e+01,2.286426062666021414e-02
2.623999999999999844e+01,2.583788130540648834e-02
2.628000000000000114e+01,2.115973527834902335e-02
2.632000000000000028e+01,2.162499908230980025e-02
2.635999999999999943e+01,5.495655710150256640e-02
2.639999999999999858e+01,2.029829755563214780e-02
2.644000000000000128e+01,1.800455729647388453e-02
2.648000000000000043e+01,9.940686087395496015e-03
2.651999999999999957e+01,2.270058200482464802e-02
2.655999999999999872e+01,2.655427065897995875e-02
2.660000000000000142e+01,1.798934858533109138e-02
2.664000000000000057e+01,1.682579601359020932e-02
2.667999999999999972e+01,2.582335563359324307e-02
2.671999999999999886e+01,2.779634536429120145e-02
2.676000000000000156e+01,2.801336635726658225e-02
2.680000000000000071e+01,2.321290099416362107e-02
2.683999999999999986e+01,3.396758704321846400e-02
2.687999999999999901e+01,2.364808934484685307e-02
2.692000000000000171e+01,2.474412336058066236e-02
2.696000000000000085e+01,2.370785177890367273e-02
2.700000000000000000e+01,3.722318175234480553e-02
2.703999999999999915e+01,1.962888765903219798e-02
2.707999999999999829e+01,2.135302296198568830e-02
2.712000000000000099e+01,2.445724804163226448e-02
2.716000000000000014e+01,3.232852020324451792e-02
2.719999999999999929e+01,2.966280121208352688e-02
2.723999999999999844e+01,3.929070145195716346e-02
2.728000000000000114e+01,4.515552514960258224e-02
2.732000000000000028e+01,3.107513360866940785e-02
2.735999999999999943e+01,5.023732460009856793e-02
2.739999999999999858e+01,3.691000480804608463e-02
2.744000000000000128e+01,2.032137369377355965e-02
2.748000000000000043e+01,4.086405087331462099e-02
2.751999999999999957e+01,2.490303887632381447e-02
2.755999999999999872e+01,4.118105793657039770e-02
2.760000000000000142e+01,3.287246227741046772e-02
2.764000000000000057e+01,3.347051074507479546e-02
2.767999999999999972e+01,2.014458971958485445e-02
2.771999999999999886e+01,2.676428681643329074e-02
2.776000000000000156e+01,2.836645872315700714e-02
2.780000000000000071e+01,3.109780705294973996e-02
2.783999999999999986e+01,3.144592834128098757e-02
2.787999999999999901e+01,3.380132327812200577e-02
2.792000000000000171e+01,4.330715009196786647e-02
2.796000000000000085e+01,2.835179054672723117e-02
2.800000000000000000e+01,2.318116102715466961e-02
2.803999999999999915e+01,3.820702253141301796e-02
2.807999999999999829e+01,3.654915405374328796e-02
2.812000000000000099e+01,4.116360890104065612e-02
2.816000000000000014e+01,4.703266853172705098e-02
2.819999999999999929e+01,5.378000255845509503e-02
2.823999999999999844e+01,3.694423936111100593e-02
2.828000000000000114e+01,5.096760594150894635e-02
2.832000000000000028e+01,5.081609129321365548e-02
2.835999999999999943e+01,4.991208656848372671e-02
2.839999999999999858e+01,4.988634814936922235e-02
2.844000000000000128e+01,6.102519411094544516e-02
2.848000000000000043e+01,5.874180991001134305e-02
2.851999999999999957e+01,4.077822131290987501e-02
2.855999999999999872e+01,6.533994301407472505e-02
2.860000000000000142e+01,7.999183154491866510e-02
2.864000000000000057e+01,6.717187605513069704e-02
2.867999999999999972e+01,1.169480937033254009e-01
2.871999999999999886e+01,1.304714594786049731e-01
2.876000000000000156e+01,1.629368579213074097e-01
2.880000000000000071e+01,1.804746981797694660e-01
2.883999999999999986e+01,1.615087958648860067e-01
2.887999999999999901e+01,1.478116427466509564e-01
2.892000000000000171e+01,1.298495750523425973e-01
2.896000000000000085e+01,9.043691070091179618e-02
2.900000000000000000e+01,8.940992238692772875e-02
2.903999999999999915e+01,6.856309217978613646e-02
2.907999999999999829e+01,6.276955107967803482e-02
2.912000000000000099e+01,3.539996392701934280e-02
2.916000000000000014e+01,5.406806464779305432e-02
2.919999999999999929e+01,5.141100192602014729e-02
2.923999999999999844e+01,3.834230845221269640e-02
2.928000000000000114e+01,3.568550784078158844e-02
2.932000000000000028e+01,4.293882678129213454e-02
2.935999999999999943e+01,3.288114934570935538e-02
2.939999999999999858e+01,3.624599007234292208e-02
2.944000000000000128e+01,3.082994995665082685e-02
2.948000000000000043e+01,3.331693615116210899e-02
2.951999999999999957e+01,3.354607026771817824e-02
2.955999999999999872e+01,2.900849222648720777e-02
2.960000000000000142e+01,2.158584425569388260e-02
2.964000000000000057e+01,3.360696504679681895e-02
2.967999999999999972e+01,3.659630944088791693e-02
2.971999999999999886e+01,3.732779366659741416e-02
2.976000000000000156e+01,4.445697779886555873e-02
2.980000000000000071e+01,4.242893775677869517e-02
2.983999999999999986e+01,3.162000069151354315e-02
2.987999999999999901e+01,2.984306006338505179e-02
2.992000000000000171e+01,3.810165763900656699e-02
2.996000000000000085e+01,3.256163641370096729e-02
3.000000000000000000e+01,3.831157938684817688e-02
3.003999999999999915e+01,5.321895524787828569e-02
3.007999999999999829e+01,4.542125991452534289e-02
3.012000000000000099e+01,6.371578884967374345e-02
3.016000000000000014e+01,7.435839412474769261e-02
3.019999999999999929e+01,9.127323858435497372e-02
3.023999999999999844e+01,9.024983645455657288e-02
3.028000000000000114e+01,1.015199305813127145e-01
3.032000000000000028e+01,1.038836653447799963e-01
3.035999999999999943e+01,8.755649112606180007e-02
3.039999999999999858e+01,6.106852507701098637e-02
3.044000000000000128e+01,4.988467896626945508e-02
3.048000000000000043e+01,4.948900594460815122e-02
3.051999999999999957e+01,4.119050885393029521e-02
3.055999999999999872e+01,2.900335961494510811e-02
3.060000000000000142e+01,3.124222338031677759e-02
3.064000000000000057e+01,3.900065099275995539e-02
3.067999999999999972e+01,3.747637590988491668e-02
3.071999999999999886e+01,1.926826405145430979e-02
3.076000000000000156e+01,2.175830487940579733e-02
3.080000000000000071e+01,2.550284369711859622e-02
3.083999999999999986e+01,2.121910257804547270e-02
3.087999999999999901e+01,3.136136313673233700e-02
3.092000000000000171e+01,3.711318529199511551e-02
3.096000000000000085e+01,1.940724311647515354e-02
3.100000000000000000e+01,4.109043945883714133e-02
3.103999999999999915e+01,5.123294592754169818e-02
3.107999999999999829e+01,4.331172890396263464e-02
3.112000000000000099e+01,4.642954492627420632e-02
3.116000000000000014e+01,2.207541498858226620e-02
3.119999999999999929e+01,2.908206840075709676e-02
3.123999999999999844e+01,3.470890061892162315e-02
3.128000000000000114e+01,3.268376387062413985e-02
3.132000000000000028e+01,2.990601730758246299e-02
3.135999999999999943e+01,2.173427115748007010e-02
3.139999999999999858e+01,3.024647826560117672e-02
3.144000000000000128e+01,3.261202501196721476e-02
3.148000000000000043e+01,4.802367701085367285e-02
3.151999999999999957e+01,7.209093033611899126e-02
3.155999999999999872e+01,7.696545444429150895e-02
3.160000000000000142e+01,9.689316572012585116e-02
3.164000000000000057e+01,8.684005315718704154e-02
3.167999999999999972e+01,8.042481852479282933e-02
3.171999999999999886e+01,7.852556066646944333e-02
3.176000000000000156e+01,4.927977549995071066e-02
3.180000000000000071e+01,5.064209187349596325e-02
3.183999999999999986e+01,3.569685493436010326e-02
3.187999999999999901e+01,4.019529614434563802e-02
3.192000000000000171e+01,1.521467388131036123e-02
3.196000000000000085e+01,4.241832945701787955e-02
3.200000000000000000e+01,1.982116478338737803e-02
3.203999999999999915e+01,2.043095947915691407e-02
3.207999999999999829e+01,3.621936484865248551e-02
3.211999999999999744e+01,1.174060726919090580e-02
3.215999999999999659e+01,2.238588189816951082e-02
3.220000000000000284e+01,2.563003619089978050e-02
3.224000000000000199e+01,2.460914160647949614e-02
3.228000000000000114e+01,2.835508698911091627e-02
3.232000000000000028e+01,3.159926795104101016e-02
3.235999999999999943e+01,3.057839518156480266e-02
3.239999999999999858e+01,3.545334383267038925e-02
3.243999999999999773e+01,4.233538167056538626e-02
3.247999999999999687e+01,7.179714646348593632e-02
3.252000000000000313e+01,8.608031674406182998e-02
3.256000000000000227e+01,8.367957581715979032e-02
3.260000000000000142e+01,9.570476699035136703e-02
3.264000000000000057e+01,7.072429017974780907e-02
3.267999999999999972e+01,6.757087469521950995e-02
3.271999999999999886e+01,6.165770599356543147e-02
3.275999999999999801e+01,4.696352214850863654e-02
3.279999999999999716e+01,5.873778292950240093e-02
3.284000000000000341e+01,7.665873317831460587e-02
3.288000000000000256e+01,9.495599681484316601e-02
3.292000000000000171e+01,1.091136269898589778e-01
3.296000000000000085e+01,1.149920056233950799e-01
3.300000000000000000e+01,1.038101264812533869e-01
3.303999999999999915e+01,9.651695610093204147e-02
3.307999999999999829e+01,1.051550134807289621e-01
3.311999999999999744e+01,1.003706530001248071e-01
3.315999999999999659e+01,8.517450319513009127e-02
3.320000000000000284e+01,6.960199629464550175e-02
3.324000000000000199e+01,7.648374268247912222e-02
3.328000000000000114e+01,5.877864458279854348e-02
3.332000000000000028e+01,3.279428037887088809e-02
3.335999999999999943e+01,4.180845691773817790e-02
3.339999999999999858e+01,4.379779334706105504e-02
3.343999999999999773e+01,3.562621497157115319e-02
3.347999999999999687e+01,3.648648740554399222e-02
3.352000000000000313e+01,3.646861810699561501e-02
3.356000000000000227e+01,2.290287022602084666e-02
3.360000000000000142e+01,3.643274922482791361e-02
3.364000000000000057e+01,2.499944040409140047e-02
3.367999999999999972e+01,2.786657707205902543e-02
3.371999999999999886e+01,4.265074207198628342e-02
3.375999999999999801e+01,4.200537655275096705e-02
3.379999999999999716e+01,2.229263412673532577e-02
3.384000000000000341e+01,2.754297917950538840e-02
3.388000000000000256e+01,3.417314055255871175e-02
3.392000000000000171e+01,4.632273308969173803e-02
3.396000000000000085e+01,5.245100624878522994e-02
3.400000000000000000e+01,6.522769364357386412e-02
3.403999999999999915e+01,6.433104011582557735e-02
3.407999999999999829e+01,1.028234005133938506e-01
3.411999999999999744e+01,1.302767181370885485e-01
3.415999999999999659e+01,1.647547722933992431e-01
3.420000000000000284e+01,2.022433878254463191e-01
3.424000000000000199e+01,2.061132295736453901e-01
3.428000000000000114e+01,1.907902320749536307e-01
3.432000000000000028e+01,1.355763114018770366e-01
3.435999999999999943e+01,1.118484891730186503e-01
3.439999999999999858e+01,8.184844392100817934e-02
3.443999999999999773e+01,5.435717864387316217e-02
3.447999999999999687e+01,5.872833572596251883e-02
3.452000000000000313e+01,4.691727400674525900e-02
3.456000000000000227e+01,2.218550786840660025e-02
3.460000000000000142e+01,3.621552000483940770e-02
3.464000000000000057e+01,2.277344540785051011e-02
3.467999999999999972e+01,2.814772107857779759e-02
3.471999999999999886e+01,3.038583385865399264e-02
3.475999999999999801e+01,1.982867705226982677e-02
3.479999999999999716e+01,6.637125811413335623e-03
3.484000000000000341e+01,1.803229282794894042e-02
3.488000000000000256e+01,1.650674248068101022e-02
3.492000000000000171e+01,3.091234546160918223e-02
3.496000000000000085e+01,3.452975753504779893e-02
3.500000000000000000e+01,2.510100446733982624e-02
3.503999999999999915e+01,3.135251402739743648e-02
3.507999999999999829e+01,3.007734382598022463e-02
3.511999999999999744e+01,2.265536439896347759e-02
3.515999999999999659e+01,2.564503997578886779e-02
3.520000000000000284e+01,1.496132770560464932e-02
3.524000000000000199e+01,9.169778587249785215e-03
3.528000000000000114e+01,2.056379746519684110e-02
3.532000000000000028e+01,1.138506287207558670e-02
3.535999999999999943e+01,2.453505288566613582e-02
3.539999999999999858e+01,1.861760126906572207e-02
3.543999999999999773e+01,6.929656251445597166e-03
3.547999999999999687e+01,1.744498806319416326e-02
3.552000000000000313e+01,1.014730262136924119e-02
3.556000000000000227e+01,1.137961215622393385e-02
3.560000000000000142e+01,1.562242643383066759e-02
3.564000000000000057e+01,1.133499491207024153e-02
3.567999999999999972e+01,3.037981843703805446e-02
3.571999999999999886e+01,0.000000000000000000e+00
3.575999999999999801e+01,3.058531029971735260e-02
3.579999999999999716e+01,2.027609417119641960e-02
3.584000000000000341e+01,3.442811292484865282e-02
3.588000000000000256e+01,1.646660663020488996e-02
3.592000000000000171e+01,1.167646890370436369e-02
3.596000000000000085e+01,2.394642874296900106e-02
3.600000000000000000e+01,1.188031991109602878e-02
3.603999999999999915e+01,1.612164787029370105e-02
3.607999999999999829e+01,2.563143377079203644e-02
3.611999999999999744e+01,4.407557068443416180e-03
3.615999999999999659e+01,2.232172430480282993e-02
3.620000000000000284e+01,1.803234447208289931e-02
3.624000000000000199e+01,1.926230195449720947e-02
3.628000000000000114e+01,3.102931205745362853e-02
3.632000000000000028e+01,2.134542777559880408e-02
3.635999999999999943e+01,2.357846503207606387e-02
3.639999999999999858e+01,3.873196559349877804e-02
3.643999999999999773e+01,2.854583630014735987e-02
3.647999999999999687e+01,3.629788399906385549e-02
3.652000000000000313e+01,3.627230783926130298e-02
3.656000000000000227e+01,4.665833005031662373e-02
3.660000000000000142e+01,6.193646039830218164e-02
3.664000000000000057e+01,6.918607618713826235e-02
3.667999999999999972e+01,7.204502056827198631e-02
3.671999999999999886e+01,5.132052469125725214e-02
3.675999999999999801e+01,4.815786571065162197e-02
3.679999999999999716e+01,4.524591862231888695e-02
3.684000000000000341e+01,3.668886442306951157e-02
3.688000000000000256e+01,2.863340472609714887e-02
3.692000000000000171e+01,3.036231422177862113e-02
3.696000000000000085e+01,1.841776467469881037e-02
3.700000000000000000e+01,3.587845852282420082e-03
3.703999999999999915e+01,1.158835536934591133e-02
3.707999999999999829e+01,2.109399468295873256e-02
3.711999999999999744e+01,2.482907263597072464e-02
3.715999999999999659e+01,2.404801684116979546e-02
3.720000000000000284e+01,2.715550152732156691e-02
3.724000000000000199e+01,2.160723276760822750e-02
3.728000000000000114e+01,3.650596710020395652e-02
3.732000000000000028e+01,2.380706336457793712e-02
3.735999999999999943e+01,2.302504071515230205e-02
3.739999999999999858e+01,2.098839060967271769e-02
3.743999999999999773e+01,2.748165943086525870e-02
3.747999999999999687e+01,2.582093679003035977e-02
3.752000000000000313e+01,4.184746322507180982e-02
3.756000000000000227e+01,3.592127342230951731e-02
3.760000000000000142e+01,4.115929745871213519e-02
3.764000000000000057e+01,5.856507710089299545e-02
3.767999999999999972e+01,6.819318595988206611e-02
3.771999999999999886e+01,9.362689195801129904e-02
3.775999999999999801e+01,1.289703760920911380e-01
3.779999999999999716e+01,1.370925315101878816e-01
3.784000000000000341e+01,1.381896672112757907e-01
3.788000000000000256e+01,1.499492337325823710e-01
3.792000000000000171e+01,1.262082337598867399e-01
3.796000000000000085e+01,1.138823189097631777e-01
3.800000000000000000e+01,8.926277510062197162e-02
3.803999999999999915e+01,8.471387487090790980e-02
3.807999999999999829e+01,7.464526029272128271e-02
3.811999999999999744e+01,6.658350513321632802e-02
3.815999999999999659e+01,7.344922885230228959e-02
3.820000000000000284e+01,6.965207352207958280e-02
3.824000000000000199e+01,6.961797367950531279e-02
3.828000000000000114e+01,8.564033416905211804e-02
3.832000000000000028e+01,9.865182906336121549e-02
3.835999999999999943e+01,1.094051142828714185e-01
3.839999999999999858e+01,9.105540266880965405e-02
3.843999999999999773e+01,7.797405352901791431e-02
3.847999999999999687e+01,8.533965893897733912e-02
3.852000000000000313e+01,9.320679250971787566e-02
3.856000000000000227e+01,7.799218308273710154e-02
3.860000000000000142e+01,8.799135442857000666e-02
3.864000000000000057e+01,1.003736929272381201e-01
3.867999999999999972e+01,1.199060280379745796e-01
3.871999999999999886e+01,1.487208878351786445e-01
3.875999999999999801e+01,1.917105447011706876e-01
3.879999999999999716e+01,3.159869608695846099e-01
3.884000000000000341e+01,4.844190294884868631e-01
3.888000000000000256e+01,7.056623106328175909e-01
3.892000000000000171e+01,9.000605465240398839e-01
3.896000000000000085e+01,1.000000000000000000e+00
3.900000000000000000e+01,9.894239752874346427e-01
3.903999999999999915e+01,9.511248000058940555e-01
3.907999999999999829e+01,8.326673306867901081e-01
3.911999999999999744e+01,6.616490087912497708e-01
3.915999999999999659e+01,5.308975957858085293e-01
3.920000000000000284e+01,3.840892175861719826e-01
3.924000000000000199e+01,2.873322930412753884e-01
3.928000000000000114e+01,2.195524094543626070e-01
3.932000000000000028e+01,1.717176747450611940e-01
3.935999999999999943e+01,1.069478679076120431e-01
3.939999999999999858e+01,9.737266809914216226e-02
3.943999999999999773e+01,8.704453000461898071e-02
3.947999999999999687e+01,8.022851139092634920e-02
3.952000000000000313e+01,6.463120417742114487e-02
3.956000000000000227e+01,6.935536490227756090e-02
3.960000000000000142e+01,4.660723825113934765e-02
3.964000000000000057e+01,5.459233891844023773e-02
3.967999999999999972e+01,6.445879297601016245e-02
3.971999999999999886e+01,5.651205988105368477e-02
3.975999999999999801e+01,5.157566324798162904e-02
3.979999999999999716e+01,4.300112653508039035e-02
3.984000000000000341e+01,5.198830212602282425e-02
3.988000000000000256e+01,5.457759009304440079e-02
3.992000000000000171e+01,4.437139974060631820e-02
3.996000000000000085e+01,4.558021360647709908e-02
4.000000000000000000e+01,5.469162822612637365e-02
4.003999999999999915e+01,4.385731305608261271e-02
4.007999999999999829e+01,6.350532155936539080e-02
4.011999999999999744e+01,5.693545088241835223e-02
4.015999999999999659e+01,5.187058540945511942e-02
4.020000000000000284e+01,3.401023029043535179e-02
4.024000000000000199e+01,4.224169006434465995e-02
4.028000000000000114e+01,3.353804049414516042e-02
4.032000000000000028e+01,3.587305181022517470e-02
4.035999999999999943e+01,2.867408300817802722e-02
4.039999999999999858e+01,3.100845677919196811e-02
4.043999999999999773e+01,3.610225365846612966e-02
4.047999999999999687e+01,3.542535325797708384e-02
4.052000000000000313e+01,3.085939780594952608e-02
4.056000000000000227e+01,2.792387430014040342e-02
4.060000000000000142e+01,2.548979481467861935e-02
4.064000000000000057e+01,3.008018973201980611e-02
4.067999999999999972e+01,3.278860989487853567e-02
4.071999999999999886e+01,2.395594860744555687e-02
4.075999999999999801e+01,1.687915409889207199e-02
4.079999999999999716e+01,2.937111982953299893e-02
4.084000000000000341e+01,2.593149694757000343e-02
4.088000000000000256e+01,3.679202829896329602e-02
4.092000000000000171e+01,1.804768918506358122e-02
4.096000000000000085e+01,3.304715414688505493e-02
4.100000000000000000e+01,1.793997371489374631e-02
4.103999999999999915e+01,1.324421042821056875e-02
4.107999999999999829e+01,3.263314128526865338e-02
4.111999999999999744e+01,2.304440820204409560e-02
4.115999999999999659e+01,2.223632940973658406e-02
4.120000000000000284e+01,2.619472975146649313e-02
4.124000000000000199e+01,2.500961668524977546e-02
4.128000000000000114e+01,2.407503428575618817e-02
4.132000000000000028e+01,3.267375724336258475e-02
4.135999999999999943e+01,1.819062393727897270e-02
4.139999999999999858e+01,3.155545952287435590e-02
4.143999999999999773e+01,2.033312053156134322e-02
4.147999999999999687e+01,1.462990688621279567e-02
4.152000000000000313e+01,1.733100419975194817e-02
4.156000000000000227e+01,3.006716885422878668e-02
4.160000000000000142e+01,2.586817076778297197e-02
4.164000000000000057e+01,6.991980937901187340e-03
4.167999999999999972e+01,1.671640621162545637e-02
4.171999999999999886e+01,1.740856804467285843e-02
4.175999999999999801e+01,2.173820005077797823e-02
4.179999999999999716e+01,2.732188507319634543e-02
4.184000000000000341e+01,1.183078118429880914e-02
4.188000000000000256e+01,1.641016553864286381e-02
4.192000000000000171e+01,2.136549759343309846e-02
4.196000000000000085e+01,2.192994465326589607e-02
4.200000000000000000e+01,2.186679279267578560e-02
4.203999999999999915e+01,1.415123670068723499e-02
4.207999999999999829e+01,9.445923221637644168e-03
4.211999999999999744e+01,2.167501520013491098e-02
4.215999999999999659e+01,1.308019116880880343e-02
4.220000000000000284e+01,1.953812551254906563e-02
4.224000000000000199e+01,2.737553799675207511e-02
4.228000000000000114e+01,1.777598854023363512e-02
4.232000000000000028e+01,2.059489121969198741e-02
4.235999999999999943e+01,2.291162333904733089e-02
4.239999999999999858e+01,2.510251204947639217e-02
4.243999999999999773e+01,1.612857850120926959e-02
4.247999999999999687e+01,2.358726415537228810e-02
4.252000000000000313e+01,2.703137093064613555e-02
4.256000000000000227e+01,2.006330813149191997e-02
4.260000000000000142e+01,2.350659937232046914e-02
4.264000000000000057e+01,1.478151687932785681e-02
4.267999999999999972e+01,6.557794266248700640e-03
4.271999999999999886e+01,1.627199622413601568e-02
4.275999999999999801e+01,2.887097036442550294e-02
4.279999999999999716e+01,1.663182906673288386e-02
4.284000000000000341e+01,2.320870794736219420e-02
4.288000000000000256e+01,1.962429015505603655e-02
4.292000000000000171e+01,2.256248284234332879e-02
4.296000000000000085e+01,2.211329346724020053e-02
4.300000000000000000e+01,2.492519533528954681e-02
4.303999999999999915e+01,3.212717313619212894e-02
4.307999999999999829e+01,3.581632109736103409e-02
4.311999999999999744e+01,4.602807144769716780e-02
4.315999999999999659e+01,3.541586533607825327e-02
4.320000000000000284e+01,6.055445945680280884e-02
4.324000000000000199e+01,5.897327649429749685e-02
4.328000000000000114e+01,7.834062560366074346e-02
4.332000000000000028e+01,7.475148208624332602e-02
4.335999999999999943e+01,6.626962524853487191e-02
4.339999999999999858e+01,6.857541885836580808e-02
4.343999999999999773e+01,6.398140914233797771e-02
4.347999999999999687e+01,5.637632509807316561e-02
4.352000000000000313e+01,4.726548018453408107e-02
4.356000000000000227e+01,4.279557601491433549e-02
4.360000000000000142e+01,3.995598081703291560e-02
4.364000000000000057e+01,3.912302174206647859e-02
4.367999999999999972e+01,4.242922686441433222e-02
4.371999999999999886e+01,3.820840271886988965e-02
4.375999999999999801e+01,2.570789014882400927e-02
4.379999999999999716e+01,2.550032692251274699e-02
4.384000000000000341e+01,3.582951049862830722e-02
4.388000000000000256e+01,3.825532956524852618e-02
4.392000000000000171e+01,3.904992865865448276e-02
4.396000000000000085e+01,2.566901385202830996e-02
4.400000000000000000e+01,3.097862937616403800e-02
4.403999999999999915e+01,3.252449038034514739e-02
4.407999999999999829e+01,1.914217509171440082e-02
4.411999999999999744e+01,2.595570035663766206e-02
4.415999999999999659e+01,3.214153932453365364e-02
4.420000000000000284e+01,2.741337068415637679e-02
4.424000000000000199e+01,2.281017004910524879e-02
4.428000000000000114e+01,3.401230118721070006e-02
4.432000000000000028e+01,3.379864817043780334e-02
4.435999999999999943e+01,1.928402214969275608e-02
4.439999999999999858e+01,1.894396504771329523e-02
4.443999999999999773e+01,2.976784509231827566e-02
4.447999999999999687e+01,2.779606235574326456e-02
4.452000000000000313e+01,2.494569291319892468e-02
4.456000000000000227e+01,2.623445207009301311e-02
4.460000000000000142e+01,2.978069436203036394e-02
4.464000000000000057e+01,2.015493863118471632e-02
4.467999999999999972e+01,1.868248018431608801e-02
4.471999999999999886e+01,1.771129909501241093e-02
4.475999999999999801e+01,1.724139374518836657e-02
4.479999999999999716e+01,2.404668036347429663e-02
4.484000000000000341e+01,1.730363209928887161e-02
4.488000000000000256e+01,1.695767210543164955e-02
4.492000000000000171e+01,2.451411384086518708e-02
4.496000000000000085e+01,2.379081860923929967e-02
4.500000000000000000e+01,1.942917294669972705e-02
4.503999999999999915e+01,2.384802462080640173e-02
4.507999999999999829e+01,2.224510708916974111e-02
4.511999999999999744e+01,2.779192565787357017e-02
4.515999999999999659e+01,3.333823209285504546e-02
4.520000000000000284e+01,3.512073708340924388e-02
4.524000000000000199e+01,3.978791393507911250e-02
4.528000000000000114e+01,5.223203503018501725e-02
4.532000000000000028e+01,4.786628582552596156e-02
4.535999999999999943e+01,5.817683839793533207e-02
4.539999999999999858e+01,5.493903343467965855e-02
4.543999999999999773e+01,5.119893331875550319e-02
4.547999999999999687e+01,4.143704781623532701e-02
4.552000000000000313e+01,4.196095531038615545e-02
4.556000000000000227e+01,3.545953079707175881e-02
4.560000000000000142e+01,2.494340281230272849e-02
4.564000000000000057e+01,4.277684389452378333e-02
4.567999999999999972e+01,2.385497534332770703e-02
4.571999999999999886e+01,2.801406985328347768e-02
4.575999999999999801e+01,1.912656395715611399e-02
4.579999999999999716e+01,3.457444711688337918e-02
4.584000000000000341e+01,2.556042063341028986e-02
4.588000000000000256e+01,1.880382550625201571e-02
4.592000000000000171e+01,2.358743642578531308e-02
4.596000000000000085e+01,2.849594577297833234e-02
4.600000000000000000e+01,2.788442039081612603e-02
4.603999999999999915e+01,2.100020112268950051e-02
4.607999999999999829e+01,3.832591666073333764e-02
4.611999999999999744e+01,3.206781169059121084e-02
4.615999999999999659e+01,2.355118151902331480e-02
4.620000000000000284e+01,1.829551314378664861e-02
4.624000000000000199e+01,2.997408356331445617e-02
4.628000000000000114e+01,2.208300054110976657e-02
4.632000000000000028e+01,2.485400692313270363e-02
4.635999999999999943e+01,2.975698232135991217e-02
4.639999999999999858e+01,2.876357804011727554e-02
4.643999999999999773e+01,2.124657784588286982e-02
4.647999999999999687e+01,1.761774273681951733e-02
4.652000000000000313e+01,2.565453232625613048e-02
4.656000000000000227e+01,2.578784899448457318e-02
4.660000000000000142e+01,1.588516143093511232e-02
4.664000000000000057e+01,3.721718971325258668e-02
4.667999999999999972e+01,2.204475375619590824e-02
4.671999999999999886e+01,2.832248240802423891e-02
4.675999999999999801e+01,2.443875743264628531e-02
4.679999999999999716e+01,1.779470967412893206e-02
4.684000000000000341e+01,1.566602705345184962e-02
4.688000000000000256e+01,3.034611441508767299e-02
4.692000000000000171e+01,2.671095167649995342e-02
4.696000000000000085e+01,2.997456476015585708e-02
4.700000000000000000e+01,2.520924420057843104e-02
4.703999999999999915e+01,2.709181038089942747e-02
4.707999999999999829e+01,2.069455383564192119e-02
4.711999999999999744e+01,3.148238633344763171e-02
4.715999999999999659e+01,3.562115086963951738e-02
4.720000000000000284e+01,2.696414259485333670e-02
4.724000000000000199e+01,4.276790804793955542e-02
4.728000000000000114e+01,3.548957776071644254e-02
4.732000000000000028e+01,3.824608181015273778e-02
4.735999999999999943e+01,2.582339103761068649e-02
4.739999999999999858e+01,4.463538536731553874e-02
4.743999999999999773e+01,2.757009932946280495e-02
4.747999999999999687e+01,2.392660007928619492e-02
4.752000000000000313e+01,3.307767138326380557e-02
4.756000000000000227e+01,3.532877269860027619e-02
4.760000000000000142e+01,3.306331794586948869e-02
4.764000000000000057e+01,3.518775304618635552e-02
4.767999999999999972e+01,2.765246899568505473e-02
4.771999999999999886e+01,3.491883417830887737e-02
4.775999999999999801e+01,3.603787882038914092e-02
4.779999999999999716e+01,3.113504422692798743e-02
4.784000000000000341e+01,2.936766216521482370e-02
4.788000000000000256e+01,3.449901870978418911e-02
4.792000000000000171e+01,3.360849116455629643e-02
4.796000000000000085e+01,2.243101852647679667e-02
4.800000000000000000e+01,3.082201487224390038e-02
4.803999999999999915e+01,3.783251042818899790e-02
4.807999999999999829e+01,2.916201034427167577e-02
4.811999999999999744e+01,4.081263192846912302e-02
4.815999999999999659e+01,3.176453771314061147e-02
4.820000000000000284e+01,3.237491346733368386e-02
4.824000000000000199e+01,3.311009541832631714e-02
4.828000000000000114e+01,3.522451117890646605e-02
4.832000000000000028e+01,3.282234174588461589e-02
4.835999999999999943e+01,2.602902842426280117e-02
4.839999999999999858e+01,3.780062452093631981e-02
4.843999999999999773e+01,2.761906426061380357e-02
4.847999999999999687e+01,2.621786218160468071e-02
4.852000000000000313e+01,3.209170158877580614e-02
4.856000000000000227e+01,2.604781363168112707e-02
4.860000000000000142e+01,2.916060777090604197e-02
4.864000000000000057e+01,1.985389961734529418e-02
4.867999999999999972e+01,1.744589770836176001e-02
4.871999999999999886e+01,2.507267350305332140e-02
4.875999999999999801e+01,1.739475491969494358e-02
4.879999999999999716e+01,2.088059711162703475e-02
4.884000000000000341e+01,1.947350430558667661e-02
4.888000000000000256e+01,2.897928319249162832e-02
4.892000000000000171e+01,2.606554846001405204e-02
4.896000000000000085e+01,2.214760449101531303e-02
4.900000000000000000e+01,2.989518489923004285e-02
4.903999999999999915e+01,2.986463498803750699e-02
4.907999999999999829e+01,2.581924083197219971e-02
4.911999999999999744e+01,2.102051681321930043e-02
4.915999999999999659e+01,2.010984946792462522e-02
4.920000000000000284e+01,2.346356594726486597e-02
4.924000000000000199e+01,2.016813032455744628e-02
4.928000000000000114e+01,2.326960498279894568e-02
4.932000000000000028e+01,1.696217999490108597e-02
4.935999999999999943e+01,2.972139728360150002e-02
4.939999999999999858e+01,2.629779384327641731e-02
4.943999999999999773e+01,3.215628144256771348e-02
4.947999999999999687e+01,3.011117800042645634e-02
4.952000000000000313e+01,3.095057328427744739e-02
4.956000000000000227e+01,3.078573506032827520e-02
4.960000000000000142e+01,3.701779417264589034e-02
4.964000000000000057e+01,3.396638361722936761e-02
4.967999999999999972e+01,3.618288085412315475e-02
4.971999999999999886e+01,2.773603303315167259e-02
4.975999999999999801e+01,3.057835007651163450e-02
4.979999999999999716e+01,2.965667959563867556e-02
4.984000000000000341e+01,3.525733966560824773e-02
4.988000000000000256e+01,3.847388112913495417e-02
4.992000000000000171e+01,3.190516990598136343e-02
4.996000000000000085e+01,4.063978899552728868e-02
5.000000000000000000e+01,3.181169093080814941e-02
5.003999999999999915e+01,3.740881948100673732e-02
5.007999999999999829e+01,2.995917287191345035e-02
5.011999999999999744e+01,3.292057610277292906e-02
5.015999999999999659e+01,3.349784940059271493e-02
5.020000000000000284e+01,3.432529253212133341e-02
5.024000000000000199e+01,2.599468464772413528e-02
5.028000000000000114e+01,2.920410643872456413e-02
5.032000000000000028e+01,3.166014982447946241e-02
5.035999999999999943e+01,3.574622872556270509e-02
5.039999999999999858e+01,4.284221367784965540e-02
5.043999999999999773e+01,2.447255952243213364e-02
5.047999999999999687e+01,3.407594987642555140e-02
5.052000000000000313e+01,3.326684865702302790e-02
5.056000000000000227e+01,2.631031363110835145e-02
5.060000000000000142e+01,2.524886379697955513e-02
5.064000000000000057e+01,3.121148384433724762e-02
5.067999999999999972e+01,2.901957846152979775e-02
5.071999999999999886e+01,2.494529218483824279e-02
5.075999999999999801e+01,2.990215770477458804e-02
5.079999999999999716e+01,3.661448386418872381e-02
5.084000000000000341e+01,3.454506350566000084e-02
5.088000000000000256e+01,3.648907316601039674e-02
5.092000000000000171e+01,3.153297691855729695e-02
5.096000000000000085e+01,5.693332130215116027e-02
5.100000000000000000e+01,4.118763853893112753e-02
5.103999999999999915e+01,4.751916024682398959e-02
5.107999999999999829e+01,3.942399418933282412e-02
5.111999999999999744e+01,4.035996536570213289e-02
5.115999999999999659e+01,4.029163831086070291e-02
5.120000000000000284e+01,3.257053648309495009e-02
5.124000000000000199e+01,3.739296888137905867e-02
5.128000000000000114e+01,4.133654111728392311e-02
5.132000000000000028e+01,3.800366249527066531e-02
5.135999999999999943e+01,3.742976524424009022e-02
5.139999999999999858e+01,3.660421759201105268e-02
5.143999999999999773e+01,3.226550192022787505e-02
5.147999999999999687e+01,3.921588153510970759e-02
5.152000000000000313e+01,3.512651450902732481e-02
5.156000000000000227e+01,3.392156368658860027e-02
5.160000000000000142e+01,3.660457083440688680e-02
5.164000000000000057e+01,3.426908679519676676e-02
5.167999999999999972e+01,3.017662595114346466e-02
5.171999999999999886e+01,3.837679406994219666e-02
5.175999999999999801e+01,3.089581768503402853e-02
5.179999999999999716e+01,3.282227979579888100e-02
5.184000000000000341e+01,3.073378601380764505e-02
5.188000000000000256e+01,2.550843518258628234e-02
5.192000000000000171e+01,2.354381476150315539e-02
5.196000000000000085e+01,2.396182267086172449e-02
5.200000000000000000e+01,2.425359883083022874e-02
5.203999999999999915e+01,3.244748870091222065e-02
5.207999999999999829e+01,2.533654989186720496e-02
5.211999999999999744e+01,2.424607771045526883e-02
5.215999999999999659e+01,3.017961392328973383e-02
5.220000000000000284e+01,3.523425275778382937e-02
5.224000000000000199e+01,3.752834874954243116e-02
5.228000000000000114e+01,3.003709658759004530e-02
5.232000000000000028e+01,2.166694219304145935e-02
5.235999999999999943e+01,2.734559179520321126e-02
5.239999999999999858e+01,3.026369208228838620e-02
5.243999999999999773e+01,3.644250174440332585e-02
5.247999999999999687e+01,3.659924285500071317e-02
5.252000000000000313e+01,3.286644348847980734e-02
5.256000000000000227e+01,2.361334402662007559e-02
5.260000000000000142e+01,3.668827177672255579e-02
5.264000000000000057e+01,3.094594634805922576e-02
5.267999999999999972e+01,2.720989135504080572e-02
5.271999999999999886e+01,4.266578564254563943e-02
5.275999999999999801e+01,3.240506112722594395e-02
5.279999999999999716e+01,3.380970727101949291e-02
5.284000000000000341e+01,4.223833430160989222e-02
5.288000000000000256e+01,3.586387198371727980e-02
5.292000000000000171e+01,4.215831885538068313e-02
5.296000000000000085e+01,3.691118914266099810e-02
5.300000000000000000e+01,3.856259092130981392e-02
5.303999999999999915e+01,3.519544487994596960e-02
5.307999999999999829e+01,3.609252570894622841e-02
5.311999999999999744e+01,3.711421532834362907e-02
5.315999999999999659e+01,3.236469473494860832e-02
5.320000000000000284e+01,3.288293954236051753e-02
5.324000000000000199e+01,2.963705767020665197e-02
5.328000000000000114e+01,4.031449965571468064e-02
5.332000000000000028e+01,3.280187557044399183e-02
5.335999999999999943e+01,2.829903779806729885e-02
5.339999999999999858e+01,3.132192995164306826e-02
5.343999999999999773e+01,2.744461425804364460e-02
5.347999999999999687e+01,2.369189279207392987e-02
5.352000000000000313e+01,4.088728916814474146e-02
5.356000000000000227e+01,2.546667360988278880e-02
5.360000000000000142e+01,3.086872973440348000e-02
5.364000000000000057e+01,3.953144669139598694e-02
5.367999999999999972e+01,4.204660363122562222e-02
5.371999999999999886e+01,3.314559616613946269e-02
5.375999999999999801e+01,3.866966483404128685e-02
5.379999999999999716e+01,3.465920970716665495e-02
5.384000000000000341e+01,4.018155347670378241e-02
5.388000000000000256e+01,3.604392729220658176e-02
5.392000000000000171e+01,3.127821999787724905e-02
5.396000000000000085e+01,3.629619259187852331e-02
5.400000000000000000e+01,3.692279314725736838e-02
5.403999999999999915e+01,3.478877804606372165e-02
5.407999999999999829e+01,3.503730551679269667e-02
5.411999999999999744e+01,2.662939670967435710e-02
5.415999999999999659e+01,2.612351585415042740e-02
5.420000000000000284e+01,3.690662025549342612e-02
5.424000000000000199e+01,3.100493644714451963e-02
5.428000000000000114e+01,2.434971404310870557e-02
5.432000000000000028e+01,3.851713419632078056e-02
5.435999999999999943e+01,3.637609005484711278e-02
5.439999999999999858e+01,3.498681754047865133e-02
5.443999999999999773e+01,3.171501365029635866e-02
5.447999999999999687e+01,4.224104215213063396e-02
5.452000000000000313e+01,3.357341265592962698e-02
5.456000000000000227e+01,4.572841600846488247e-02
5.460000000000000142e+01,4.019507320384219790e-02
5.464000000000000057e+01,4.921221385741899462e-02
5.467999999999999972e+01,4.580960788733497852e-02
5.471999999999999886e+01,4.253154598423746630e-02
5.475999999999999801e+01,4.577561560749481701e-02
5.479999999999999716e+01,4.650992467673425307e-02
5.484000000000000341e+01,4.335459941990996852e-02
5.488000000000000256e+01,3.668596698819871771e-02
5.492000000000000171e+01,4.469324961117734918e-02
5.496000000000000085e+01,4.617659166900266177e-02
5.500000000000000000e+01,3.699637508170759009e-02
5.503999999999999915e+01,3.295840654020993493e-02
5.507999999999999829e+01,4.184014565783856360e-02
5.511999999999999744e+01,4.645591035354464798e-02
5.515999999999999659e+01,4.944000039407676211e-02
5.520000000000000284e+01,3.812267892952974496e-02
5.524000000000000199e+01,4.311201757512573424e-02
5.528000000000000114e+01,4.709689132672860434e-02
5.532000000000000028e+01,5.522045841283337864e-02
5.535999999999999943e+01,5.004615090621656465e-02
5.539999999999999858e+01,5.039040565189171345e-02
5.543999999999999773e+01,5.575144933942430270e-02
5.547999999999999687e+01,4.969625742628935861e-02
5.552000000000000313e+01,4.000228952581583869e-02
5.556000000000000227e+01,4.209902355965952636e-02
5.560000000000000142e+01,3.039610159992070515e-02
5.564000000000000057e+01,4.378082818558504119e-02
5.567999999999999972e+01,3.910083615652734657e-02
5.571999999999999886e+01,3.743053497333293650e-02
5.575999999999999801e+01,3.977346640261521932e-02
5.579999999999999716e+01,3.258179313285773648e-02
5.584000000000000341e+01,3.153587893189097047e-02
5.588000000000000256e+01,3.412686371988307016e-02
5.592000000000000171e+01,4.687777787928975454e-02
5.596000000000000085e+01,3.742434563549575099e-02
5.600000000000000000e+01,3.687641029607253290e-02
5.603999999999999915e+01,4.147068255031505224e-02
5.607999999999999829e+01,4.681665847208166253e-02
5.611999999999999744e+01,3.961738659603057655e-02
5.615999999999999659e+01,5.223713946060653396e-02
5.620000000000000284e+01,5.582404313763941056e-02
5.624000000000000199e+01,5.614847047106086286e-02
5.628000000000000114e+01,6.450028292064495516e-02
5.632000000000000028e+01,5.817430978950049320e-02
5.635999999999999943e+01,5.648875961499037063e-02
5.639999999999999858e+01,5.806375862506871210e-02
5.643999999999999773e+01,4.784615443117117700e-02
5.647999999999999687e+01,4.477782680139871102e-02
5.652000000000000313e+01,5.525636319511957606e-02
5.656000000000000227e+01,3.525129599059727975e-02
5.660000000000000142e+01,5.200003034455306927e-02
5.664000000000000057e+01,3.149124001737955286e-02
5.667999999999999972e+01,3.531739862686837650e-02
5.671999999999999886e+01,3.412486055250003869e-02
5.675999999999999801e+01,3.092425433028513776e-02
5.679999999999999716e+01,3.299126788120321230e-02
5.684000000000000341e+01,3.907147035629582321e-02
5.688000000000000256e+01,3.599335321330846688e-02
5.692000000000000171e+01,3.228703360409404532e-02
5.696000000000000085e+01,3.497731360345750218e-02
5.700000000000000000e+01,3.327610020780359668e-02
5.703999999999999915e+01,3.207566579945271557e-02
5.707999999999999829e+01,3.087423706797035386e-02
5.711999999999999744e+01,3.569307270346282202e-02
5.715999999999999659e+01,2.871927600944470041e-02
5.720000000000000284e+01,2.563321075374629457e-02
5.724000000000000199e+01,2.630943239519510646e-02
5.728000000000000114e+01,2.673376577691143410e-02
5.732000000000000028e+01,3.781974358940731057e-02
5.735999999999999943e+01,2.205993021148715261e-02
5.739999999999999858e+01,2.699719187516209581e-02
5.743999999999999773e+01,2.152168203669006796e-02
5.747999999999999687e+01,3.523792892659471238e-02
5.752000000000000313e+01,2.875685307737050819e-02
5.756000000000000227e+01,2.804513795000856263e-02
5.760000000000000142e+01,2.683063577205736100e-02
5.764000000000000057e+01,3.100916231053591973e-02
5.767999999999999972e+01,2.427313594600668395e-02
5.771999999999999886e+01,2.518810767730851954e-02
5.775999999999999801e+01,3.450673342488010803e-02
5.779999999999999716e+01,2.300081049128940500e-02
5.784000000000000341e+01,3.156473018491919719e-02
5.788000000000000256e+01,2.632890165410636113e-02
5.792000000000000171e+01,2.686241928238842711e-02
5.796000000000000085e+01,3.115819468228287620e-02
5.800000000000000000e+01,3.545293854308469161e-02
5.803999999999999915e+01,3.247095970764374978e-02
5.807999999999999829e+01,2.973883194311431957e-02
5.811999999999999744e+01,3.365414270886470105e-02
5.815999999999999659e+01,3.305247023203767426e-02
5.820000000000000284e+01,2.768292704837333612e-02
5.824000000000000199e+01,3.335131984878941108e-02
5.828000000000000114e+01,2.835602132109333456e-02
5.832000000000000028e+01,3.364599800278320757e-02
5.835999999999999943e+01,3.002848104341293914e-02
5.839999999999999858e+01,2.590814467174808872e-02
5.843999999999999773e+01,2.216308773131466306e-02
5.847999999999999687e+01,3.045950045114871260e-02
5.852000000000000313e+01,2.972297013449419836e-02
5.856000000000000227e+01,2.359133993279833794e-02
5.860000000000000142e+01,2.322902838274788079e-02
5.864000000000000057e+01,3.076856355874203405e-02
5.867999999999999972e+01,2.940059214899390719e-02
5.871999999999999886e+01,1.373106684266329688e-02
5.875999999999999801e+01,2.992298171780067087e-02
5.879999999999999716e+01,2.416132115185811932e-02
5.884000000000000341e+01,2.529795583683528901e-02
5.888000000000000256e+01,2.317200738457353415e-02
5.892000000000000171e+01,2.518460663913977410e-02
5.896000000000000085e+01,1.992044598150212106e-02
5.900000000000000000e+01,2.331077502566567677e-02
5.903999999999999915e+01,1.904801215219280655e-02
5.907999999999999829e+01,2.682669466770842490e-02
5.911999999999999744e+01,2.569785279854386317e-02
5.915999999999999659e+01,2.155730231171812741e-02
5.920000000000000284e+01,1.791744343559109262e-02
5.924000000000000199e+01,2.355927916819031825e-02
5.928000000000000114e+01,2.054446988994292067e-02
5.932000000000000028e+01,2.154274921458355571e-02
5.935999999999999943e+01,2.228905613905786398e-02
5.939999999999999858e+01,2.403781827615388000e-02
5.943999999999999773e+01,1.813347231476080887e-02
5.947999999999999687e+01,2.364334094606690764e-02
5.952000000000000313e+01,2.112376947345147651e-02
5.956000000000000227e+01,1.897943212567999513e-02
5.960000000000000142e+01,2.523867436225610966e-02
5.964000000000000057e+01,1.732176840937588516e-02
5.967999999999999972e+01,1.780843880467269241e-02
5.971999999999999886e+01,2.920754239180776632e-02
5.975999999999999801e+01,2.040923262703909016e-02
5.979999999999999716e+01,1.951272266384235579e-02
5.984000000000000341e+01,2.413459534547308938e-02
5.988000000000000256e+01,1.721461151396973255e-02
5.992000000000000171e+01,1.882363724521916859e-02
5.996000000000000085e+01,1.353219138139502217e-02
