2.003999999999999915e+01,2.120203206797532935e-02
2.007999999999999829e+01,1.757486713804224179e-02
2.012000000000000099e+01,1.977205786534319554e-02
2.016000000000000014e+01,3.871682865927274751e-03
2.019999999999999929e+01,8.252823934274004791e-03
2.023999999999999844e+01,1.856232812118209161e-02
2.028000000000000114e+01,1.389451626669698653e-02
2.032000000000000028e+01,7.874482258008441357e-03
2.035999999999999943e+01,2.359208006450509015e-02
2.039999999999999858e+01,2.246021059245406279e-02
2.044000000000000128e+01,1.945607631221608555e-02
2.048000000000000043e+01,1.197946811292514672e-02
2.051999999999999957e+01,1.417552164452918866e-02
2.055999999999999872e+01,1.283517583589491307e-02
2.060000000000000142e+01,1.555104012621690533e-02
2.064000000000000057e+01,1.504252953980536600e-02
2.067999999999999972e+01,1.599001964440908280e-02
2.071999999999999886e+01,2.286586930267335213e-02
2.076000000000000156e+01,2.038085039243224192e-02
2.080000000000000071e+01,2.351216538404666059e-02
2.083999999999999986e+01,9.690001476735923477e-03
2.087999999999999901e+01,2.145377456704524941e-02
2.092000000000000171e+01,1.688811827958913714e-02
2.096000000000000085e+01,1.793879470568836634e-02
2.100000000000000000e+01,1.326889312013911082e-02
2.103999999999999915e+01,1.702354917288936495e-02
2.107999999999999829e+01,7.777041941226293248e-03
2.112000000000000099e+01,2.110022770073538903e-02
2.116000000000000014e+01,2.350241663271393847e-02
2.119999999999999929e+01,2.444836852228590360e-02
2.123999999999999844e+01,1.499336475293531860e-02
2.128000000000000114e+01,6.786340513370783464e-03
2.132000000000000028e+01,2.468529176635869335e-02
2.135999999999999943e+01,1.918224240024409694e-02
2.139999999999999858e+01,1.596725519820658967e-02
2.144000000000000128e+01,1.618442174123925839e-02
2.148000000000000043e+01,2.555420112260702037e-02
2.151999999999999957e+01,2.608314805380148801e-02
2.155999999999999872e+01,2.120353787195150552e-02
2.160000000000000142e+01,1.122739533763704445e-02
2.164000000000000057e+01,1.903655771514348172e-02
2.167999999999999972e+01,2.642956301085904250e-02
2.171999999999999886e+01,2.196549214702836483e-02
2.176000000000000156e+01,2.332576476035500349e-02
2.180000000000000071e+01,5.652384293922098346e-03
2.183999999999999986e+01,1.335691699020457798e-02
2.187999999999999901e+01,2.480562522138630988e-02
2.192000000000000171e+01,1.170823679634659491e-02
2.196000000000000085e+01,1.889235136776664173e-02
2.200000000000000000e+01,1.286727911694368447e-02
2.203999999999999915e+01,1.630684060305994179e-02
2.207999999999999829e+01,1.204965735801990720e-02
2.212000000000000099e+01,1.642504043535588168e-02
2.216000000000000014e+01,2.069628792365509756e-02
2.219999999999999929e+01,2.132711553908681057e-02
2.223999999999999844e+01,2.247785708664143400e-02
2.228000000000000114e+01,1.790801111614562929e-02
2.232000000000000028e+01,2.280279680306357068e-02
2.235999999999999943e+01,3.424997997887426621e-02
2.239999999999999858e+01,1.907089588253002566e-02
2.244000000000000128e+01,2.531740309581282516e-02
2.248000000000000043e+01,2.095492873574277687e-02
2.251999999999999957e+01,2.616109290026286116e-02
2.255999999999999872e+01,1.451777374418171569e-02
2.260000000000000142e+01,2.242789436349780161e-02
2.264000000000000057e+01,1.369654777316586282e-02
2.267999999999999972e+01,1.963024779415402030e-02
2.271999999999999886e+01,2.691592500277744174e-02
2.276000000000000156e+01,1.797616752073415841e-02
2.280000000000000071e+01,1.194851192045068462e-02
2.283999999999999986e+01,1.455341729519194285e-02
2.287999999999999901e+01,2.225459936112732240e-02
2.292000000000000171e+01,1.872274647057437999e-02
2.296000000000000085e+01,1.914307779899728640e-02
2.300000000000000000e+01,1.394682461457030093e-02
2.303999999999999915e+01,1.301478011262399703e-02
2.307999999999999829e+01,1.561888552822174661e-02
2.312000000000000099e+01,1.343847236015752872e-02
2.316000000000000014e+01,9.801807593008648317e-03
2.319999999999999929e+01,8.349183269007477357e-03
2.323999999999999844e+01,1.012068261659519568e-02
2.328000000000000114e+01,1.522031369124852117e-02
2.332000000000000028e+01,2.125588408720460731e-02
2.335999999999999943e+01,2.323499258490978672e-02
2.339999999999999858e+01,1.710131313777502743e-02
2.344000000000000128e+01,2.064027373505555873e-02
2.348000000000000043e+01,1.076201981321241521e-02
2.351999999999999957e+01,1.357264756563193557e-02
2.355999999999999872e+01,1.305487040228669841e-02
2.360000000000000142e+01,1.056079660927299740e-02
2.364000000000000057e+01,2.449990429115563029e-02
2.367999999999999972e+01,1.794922799502795402e-02
2.371999999999999886e+01,8.174153947386906746e-03
2.376000000000000156e+01,1.296011013748753042e-02
2.380000000000000071e+01,1.400162621916655262e-02
2.383999999999999986e+01,1.764321140099870538e-02
2.387999999999999901e+01,1.129985472716068910e-02
2.392000000000000171e+01,6.620491386360969309e-03
2.396000000000000085e+01,1.567008997751461255e-02
2.400000000000000000e+01,2.159929709018104313e-02
2.403999999999999915e+01,1.951971985735821702e-02
2.407999999999999829e+01,1.525582572486277634e-02
2.412000000000000099e+01,2.482490068857208868e-02
2.416000000000000014e+01,7.663686956271899622e-03
2.419999999999999929e+01,1.910462778835907496e-02
2.423999999999999844e+01,1.348805611758901839e-02
2.428000000000000114e+01,1.286374238783413552e-02
2.432000000000000028e+01,2.180805381429148926e-02
2.435999999999999943e+01,1.899927782680010946e-02
2.439999999999999858e+01,1.920660019061751905e-02
2.444000000000000128e+01,1.566947769281219066e-02
2.448000000000000043e+01,1.722862000319837911e-02
2.451999999999999957e+01,2.346799341449443133e-02
2.455999999999999872e+01,1.441799393971067086e-02
2.460000000000000142e+01,2.117711869471201533e-02
2.464000000000000057e+01,1.961542959044317719e-02
2.467999999999999972e+01,1.909367805947663824e-02
2.471999999999999886e+01,1.316334594653567093e-02
2.476000000000000156e+01,1.191324315205418739e-02
2.480000000000000071e+01,1.263915221261455515e-02
2.483999999999999986e+01,1.700520647196794577e-02
2.487999999999999901e+01,4.105726770159805368e-03
2.492000000000000171e+01,1.824827099711325007e-02
2.496000000000000085e+01,8.884779515656780063e-03
2.500000000000000000e+01,1.543441764578641975e-02
2.503999999999999915e+01,1.303918883058545475e-02
2.507999999999999829e+01,5.651410169941043816e-03
2.512000000000000099e+01,1.771304421641325608e-02
2.516000000000000014e+01,1.812559325998708282e-02
2.519999999999999929e+01,3.039494468025775997e-02
2.523999999999999844e+01,2.581479287589793711e-02
2.528000000000000114e+01,7.921421536588273485e-03
2.532000000000000028e+01,1.550994586701497958e-02
2.535999999999999943e+01,2.226625237453841791e-02
2.539999999999999858e+01,2.090975608346870226e-02
2.544000000000000128e+01,1.996914160596523907e-02
2.548000000000000043e+01,1.590812465819724242e-02
2.551999999999999957e+01,1.850349008294360428e-02
2.555999999999999872e+01,1.652233550755245750e-02
2.560000000000000142e+01,1.464503649977226020e-02
2.564000000000000057e+01,1.432770969825103088e-02
2.567999999999999972e+01,1.754651350439487278e-02
2.571999999999999886e+01,2.180524715988925791e-02
2.576000000000000156e+01,1.327079947829122759e-02
2.580000000000000071e+01,2.345770098567233689e-02
2.583999999999999986e+01,1.783517833781336423e-02
2.587999999999999901e+01,2.718970359292434413e-02
2.592000000000000171e+01,1.376624447768528409e-02
2.596000000000000085e+01,1.417574079319817645e-02
2.600000000000000000e+01,8.344580199921396158e-03
2.603999999999999915e+01,2.497906770503237686e-02
2.607999999999999829e+01,1.623536083770207167e-02
2.612000000000000099e+01,2.018051633475535442e-02
2.616000000000000014e+01,1.767699702961555985e-02
2.619999999999999929e+01,1.860559611761330653e-02
2.623999999999999844e+01,1.714184555878177016e-02
2.628000000000000114e+01,1.526190375452696028e-02
2.632000000000000028e+01,2.118243025935336032e-02
2.635999999999999943e+01,2.242242246998925326e-02
2.639999999999999858e+01,2.199812231335706095e-02
2.644000000000000128e+01,2.927028122202921662e-02
2.648000000000000043e+01,1.667668547274636648e-02
2.651999999999999957e+01,2.738080107736363261e-02
2.655999999999999872e+01,2.092337859621833801e-02
2.660000000000000142e+01,2.445059774821319032e-02
2.664000000000000057e+01,1.622471255298061146e-02
2.667999999999999972e+01,1.829549345439296371e-02
2.671999999999999886e+01,1.880598796448842980e-02
2.676000000000000156e+01,1.671611226067545863e-02
2.680000000000000071e+01,1.566615838518642043e-02
2.683999999999999986e+01,7.335457836815059175e-03
2.687999999999999901e+01,2.292651608397810320e-02
2.692000000000000171e+01,2.000392498853167597e-02
2.696000000000000085e+01,2.103348840455479193e-02
2.700000000000000000e+01,2.455908909924952449e-02
2.703999999999999915e+01,2.371617550713244621e-02
2.707999999999999829e+01,2.640938212505316088e-02
2.712000000000000099e+01,2.639820750283828829e-02
2.716000000000000014e+01,2.680290191996192659e-02
2.719999999999999929e+01,2.731144002169409377e-02
2.723999999999999844e+01,2.064323683234490364e-02
2.728000000000000114e+01,3.186430501978446822e-02
2.732000000000000028e+01,2.009936173414340888e-02
2.735999999999999943e+01,1.540682056577046856e-02
2.739999999999999858e+01,2.818751647275444250e-02
2.744000000000000128e+01,2.911109373845808049e-02
2.748000000000000043e+01,3.159462954496774362e-02
2.751999999999999957e+01,2.731745539107717502e-02
2.755999999999999872e+01,3.926541689362361698e-02
2.760000000000000142e+01,3.353179082369766445e-02
2.764000000000000057e+01,2.915010540117419363e-02
2.767999999999999972e+01,4.286570508979201805e-02
2.771999999999999886e+01,3.349128198202712403e-02
2.776000000000000156e+01,3.233334989884763255e-02
2.780000000000000071e+01,4.084802547890140773e-02
2.783999999999999986e+01,3.948173814540542614e-02
2.787999999999999901e+01,3.509903886969269887e-02
2.792000000000000171e+01,3.373241180268325701e-02
2.796000000000000085e+01,3.434177312178558761e-02
2.800000000000000000e+01,3.401488865847875770e-02
2.803999999999999915e+01,4.585681053719425221e-02
2.807999999999999829e+01,3.928908281067509944e-02
2.812000000000000099e+01,4.280999378099534930e-02
2.816000000000000014e+01,4.716279977398414591e-02
2.819999999999999929e+01,4.693906615988102660e-02
2.823999999999999844e+01,4.869131885236425289e-02
2.828000000000000114e+01,5.418769954773663966e-02
2.832000000000000028e+01,5.552357315499865942e-02
2.835999999999999943e+01,4.874662198011278647e-02
2.839999999999999858e+01,6.017095892156874154e-02
2.844000000000000128e+01,5.380969369942434355e-02
2.848000000000000043e+01,5.348073875092980434e-02
2.851999999999999957e+01,6.396847799638552545e-02
2.855999999999999872e+01,5.417441372577632558e-02
2.860000000000000142e+01,5.259683424117628237e-02
2.864000000000000057e+01,4.821085387503661057e-02
2.867999999999999972e+01,5.495359157220175428e-02
2.871999999999999886e+01,6.159214496001975958e-02
2.876000000000000156e+01,5.689361166583847829e-02
2.880000000000000071e+01,5.229891017326326191e-02
2.883999999999999986e+01,5.716879191486640144e-02
2.887999999999999901e+01,5.153365290365823081e-02
2.892000000000000171e+01,5.588313829523650078e-02
2.896000000000000085e+01,5.638413690315820237e-02
2.900000000000000000e+01,5.438875701351962577e-02
2.903999999999999915e+01,4.625670598993830707e-02
2.907999999999999829e+01,4.436497748898420024e-02
2.912000000000000099e+01,4.455323711151669419e-02
2.916000000000000014e+01,4.380524233646315713e-02
2.919999999999999929e+01,4.576128520605597660e-02
2.923999999999999844e+01,4.033255522571108087e-02
2.928000000000000114e+01,2.783107715600827842e-02
2.932000000000000028e+01,3.987538987557075199e-02
2.935999999999999943e+01,3.777438593811378170e-02
2.939999999999999858e+01,3.588121769868850286e-02
2.944000000000000128e+01,3.991634425055993335e-02
2.948000000000000043e+01,3.063822007459983746e-02
2.951999999999999957e+01,3.727319194074366765e-02
2.955999999999999872e+01,3.153098765787066410e-02
2.960000000000000142e+01,2.755674287592852281e-02
2.964000000000000057e+01,2.971880810501106515e-02
2.967999999999999972e+01,2.928048143370561018e-02
2.971999999999999886e+01,3.050610501955421106e-02
2.976000000000000156e+01,2.777922752769335785e-02
2.980000000000000071e+01,3.940531871013643744e-02
2.983999999999999986e+01,2.856542146652813960e-02
2.987999999999999901e+01,2.604600785507857341e-02
2.992000000000000171e+01,2.300636761182341464e-02
2.996000000000000085e+01,2.371084289430468520e-02
3.000000000000000000e+01,2.243897401510734288e-02
3.003999999999999915e+01,1.971080243991431974e-02
3.007999999999999829e+01,3.091956404929328481e-02
3.012000000000000099e+01,9.677533308138093482e-03
3.016000000000000014e+01,1.246124535491364808e-02
3.019999999999999929e+01,2.252535513173104659e-02
3.023999999999999844e+01,2.447662616387267370e-02
3.028000000000000114e+01,2.018720850019294077e-02
3.032000000000000028e+01,2.047397050898722495e-02
3.035999999999999943e+01,2.949724599524603322e-02
3.039999999999999858e+01,2.926358967046079756e-02
3.044000000000000128e+01,1.530064207783591104e-02
3.048000000000000043e+01,1.777082516027166798e-02
3.051999999999999957e+01,1.535242634760697680e-02
3.055999999999999872e+01,1.969438082855035424e-02
3.060000000000000142e+01,2.486821221058333961e-02
3.064000000000000057e+01,2.993784502366605982e-02
3.067999999999999972e+01,2.065413467114896387e-02
3.071999999999999886e+01,2.197908546835032617e-02
3.076000000000000156e+01,1.602326047931317693e-02
3.080000000000000071e+01,1.641175359122718294e-02
3.083999999999999986e+01,2.657684014122127861e-02
3.087999999999999901e+01,2.082845675196567589e-02
3.092000000000000171e+01,1.476785600913114657e-02
3.096000000000000085e+01,1.671570581977366646e-02
3.100000000000000000e+01,2.011947967606498786e-02
3.103999999999999915e+01,1.769859260231532172e-02
3.107999999999999829e+01,1.787772085813233228e-02
3.112000000000000099e+01,1.420834628823931453e-02
3.116000000000000014e+01,1.438708668438254748e-02
3.119999999999999929e+01,1.123736542342386457e-02
3.123999999999999844e+01,1.016761654097339193e-02
3.128000000000000114e+01,1.346602349609214190e-02
3.132000000000000028e+01,1.343596790288380770e-02
3.135999999999999943e+01,1.923018448881747347e-02
3.139999999999999858e+01,1.233518620262641190e-02
3.144000000000000128e+01,1.833702747493870175e-02
3.148000000000000043e+01,1.133762822332121459e-02
3.151999999999999957e+01,1.109857513551029858e-02
3.155999999999999872e+01,1.210742522919393965e-02
3.160000000000000142e+01,1.207599445116110462e-02
3.164000000000000057e+01,8.612090395648988594e-03
3.167999999999999972e+01,1.097245614267842312e-02
3.171999999999999886e+01,3.243813454773589785e-03
3.176000000000000156e+01,1.683668450545430795e-02
3.180000000000000071e+01,6.195410580027769891e-03
3.183999999999999986e+01,1.167523217145473996e-02
3.187999999999999901e+01,9.666252953438167136e-03
3.192000000000000171e+01,1.452162528102913207e-02
3.196000000000000085e+01,1.188819620502638841e-02
3.200000000000000000e+01,1.653515149068764123e-02
3.203999999999999915e+01,8.492887151023101322e-03
3.207999999999999829e+01,9.083115162043754395e-03
3.211999999999999744e+01,4.680741042409751473e-03
3.215999999999999659e+01,1.140705914055011386e-02
3.220000000000000284e+01,8.668415354165284401e-03
3.224000000000000199e+01,3.537377359691615437e-03
3.228000000000000114e+01,3.918579653978597130e-03
3.232000000000000028e+01,1.938079037470198662e-02
3.235999999999999943e+01,0.000000000000000000e+00
3.239999999999999858e+01,1.670990467301529739e-02
3.243999999999999773e+01,1.625822759023378902e-02
3.247999999999999687e+01,5.093486312781901441e-03
3.252000000000000313e+01,7.553635040668168002e-03
3.256000000000000227e+01,4.397128254764255846e-03
3.260000000000000142e+01,1.132922689329263211e-02
3.264000000000000057e+01,8.796360379470105975e-03
3.267999999999999972e+01,7.407380376488754969e-03
3.271999999999999886e+01,1.465088797099155585e-02
3.275999999999999801e+01,7.333020246887946708e-03
3.279999999999999716e+01,9.687723051634714380e-03
3.284000000000000341e+01,9.129985429408512404e-03
3.288000000000000256e+01,5.659807083134269640e-03
3.292000000000000171e+01,5.621697221386878600e-03
3.296000000000000085e+01,1.078379754046918798e-02
3.300000000000000000e+01,1.292944789172661806e-02
3.303999999999999915e+01,9.297542550587408134e-04
3.307999999999999829e+01,9.939539495844446071e-03
3.311999999999999744e+01,4.179930039244916448e-03
3.315999999999999659e+01,9.549005373543117611e-03
3.320000000000000284e+01,9.717453851056746805e-03
3.324000000000000199e+01,8.949617629327916157e-03
3.328000000000000114e+01,1.296595580162164182e-02
3.332000000000000028e+01,7.621332123840046484e-03
3.335999999999999943e+01,1.413345021944235891e-02
3.339999999999999858e+01,8.268363646821668203e-03
3.343999999999999773e+01,3.547157940615967495e-03
3.347999999999999687e+01,1.120273487932718984e-02
3.352000000000000313e+01,2.229037584643933645e-02
3.356000000000000227e+01,1.850461049578886602e-02
3.360000000000000142e+01,1.482264129773673382e-02
3.364000000000000057e+01,1.769298581340952858e-02
3.367999999999999972e+01,1.099434910022808846e-02
3.371999999999999886e+01,1.511236796123864232e-02
3.375999999999999801e+01,1.090950522986450927e-02
3.379999999999999716e+01,1.117878797288224257e-02
3.384000000000000341e+01,8.951656272256950167e-03
3.388000000000000256e+01,1.369286991311273981e-02
3.392000000000000171e+01,2.312574331910671657e-03
3.396000000000000085e+01,2.685007715414981268e-03
3.400000000000000000e+01,1.012979390172676422e-02
3.403999999999999915e+01,1.081382170440302846e-02
3.407999999999999829e+01,1.191366715243180087e-02
3.411999999999999744e+01,1.550949699977076553e-02
3.415999999999999659e+01,8.080225117631838205e-03
3.420000000000000284e+01,3.250945393204635828e-03
3.424000000000000199e+01,1.079844266926814796e-02
3.428000000000000114e+01,4.616620158285940877e-03
3.432000000000000028e+01,8.523390297508273705e-03
3.435999999999999943e+01,1.014175883621505105e-02
3.439999999999999858e+01,7.287550073746774590e-03
3.443999999999999773e+01,4.745147930403787774e-03
3.447999999999999687e+01,8.443028204554449759e-03
3.452000000000000313e+01,1.546895672767777639e-02
3.456000000000000227e+01,1.136577219802094307e-02
3.460000000000000142e+01,1.849527011711121424e-02
3.464000000000000057e+01,1.366358756885809392e-02
3.467999999999999972e+01,2.799200351629875776e-03
3.471999999999999886e+01,8.783945729712073353e-03
3.475999999999999801e+01,1.747268745900674644e-02
3.479999999999999716e+01,2.127281550616921812e-02
3.484000000000000341e+01,1.685606229247194401e-02
3.488000000000000256e+01,1.899161358317253898e-02
3.492000000000000171e+01,1.041408255762398330e-02
3.496000000000000085e+01,1.223716448673387545e-02
3.500000000000000000e+01,1.541213240143452130e-02
3.503999999999999915e+01,1.338645979389765581e-02
3.507999999999999829e+01,9.592422001252235916e-03
3.511999999999999744e+01,1.297473704586423089e-02
3.515999999999999659e+01,1.864501206073150563e-02
3.520000000000000284e+01,1.443426950023724356e-02
3.524000000000000199e+01,1.271950302095139693e-02
3.528000000000000114e+01,8.092277993113716414e-03
3.532000000000000028e+01,6.585078567644167200e-03
3.535999999999999943e+01,1.059009655615535984e-02
3.539999999999999858e+01,1.272273863040594179e-02
3.543999999999999773e+01,1.142287920504619914e-02
3.547999999999999687e+01,8.666676681482236855e-03
3.552000000000000313e+01,2.327964257448559421e-02
3.556000000000000227e+01,1.189029357294782603e-02
3.560000000000000142e+01,1.277370311879700779e-02
3.564000000000000057e+01,2.717797114557769442e-02
3.567999999999999972e+01,2.130038277693216756e-02
3.571999999999999886e+01,1.979091727052382371e-02
3.575999999999999801e+01,1.828122352210877558e-02
3.579999999999999716e+01,1.521117594633731099e-02
3.584000000000000341e+01,1.609321693137130693e-02
3.588000000000000256e+01,2.456763851944299484e-02
3.592000000000000171e+01,1.941673649294300627e-02
3.596000000000000085e+01,1.644978014264541349e-02
3.600000000000000000e+01,1.473069399851033821e-02
3.603999999999999915e+01,1.893985362828653693e-02
3.607999999999999829e+01,1.462009773022110090e-02
3.611999999999999744e+01,1.435643666598729676e-02
3.615999999999999659e+01,1.076427710734365918e-02
3.620000000000000284e+01,1.518052918534379576e-02
3.624000000000000199e+01,1.314803159823485501e-02
3.628000000000000114e+01,7.683026272939218020e-03
3.632000000000000028e+01,7.626222879271248034e-03
3.635999999999999943e+01,1.453774640843037702e-02
3.639999999999999858e+01,2.155304529493339005e-02
3.643999999999999773e+01,1.307086635895939736e-02
3.647999999999999687e+01,1.082895498672587636e-02
3.652000000000000313e+01,1.461929417605447798e-02
3.656000000000000227e+01,1.820138247677177343e-02
3.660000000000000142e+01,1.242248456725853628e-02
3.664000000000000057e+01,2.255662982048789802e-02
3.667999999999999972e+01,1.812937064175465518e-02
3.671999999999999886e+01,1.703014337286559710e-02
3.675999999999999801e+01,1.759481407591942034e-02
3.679999999999999716e+01,2.460776667121647443e-02
3.684000000000000341e+01,2.673209043355307887e-02
3.688000000000000256e+01,3.072832798171065694e-02
3.692000000000000171e+01,2.213931801393638488e-02
3.696000000000000085e+01,2.031061380775998210e-02
3.700000000000000000e+01,1.972977238086955770e-02
3.703999999999999915e+01,2.892547834542440535e-02
3.707999999999999829e+01,2.231167667664634563e-02
3.711999999999999744e+01,2.703454709343798557e-02
3.715999999999999659e+01,2.562068607004901188e-02
3.720000000000000284e+01,3.866374711462881170e-02
3.724000000000000199e+01,3.964160002943445393e-02
3.728000000000000114e+01,3.146647838883671888e-02
3.732000000000000028e+01,3.514806911119158078e-02
3.735999999999999943e+01,4.538194591929044924e-02
3.739999999999999858e+01,6.528835909260737036e-02
3.743999999999999773e+01,8.529853989931654445e-02
3.747999999999999687e+01,1.077006717984789474e-01
3.752000000000000313e+01,1.017082821377344043e-01
3.756000000000000227e+01,1.106928536340412994e-01
3.760000000000000142e+01,1.371505864515638606e-01
3.764000000000000057e+01,1.623599768339320237e-01
3.767999999999999972e+01,2.087868286352247138e-01
3.771999999999999886e+01,2.947366116074554010e-01
3.775999999999999801e+01,4.056481560963194344e-01
3.779999999999999716e+01,5.922775378499416377e-01
3.784000000000000341e+01,7.766184921575176592e-01
3.788000000000000256e+01,9.493102669923250136e-01
3.792000000000000171e+01,1.000000000000000000e+00
3.796000000000000085e+01,9.889085270108661785e-01
3.800000000000000000e+01,9.214442820605338591e-01
3.803999999999999915e+01,8.391065975200316940e-01
3.807999999999999829e+01,6.713778100622737055e-01
3.811999999999999744e+01,5.424438923368415377e-01
3.815999999999999659e+01,4.308791234210225807e-01
3.820000000000000284e+01,3.312750686850564064e-01
3.824000000000000199e+01,2.501842540426213457e-01
3.828000000000000114e+01,1.852144870879545158e-01
3.832000000000000028e+01,1.686083568149889800e-01
3.835999999999999943e+01,1.413931270298704468e-01
3.839999999999999858e+01,1.161538080942720735e-01
3.843999999999999773e+01,8.529778997484924186e-02
3.847999999999999687e+01,8.730816281863321149e-02
3.852000000000000313e+01,7.642125120582786424e-02
3.856000000000000227e+01,7.115054159354981811e-02
3.860000000000000142e+01,6.140722348721509155e-02
3.864000000000000057e+01,5.488791467856984213e-02
3.867999999999999972e+01,6.001729142722177918e-02
3.871999999999999886e+01,4.704896460632712607e-02
3.875999999999999801e+01,4.957763179299014278e-02
3.879999999999999716e+01,4.180922125732938061e-02
3.884000000000000341e+01,4.204920275135817787e-02
3.888000000000000256e+01,4.072880754325069325e-02
3.892000000000000171e+01,3.836807709869009819e-02
3.896000000000000085e+01,3.548705288335946700e-02
3.900000000000000000e+01,4.747897077782634728e-02
3.903999999999999915e+01,4.740566717414112369e-02
3.907999999999999829e+01,4.410785174211816206e-02
3.911999999999999744e+01,3.904164112040520163e-02
3.915999999999999659e+01,3.875956122268054554e-02
3.920000000000000284e+01,3.920528600235514971e-02
3.924000000000000199e+01,3.195413860567122150e-02
3.928000000000000114e+01,2.886307092644053302e-02
3.932000000000000028e+01,2.920402419972652555e-02
3.935999999999999943e+01,2.496835498197794503e-02
3.939999999999999858e+01,2.697293164149023453e-02
3.943999999999999773e+01,2.148865134437189309e-02
3.947999999999999687e+01,2.505284184925852392e-02
3.952000000000000313e+01,2.310433350184558018e-02
3.956000000000000227e+01,1.928341834436538699e-02
3.960000000000000142e+01,2.045464734815099703e-02
3.964000000000000057e+01,3.525071347791340626e-02
3.967999999999999972e+01,2.934886009453674741e-02
3.971999999999999886e+01,2.698303304547777781e-02
3.975999999999999801e+01,2.669711509793848414e-02
3.979999999999999716e+01,2.807507254463728619e-02
3.984000000000000341e+01,2.321227029457455585e-02
3.988000000000000256e+01,2.458971035687184878e-02
3.992000000000000171e+01,2.482279940328778467e-02
3.996000000000000085e+01,1.923116127192354974e-02
4.000000000000000000e+01,2.653629912499904167e-02
4.003999999999999915e+01,2.656059227042132515e-02
4.007999999999999829e+01,3.084896754434716948e-02
4.011999999999999744e+01,2.255207153633606576e-02
4.015999999999999659e+01,2.819203384998083747e-02
4.020000000000000284e+01,2.301486628091641701e-02
4.024000000000000199e+01,2.501401352350120927e-02
4.028000000000000114e+01,3.252534163983394899e-02
4.032000000000000028e+01,2.963557239243880953e-02
4.035999999999999943e+01,3.423414212312265309e-02
4.039999999999999858e+01,3.519215681178501642e-02
4.043999999999999773e+01,3.334168298176398010e-02
4.047999999999999687e+01,3.221900432274018428e-02
4.052000000000000313e+01,2.558361938454022100e-02
4.056000000000000227e+01,2.633256358649227816e-02
4.060000000000000142e+01,2.229685938297951489e-02
4.064000000000000057e+01,3.313408510918665340e-02
4.067999999999999972e+01,2.826578481785672892e-02
4.071999999999999886e+01,2.776557025438104731e-02
4.075999999999999801e+01,2.778513207727389966e-02
4.079999999999999716e+01,1.948376002257087847e-02
4.084000000000000341e+01,2.335109924586983854e-02
4.088000000000000256e+01,2.388990491990145015e-02
4.092000000000000171e+01,2.068414333738415392e-02
4.096000000000000085e+01,2.382262439875184462e-02
4.100000000000000000e+01,2.592075477576307949e-02
4.103999999999999915e+01,1.720174903148874446e-02
4.107999999999999829e+01,1.784322726387172625e-02
4.111999999999999744e+01,2.586903047735582620e-02
4.115999999999999659e+01,2.328571338343246935e-02
4.120000000000000284e+01,1.716584365853798810e-02
4.124000000000000199e+01,1.936637319648417191e-02
4.128000000000000114e+01,1.813435786186081214e-02
4.132000000000000028e+01,1.648603958159030117e-02
4.135999999999999943e+01,1.650158510963037686e-02
4.139999999999999858e+01,1.953310273207730513e-02
4.143999999999999773e+01,2.038017452427404869e-02
4.147999999999999687e+01,1.561052455494150830e-02
4.152000000000000313e+01,1.510494601941025222e-02
4.156000000000000227e+01,1.636723815936589818e-02
4.160000000000000142e+01,2.095752596600802126e-02
4.164000000000000057e+01,1.982708247026889956e-02
4.167999999999999972e+01,1.588814124651940357e-02
4.171999999999999886e+01,2.203773771408766569e-02
4.175999999999999801e+01,2.017841823191348499e-02
4.179999999999999716e+01,1.519857507284878492e-02
4.184000000000000341e+01,1.822710166284392114e-02
4.188000000000000256e+01,9.814435777667284561e-03
4.192000000000000171e+01,2.542742534035275989e-02
4.196000000000000085e+01,1.639016105965820924e-02
4.200000000000000000e+01,2.721821753061002408e-02
4.203999999999999915e+01,1.766036201864894933e-02
4.207999999999999829e+01,1.070244014061203647e-02
4.211999999999999744e+01,1.809739543775949755e-02
4.215999999999999659e+01,1.748343181441382871e-02
4.220000000000000284e+01,1.957340928631882623e-02
4.224000000000000199e+01,1.864686816605925015e-02
4.228000000000000114e+01,1.522384991931827539e-02
4.232000000000000028e+01,2.646573242004117768e-02
4.235999999999999943e+01,2.158604301586789648e-02
4.239999999999999858e+01,2.159446862515434010e-02
4.243999999999999773e+01,2.077054956048532408e-02
4.247999999999999687e+01,1.776217694161448535e-02
4.252000000000000313e+01,2.120204373325277475e-02
4.256000000000000227e+01,2.100133944081617604e-02
4.260000000000000142e+01,1.820014729274603213e-02
4.264000000000000057e+01,2.538347765071552464e-02
4.267999999999999972e+01,1.623721702208499526e-02
4.271999999999999886e+01,2.071577064465137882e-02
4.275999999999999801e+01,2.280185192838721231e-02
4.279999999999999716e+01,2.010326846752973767e-02
4.284000000000000341e+01,1.979659629106696531e-02
4.288000000000000256e+01,2.323394368509515764e-02
4.292000000000000171e+01,2.552691778261220734e-02
4.296000000000000085e+01,2.553142640847505182e-02
4.300000000000000000e+01,3.021602888656838709e-02
4.303999999999999915e+01,2.533158062024266910e-02
4.307999999999999829e+01,3.199177688040547030e-02
4.311999999999999744e+01,3.293123084640973280e-02
4.315999999999999659e+01,3.407841831662378890e-02
4.320000000000000284e+01,2.773672090515129016e-02
4.324000000000000199e+01,3.429177541503838911e-02
4.328000000000000114e+01,3.887038713432566794e-02
4.332000000000000028e+01,4.001643883021514803e-02
4.335999999999999943e+01,4.553055664700463023e-02
4.339999999999999858e+01,4.480388832735188176e-02
4.343999999999999773e+01,4.189275932369584260e-02
4.347999999999999687e+01,4.532585424819574743e-02
4.352000000000000313e+01,5.250296398998556546e-02
4.356000000000000227e+01,5.520742840041082539e-02
4.360000000000000142e+01,7.736116826927336154e-02
4.364000000000000057e+01,7.455261675994828696e-02
4.367999999999999972e+01,7.996043803933339245e-02
4.371999999999999886e+01,1.071057176420666529e-01
4.375999999999999801e+01,1.161532562437952859e-01
4.379999999999999716e+01,1.449620938762407885e-01
4.384000000000000341e+01,1.801151527631666693e-01
4.388000000000000256e+01,2.059071713722004648e-01
4.392000000000000171e+01,2.357552268854284927e-01
4.396000000000000085e+01,2.749637449859091975e-01
4.400000000000000000e+01,2.948264200723152983e-01
4.403999999999999915e+01,3.239455487992723426e-01
4.407999999999999829e+01,3.334068088603497348e-01
4.411999999999999744e+01,3.353791772070141008e-01
4.415999999999999659e+01,3.211259519278527041e-01
4.420000000000000284e+01,2.856547318033119121e-01
4.424000000000000199e+01,2.643283564038736433e-01
4.428000000000000114e+01,2.386333386782714394e-01
4.432000000000000028e+01,2.026412022339865449e-01
4.435999999999999943e+01,1.662327402663497655e-01
4.439999999999999858e+01,1.309680777665604978e-01
4.443999999999999773e+01,1.202490937616625399e-01
4.447999999999999687e+01,8.664797919103343904e-02
4.452000000000000313e+01,8.768135271865440394e-02
4.456000000000000227e+01,6.250432780474164673e-02
4.460000000000000142e+01,6.104091337700680298e-02
4.464000000000000057e+01,5.344071195605437641e-02
4.467999999999999972e+01,4.573620769280446752e-02
4.471999999999999886e+01,4.770418543003594747e-02
4.475999999999999801e+01,3.947904953331081435e-02
4.479999999999999716e+01,3.593399412043835756e-02
4.484000000000000341e+01,3.675699383668854653e-02
4.488000000000000256e+01,3.009109619409952585e-02
4.492000000000000171e+01,2.748122802882813076e-02
4.496000000000000085e+01,2.923941410145419403e-02
4.500000000000000000e+01,2.777304437863306261e-02
4.503999999999999915e+01,2.412220208880605510e-02
4.507999999999999829e+01,2.296726279972183954e-02
4.511999999999999744e+01,1.900380023417174921e-02
4.515999999999999659e+01,1.764024842776595881e-02
4.520000000000000284e+01,2.490909153142446125e-02
4.524000000000000199e+01,2.188080908367393690e-02
4.528000000000000114e+01,1.906024439515481908e-02
4.532000000000000028e+01,2.019169786065108663e-02
4.535999999999999943e+01,1.591441745344010852e-02
4.539999999999999858e+01,1.486109613823289113e-02
4.543999999999999773e+01,1.661570020774784731e-02
4.547999999999999687e+01,1.576979503222461498e-02
4.552000000000000313e+01,1.357148054520786878e-02
4.556000000000000227e+01,1.969353323692491289e-02
4.560000000000000142e+01,1.895073333776143079e-02
4.564000000000000057e+01,9.678946909816112110e-03
4.567999999999999972e+01,9.559593589792542839e-03
4.571999999999999886e+01,1.464035568365335861e-02
4.575999999999999801e+01,1.462440599171123401e-02
4.579999999999999716e+01,1.668832054295420891e-02
4.584000000000000341e+01,1.552767306017362701e-02
4.588000000000000256e+01,1.800701451470259826e-02
4.592000000000000171e+01,1.486960123237021994e-02
4.596000000000000085e+01,1.256395077430297845e-02
4.600000000000000000e+01,1.525039694549140679e-02
4.603999999999999915e+01,1.408822948197112346e-02
4.607999999999999829e+01,1.729410793824658066e-02
4.611999999999999744e+01,1.706740557586972767e-02
4.615999999999999659e+01,1.403217221307537753e-02
4.620000000000000284e+01,1.349283353292203037e-02
4.624000000000000199e+01,1.274517207199202598e-02
4.628000000000000114e+01,9.501003777074260026e-03
4.632000000000000028e+01,8.336695863365762432e-03
4.635999999999999943e+01,1.382861554606354404e-02
4.639999999999999858e+01,9.751459530036938467e-03
4.643999999999999773e+01,1.503474768260910227e-02
4.647999999999999687e+01,9.500859311687094924e-03
4.652000000000000313e+01,9.479105470803108127e-03
4.656000000000000227e+01,1.611357774095009340e-02
4.660000000000000142e+01,1.661124846120145410e-02
4.664000000000000057e+01,9.411992046207514478e-03
4.667999999999999972e+01,1.386136177349802517e-02
4.671999999999999886e+01,8.117603310153802959e-03
4.675999999999999801e+01,1.246234510666932756e-02
4.679999999999999716e+01,1.223040915618848340e-02
4.684000000000000341e+01,1.584647171831891563e-02
4.688000000000000256e+01,1.322172229847664963e-02
4.692000000000000171e+01,1.142872857309800393e-02
4.696000000000000085e+01,1.483584105227677558e-02
4.700000000000000000e+01,1.106606548529288393e-02
4.703999999999999915e+01,1.239238717616464140e-02
4.707999999999999829e+01,2.016691441098828266e-02
4.711999999999999744e+01,1.067574251091508650e-02
4.715999999999999659e+01,1.740956070049770252e-02
4.720000000000000284e+01,1.145404667330548153e-02
4.724000000000000199e+01,1.829124650741487459e-02
4.728000000000000114e+01,1.046295483211813655e-02
4.732000000000000028e+01,1.157906737956226201e-02
4.735999999999999943e+01,1.477503258426396231e-02
4.739999999999999858e+01,1.412237405370483055e-02
4.743999999999999773e+01,1.336539218266874843e-02
4.747999999999999687e+01,8.967802687324945635e-03
4.752000000000000313e+01,1.164246558341719764e-02
4.756000000000000227e+01,1.088453696615486292e-02
4.760000000000000142e+01,1.543071815280057900e-02
4.764000000000000057e+01,1.051182278394653148e-02
4.767999999999999972e+01,1.276918697077990619e-02
4.771999999999999886e+01,1.700239278864368320e-02
4.775999999999999801e+01,1.031440422405957395e-02
4.779999999999999716e+01,1.350689149028030771e-02
4.784000000000000341e+01,1.129062646513987779e-02
4.788000000000000256e+01,1.843479491389596672e-02
4.792000000000000171e+01,1.486578449700719923e-02
4.796000000000000085e+01,1.327261392869844188e-02
4.800000000000000000e+01,1.490338314251430513e-02
4.803999999999999915e+01,1.299754892552321996e-02
4.807999999999999829e+01,1.597978753733284712e-02
4.811999999999999744e+01,1.365728013080751320e-02
4.815999999999999659e+01,2.059119576610159499e-02
4.820000000000000284e+01,1.202754623885001276e-02
4.824000000000000199e+01,1.074416046078657816e-02
4.828000000000000114e+01,1.809314671800753629e-02
4.832000000000000028e+01,1.836924347814037489e-02
4.835999999999999943e+01,1.074038362369688325e-02
4.839999999999999858e+01,1.028777797758968771e-02
4.843999999999999773e+01,1.888357658867316838e-02
4.847999999999999687e+01,1.364594159851174708e-02
4.852000000000000313e+01,9.032033714708153846e-03
4.856000000000000227e+01,1.700281318362579716e-02
4.860000000000000142e+01,1.114015816007331121e-02
4.864000000000000057e+01,1.411788920323295282e-02
4.867999999999999972e+01,1.397504547259116083e-02
4.871999999999999886e+01,1.154369349148599670e-02
4.875999999999999801e+01,1.140020047511449211e-02
4.879999999999999716e+01,1.344055777384994994e-02
4.884000000000000341e+01,1.880885696868533907e-02
4.888000000000000256e+01,1.856037944310464857e-02
4.892000000000000171e+01,1.935165946333770523e-02
4.896000000000000085e+01,1.452616216900455212e-02
4.900000000000000000e+01,5.748020903856366874e-03
4.903999999999999915e+01,1.215477224031959527e-02
4.907999999999999829e+01,1.408883724905946738e-02
4.911999999999999744e+01,1.300633256872385686e-02
4.915999999999999659e+01,1.743594281147207298e-02
4.920000000000000284e+01,1.396059020106765747e-02
4.924000000000000199e+01,1.308511804815106969e-02
4.928000000000000114e+01,1.730572651688654096e-02
4.932000000000000028e+01,1.362137124124420534e-02
4.935999999999999943e+01,1.596917116606857978e-02
4.939999999999999858e+01,1.446833250187889823e-02
4.943999999999999773e+01,1.608741457255991048e-02
4.947999999999999687e+01,2.228253401675951359e-02
4.952000000000000313e+01,1.682838753934697007e-02
4.956000000000000227e+01,1.584626948875122662e-02
4.960000000000000142e+01,2.412056378527262235e-02
4.964000000000000057e+01,1.492112352606491874e-02
4.967999999999999972e+01,1.029771915500045029e-02
4.971999999999999886e+01,2.408346126437215656e-02
4.975999999999999801e+01,1.737922570279202411e-02
4.979999999999999716e+01,1.764321724681765235e-02
4.984000000000000341e+01,1.478662540186500944e-02
4.988000000000000256e+01,2.399466934339830951e-02
4.992000000000000171e+01,2.051336086705243464e-02
4.996000000000000085e+01,1.963192750084324228e-02
5.000000000000000000e+01,1.531788449970060070e-02
5.003999999999999915e+01,1.734801670640350943e-02
5.007999999999999829e+01,1.407338833809334937e-02
5.011999999999999744e+01,1.443871741713598743e-02
5.015999999999999659e+01,1.573978648011377379e-02
5.020000000000000284e+01,1.506436135850573732e-02
5.024000000000000199e+01,1.241244175523683810e-02
5.028000000000000114e+01,1.880891274370570174e-02
5.032000000000000028e+01,1.886053784919472856e-02
5.035999999999999943e+01,1.017512466594116226e-02
5.039999999999999858e+01,1.085012624085509615e-02
5.043999999999999773e+01,1.776529170031228982e-02
5.047999999999999687e+01,1.396725928132058585e-02
5.052000000000000313e+01,1.526529827465398538e-02
5.056000000000000227e+01,1.375477358931290195e-02
5.060000000000000142e+01,1.619622784407875188e-02
5.064000000000000057e+01,1.655717629388147455e-02
5.067999999999999972e+01,1.577369381461070016e-02
5.071999999999999886e+01,1.238966317346848652e-02
5.075999999999999801e+01,1.690992768109523745e-02
5.079999999999999716e+01,1.477331768318647376e-02
5.084000000000000341e+01,1.045219204238759941e-02
5.088000000000000256e+01,1.819569476119807863e-02
5.092000000000000171e+01,1.533000468628556781e-02
5.096000000000000085e+01,1.901649969159542597e-02
5.100000000000000000e+01,2.041446951316326294e-02
5.103999999999999915e+01,1.650767162991652673e-02
5.107999999999999829e+01,1.520074053870469101e-02
5.111999999999999744e+01,1.607764253224610793e-02
5.115999999999999659e+01,2.319470306297967063e-02
5.120000000000000284e+01,1.408611768267629960e-02
5.124000000000000199e+01,1.142570695051819789e-02
5.128000000000000114e+01,1.552549562708524858e-02
5.132000000000000028e+01,1.837684026882615770e-02
5.135999999999999943e+01,1.758754846997820365e-02
5.139999999999999858e+01,1.950212943911626071e-02
5.143999999999999773e+01,1.652797314289564806e-02
5.147999999999999687e+01,1.417752196947816810e-02
5.152000000000000313e+01,1.515499278813133878e-02
5.156000000000000227e+01,1.165975886040719611e-02
5.160000000000000142e+01,1.752493077859867965e-02
5.164000000000000057e+01,1.558913007461025686e-02
5.167999999999999972e+01,1.354897454018816685e-02
5.171999999999999886e+01,1.234053905122210748e-02
5.175999999999999801e+01,1.695622423311565763e-02
5.179999999999999716e+01,1.803527805914627302e-02
5.184000000000000341e+01,2.067410950726919147e-02
5.188000000000000256e+01,1.197568256400611576e-02
5.192000000000000171e+01,1.960621871101793021e-02
5.196000000000000085e+01,1.267523694339281470e-02
5.200000000000000000e+01,2.134515920403103062e-02
5.203999999999999915e+01,1.150124555891989322e-02
5.207999999999999829e+01,1.694621029026700809e-02
5.211999999999999744e+01,1.833449952639249966e-02
5.215999999999999659e+01,1.837033013656387895e-02
5.220000000000000284e+01,1.674167676605117783e-02
5.224000000000000199e+01,1.781688992494817950e-02
5.228000000000000114e+01,2.201200272638637045e-02
5.232000000000000028e+01,1.382977034309646608e-02
5.235999999999999943e+01,2.312058966032379259e-02
5.239999999999999858e+01,1.587372909660737103e-02
5.243999999999999773e+01,1.632313449940397607e-02
5.247999999999999687e+01,1.968442135426317491e-02
5.252000000000000313e+01,2.283733878756074795e-02
5.256000000000000227e+01,2.141353569505275237e-02
5.260000000000000142e+01,2.175752128531413185e-02
5.264000000000000057e+01,1.346846000610594368e-02
5.267999999999999972e+01,1.693198866047432305e-02
5.271999999999999886e+01,1.280255337673938225e-02
5.275999999999999801e+01,1.200103087574814695e-02
5.279999999999999716e+01,2.024788025076569228e-02
5.284000000000000341e+01,1.871758939287029508e-02
5.288000000000000256e+01,1.729095149739258777e-02
5.292000000000000171e+01,1.503189109429280308e-02
5.296000000000000085e+01,1.266846635435728806e-02
5.300000000000000000e+01,2.049750388312325880e-02
5.303999999999999915e+01,1.802935793084280841e-02
5.307999999999999829e+01,1.587288016070799446e-02
5.311999999999999744e+01,2.266076353742982330e-02
5.315999999999999659e+01,2.029555441994805587e-02
5.320000000000000284e+01,1.408167849132117670e-02
5.324000000000000199e+01,1.577207929280935797e-02
5.328000000000000114e+01,1.538195468238019552e-02
5.332000000000000028e+01,1.062312060682257982e-02
5.335999999999999943e+01,1.366455401760315221e-02
5.339999999999999858e+01,1.670562817627396779e-02
5.343999999999999773e+01,1.735415067707228240e-02
5.347999999999999687e+01,1.893838850457543743e-02
5.352000000000000313e+01,2.405855017549935609e-02
5.356000000000000227e+01,1.742540756767807855e-02
5.360000000000000142e+01,1.963261418926102314e-02
5.364000000000000057e+01,1.539094191808219360e-02
5.367999999999999972e+01,1.790945123112468867e-02
5.371999999999999886e+01,1.751536504401106017e-02
5.375999999999999801e+01,1.628885011069895750e-02
5.379999999999999716e+01,2.036639893466004464e-02
5.384000000000000341e+01,1.352270822076360839e-02
5.388000000000000256e+01,1.427126442612625286e-02
5.392000000000000171e+01,1.647557445312623076e-02
5.396000000000000085e+01,2.429597210675411151e-02
5.400000000000000000e+01,2.223521255974054284e-02
5.403999999999999915e+01,1.694983007831537755e-02
5.407999999999999829e+01,1.748855103739618139e-02
5.411999999999999744e+01,2.041909950570375970e-02
5.415999999999999659e+01,1.804485709734178836e-02
5.420000000000000284e+01,1.879050007191793159e-02
5.424000000000000199e+01,1.443936828077772155e-02
5.428000000000000114e+01,1.768048043814594850e-02
5.432000000000000028e+01,1.540878382544108582e-02
5.435999999999999943e+01,1.750507163799378332e-02
5.439999999999999858e+01,1.159234962508392565e-02
5.443999999999999773e+01,1.462397895555359907e-02
5.447999999999999687e+01,2.077549158943594113e-02
5.452000000000000313e+01,2.547051971738382645e-02
5.456000000000000227e+01,2.330062870963692592e-02
5.460000000000000142e+01,1.738606884566935504e-02
5.464000000000000057e+01,1.583949132743389318e-02
5.467999999999999972e+01,2.001300444102674381e-02
5.471999999999999886e+01,2.012982274951885531e-02
5.475999999999999801e+01,2.201441369872689235e-02
5.479999999999999716e+01,1.724210043489304844e-02
5.484000000000000341e+01,2.214219401154956038e-02
5.488000000000000256e+01,1.726513220446493010e-02
5.492000000000000171e+01,1.477989196510578508e-02
5.496000000000000085e+01,1.520651475915528288e-02
5.500000000000000000e+01,2.135322580843261597e-02
5.503999999999999915e+01,2.302720626580213523e-02
5.507999999999999829e+01,1.742023031529447985e-02
5.511999999999999744e+01,1.774135843389273645e-02
5.515999999999999659e+01,1.899818940204322376e-02
5.520000000000000284e+01,1.755043058336345010e-02
5.524000000000000199e+01,1.828647425070539789e-02
5.528000000000000114e+01,1.610991083196372520e-02
5.532000000000000028e+01,1.351694049130266508e-02
5.535999999999999943e+01,2.153244830212087957e-02
5.539999999999999858e+01,1.873071334170572574e-02
5.543999999999999773e+01,1.665666244621405792e-02
5.547999999999999687e+01,1.239806144712487547e-02
5.552000000000000313e+01,1.999603764183439589e-02
5.556000000000000227e+01,1.511263623618407277e-02
5.560000000000000142e+01,1.865353579597823705e-02
5.564000000000000057e+01,1.709765019242875939e-02
5.567999999999999972e+01,1.366923805756142807e-02
5.571999999999999886e+01,1.606491718312240066e-02
5.575999999999999801e+01,1.929228634955795774e-02
5.579999999999999716e+01,1.607076058117832759e-02
5.584000000000000341e+01,1.992142541262153371e-02
5.588000000000000256e+01,1.472298590130842466e-02
5.592000000000000171e+01,1.774082827373601665e-02
5.596000000000000085e+01,1.628593322152933551e-02
5.600000000000000000e+01,1.826293524153780809e-02
5.603999999999999915e+01,1.899145817186267612e-02
5.607999999999999829e+01,1.784745160011902768e-02
5.611999999999999744e+01,2.013534120936535596e-02
5.615999999999999659e+01,1.971863390197991714e-02
5.620000000000000284e+01,1.940555489978196269e-02
5.624000000000000199e+01,1.534779486128566572e-02
5.628000000000000114e+01,1.586602169354716860e-02
5.632000000000000028e+01,1.399167547853156363e-02
5.635999999999999943e+01,1.866947423860476976e-02
5.639999999999999858e+01,1.169795598015484737e-02
5.643999999999999773e+01,1.949524195422307205e-02
5.647999999999999687e+01,1.668329384113447292e-02
5.652000000000000313e+01,2.063150621993768002e-02
5.656000000000000227e+01,1.126626675109130941e-02
5.660000000000000142e+01,1.292552963460384674e-02
5.664000000000000057e+01,1.999284353561167280e-02
5.667999999999999972e+01,2.227538960697914364e-02
5.671999999999999886e+01,1.415671651384266955e-02
5.675999999999999801e+01,2.070283692407220294e-02
5.679999999999999716e+01,1.747178769095749165e-02
5.684000000000000341e+01,1.808866270168818860e-02
5.688000000000000256e+01,1.579291874333272477e-02
5.692000000000000171e+01,1.661703996681105494e-02
5.696000000000000085e+01,1.473655833215633919e-02
5.700000000000000000e+01,1.285569070863617352e-02
5.703999999999999915e+01,2.189531381709752117e-02
5.707999999999999829e+01,1.772548956848511020e-02
5.711999999999999744e+01,1.802763759950249192e-02
5.715999999999999659e+01,1.292096412066896099e-02
5.720000000000000284e+01,1.623857972427734941e-02
5.724000000000000199e+01,1.841171567850183322e-02
5.728000000000000114e+01,2.276863896791981798e-02
5.732000000000000028e+01,2.026062262346362691e-02
5.735999999999999943e+01,2.004040137260245172e-02
5.739999999999999858e+01,1.846768257895384929e-02
5.743999999999999773e+01,1.918275828475011005e-02
5.747999999999999687e+01,1.937740267402193739e-02
5.752000000000000313e+01,2.279591614155326851e-02
5.756000000000000227e+01,1.882944643000184284e-02
5.760000000000000142e+01,1.902292037552453033e-02
5.764000000000000057e+01,2.129617063001351673e-02
5.767999999999999972e+01,1.712051198715934183e-02
5.771999999999999886e+01,1.585669587953439374e-02
5.775999999999999801e+01,1.937687235599315147e-02
5.779999999999999716e+01,1.644813904388354661e-02
5.784000000000000341e+01,1.362302185688376091e-02
5.788000000000000256e+01,1.589392142039738887e-02
5.792000000000000171e+01,2.003657850824858838e-02
5.796000000000000085e+01,1.367399886971723370e-02
5.800000000000000000e+01,1.261545179557740579e-02
5.803999999999999915e+01,2.018920427040643215e-02
5.807999999999999829e+01,1.569759383935318692e-02
5.811999999999999744e+01,1.578195661360478480e-02
5.815999999999999659e+01,1.929820041801812505e-02
5.820000000000000284e+01,1.553346464269937145e-02
5.824000000000000199e+01,1.332845895746272852e-02
5.828000000000000114e+01,1.486735846881755488e-02
5.832000000000000028e+01,1.869404594396588057e-02
5.835999999999999943e+01,1.097541019646463417e-02
5.839999999999999858e+01,1.781754741970010408e-02
5.843999999999999773e+01,2.237110420323175711e-02
5.847999999999999687e+01,1.506731181523375714e-02
5.852000000000000313e+01,2.294834162205711819e-02
5.856000000000000227e+01,1.699586296471954083e-02
5.860000000000000142e+01,1.478728712737296773e-02
5.864000000000000057e+01,1.923484768438816356e-02
5.867999999999999972e+01,1.608940003911556518e-02
5.871999999999999886e+01,1.647983761750549878e-02
5.875999999999999801e+01,1.406165061683288531e-02
5.879999999999999716e+01,2.069179093090950036e-02
5.884000000000000341e+01,1.577660445743577985e-02
5.888000000000000256e+01,1.325321014125632225e-02
5.892000000000000171e+01,1.655388331950007064e-02
5.896000000000000085e+01,1.673390537565105224e-02
5.900000000000000000e+01,1.764158505704488053e-02
5.903999999999999915e+01,1.948493877170969640e-02
5.907999999999999829e+01,1.789561541540164724e-02
5.911999999999999744e+01,1.797002396607599861e-02
5.915999999999999659e+01,1.565183837714370987e-02
5.920000000000000284e+01,1.530940915869857116e-02
5.924000000000000199e+01,1.423851884732295521e-02
5.928000000000000114e+01,1.410330078676793469e-02
5.932000000000000028e+01,1.760797184630110909e-02
5.935999999999999943e+01,2.423248996608922193e-02
5.939999999999999858e+01,1.754353514589827856e-02
5.943999999999999773e+01,2.021492794491044562e-02
5.947999999999999687e+01,1.654140683075322818e-02
5.952000000000000313e+01,1.328351442220810502e-02
5.956000000000000227e+01,1.855390192122776533e-02
5.960000000000000142e+01,1.685532450054303549e-02
5.964000000000000057e+01,1.630043336210667757e-02
5.967999999999999972e+01,1.532910292056898285e-02
5.971999999999999886e+01,1.726960016050735694e-02
5.975999999999999801e+01,1.764956562512630042e-02
5.979999999999999716e+01,2.094135817707120858e-02
5.984000000000000341e+01,1.934435107789406541e-02
5.988000000000000256e+01,1.192246885755512964e-02
5.992000000000000171e+01,1.833328985123900898e-02
5.996000000000000085e+01,1.559096784795848539e-02
