2.003999999999999915e+01,2.164853417250906659e-02
2.007999999999999829e+01,1.289542013759530439e-02
2.012000000000000099e+01,0.000000000000000000e+00
2.016000000000000014e+01,1.875252324109571295e-02
2.019999999999999929e+01,2.744699979609308699e-02
2.023999999999999844e+01,2.549185676400239978e-02
2.028000000000000114e+01,2.176071080672257671e-02
2.032000000000000028e+01,2.128194532622878707e-02
2.035999999999999943e+01,1.311143633712197332e-02
2.039999999999999858e+01,1.913743615027269432e-02
2.044000000000000128e+01,2.841582078028182662e-02
2.048000000000000043e+01,2.556565863414634807e-02
2.051999999999999957e+01,1.443218441848042634e-02
2.055999999999999872e+01,2.903092457160570336e-02
2.060000000000000142e+01,2.440223011649215665e-02
2.064000000000000057e+01,1.415231249648290709e-02
2.067999999999999972e+01,3.318405967142042112e-02
2.071999999999999886e+01,3.919990722883710116e-02
2.076000000000000156e+01,2.953777205086147162e-02
2.080000000000000071e+01,2.786062949140555994e-02
2.083999999999999986e+01,3.268954512795874817e-02
2.087999999999999901e+01,3.367196932280264177e-02
2.092000000000000171e+01,2.785003178422538681e-02
2.096000000000000085e+01,5.190134351511065808e-02
2.100000000000000000e+01,4.223166358649210056e-02
2.103999999999999915e+01,1.777137257083742303e-02
2.107999999999999829e+01,3.797369385673100839e-02
2.112000000000000099e+01,3.066655847383862807e-02
2.116000000000000014e+01,3.696438503264817127e-02
2.119999999999999929e+01,4.000730607095506070e-02
2.123999999999999844e+01,3.979532303545023353e-02
2.128000000000000114e+01,4.845571150027524338e-02
2.132000000000000028e+01,4.291707335258043016e-02
2.135999999999999943e+01,4.210978916483321816e-02
2.139999999999999858e+01,3.301922473475286252e-02
2.144000000000000128e+01,4.699882193609837555e-02
2.148000000000000043e+01,3.790578309647905930e-02
2.151999999999999957e+01,3.620618856813290209e-02
2.155999999999999872e+01,3.628008349478582112e-02
2.160000000000000142e+01,3.280330019400385516e-02
2.164000000000000057e+01,4.026941163065067553e-02
2.167999999999999972e+01,3.117021208427232445e-02
2.171999999999999886e+01,4.247909973159296609e-02
2.176000000000000156e+01,5.082888928592223937e-02
2.180000000000000071e+01,5.444485915090941514e-02
2.183999999999999986e+01,4.829862881796069540e-02
2.187999999999999901e+01,4.303853799201646374e-02
2.192000000000000171e+01,3.600250355520510925e-02
2.196000000000000085e+01,4.848720347071659720e-02
2.200000000000000000e+01,5.180128332273590402e-02
2.203999999999999915e+01,3.588798064738465965e-02
2.207999999999999829e+01,5.310162666108087653e-02
2.212000000000000099e+01,4.280585217326078606e-02
2.216000000000000014e+01,5.232660644505764125e-02
2.219999999999999929e+01,5.829670418978127183e-02
2.223999999999999844e+01,4.415206511906751702e-02
2.228000000000000114e+01,6.313438197085514958e-02
2.232000000000000028e+01,5.667779577146224435e-02
2.235999999999999943e+01,5.879783295920997660e-02
2.239999999999999858e+01,5.884615672253983715e-02
2.244000000000000128e+01,5.504804546510091989e-02
2.248000000000000043e+01,5.006558519814632152e-02
2.251999999999999957e+01,4.094090562996428179e-02
2.255999999999999872e+01,8.032412515081274740e-02
2.260000000000000142e+01,5.492875762656088817e-02
2.264000000000000057e+01,6.206878469734680021e-02
2.267999999999999972e+01,6.536238542750860692e-02
2.271999999999999886e+01,6.214747669917464190e-02
2.276000000000000156e+01,6.218503669576457699e-02
2.280000000000000071e+01,6.784136425469136644e-02
2.283999999999999986e+01,7.793331212728449309e-02
2.287999999999999901e+01,6.465688741924989491e-02
2.292000000000000171e+01,7.592961373940147751e-02
2.296000000000000085e+01,7.832754189047982929e-02
2.300000000000000000e+01,9.018947809727238807e-02
2.303999999999999915e+01,9.228925750685258722e-02
2.307999999999999829e+01,8.285215852286954841e-02
2.312000000000000099e+01,1.065420458418942645e-01
2.316000000000000014e+01,1.050888476640852026e-01
2.319999999999999929e+01,1.086628571678401323e-01
2.323999999999999844e+01,1.122356938445653596e-01
2.328000000000000114e+01,1.033842978396605494e-01
2.332000000000000028e+01,1.270683210235367955e-01
2.335999999999999943e+01,1.220598198579500304e-01
2.339999999999999858e+01,1.501783151222063628e-01
2.344000000000000128e+01,1.575905426240684359e-01
2.348000000000000043e+01,1.723962853250521066e-01
2.351999999999999957e+01,1.724115066338282876e-01
2.355999999999999872e+01,2.141315582005784979e-01
2.360000000000000142e+01,2.274548812718507340e-01
2.364000000000000057e+01,2.307202820724318926e-01
2.367999999999999972e+01,2.437455026963107896e-01
2.371999999999999886e+01,2.381349759015126966e-01
2.376000000000000156e+01,2.431716333449146505e-01
2.380000000000000071e+01,2.171494849617299494e-01
2.383999999999999986e+01,2.239585617481468505e-01
2.387999999999999901e+01,2.082866636427262996e-01
2.392000000000000171e+01,2.076987631698730408e-01
2.396000000000000085e+01,1.716152550495923246e-01
2.400000000000000000e+01,1.730955726671204453e-01
2.403999999999999915e+01,1.609685363947823966e-01
2.407999999999999829e+01,1.491361448497612874e-01
2.412000000000000099e+01,1.559372042568445693e-01
2.416000000000000014e+01,1.506098499833352644e-01
2.419999999999999929e+01,1.568170573831453307e-01
2.423999999999999844e+01,1.597694692109524750e-01
2.428000000000000114e+01,1.449735153952742550e-01
2.432000000000000028e+01,1.221901741195304120e-01
2.435999999999999943e+01,1.325338639942086338e-01
2.439999999999999858e+01,1.041283032228149524e-01
2.444000000000000128e+01,1.265970069256407982e-01
2.448000000000000043e+01,1.014428476605683527e-01
2.451999999999999957e+01,9.344321794530686953e-02
2.455999999999999872e+01,9.609080140206105458e-02
2.460000000000000142e+01,9.252573056862657686e-02
2.464000000000000057e+01,8.215643254401372442e-02
2.467999999999999972e+01,7.592703420700304406e-02
2.471999999999999886e+01,8.241536504565316612e-02
2.476000000000000156e+01,8.771942933616223848e-02
2.480000000000000071e+01,8.030352874545074182e-02
2.483999999999999986e+01,7.406966189070193773e-02
2.487999999999999901e+01,7.049676608780795772e-02
2.492000000000000171e+01,6.307752495897374356e-02
2.496000000000000085e+01,7.015074472898646940e-02
2.500000000000000000e+01,6.982817598035741258e-02
2.503999999999999915e+01,7.601181733026972365e-02
2.507999999999999829e+01,6.148925023210977808e-02
2.512000000000000099e+01,6.855804199172629843e-02
2.516000000000000014e+01,5.906164863041592911e-02
2.519999999999999929e+01,5.991670441433346456e-02
2.523999999999999844e+01,7.703895426697510151e-02
2.528000000000000114e+01,7.286342855731783863e-02
2.532000000000000028e+01,5.389744655653840033e-02
2.535999999999999943e+01,5.622704491983986780e-02
2.539999999999999858e+01,6.328814335885814268e-02
2.544000000000000128e+01,6.117874614979158798e-02
2.548000000000000043e+01,4.930728039165039461e-02
2.551999999999999957e+01,6.346399556579761236e-02
2.555999999999999872e+01,5.484400943528012357e-02
2.560000000000000142e+01,5.273025365697491668e-02
2.564000000000000057e+01,5.830587837293395997e-02
2.567999999999999972e+01,5.678152633783466879e-02
2.571999999999999886e+01,5.850975008277717326e-02
2.576000000000000156e+01,6.112425366373015062e-02
2.580000000000000071e+01,6.462503852738431254e-02
2.583999999999999986e+01,5.333538590689644587e-02
2.587999999999999901e+01,5.032669680849798099e-02
2.592000000000000171e+01,4.554220876831071435e-02
2.596000000000000085e+01,4.548924105751128016e-02
2.600000000000000000e+01,4.809728490590850503e-02
2.603999999999999915e+01,6.519782871380395972e-02
2.607999999999999829e+01,5.064807480880690466e-02
2.612000000000000099e+01,5.502763136429347085e-02
2.616000000000000014e+01,4.550412353068507970e-02
2.619999999999999929e+01,4.219108057581053006e-02
2.623999999999999844e+01,6.875147785358187713e-02
2.628000000000000114e+01,3.792810052781141195e-02
2.632000000000000028e+01,3.845710219726979767e-02
2.635999999999999943e+01,4.726708474910701341e-02
2.639999999999999858e+01,3.892035267975095525e-02
2.644000000000000128e+01,4.654507090600220470e-02
2.648000000000000043e+01,6.274656152854497793e-02
2.651999999999999957e+01,5.735453426236282459e-02
2.655999999999999872e+01,5.403196446136784847e-02
2.660000000000000142e+01,5.366621509377155624e-02
2.664000000000000057e+01,4.353843913113344261e-02
2.667999999999999972e+01,4.228322997208093514e-02
2.671999999999999886e+01,4.339327123881898257e-02
2.676000000000000156e+01,6.047477437469064160e-02
2.680000000000000071e+01,3.407451888449321287e-02
2.683999999999999986e+01,4.878763793323349224e-02
2.687999999999999901e+01,4.368197515650756868e-02
2.692000000000000171e+01,4.567416482047036153e-02
2.696000000000000085e+01,5.121476228572948569e-02
2.700000000000000000e+01,4.048602835167793013e-02
2.703999999999999915e+01,5.046136119503969591e-02
2.707999999999999829e+01,2.937800684045901306e-02
2.712000000000000099e+01,3.757655019804089641e-02
2.716000000000000014e+01,5.050665728573407870e-02
2.719999999999999929e+01,4.006854803540412652e-02
2.723999999999999844e+01,3.731987714696970160e-02
2.728000000000000114e+01,5.083847410848931631e-02
2.732000000000000028e+01,3.862256168133594569e-02
2.735999999999999943e+01,3.971604825911552450e-02
2.739999999999999858e+01,4.879476615939400824e-02
2.744000000000000128e+01,3.864629683555779321e-02
2.748000000000000043e+01,4.269459237824766579e-02
2.751999999999999957e+01,4.526293402062023935e-02
2.755999999999999872e+01,4.368923864480402097e-02
2.760000000000000142e+01,2.407151052699720017e-02
2.764000000000000057e+01,3.935565523129827548e-02
2.767999999999999972e+01,2.860951639330311033e-02
2.771999999999999886e+01,4.182112783870756134e-02
2.776000000000000156e+01,3.965079689344697816e-02
2.780000000000000071e+01,3.333843761014223389e-02
2.783999999999999986e+01,3.441975121525450015e-02
2.787999999999999901e+01,3.342954959258601783e-02
2.792000000000000171e+01,3.657936483947325096e-02
2.796000000000000085e+01,3.203771144899624640e-02
2.800000000000000000e+01,3.370658803833834205e-02
2.803999999999999915e+01,3.359974236050308066e-02
2.807999999999999829e+01,3.201296303602162857e-02
2.812000000000000099e+01,3.604514368375102279e-02
2.816000000000000014e+01,3.504794749213250432e-02
2.819999999999999929e+01,2.192248373569049766e-02
2.823999999999999844e+01,2.861376863586454627e-02
2.828000000000000114e+01,4.388189103341522124e-02
2.832000000000000028e+01,2.247141477747276878e-02
2.835999999999999943e+01,5.223113194528681419e-02
2.839999999999999858e+01,3.643863813778124017e-02
2.844000000000000128e+01,3.780081565578319314e-02
2.848000000000000043e+01,3.117575616956084344e-02
2.851999999999999957e+01,2.573286351485324849e-02
2.855999999999999872e+01,3.330362609196182988e-02
2.860000000000000142e+01,3.407030470027948288e-02
2.864000000000000057e+01,3.720230317554535510e-02
2.867999999999999972e+01,2.791026427243680288e-02
2.871999999999999886e+01,4.020971442927529643e-02
2.876000000000000156e+01,3.831040705807938623e-02
2.880000000000000071e+01,2.842387425618544614e-02
2.883999999999999986e+01,3.214258116062371218e-02
2.887999999999999901e+01,3.526874487375211698e-02
2.892000000000000171e+01,2.774560293169247779e-02
2.896000000000000085e+01,2.258779243010729590e-02
2.900000000000000000e+01,1.624586872960407172e-02
2.903999999999999915e+01,3.031229696721306904e-02
2.907999999999999829e+01,3.905359446552191666e-02
2.912000000000000099e+01,3.418772180369392122e-02
2.916000000000000014e+01,2.725038020819029946e-02
2.919999999999999929e+01,2.504467612402788701e-02
2.923999999999999844e+01,2.786639817173782244e-02
2.928000000000000114e+01,2.743350693048334649e-02
2.932000000000000028e+01,3.232383188832298193e-02
2.935999999999999943e+01,1.976176210624708621e-02
2.939999999999999858e+01,2.317124967489644222e-02
2.944000000000000128e+01,2.687557582742769804e-02
2.948000000000000043e+01,3.264946505357332190e-02
2.951999999999999957e+01,2.659092162953156230e-02
2.955999999999999872e+01,2.378509286784679516e-02
2.960000000000000142e+01,3.192244673505666153e-02
2.964000000000000057e+01,2.793158511831117519e-02
2.967999999999999972e+01,2.068612467950917480e-02
2.971999999999999886e+01,1.639759751598702381e-02
2.976000000000000156e+01,2.867221507108770953e-02
2.980000000000000071e+01,3.503015357964182203e-02
2.983999999999999986e+01,3.428826579297900717e-02
2.987999999999999901e+01,2.082659685482510237e-02
2.992000000000000171e+01,3.694271407102885096e-02
2.996000000000000085e+01,3.087386346623451766e-02
3.000000000000000000e+01,3.131140234963872282e-02
3.003999999999999915e+01,2.464912217127993369e-02
3.007999999999999829e+01,2.064800111457774576e-02
3.012000000000000099e+01,3.498476083975704531e-02
3.016000000000000014e+01,2.891128302043378950e-02
3.019999999999999929e+01,3.052735061812402936e-02
3.023999999999999844e+01,2.356467051830385059e-02
3.028000000000000114e+01,3.316515394408677680e-02
3.032000000000000028e+01,3.152480800117841292e-02
3.035999999999999943e+01,1.598154957170728682e-02
3.039999999999999858e+01,2.587507422311951730e-02
3.044000000000000128e+01,3.014773014887795269e-02
3.048000000000000043e+01,2.879951879567334283e-02
3.051999999999999957e+01,2.183044161019653123e-02
3.055999999999999872e+01,2.432564590499186608e-02
3.060000000000000142e+01,2.800309225922264708e-02
3.064000000000000057e+01,3.404593081494068640e-02
3.067999999999999972e+01,4.482046040955898342e-02
3.071999999999999886e+01,3.252268814878325753e-02
3.076000000000000156e+01,3.797124546926101962e-02
3.080000000000000071e+01,2.951690621677459728e-02
3.083999999999999986e+01,3.466787900515947568e-02
3.087999999999999901e+01,2.384544789707988832e-02
3.092000000000000171e+01,3.076935215701691664e-02
3.096000000000000085e+01,3.562185258436351837e-02
3.100000000000000000e+01,3.751558910428967608e-02
3.103999999999999915e+01,4.236630664029147897e-02
3.107999999999999829e+01,2.946890447024116608e-02
3.112000000000000099e+01,3.431784490166136375e-02
3.116000000000000014e+01,2.644705047569546191e-02
3.119999999999999929e+01,3.809732458762325746e-02
3.123999999999999844e+01,2.992897456338012435e-02
3.128000000000000114e+01,2.885863466912114844e-02
3.132000000000000028e+01,3.843575243762020061e-02
3.135999999999999943e+01,4.298360910203397056e-02
3.139999999999999858e+01,3.333280372000504282e-02
3.144000000000000128e+01,2.663899382095960208e-02
3.148000000000000043e+01,2.911371150223404647e-02
3.151999999999999957e+01,3.158755582147090846e-02
3.155999999999999872e+01,3.346895387768041019e-02
3.160000000000000142e+01,3.298318407451175660e-02
3.164000000000000057e+01,3.338390677089862757e-02
3.167999999999999972e+01,4.236158993337875434e-02
3.171999999999999886e+01,3.359117653685923105e-02
3.176000000000000156e+01,4.434185193190440244e-02
3.180000000000000071e+01,4.030230539973411741e-02
3.183999999999999986e+01,3.921976881745514731e-02
3.187999999999999901e+01,5.972883558369507240e-02
3.192000000000000171e+01,6.958870519655564746e-02
3.196000000000000085e+01,5.844682801831834612e-02
3.200000000000000000e+01,5.883979461810320832e-02
3.203999999999999915e+01,6.840130905187893906e-02
3.207999999999999829e+01,5.518635799158752575e-02
3.211999999999999744e+01,6.356301895995968010e-02
3.215999999999999659e+01,5.034636602300734953e-02
3.220000000000000284e+01,4.984771279289219870e-02
3.224000000000000199e+01,4.284089441668762627e-02
3.228000000000000114e+01,5.476360929134740929e-02
3.232000000000000028e+01,5.012139800273034823e-02
3.235999999999999943e+01,4.843621547098477670e-02
3.239999999999999858e+01,4.379231966599615722e-02
3.243999999999999773e+01,4.713383746654517537e-02
3.247999999999999687e+01,6.378493944844730590e-02
3.252000000000000313e+01,6.091325076212392164e-02
3.256000000000000227e+01,4.916711111251525351e-02
3.260000000000000142e+01,5.635051628729722401e-02
3.264000000000000057e+01,5.850470665209896171e-02
3.267999999999999972e+01,5.208023756752808847e-02
3.271999999999999886e+01,4.388021547860149890e-02
3.275999999999999801e+01,5.520131834850916519e-02
3.279999999999999716e+01,6.001427632599842105e-02
3.284000000000000341e+01,4.767075259951050747e-02
3.288000000000000256e+01,4.656631730440170119e-02
3.292000000000000171e+01,6.379986405952924045e-02
3.296000000000000085e+01,7.393369736132092418e-02
3.300000000000000000e+01,6.513633170285701435e-02
3.303999999999999915e+01,5.722550917812604249e-02
3.307999999999999829e+01,6.913161035959579370e-02
3.311999999999999744e+01,6.092336822552122527e-02
3.315999999999999659e+01,8.051830638471613177e-02
3.320000000000000284e+01,6.994214021117924063e-02
3.324000000000000199e+01,7.208401135843982288e-02
3.328000000000000114e+01,7.954924192718204612e-02
3.332000000000000028e+01,8.257685662736793941e-02
3.335999999999999943e+01,8.175843125336876294e-02
3.339999999999999858e+01,8.360128507636123418e-02
3.343999999999999773e+01,9.579588606288295949e-02
3.347999999999999687e+01,9.290453870936192515e-02
3.352000000000000313e+01,9.415341076210614890e-02
3.356000000000000227e+01,8.771101671419580248e-02
3.360000000000000142e+01,8.984565257353627210e-02
3.364000000000000057e+01,8.902162000704799683e-02
3.367999999999999972e+01,1.059440226302403587e-01
3.371999999999999886e+01,1.107383573319372927e-01
3.375999999999999801e+01,1.093203690356348567e-01
3.379999999999999716e+01,1.093805257078708099e-01
3.384000000000000341e+01,1.121019774906969607e-01
3.388000000000000256e+01,1.097942593109572373e-01
3.392000000000000171e+01,1.024573726153423237e-01
3.396000000000000085e+01,9.541548797966788176e-02
3.400000000000000000e+01,1.046411142379989750e-01
3.403999999999999915e+01,9.937238675763877815e-02
3.407999999999999829e+01,8.818713502664583814e-02
3.411999999999999744e+01,8.883259092212675290e-02
3.415999999999999659e+01,8.651939719875913204e-02
3.420000000000000284e+01,8.183912965091422187e-02
3.424000000000000199e+01,8.514434080969217333e-02
3.428000000000000114e+01,7.218048386688193097e-02
3.432000000000000028e+01,7.459678787008271195e-02
3.435999999999999943e+01,7.257551361868748441e-02
3.439999999999999858e+01,6.582087538554681760e-02
3.443999999999999773e+01,6.823487178784393148e-02
3.447999999999999687e+01,6.473235840641607119e-02
3.452000000000000313e+01,8.459626689814034317e-02
3.456000000000000227e+01,6.748601524629331549e-02
3.460000000000000142e+01,5.155815032296001688e-02
3.464000000000000057e+01,5.663041422212906906e-02
3.467999999999999972e+01,5.194094231110363974e-02
3.471999999999999886e+01,4.932122299018507766e-02
3.475999999999999801e+01,4.995440640142527478e-02
3.479999999999999716e+01,5.029104790543184600e-02
3.484000000000000341e+01,4.944378742737472882e-02
3.488000000000000256e+01,4.563790337090315591e-02
3.492000000000000171e+01,4.449335348567292486e-02
3.496000000000000085e+01,5.665847747662434986e-02
3.500000000000000000e+01,3.806098788824871515e-02
3.503999999999999915e+01,4.312572615384561991e-02
3.507999999999999829e+01,3.517508416391291332e-02
3.511999999999999744e+01,4.733722683525116992e-02
3.515999999999999659e+01,4.500505627524005459e-02
3.520000000000000284e+01,3.084065849513273685e-02
3.524000000000000199e+01,4.595845210541697062e-02
3.528000000000000114e+01,3.682096008769542017e-02
3.532000000000000028e+01,3.655634735876860109e-02
3.535999999999999943e+01,3.333312841171674062e-02
3.539999999999999858e+01,3.957436599452172910e-02
3.543999999999999773e+01,4.788538220786769939e-02
3.547999999999999687e+01,3.223690720050205460e-02
3.552000000000000313e+01,2.960233914914882011e-02
3.556000000000000227e+01,3.465751037137396184e-02
3.560000000000000142e+01,2.995097905729262808e-02
3.564000000000000057e+01,2.376478752112301529e-02
3.567999999999999972e+01,3.325459329229132899e-02
3.571999999999999886e+01,2.884168043346175409e-02
3.575999999999999801e+01,2.531540908333839920e-02
3.579999999999999716e+01,2.622522677469520461e-02
3.584000000000000341e+01,3.748687843102830458e-02
3.588000000000000256e+01,3.987419919941115332e-02
3.592000000000000171e+01,2.717565987588897378e-02
3.596000000000000085e+01,2.098372559749197425e-02
3.600000000000000000e+01,2.455205672315385543e-02
3.603999999999999915e+01,3.226069839660031247e-02
3.607999999999999829e+01,3.020765489402968060e-02
3.611999999999999744e+01,2.312552244357697281e-02
3.615999999999999659e+01,4.266353009284146180e-02
3.620000000000000284e+01,2.522743691285669887e-02
3.624000000000000199e+01,3.234097650908879934e-02
3.628000000000000114e+01,2.880547664123692120e-02
3.632000000000000028e+01,3.621340244633126232e-02
3.635999999999999943e+01,3.415544037608420763e-02
3.639999999999999858e+01,4.067460948144280275e-02
3.643999999999999773e+01,3.299529882339734960e-02
3.647999999999999687e+01,2.235742245456875943e-02
3.652000000000000313e+01,2.887450964278581028e-02
3.656000000000000227e+01,3.805299031656637909e-02
3.660000000000000142e+01,3.717401744746973158e-02
3.664000000000000057e+01,3.747750508811676512e-02
3.667999999999999972e+01,2.624460621006681829e-02
3.671999999999999886e+01,3.098352942715548036e-02
3.675999999999999801e+01,4.577853270926814100e-02
3.679999999999999716e+01,2.478260555785437996e-02
3.684000000000000341e+01,2.951948157838027789e-02
3.688000000000000256e+01,3.839669852719725801e-02
3.692000000000000171e+01,3.100494285601771913e-02
3.696000000000000085e+01,3.485242317867717765e-02
3.700000000000000000e+01,3.248769768529070900e-02
3.703999999999999915e+01,3.929170086224297725e-02
3.707999999999999829e+01,2.775622698907997260e-02
3.711999999999999744e+01,3.485467424252573776e-02
3.715999999999999659e+01,2.982517798988341268e-02
3.720000000000000284e+01,3.780964945426639606e-02
3.724000000000000199e+01,3.396196747978308395e-02
3.728000000000000114e+01,2.005685655616595495e-02
3.732000000000000028e+01,3.306771486013887484e-02
3.735999999999999943e+01,3.602114710835953998e-02
3.739999999999999858e+01,3.779076996272663636e-02
3.743999999999999773e+01,3.127769269776456418e-02
3.747999999999999687e+01,3.215863697369820279e-02
3.752000000000000313e+01,3.215156336969091089e-02
3.756000000000000227e+01,3.066489898475294879e-02
3.760000000000000142e+01,2.976915548245691323e-02
3.764000000000000057e+01,2.029493192044537833e-02
3.767999999999999972e+01,2.531362930494987160e-02
3.771999999999999886e+01,3.890950560585578616e-02
3.775999999999999801e+01,3.179963205966773038e-02
3.779999999999999716e+01,3.060485575870029382e-02
3.784000000000000341e+01,2.290211684835311706e-02
3.788000000000000256e+01,2.466392416269134677e-02
3.792000000000000171e+01,3.322819458384336511e-02
3.796000000000000085e+01,4.386233477705573508e-02
3.800000000000000000e+01,3.941069010628376473e-02
3.803999999999999915e+01,3.466262071023164248e-02
3.807999999999999829e+01,3.050548955711081256e-02
3.811999999999999744e+01,3.640448765650059620e-02
3.815999999999999659e+01,3.668289624155774559e-02
3.820000000000000284e+01,2.808705784673011172e-02
3.824000000000000199e+01,3.013892739216596575e-02
3.828000000000000114e+01,3.426067828318840602e-02
3.832000000000000028e+01,1.915563544998909185e-02
3.835999999999999943e+01,2.771294054609734631e-02
3.839999999999999858e+01,3.419911089410083982e-02
3.843999999999999773e+01,3.536048902844738523e-02
3.847999999999999687e+01,3.445073530807072487e-02
3.852000000000000313e+01,2.999091531046027895e-02
3.856000000000000227e+01,3.233358156671620187e-02
3.860000000000000142e+01,3.083039726527966179e-02
3.864000000000000057e+01,2.991817146044540091e-02
3.867999999999999972e+01,2.870954407738346079e-02
3.871999999999999886e+01,3.755706764719390911e-02
3.875999999999999801e+01,3.782615166463075551e-02
3.879999999999999716e+01,2.803786170718348264e-02
3.884000000000000341e+01,3.984142682245134237e-02
3.888000000000000256e+01,3.419294151020996902e-02
3.892000000000000171e+01,2.440283003996210343e-02
3.896000000000000085e+01,3.531721646098094636e-02
3.900000000000000000e+01,3.676581048825010301e-02
3.903999999999999915e+01,3.969273900055016874e-02
3.907999999999999829e+01,3.226651649096134306e-02
3.911999999999999744e+01,3.045965179354871016e-02
3.915999999999999659e+01,3.161006179044072162e-02
3.920000000000000284e+01,3.956298118825161275e-02
3.924000000000000199e+01,3.509224513405483775e-02
3.928000000000000114e+01,3.387457528807528290e-02
3.932000000000000028e+01,3.531839874932322237e-02
3.935999999999999943e+01,4.119844000753103419e-02
3.939999999999999858e+01,3.909163920809832771e-02
3.943999999999999773e+01,4.408314366356941988e-02
3.947999999999999687e+01,3.458049113029572352e-02
3.952000000000000313e+01,3.631716717907110953e-02
3.956000000000000227e+01,3.302487869537178850e-02
3.960000000000000142e+01,3.949298581790183782e-02
3.964000000000000057e+01,5.069310803806742483e-02
3.967999999999999972e+01,3.290550898476918978e-02
3.971999999999999886e+01,3.700558400522347552e-02
3.975999999999999801e+01,5.471129367859371706e-02
3.979999999999999716e+01,4.549979663545428155e-02
3.984000000000000341e+01,3.776666301116141100e-02
3.988000000000000256e+01,4.304759403217630481e-02
3.992000000000000171e+01,5.690578353758571351e-02
3.996000000000000085e+01,5.626983341453973414e-02
4.000000000000000000e+01,5.622489097558271143e-02
4.003999999999999915e+01,6.623614723029391804e-02
4.007999999999999829e+01,5.080914276453218914e-02
4.011999999999999744e+01,6.377714466391673498e-02
4.015999999999999659e+01,6.639203460206355434e-02
4.020000000000000284e+01,7.344317271767666910e-02
4.024000000000000199e+01,7.990217850216234374e-02
4.028000000000000114e+01,7.867016123004495765e-02
4.032000000000000028e+01,9.400167060291714227e-02
4.035999999999999943e+01,1.096284135062550735e-01
4.039999999999999858e+01,1.252546042129091819e-01
4.043999999999999773e+01,1.571485387307849924e-01
4.047999999999999687e+01,2.002818365512886445e-01
4.052000000000000313e+01,2.295125893446884058e-01
4.056000000000000227e+01,2.658416879003338562e-01
4.060000000000000142e+01,3.074944106218743811e-01
4.064000000000000057e+01,3.313993593964597029e-01
4.067999999999999972e+01,3.470217252336694203e-01
4.071999999999999886e+01,3.854191628334220909e-01
4.075999999999999801e+01,3.968994284372438508e-01
4.079999999999999716e+01,4.083791563112896816e-01
4.084000000000000341e+01,4.668885085428526316e-01
4.088000000000000256e+01,5.197773696350560524e-01
4.092000000000000171e+01,5.785814408143613585e-01
4.096000000000000085e+01,5.989326474514191645e-01
4.100000000000000000e+01,6.651303355373963111e-01
4.103999999999999915e+01,6.940583106698685611e-01
4.107999999999999829e+01,7.297888631977266227e-01
4.111999999999999744e+01,7.495463821819604577e-01
4.115999999999999659e+01,7.432741051586919667e-01
4.120000000000000284e+01,7.668758094304224393e-01
4.124000000000000199e+01,8.008295429703848889e-01
4.128000000000000114e+01,8.125987181028407891e-01
4.132000000000000028e+01,8.471429866982014278e-01
4.135999999999999943e+01,8.482627871735071157e-01
4.139999999999999858e+01,8.765944916127027531e-01
4.143999999999999773e+01,8.851079408218776035e-01
4.147999999999999687e+01,9.122554688469562967e-01
4.152000000000000313e+01,9.447266543118181259e-01
4.156000000000000227e+01,9.511680582360851899e-01
4.160000000000000142e+01,9.457774664107815310e-01
4.164000000000000057e+01,9.673030000556726016e-01
4.167999999999999972e+01,9.929690482317486966e-01
4.171999999999999886e+01,1.000000000000000000e+00
4.175999999999999801e+01,9.969736848484852532e-01
4.179999999999999716e+01,9.643681507504375805e-01
4.184000000000000341e+01,9.412273060994627016e-01
4.188000000000000256e+01,9.393826392958621874e-01
4.192000000000000171e+01,9.233396909254949492e-01
4.196000000000000085e+01,8.679565526586291435e-01
4.200000000000000000e+01,8.344611709268905386e-01
4.203999999999999915e+01,8.281777163060947133e-01
4.207999999999999829e+01,7.544542946140474493e-01
4.211999999999999744e+01,7.200700770537753481e-01
4.215999999999999659e+01,6.670507789992774494e-01
4.220000000000000284e+01,6.341445216703187615e-01
4.224000000000000199e+01,6.172102860798268642e-01
4.228000000000000114e+01,5.739505078153342987e-01
4.232000000000000028e+01,5.445922439658079650e-01
4.235999999999999943e+01,4.983736298985511626e-01
4.239999999999999858e+01,5.018467811743143603e-01
4.243999999999999773e+01,4.559229960032993856e-01
4.247999999999999687e+01,4.227175823386528086e-01
4.252000000000000313e+01,3.892159059780935793e-01
4.256000000000000227e+01,3.660663066265622545e-01
4.260000000000000142e+01,3.183658992175982250e-01
4.264000000000000057e+01,2.925532714908138376e-01
4.267999999999999972e+01,2.401193283830964365e-01
4.271999999999999886e+01,2.344192904535226663e-01
4.275999999999999801e+01,2.015063656887168819e-01
4.279999999999999716e+01,1.792413137869238726e-01
4.284000000000000341e+01,1.519474159813003766e-01
4.288000000000000256e+01,1.296814376291061666e-01
4.292000000000000171e+01,1.091897212647890691e-01
4.296000000000000085e+01,1.031911168101713877e-01
4.300000000000000000e+01,1.007415002798540543e-01
4.303999999999999915e+01,9.060096051459765043e-02
4.307999999999999829e+01,7.750209374253730354e-02
4.311999999999999744e+01,8.303736510070318377e-02
4.315999999999999659e+01,7.526176126103736874e-02
4.320000000000000284e+01,7.044357823144525854e-02
4.324000000000000199e+01,6.503337137253446809e-02
4.328000000000000114e+01,7.027105473692579762e-02
4.332000000000000028e+01,6.781782499321364899e-02
4.335999999999999943e+01,6.329363989105381283e-02
4.339999999999999858e+01,6.202267000626187493e-02
4.343999999999999773e+01,6.577963982857017167e-02
4.347999999999999687e+01,4.469004624680265186e-02
4.352000000000000313e+01,4.460090265289133604e-02
4.356000000000000227e+01,4.244081093398624493e-02
4.360000000000000142e+01,4.146343144902112088e-02
4.364000000000000057e+01,4.610557325229065057e-02
4.367999999999999972e+01,4.009894322927110011e-02
4.371999999999999886e+01,3.882447586634701908e-02
4.375999999999999801e+01,4.524004434861180618e-02
4.379999999999999716e+01,4.544365295226383133e-02
4.384000000000000341e+01,4.150581334087573293e-02
4.388000000000000256e+01,3.579282435186034728e-02
4.392000000000000171e+01,4.486876916696342504e-02
4.396000000000000085e+01,3.649284728428674879e-02
4.400000000000000000e+01,3.403224688390207170e-02
4.403999999999999915e+01,3.216280028337543256e-02
4.407999999999999829e+01,4.212442153532768019e-02
4.411999999999999744e+01,3.345103318090222183e-02
4.415999999999999659e+01,2.803088753096955044e-02
4.420000000000000284e+01,3.976598320271292758e-02
4.424000000000000199e+01,3.138713773894957759e-02
4.428000000000000114e+01,3.395200583959828711e-02
4.432000000000000028e+01,2.823442265173252072e-02
4.435999999999999943e+01,3.819315070310459054e-02
4.439999999999999858e+01,3.720734579478136156e-02
4.443999999999999773e+01,2.646015806881467369e-02
4.447999999999999687e+01,3.819239092048429263e-02
4.452000000000000313e+01,3.838852080485041784e-02
4.456000000000000227e+01,4.331684372981849801e-02
4.460000000000000142e+01,3.818800245006594152e-02
4.464000000000000057e+01,3.572084688741503783e-02
4.467999999999999972e+01,2.378810436110565668e-02
4.471999999999999886e+01,2.871483478961218624e-02
4.475999999999999801e+01,3.186644766768872289e-02
4.479999999999999716e+01,3.649660335426895691e-02
4.484000000000000341e+01,2.811173177787064728e-02
4.488000000000000256e+01,3.244531850928768918e-02
4.492000000000000171e+01,2.524281674030910000e-02
4.496000000000000085e+01,2.513881986956234896e-02
4.500000000000000000e+01,2.207656543316925332e-02
4.503999999999999915e+01,3.054962639599354685e-02
4.507999999999999829e+01,3.399392246967121445e-02
4.511999999999999744e+01,3.329681662241378015e-02
4.515999999999999659e+01,3.259933073467572578e-02
4.520000000000000284e+01,3.071831755778683254e-02
4.524000000000000199e+01,2.617484266923654143e-02
4.528000000000000114e+01,3.967400968453418941e-02
4.532000000000000028e+01,3.512978484185817762e-02
4.535999999999999943e+01,3.531778197359974197e-02
4.539999999999999858e+01,2.663179252979747808e-02
4.543999999999999773e+01,3.362215338588413205e-02
4.547999999999999687e+01,3.469640229821119998e-02
4.552000000000000313e+01,3.517870984259416356e-02
4.556000000000000227e+01,3.654801333492517512e-02
4.560000000000000142e+01,4.797371661094328166e-02
4.564000000000000057e+01,4.046867808099314373e-02
4.567999999999999972e+01,4.775263700955591911e-02
4.571999999999999886e+01,4.852891832682319079e-02
4.575999999999999801e+01,4.960062847781186723e-02
4.579999999999999716e+01,6.930657368730928913e-02
4.584000000000000341e+01,6.682812541204943835e-02
4.588000000000000256e+01,5.665885661689622210e-02
4.592000000000000171e+01,7.015220917560857639e-02
4.596000000000000085e+01,6.944742628332320478e-02
4.600000000000000000e+01,7.613697307707036066e-02
4.603999999999999915e+01,6.921996166088190128e-02
4.607999999999999829e+01,8.862766194988454249e-02
4.611999999999999744e+01,7.401949192735483851e-02
4.615999999999999659e+01,7.479191107130790661e-02
4.620000000000000284e+01,7.231032887649782581e-02
4.624000000000000199e+01,6.834946983265698106e-02
4.628000000000000114e+01,6.941665321096199270e-02
4.632000000000000028e+01,6.101830893993061278e-02
4.635999999999999943e+01,5.883115867978770674e-02
4.639999999999999858e+01,6.137626800802277460e-02
4.643999999999999773e+01,5.327270533163269012e-02
4.647999999999999687e+01,5.877502035221011251e-02
4.652000000000000313e+01,5.629075082610641295e-02
4.656000000000000227e+01,4.848198276457472283e-02
4.660000000000000142e+01,4.747599174175676923e-02
4.664000000000000057e+01,4.824439724905874721e-02
4.667999999999999972e+01,5.019562638549100730e-02
4.671999999999999886e+01,3.824453473189069058e-02
4.675999999999999801e+01,4.019511807593360159e-02
4.679999999999999716e+01,3.770857308621406584e-02
4.684000000000000341e+01,3.817958055542947093e-02
4.688000000000000256e+01,5.610171344844366165e-02
4.692000000000000171e+01,4.976898170046988729e-02
4.696000000000000085e+01,5.083061435910743442e-02
4.700000000000000000e+01,6.549814352169261444e-02
4.703999999999999915e+01,5.502345086184145390e-02
4.707999999999999829e+01,5.874623194700000911e-02
4.711999999999999744e+01,5.004564257823520407e-02
4.715999999999999659e+01,5.347201963097984040e-02
4.720000000000000284e+01,5.808123911983489179e-02
4.724000000000000199e+01,5.440811292860264770e-02
4.728000000000000114e+01,7.291872140952124215e-02
4.732000000000000028e+01,8.225962558221329435e-02
4.735999999999999943e+01,7.296563733048104516e-02
4.739999999999999858e+01,8.141858048336805820e-02
4.743999999999999773e+01,9.105437475251011714e-02
4.747999999999999687e+01,9.418255506475117778e-02
4.752000000000000313e+01,1.165366069908851526e-01
4.756000000000000227e+01,1.314956863319788616e-01
4.760000000000000142e+01,1.585817480081806730e-01
4.764000000000000057e+01,1.747233939066405728e-01
4.767999999999999972e+01,1.819911356909312272e-01
4.771999999999999886e+01,1.951743334997567692e-01
4.775999999999999801e+01,2.095403939983636332e-01
4.779999999999999716e+01,2.304134877625674815e-01
4.784000000000000341e+01,2.406379601563236326e-01
4.788000000000000256e+01,2.487916406676905223e-01
4.792000000000000171e+01,2.613818485678449099e-01
4.796000000000000085e+01,2.890569235617270194e-01
4.800000000000000000e+01,2.918855986275918912e-01
4.803999999999999915e+01,3.109822923759271163e-01
4.807999999999999829e+01,3.061199506111473845e-01
4.811999999999999744e+01,2.959331667318801373e-01
4.815999999999999659e+01,3.114795954380442655e-01
4.820000000000000284e+01,3.225889464446233257e-01
4.824000000000000199e+01,3.224581161999819923e-01
4.828000000000000114e+01,3.397784620133167954e-01
4.832000000000000028e+01,3.411260346873685179e-01
4.835999999999999943e+01,3.421775558823620389e-01
4.839999999999999858e+01,3.512150679125155550e-01
4.843999999999999773e+01,3.555197237493885054e-01
4.847999999999999687e+01,3.488799941890259326e-01
4.852000000000000313e+01,3.561420032807010583e-01
4.856000000000000227e+01,3.566006503022860485e-01
4.860000000000000142e+01,3.464107034405483065e-01
4.864000000000000057e+01,3.652076454367740865e-01
4.867999999999999972e+01,3.662571042708921976e-01
4.871999999999999886e+01,3.329949996545385482e-01
4.875999999999999801e+01,3.301987241054222810e-01
4.879999999999999716e+01,3.244443284262839566e-01
4.884000000000000341e+01,3.157318140638143977e-01
4.888000000000000256e+01,3.022864594216628786e-01
4.892000000000000171e+01,2.882492863802837979e-01
4.896000000000000085e+01,2.786486783416525226e-01
4.900000000000000000e+01,2.856119108799106687e-01
4.903999999999999915e+01,2.774897578408406784e-01
4.907999999999999829e+01,2.599021769740982868e-01
4.911999999999999744e+01,2.470469540707071754e-01
4.915999999999999659e+01,2.220642216684627634e-01
4.920000000000000284e+01,2.183779318580060524e-01
4.924000000000000199e+01,2.146914095695286184e-01
4.928000000000000114e+01,2.012436795129924627e-01
4.932000000000000028e+01,2.022892913899901890e-01
4.935999999999999943e+01,1.867705933939846630e-01
4.939999999999999858e+01,1.949146426139427846e-01
4.943999999999999773e+01,1.672682185546619515e-01
4.947999999999999687e+01,1.653550548216081995e-01
4.952000000000000313e+01,1.513143946099183568e-01
4.956000000000000227e+01,1.553165310979902625e-01
4.960000000000000142e+01,1.504448329130504969e-01
4.964000000000000057e+01,1.405445347617133578e-01
4.967999999999999972e+01,1.232493406999474600e-01
4.971999999999999886e+01,1.121654621710958116e-01
4.975999999999999801e+01,1.164623030108974527e-01
4.979999999999999716e+01,1.012369781528917601e-01
4.984000000000000341e+01,7.772940164969967258e-02
4.988000000000000256e+01,8.498348189492704874e-02
4.992000000000000171e+01,6.502493426257255349e-02
4.996000000000000085e+01,6.399655931840843304e-02
5.000000000000000000e+01,5.557330003734182317e-02
5.003999999999999915e+01,5.779817547031973479e-02
5.007999999999999829e+01,5.499446685049883682e-02
5.011999999999999744e+01,5.041583453681287852e-02
5.015999999999999659e+01,4.347070562827206469e-02
5.020000000000000284e+01,3.652537896228932185e-02
5.024000000000000199e+01,4.141134293916609588e-02
5.028000000000000114e+01,4.038136857517714978e-02
5.032000000000000028e+01,4.230907253222132569e-02
5.035999999999999943e+01,3.447560778185791014e-02
5.039999999999999858e+01,4.054394967799895833e-02
5.043999999999999773e+01,3.241431815251003684e-02
5.047999999999999687e+01,3.434126290698370082e-02
5.052000000000000313e+01,3.094385234841694893e-02
5.056000000000000227e+01,3.582829792015271991e-02
5.060000000000000142e+01,3.272630650766720356e-02
5.064000000000000057e+01,3.317357933742161313e-02
5.067999999999999972e+01,3.302909742234291790e-02
5.071999999999999886e+01,3.436337242600385339e-02
5.075999999999999801e+01,2.800700340604687921e-02
5.079999999999999716e+01,2.993249919653714203e-02
5.084000000000000341e+01,3.244939472431859068e-02
5.088000000000000256e+01,2.697986339471420206e-02
5.092000000000000171e+01,2.920062686794891102e-02
5.096000000000000085e+01,2.225181768181834496e-02
5.100000000000000000e+01,3.068377271175530552e-02
5.103999999999999915e+01,3.024194514954881702e-02
5.107999999999999829e+01,2.713786709253526372e-02
5.111999999999999744e+01,2.847043215957174855e-02
5.115999999999999659e+01,2.832389832054377568e-02
5.120000000000000284e+01,2.521933115294078265e-02
5.124000000000000199e+01,2.862192166634209070e-02
5.128000000000000114e+01,2.285495109390438262e-02
5.132000000000000028e+01,2.714458718193566572e-02
5.135999999999999943e+01,2.936355724967591035e-02
5.139999999999999858e+01,2.773713970077421737e-02
5.143999999999999773e+01,2.196954880808115254e-02
5.147999999999999687e+01,2.685014471030085920e-02
5.152000000000000313e+01,3.084322907435362721e-02
5.156000000000000227e+01,2.803305987012497114e-02
5.160000000000000142e+01,2.906797680255528843e-02
5.164000000000000057e+01,2.477857892928702135e-02
5.167999999999999972e+01,3.291209812742699331e-02
5.171999999999999886e+01,2.655190302420179851e-02
5.175999999999999801e+01,2.374101267055835768e-02
5.179999999999999716e+01,3.187410785919416595e-02
5.184000000000000341e+01,3.172502373718273649e-02
5.188000000000000256e+01,2.625163348961744719e-02
5.192000000000000171e+01,2.935593573368160472e-02
5.196000000000000085e+01,2.358648865949028450e-02
5.200000000000000000e+01,3.112733175175431966e-02
5.203999999999999915e+01,2.713234385458201600e-02
5.207999999999999829e+01,2.875718249739964497e-02
5.211999999999999744e+01,1.618410847960021284e-02
5.215999999999999659e+01,2.875281736862976556e-02
5.220000000000000284e+01,2.446153192586139266e-02
5.224000000000000199e+01,3.288897098201252339e-02
5.228000000000000114e+01,2.978058772887202249e-02
5.232000000000000028e+01,3.317940121738691822e-02
5.235999999999999943e+01,3.154971311447767740e-02
5.239999999999999858e+01,3.761037334196652704e-02
5.243999999999999773e+01,3.982568356677378130e-02
5.247999999999999687e+01,3.701249654022924218e-02
5.252000000000000313e+01,3.449498283814849547e-02
5.256000000000000227e+01,3.138578238570141621e-02
5.260000000000000142e+01,3.507957597558553076e-02
5.264000000000000057e+01,3.699853701312392357e-02
5.267999999999999972e+01,4.394577194333341985e-02
5.271999999999999886e+01,3.639932873944728975e-02
5.275999999999999801e+01,4.216320318914131698e-02
5.279999999999999716e+01,3.609548696268373436e-02
5.284000000000000341e+01,3.890128367558381983e-02
5.288000000000000256e+01,3.579123608251911365e-02
5.292000000000000171e+01,3.563896084538843712e-02
5.296000000000000085e+01,3.607816202016034951e-02
5.300000000000000000e+01,3.947513844424780510e-02
5.303999999999999915e+01,3.488576613225179146e-02
5.307999999999999829e+01,3.650783087519575421e-02
5.311999999999999744e+01,4.138346238136789146e-02
5.315999999999999659e+01,3.531487775312626420e-02
5.320000000000000284e+01,3.545773451989694958e-02
5.324000000000000199e+01,3.500892913004469142e-02
5.328000000000000114e+01,3.633476042098241626e-02
5.332000000000000028e+01,3.174476331955398273e-02
5.335999999999999943e+01,3.366200057374130888e-02
5.339999999999999858e+01,4.326962232559625893e-02
5.343999999999999773e+01,3.424257155002600334e-02
5.347999999999999687e+01,3.882165164231019677e-02
5.352000000000000313e+01,3.925963361872374102e-02
5.356000000000000227e+01,3.851439066436010417e-02
5.360000000000000142e+01,3.540277553054894250e-02
5.364000000000000057e+01,4.412257400831381959e-02
5.367999999999999972e+01,4.160238798480479089e-02
5.371999999999999886e+01,3.701162129576092419e-02
5.375999999999999801e+01,3.478708299547692007e-02
5.379999999999999716e+01,4.468975126737232545e-02
5.384000000000000341e+01,4.216929212939595634e-02
5.388000000000000256e+01,3.964876832952965446e-02
5.392000000000000171e+01,4.156498892206823836e-02
5.396000000000000085e+01,3.756540426929321635e-02
5.400000000000000000e+01,4.007307711918644405e-02
5.403999999999999915e+01,4.790486022307770958e-02
5.407999999999999829e+01,5.751130894157460011e-02
5.411999999999999744e+01,5.055361994327147585e-02
5.415999999999999659e+01,5.158213010360105516e-02
5.420000000000000284e+01,4.846956674180328412e-02
5.424000000000000199e+01,4.654010043369381094e-02
5.428000000000000114e+01,4.342743523524114635e-02
5.432000000000000028e+01,5.303356976362863517e-02
5.435999999999999943e+01,5.287868025368690217e-02
5.439999999999999858e+01,4.769536293355091522e-02
5.443999999999999773e+01,5.523084968032741099e-02
5.447999999999999687e+01,5.921684737949257232e-02
5.452000000000000313e+01,5.492076269629297264e-02
5.456000000000000227e+01,5.594880707407152293e-02
5.460000000000000142e+01,5.875153587343589362e-02
5.464000000000000057e+01,6.539946075795877167e-02
5.467999999999999972e+01,5.637062970087325375e-02
5.471999999999999886e+01,6.124376153289680380e-02
5.475999999999999801e+01,6.493371183486666698e-02
5.479999999999999716e+01,6.004580270746690679e-02
5.484000000000000341e+01,6.196096863708213526e-02
5.488000000000000256e+01,5.973508563831339546e-02
5.492000000000000171e+01,6.076283450385800561e-02
5.496000000000000085e+01,6.031162189896253217e-02
5.500000000000000000e+01,5.749408774879696815e-02
5.503999999999999915e+01,5.674704110765611820e-02
5.507999999999999829e+01,6.369043972519573826e-02
5.511999999999999744e+01,4.785820614255928418e-02
5.515999999999999659e+01,4.563216418879028485e-02
5.520000000000000284e+01,4.873027444305196715e-02
5.524000000000000199e+01,4.443368987690372168e-02
5.528000000000000114e+01,4.694019628136915367e-02
5.532000000000000028e+01,4.293937228032698727e-02
5.535999999999999943e+01,4.840372670784243159e-02
5.539999999999999858e+01,4.262815884178762504e-02
5.543999999999999773e+01,4.188096469006803713e-02
5.547999999999999687e+01,4.557057135169383100e-02
5.552000000000000313e+01,3.861183440750223100e-02
5.556000000000000227e+01,4.141407029916247678e-02
5.560000000000000142e+01,4.392051656279619826e-02
5.564000000000000057e+01,3.282075182228224447e-02
5.567999999999999972e+01,3.828506925601858624e-02
5.571999999999999886e+01,4.108730401107859448e-02
5.575999999999999801e+01,3.264962949278543691e-02
5.579999999999999716e+01,4.373391322721750102e-02
5.584000000000000341e+01,3.500046254031027870e-02
5.588000000000000256e+01,3.070382713365627306e-02
5.592000000000000171e+01,3.912604932147372566e-02
5.596000000000000085e+01,3.601258229555169554e-02
5.600000000000000000e+01,3.378648880387204179e-02
5.603999999999999915e+01,3.629300355304898584e-02
5.607999999999999829e+01,3.229221538384336593e-02
5.611999999999999744e+01,3.509454856575773551e-02
5.615999999999999659e+01,3.375587911339314462e-02
5.620000000000000284e+01,3.892454673168996293e-02
5.624000000000000199e+01,3.107859939388136691e-02
5.628000000000000114e+01,3.979675593068471989e-02
5.632000000000000028e+01,3.372557736172269310e-02
5.635999999999999943e+01,3.830276208394889359e-02
5.639999999999999858e+01,4.199261176428371878e-02
5.643999999999999773e+01,3.947095872029316582e-02
5.647999999999999687e+01,3.369567613707078607e-02
5.652000000000000313e+01,3.561089089339704306e-02
5.656000000000000227e+01,3.989243530683795474e-02
5.660000000000000142e+01,3.944141865191807400e-02
5.664000000000000057e+01,3.869464998293196262e-02
5.667999999999999972e+01,3.262374879128608629e-02
5.671999999999999886e+01,3.513071369416354006e-02
5.675999999999999801e+01,3.438405918464464833e-02
5.679999999999999716e+01,3.127114823094081369e-02
5.684000000000000341e+01,3.496138466879114559e-02
5.688000000000000256e+01,4.072217516344223825e-02
5.692000000000000171e+01,3.317258812189095851e-02
5.696000000000000085e+01,3.775032194109097239e-02
5.700000000000000000e+01,3.611657328963663316e-02
5.703999999999999915e+01,3.448287426486420365e-02
5.707999999999999829e+01,3.699024674722826977e-02
5.711999999999999744e+01,3.387771544669080509e-02
5.715999999999999659e+01,3.668098158971304368e-02
5.720000000000000284e+01,3.327277249553474425e-02
5.724000000000000199e+01,3.016040743533260696e-02
5.728000000000000114e+01,3.148490828956115178e-02
5.732000000000000028e+01,3.724627650491109387e-02
5.735999999999999943e+01,2.673941135925462370e-02
5.739999999999999858e+01,3.752928537699639494e-02
5.743999999999999773e+01,4.003718262080045720e-02
5.747999999999999687e+01,3.574204040655898362e-02
5.752000000000000313e+01,3.972900604681637443e-02
5.756000000000000227e+01,3.868765816545136071e-02
5.760000000000000142e+01,3.853374168596006288e-02
5.764000000000000057e+01,3.453466327358904048e-02
5.767999999999999972e+01,4.029663437168132245e-02
5.771999999999999886e+01,3.570612860578951941e-02
5.775999999999999801e+01,2.993254981165273040e-02
5.779999999999999716e+01,3.362423769421132858e-02
5.784000000000000341e+01,3.199183500814274661e-02
5.788000000000000256e+01,3.361317124150548646e-02
5.792000000000000171e+01,3.493880175490722551e-02
5.796000000000000085e+01,3.064455886591380129e-02
5.800000000000000000e+01,3.670295140859046457e-02
5.803999999999999915e+01,3.359202735617042995e-02
5.807999999999999829e+01,4.053795445496182620e-02
5.811999999999999744e+01,3.624405763515619466e-02
5.815999999999999659e+01,3.668284573081868200e-02
5.820000000000000284e+01,4.215010736248042678e-02
5.824000000000000199e+01,3.637754941561747307e-02
5.828000000000000114e+01,3.415453202893395379e-02
5.832000000000000028e+01,3.548105664912069163e-02
5.835999999999999943e+01,3.473716841990334703e-02
5.839999999999999858e+01,4.079648400318072049e-02
5.843999999999999773e+01,3.472862571986652658e-02
5.847999999999999687e+01,4.285865348843530265e-02
5.852000000000000313e+01,4.270674354371755549e-02
5.856000000000000227e+01,3.723076907080674625e-02
5.860000000000000142e+01,3.826221847000436244e-02
5.864000000000000057e+01,3.160330884366824994e-02
5.867999999999999972e+01,4.446646163179381051e-02
5.871999999999999886e+01,3.751198416031642502e-02
5.875999999999999801e+01,4.505119004139768180e-02
5.879999999999999716e+01,4.401268116218765014e-02
5.884000000000000341e+01,3.410067179553681604e-02
5.888000000000000256e+01,3.394975534007281526e-02
5.892000000000000171e+01,3.439053085343805882e-02
5.896000000000000085e+01,3.867665869456633071e-02
5.900000000000000000e+01,4.237133270254445777e-02
5.903999999999999915e+01,4.310825693334099928e-02
5.907999999999999829e+01,4.059164565980651063e-02
5.911999999999999744e+01,3.777937206703449458e-02
5.915999999999999659e+01,4.620713738148598398e-02
5.920000000000000284e+01,4.250775631647085717e-02
5.924000000000000199e+01,3.821693009845027883e-02
5.928000000000000114e+01,3.925040365092021671e-02
5.932000000000000028e+01,4.590396559441184410e-02
5.935999999999999943e+01,3.747251520679728554e-02
5.939999999999999858e+01,3.791481501582891905e-02
5.943999999999999773e+01,4.841401516355847701e-02
5.947999999999999687e+01,4.323663297257370614e-02
5.952000000000000313e+01,4.574985662294640126e-02
5.956000000000000227e+01,5.684104908288806213e-02
5.960000000000000142e+01,4.988936615346559189e-02
5.964000000000000057e+01,5.417773949155615248e-02
5.967999999999999972e+01,4.426847359358750122e-02
5.971999999999999886e+01,5.240237185483952870e-02
5.975999999999999801e+01,4.900071833797641635e-02
5.979999999999999716e+01,5.003602187706331778e-02
5.984000000000000341e+01,5.343777370190907344e-02
5.988000000000000256e+01,5.240287026087851047e-02
5.992000000000000171e+01,5.817122560659235275e-02
5.996000000000000085e+01,5.743241836292943547e-02
