2.003999999999999915e+01,9.721655663646910916e-02
2.007999999999999829e+01,6.634437940904154563e-02
2.012000000000000099e+01,4.277936819505342297e-02
2.016000000000000014e+01,5.169540369929242346e-02
2.019999999999999929e+01,9.715278912103203490e-02
2.023999999999999844e+01,7.195951541902081972e-02
2.028000000000000114e+01,9.183422836970590863e-02
2.032000000000000028e+01,8.084925485344365836e-02
2.035999999999999943e+01,6.661465759487676663e-02
2.039999999999999858e+01,8.283095436831201808e-02
2.044000000000000128e+01,7.752626191611738937e-02
2.048000000000000043e+01,5.841515646736680778e-02
2.051999999999999957e+01,9.574088609434980301e-02
2.055999999999999872e+01,9.692853387500911799e-02
2.060000000000000142e+01,4.898512886956130075e-02
2.064000000000000057e+01,3.920719328935480530e-02
2.067999999999999972e+01,1.146942460179570661e-01
2.071999999999999886e+01,3.791853995130974042e-02
2.076000000000000156e+01,9.310131057322681980e-02
2.080000000000000071e+01,8.250578377078768288e-02
2.083999999999999986e+01,9.099229973547551253e-02
2.087999999999999901e+01,0.000000000000000000e+00
2.092000000000000171e+01,1.047129391375694191e-01
2.096000000000000085e+01,1.087289712307088207e-01
2.100000000000000000e+01,6.158379718285127841e-02
2.103999999999999915e+01,6.640912233447061885e-02
2.107999999999999829e+01,6.067627467518455636e-02
2.112000000000000099e+01,7.118325625634719378e-02
2.116000000000000014e+01,1.226979174460911814e-01
2.119999999999999929e+01,6.539506385551895062e-02
2.123999999999999844e+01,1.181250467687179617e-01
2.128000000000000114e+01,7.706063702310421426e-02
2.132000000000000028e+01,1.041493100774636485e-02
2.135999999999999943e+01,9.115685196593076300e-02
2.139999999999999858e+01,5.820889326823311394e-02
2.144000000000000128e+01,8.657012984116119192e-02
2.148000000000000043e+01,4.428070210816497515e-02
2.151999999999999957e+01,8.888038052004927636e-02
2.155999999999999872e+01,8.881533583690755240e-02
2.160000000000000142e+01,8.468860155599891582e-02
2.164000000000000057e+01,5.416850899472213515e-02
2.167999999999999972e+01,6.831036689865516154e-02
2.171999999999999886e+01,1.185875380311021549e-01
2.176000000000000156e+01,1.355688346587279602e-01
2.180000000000000071e+01,6.647031285061176520e-02
2.183999999999999986e+01,7.938853181031009509e-02
2.187999999999999901e+01,1.024561217846220035e-01
2.192000000000000171e+01,9.913035230839750689e-02
2.196000000000000085e+01,5.154588840212226408e-02
2.200000000000000000e+01,6.364649607955924493e-02
2.203999999999999915e+01,5.341404717140162128e-02
2.207999999999999829e+01,6.226363584819676056e-02
2.212000000000000099e+01,9.019526194277782682e-02
2.216000000000000014e+01,1.006661949899948644e-01
2.219999999999999929e+01,1.172261943480475410e-01
2.223999999999999844e+01,8.384307339286187211e-02
2.228000000000000114e+01,1.008063251084018591e-01
2.232000000000000028e+01,1.149259752271033913e-01
2.235999999999999943e+01,8.275677756086396997e-02
2.239999999999999858e+01,1.545299565008920739e-01
2.244000000000000128e+01,1.203278278349392688e-01
2.248000000000000043e+01,1.145464328250882513e-01
2.251999999999999957e+01,1.038912836993427929e-01
2.255999999999999872e+01,1.050096240929507402e-01
2.260000000000000142e+01,4.359790223284586846e-02
2.264000000000000057e+01,9.830946607533476433e-02
2.267999999999999972e+01,1.181010302215864810e-01
2.271999999999999886e+01,8.551329002873127305e-02
2.276000000000000156e+01,4.277340034060471419e-02
2.280000000000000071e+01,6.053063956614111035e-02
2.283999999999999986e+01,8.072266939804452479e-02
2.287999999999999901e+01,9.888315596606124525e-02
2.292000000000000171e+01,9.146233957765756428e-02
2.296000000000000085e+01,1.262672862852571853e-01
2.300000000000000000e+01,1.046326241171391391e-01
2.303999999999999915e+01,1.227875426908252715e-01
2.307999999999999829e+01,7.475812397499713435e-02
2.312000000000000099e+01,5.433737556731204482e-02
2.316000000000000014e+01,2.244868150541054139e-03
2.319999999999999929e+01,1.032244047306544871e-01
2.323999999999999844e+01,1.416738763823847669e-01
2.328000000000000114e+01,7.089979422447498236e-02
2.332000000000000028e+01,6.914947587658805406e-02
2.335999999999999943e+01,9.866209986364049556e-02
2.339999999999999858e+01,1.330456941365889267e-01
2.344000000000000128e+01,1.284489821706865098e-01
2.348000000000000043e+01,7.431517504601577173e-02
2.351999999999999957e+01,1.342744982630452721e-01
2.355999999999999872e+01,9.191278222321935809e-02
2.360000000000000142e+01,1.092361310804297186e-01
2.364000000000000057e+01,1.030083256554363696e-01
2.367999999999999972e+01,9.880927698966074368e-02
2.371999999999999886e+01,1.185646230947262070e-01
2.376000000000000156e+01,1.054301166732692779e-01
2.380000000000000071e+01,9.838466987597203894e-02
2.383999999999999986e+01,1.083911016250624915e-01
2.387999999999999901e+01,1.102755308814295232e-01
2.392000000000000171e+01,7.886407660596277125e-02
2.396000000000000085e+01,6.531656104867179791e-02
2.400000000000000000e+01,1.041455626571510668e-01
2.403999999999999915e+01,1.141450139353823862e-01
2.407999999999999829e+01,6.405057879459091774e-02
2.412000000000000099e+01,5.739999291189577107e-02
2.416000000000000014e+01,8.688471006053340162e-02
2.419999999999999929e+01,3.313181109992470452e-02
2.423999999999999844e+01,9.387806980865644191e-02
2.428000000000000114e+01,1.128018064115227509e-01
2.432000000000000028e+01,1.171070532965215738e-01
2.435999999999999943e+01,7.431138336494597096e-02
2.439999999999999858e+01,1.054118367696172953e-01
2.444000000000000128e+01,1.052465561525060961e-01
2.448000000000000043e+01,1.497432142989219284e-01
2.451999999999999957e+01,1.325218628409018107e-01
2.455999999999999872e+01,9.053126224590678228e-02
2.460000000000000142e+01,1.293392998742768085e-01
2.464000000000000057e+01,1.600253318337521991e-01
2.467999999999999972e+01,1.151883220742197789e-01
2.471999999999999886e+01,1.336906455608486144e-01
2.476000000000000156e+01,1.144307483020513272e-01
2.480000000000000071e+01,1.313061513999163044e-01
2.483999999999999986e+01,9.823842331869384048e-02
2.487999999999999901e+01,1.427210895975139782e-01
2.492000000000000171e+01,6.620531545016783426e-02
2.496000000000000085e+01,7.373642071483874072e-02
2.500000000000000000e+01,8.654451991537337463e-02
2.503999999999999915e+01,1.005693095181627722e-01
2.507999999999999829e+01,1.093143039697316160e-01
2.512000000000000099e+01,1.196820188258653911e-01
2.516000000000000014e+01,5.087241692719010611e-02
2.519999999999999929e+01,1.249840922509476149e-01
2.523999999999999844e+01,1.203244808222062173e-01
2.528000000000000114e+01,1.111971340796984870e-01
2.532000000000000028e+01,1.308965394610864530e-01
2.535999999999999943e+01,1.424739361645757929e-01
2.539999999999999858e+01,1.089805633883722952e-01
2.544000000000000128e+01,9.132097146194737003e-02
2.548000000000000043e+01,1.406549826353109267e-01
2.551999999999999957e+01,7.751718794453391070e-02
2.555999999999999872e+01,1.694815790710154091e-01
2.560000000000000142e+01,1.083711303345968602e-01
2.564000000000000057e+01,1.106000109995006336e-01
2.567999999999999972e+01,1.051129119858150579e-01
2.571999999999999886e+01,1.442877465534819770e-01
2.576000000000000156e+01,8.804404839306584352e-02
2.580000000000000071e+01,7.849243516289013123e-02
2.583999999999999986e+01,1.671987594496084362e-01
2.587999999999999901e+01,1.003940606833926275e-01
2.592000000000000171e+01,1.700141507442972932e-01
2.596000000000000085e+01,1.316287668053124915e-01
2.600000000000000000e+01,1.208520411384531867e-01
2.603999999999999915e+01,1.181945174176282087e-01
2.607999999999999829e+01,1.313707718719118178e-01
2.612000000000000099e+01,1.169355583132009879e-01
2.616000000000000014e+01,1.479743371702954835e-01
2.619999999999999929e+01,1.688609521557650206e-01
2.623999999999999844e+01,1.069159728431207379e-01
2.628000000000000114e+01,1.119645932869268584e-01
2.632000000000000028e+01,8.818365387197119043e-02
2.635999999999999943e+01,1.005380082941686737e-01
2.639999999999999858e+01,1.250718665243406580e-01
2.644000000000000128e+01,1.491982879593486688e-01
2.648000000000000043e+01,8.521471971686611635e-02
2.651999999999999957e+01,1.475051793778937859e-01
2.655999999999999872e+01,1.346786197997131562e-01
2.660000000000000142e+01,1.056094396285748582e-01
2.664000000000000057e+01,1.171418858275080077e-01
2.667999999999999972e+01,1.270488032183427485e-01
2.671999999999999886e+01,7.483167147391787954e-02
2.676000000000000156e+01,1.176242307083941868e-01
2.680000000000000071e+01,1.076314382160948324e-01
2.683999999999999986e+01,1.114422690395112381e-01
2.687999999999999901e+01,1.554486948933536394e-01
2.692000000000000171e+01,1.405793134692557567e-01
2.696000000000000085e+01,1.236783717302470248e-01
2.700000000000000000e+01,1.343860840841915594e-01
2.703999999999999915e+01,1.369717807392270836e-01
2.707999999999999829e+01,1.135701267158400057e-01
2.712000000000000099e+01,1.526957352353111863e-01
2.716000000000000014e+01,9.518471416592495793e-02
2.719999999999999929e+01,1.371497159396908305e-01
2.723999999999999844e+01,9.750121024610305942e-02
2.728000000000000114e+01,1.532684236948908818e-01
2.732000000000000028e+01,1.789879820958118206e-01
2.735999999999999943e+01,2.103905549063935509e-01
2.739999999999999858e+01,1.536831341946459928e-01
2.744000000000000128e+01,2.159411914819733547e-01
2.748000000000000043e+01,1.884651335660605387e-01
2.751999999999999957e+01,1.008951748547712718e-01
2.755999999999999872e+01,1.659912115825294965e-01
2.760000000000000142e+01,1.852044089631266488e-01
2.764000000000000057e+01,1.175257028283256122e-01
2.767999999999999972e+01,1.947984152348307407e-01
2.771999999999999886e+01,2.529862900111948809e-01
2.776000000000000156e+01,2.214400484141502423e-01
2.780000000000000071e+01,2.292773373294040573e-01
2.783999999999999986e+01,2.468579420147585246e-01
2.787999999999999901e+01,2.360150106584868734e-01
2.792000000000000171e+01,2.430360014708667915e-01
2.796000000000000085e+01,2.066103334514492185e-01
2.800000000000000000e+01,2.107862861184281733e-01
2.803999999999999915e+01,3.014452873454379067e-01
2.807999999999999829e+01,2.451198933948631198e-01
2.812000000000000099e+01,2.927368521456889527e-01
2.816000000000000014e+01,2.875684534860643571e-01
2.819999999999999929e+01,2.807745196659990894e-01
2.823999999999999844e+01,3.060555684597994208e-01
2.828000000000000114e+01,2.334818919741363796e-01
2.832000000000000028e+01,3.038294796718875590e-01
2.835999999999999943e+01,3.356027709059032360e-01
2.839999999999999858e+01,2.626188206360018929e-01
2.844000000000000128e+01,2.931711913935212688e-01
2.848000000000000043e+01,3.403693909694234798e-01
2.851999999999999957e+01,3.112324721050060417e-01
2.855999999999999872e+01,2.873725322985985486e-01
2.860000000000000142e+01,3.349725162560472369e-01
2.864000000000000057e+01,2.481750431315472016e-01
2.867999999999999972e+01,2.230927653571078695e-01
2.871999999999999886e+01,2.414543176165706295e-01
2.876000000000000156e+01,2.504757559790152799e-01
2.880000000000000071e+01,2.444726555642551535e-01
2.883999999999999986e+01,2.957184161278010870e-01
2.887999999999999901e+01,2.137848096163295075e-01
2.892000000000000171e+01,2.199583693337940626e-01
2.896000000000000085e+01,2.285666940810893166e-01
2.900000000000000000e+01,2.448881780674234676e-01
2.903999999999999915e+01,2.376584852040223017e-01
2.907999999999999829e+01,2.316454658590182680e-01
2.912000000000000099e+01,2.252249985186673409e-01
2.916000000000000014e+01,2.062161729164753154e-01
2.919999999999999929e+01,2.176582045695661660e-01
2.923999999999999844e+01,2.205721809929245825e-01
2.928000000000000114e+01,1.345640953638205517e-01
2.932000000000000028e+01,1.110832630833951951e-01
2.935999999999999943e+01,1.765216558663581792e-01
2.939999999999999858e+01,1.944530804330724394e-01
2.944000000000000128e+01,1.819308107554296616e-01
2.948000000000000043e+01,1.645347578748511397e-01
2.951999999999999957e+01,1.491674373471223447e-01
2.955999999999999872e+01,1.394831220348748957e-01
2.960000000000000142e+01,2.049129993371099079e-01
2.964000000000000057e+01,2.098429366474779956e-01
2.967999999999999972e+01,1.368136293231097256e-01
2.971999999999999886e+01,1.486432421911852153e-01
2.976000000000000156e+01,1.491025852998486001e-01
2.980000000000000071e+01,1.524027202644820667e-01
2.983999999999999986e+01,1.211888559466468146e-01
2.987999999999999901e+01,1.431635448943356093e-01
2.992000000000000171e+01,1.777237532759558813e-01
2.996000000000000085e+01,1.664011124475676118e-01
3.000000000000000000e+01,1.201584413313989685e-01
3.003999999999999915e+01,1.465937789710110017e-01
3.007999999999999829e+01,8.451308155146694534e-02
3.012000000000000099e+01,1.016068779396778338e-01
3.016000000000000014e+01,8.256255236150798760e-02
3.019999999999999929e+01,9.884144389917956519e-02
3.023999999999999844e+01,1.240515805036491032e-01
3.028000000000000114e+01,7.130246996587860653e-02
3.032000000000000028e+01,1.289921883216363918e-01
3.035999999999999943e+01,7.136786822954864495e-02
3.039999999999999858e+01,8.317331269558561613e-02
3.044000000000000128e+01,1.124366384621152681e-01
3.048000000000000043e+01,1.607819667085478854e-01
3.051999999999999957e+01,1.498454422953748311e-01
3.055999999999999872e+01,9.383812683797815302e-02
3.060000000000000142e+01,8.452287625079317468e-02
3.064000000000000057e+01,1.162152656536333678e-01
3.067999999999999972e+01,1.556208072745027537e-01
3.071999999999999886e+01,1.174731302509402636e-01
3.076000000000000156e+01,9.597127251724694996e-02
3.080000000000000071e+01,1.341544495905470369e-01
3.083999999999999986e+01,6.433213226959526299e-02
3.087999999999999901e+01,1.081968841949893512e-01
3.092000000000000171e+01,8.587726606615631031e-02
3.096000000000000085e+01,8.751201245095444059e-02
3.100000000000000000e+01,1.317785186678526732e-01
3.103999999999999915e+01,1.321923228444571163e-01
3.107999999999999829e+01,8.591121245709136545e-02
3.112000000000000099e+01,7.901361870717094060e-02
3.116000000000000014e+01,2.298492803908072993e-02
3.119999999999999929e+01,1.123136715382532375e-01
3.123999999999999844e+01,8.470425156533117894e-02
3.128000000000000114e+01,9.769643857111963425e-02
3.132000000000000028e+01,4.572234486094467476e-02
3.135999999999999943e+01,1.049991363712471371e-01
3.139999999999999858e+01,9.200110077165594979e-02
3.144000000000000128e+01,8.793430522385536907e-02
3.148000000000000043e+01,1.220329337990652963e-01
3.151999999999999957e+01,1.191813740509310715e-01
3.155999999999999872e+01,9.805702129792151500e-02
3.160000000000000142e+01,8.911215062118928165e-02
3.164000000000000057e+01,8.909851916041328090e-02
3.167999999999999972e+01,1.276563413234575173e-01
3.171999999999999886e+01,8.054033393001211460e-02
3.176000000000000156e+01,4.885205063733036313e-02
3.180000000000000071e+01,1.137975586070969908e-01
3.183999999999999986e+01,9.022702416236340339e-02
3.187999999999999901e+01,8.046009197031575577e-02
3.192000000000000171e+01,6.500730570486280835e-02
3.196000000000000085e+01,8.000536516017645039e-02
3.200000000000000000e+01,1.157095420896277344e-01
3.203999999999999915e+01,9.822231505679474006e-02
3.207999999999999829e+01,6.368038385584960659e-02
3.211999999999999744e+01,5.593502467720534027e-02
3.215999999999999659e+01,8.757317778966676458e-02
3.220000000000000284e+01,7.495259367735013223e-02
3.224000000000000199e+01,9.927933950193978951e-02
3.228000000000000114e+01,7.894131743077338614e-02
3.232000000000000028e+01,5.088728793131125361e-02
3.235999999999999943e+01,8.779668109570872014e-02
3.239999999999999858e+01,9.181618562553260643e-02
3.243999999999999773e+01,9.664631929508958608e-02
3.247999999999999687e+01,6.899259433238343064e-02
3.252000000000000313e+01,9.249725991896466659e-02
3.256000000000000227e+01,7.336730812284249226e-02
3.260000000000000142e+01,8.753041172932632397e-02
3.264000000000000057e+01,6.677347401501401714e-02
3.267999999999999972e+01,6.225631722991503691e-02
3.271999999999999886e+01,3.743621090887942759e-02
3.275999999999999801e+01,7.230113120365889989e-02
3.279999999999999716e+01,8.442691960830243925e-02
3.284000000000000341e+01,3.402260296450564103e-02
3.288000000000000256e+01,1.163887730309895591e-01
3.292000000000000171e+01,8.100471193108059464e-02
3.296000000000000085e+01,7.444737102618864677e-02
3.300000000000000000e+01,1.153941456347826605e-01
3.303999999999999915e+01,9.665302671561173953e-02
3.307999999999999829e+01,6.248132079573300718e-02
3.311999999999999744e+01,6.931724450153148309e-02
3.315999999999999659e+01,3.351854831712315630e-02
3.320000000000000284e+01,3.101290502781733904e-02
3.324000000000000199e+01,7.479328523906325632e-02
3.328000000000000114e+01,5.888577091954274451e-02
3.332000000000000028e+01,6.327833822100779881e-02
3.335999999999999943e+01,1.094905948184369954e-01
3.339999999999999858e+01,8.017977325447324388e-02
3.343999999999999773e+01,1.028393990682461984e-01
3.347999999999999687e+01,6.987143288186090095e-02
3.352000000000000313e+01,8.278345868921499484e-02
3.356000000000000227e+01,7.011413707375180326e-02
3.360000000000000142e+01,3.267552854159326559e-02
3.364000000000000057e+01,1.154204631075723547e-01
3.367999999999999972e+01,5.118097909260070633e-02
3.371999999999999886e+01,1.026587041383460186e-01
3.375999999999999801e+01,3.557413383390486961e-02
3.379999999999999716e+01,8.948516663222205736e-02
3.384000000000000341e+01,1.076640924214475742e-01
3.388000000000000256e+01,8.523854699468325080e-02
3.392000000000000171e+01,8.473720202797782597e-02
3.396000000000000085e+01,1.045359360075875377e-01
3.400000000000000000e+01,4.556334662514654327e-02
3.403999999999999915e+01,5.926874928179586000e-02
3.407999999999999829e+01,7.743904725413350287e-02
3.411999999999999744e+01,8.626920892908769567e-02
3.415999999999999659e+01,6.017932293090348661e-02
3.420000000000000284e+01,6.981866766851453632e-02
3.424000000000000199e+01,9.041939243945441851e-02
3.428000000000000114e+01,9.396540384810245228e-02
3.432000000000000028e+01,1.040064612526585691e-01
3.435999999999999943e+01,9.212044092085788782e-02
3.439999999999999858e+01,8.307519322083316282e-02
3.443999999999999773e+01,7.402850562890779529e-02
3.447999999999999687e+01,5.807786225496250343e-02
3.452000000000000313e+01,6.202126515035120274e-02
3.456000000000000227e+01,4.647377149341418157e-02
3.460000000000000142e+01,6.259520353416089811e-02
3.464000000000000057e+01,9.536243864958693361e-02
3.467999999999999972e+01,7.981062280944420384e-02
3.471999999999999886e+01,6.303927489729975464e-02
3.475999999999999801e+01,7.022227561793040196e-02
3.479999999999999716e+01,6.847116753598470051e-02
3.484000000000000341e+01,8.417792236617219204e-02
3.488000000000000256e+01,7.389729392039066924e-02
3.492000000000000171e+01,7.498407300274483045e-02
3.496000000000000085e+01,7.931765271318250154e-02
3.500000000000000000e+01,9.989100365715307406e-02
3.503999999999999915e+01,1.099061234489687178e-01
3.507999999999999829e+01,5.657906815770914755e-02
3.511999999999999744e+01,7.755412173861053748e-02
3.515999999999999659e+01,8.959506501243320875e-02
3.520000000000000284e+01,1.199059303671756727e-01
3.524000000000000199e+01,1.006796514160799849e-01
3.528000000000000114e+01,1.001293245482143268e-01
3.532000000000000028e+01,3.745491260420479723e-02
3.535999999999999943e+01,9.699418825337724481e-02
3.539999999999999858e+01,1.216134110472371771e-01
3.543999999999999773e+01,6.624321345110500969e-02
3.547999999999999687e+01,6.649772773699591522e-02
3.552000000000000313e+01,5.903622122123875632e-02
3.556000000000000227e+01,5.928784652914848713e-02
3.560000000000000142e+01,1.163822742275135019e-01
3.564000000000000057e+01,9.551743238327310703e-02
3.567999999999999972e+01,7.302702411838092600e-02
3.571999999999999886e+01,5.256532229546848067e-02
3.575999999999999801e+01,1.031574839768924917e-01
3.579999999999999716e+01,1.192356214679792664e-01
3.584000000000000341e+01,9.064897618545537938e-02
3.588000000000000256e+01,9.738552428107256909e-02
3.592000000000000171e+01,9.803017124994969911e-02
3.596000000000000085e+01,2.883615407177157058e-02
3.600000000000000000e+01,7.860757911895091543e-02
3.603999999999999915e+01,1.023916160423209154e-01
3.607999999999999829e+01,9.694002198156057015e-02
3.611999999999999744e+01,5.941058441299317677e-02
3.615999999999999659e+01,8.400234127091964209e-02
3.620000000000000284e+01,1.228037126641505911e-01
3.624000000000000199e+01,7.227696258123358919e-02
3.628000000000000114e+01,4.083219073901839941e-02
3.632000000000000028e+01,1.303830114680466778e-01
3.635999999999999943e+01,4.574536986077637479e-02
3.639999999999999858e+01,9.875056429283038395e-02
3.643999999999999773e+01,7.907488021531640376e-02
3.647999999999999687e+01,5.371332300736999382e-02
3.652000000000000313e+01,9.412723175121361086e-02
3.656000000000000227e+01,9.271856706895204026e-02
3.660000000000000142e+01,5.841999619959212242e-02
3.664000000000000057e+01,7.690392000790517713e-02
3.667999999999999972e+01,6.127984628485339674e-02
3.671999999999999886e+01,7.285835569655252364e-02
3.675999999999999801e+01,6.332183801516920452e-02
3.679999999999999716e+01,7.570950875782772593e-02
3.684000000000000341e+01,8.078718351897459793e-02
3.688000000000000256e+01,8.139707448795276135e-02
3.692000000000000171e+01,6.048590735853669881e-02
3.696000000000000085e+01,8.667280885643866006e-02
3.700000000000000000e+01,8.321804518872730205e-02
3.703999999999999915e+01,5.824222292112085642e-02
3.707999999999999829e+01,6.371722497691738318e-02
3.711999999999999744e+01,9.395862647593017369e-02
3.715999999999999659e+01,1.043030902201243781e-01
3.720000000000000284e+01,1.044953441217948975e-01
3.724000000000000199e+01,5.718059704250345876e-02
3.728000000000000114e+01,9.675489024433203689e-02
3.732000000000000028e+01,6.121211923905525015e-02
3.735999999999999943e+01,5.327795903050326631e-02
3.739999999999999858e+01,5.792928699567174294e-02
3.743999999999999773e+01,9.465555912631795632e-02
3.747999999999999687e+01,1.135150438480314744e-01
3.752000000000000313e+01,1.238464387364632546e-01
3.756000000000000227e+01,8.504670996002060279e-02
3.760000000000000142e+01,9.090886511636017686e-02
3.764000000000000057e+01,1.121987197999285840e-01
3.767999999999999972e+01,9.166599637671847545e-02
3.771999999999999886e+01,1.097047013351258871e-01
3.775999999999999801e+01,1.460133176757712758e-01
3.779999999999999716e+01,1.400933250714931633e-01
3.784000000000000341e+01,1.759930030404860402e-01
3.788000000000000256e+01,1.968681042853869523e-01
3.792000000000000171e+01,2.693076038486871826e-01
3.796000000000000085e+01,3.709798330477855899e-01
3.800000000000000000e+01,5.420817950432968990e-01
3.803999999999999915e+01,8.573230716105976201e-01
3.807999999999999829e+01,1.000000000000000000e+00
3.811999999999999744e+01,9.640221249946729909e-01
3.815999999999999659e+01,8.094819362508002270e-01
3.820000000000000284e+01,6.228638953064412620e-01
3.824000000000000199e+01,3.956413649249001518e-01
3.828000000000000114e+01,3.369199683108022869e-01
3.832000000000000028e+01,2.473388100046504112e-01
3.835999999999999943e+01,1.675009235037034638e-01
3.839999999999999858e+01,1.656194051970297232e-01
3.843999999999999773e+01,1.357203370533111297e-01
3.847999999999999687e+01,1.598218469075206594e-01
3.852000000000000313e+01,1.258595616786765403e-01
3.856000000000000227e+01,1.312807619942335524e-01
3.860000000000000142e+01,1.099025028140109134e-01
3.864000000000000057e+01,1.161328490811720238e-01
3.867999999999999972e+01,7.851046137916077583e-02
3.871999999999999886e+01,8.798613494912396749e-02
3.875999999999999801e+01,9.055783485020844903e-02
3.879999999999999716e+01,7.729289350907370126e-02
3.884000000000000341e+01,9.326067812606528284e-02
3.888000000000000256e+01,6.821794029455986730e-02
3.892000000000000171e+01,9.433356626563675629e-02
3.896000000000000085e+01,5.223463689871774701e-02
3.900000000000000000e+01,7.022673840622092878e-02
3.903999999999999915e+01,8.618722911440816759e-02
3.907999999999999829e+01,1.382829605006726525e-01
3.911999999999999744e+01,1.014565887114163428e-01
3.915999999999999659e+01,6.828303033436307345e-02
3.920000000000000284e+01,7.977134920341573399e-02
3.924000000000000199e+01,9.491248115033748545e-02
3.928000000000000114e+01,5.808026988769822430e-02
3.932000000000000028e+01,7.727878479570349235e-02
3.935999999999999943e+01,7.495623140813317820e-02
3.939999999999999858e+01,8.765533985580363507e-02
3.943999999999999773e+01,7.152483361396801131e-02
3.947999999999999687e+01,7.691247425934742699e-02
3.952000000000000313e+01,8.229865378262932185e-02
3.956000000000000227e+01,2.271851815356562554e-02
3.960000000000000142e+01,1.056535692302049134e-01
3.964000000000000057e+01,7.246248240298826249e-02
3.967999999999999972e+01,7.297045172647999289e-02
3.971999999999999886e+01,7.469505010197238781e-02
3.975999999999999801e+01,8.900512678833773228e-02
3.979999999999999716e+01,1.077800748855242130e-01
3.984000000000000341e+01,5.265603925402291552e-02
3.988000000000000256e+01,9.335370044396684719e-02
3.992000000000000171e+01,9.263480450242984887e-02
3.996000000000000085e+01,8.501192987700714743e-02
4.000000000000000000e+01,8.307201683650346224e-02
4.003999999999999915e+01,8.681506521375233210e-02
4.007999999999999829e+01,8.487222541554724498e-02
4.011999999999999744e+01,6.952892087848060176e-02
4.015999999999999659e+01,7.976406375323420728e-02
4.020000000000000284e+01,8.268919660445631092e-02
4.024000000000000199e+01,8.398874397799957481e-02
4.028000000000000114e+01,8.691094839985107068e-02
4.032000000000000028e+01,6.750001984083284223e-02
4.035999999999999943e+01,7.041929516464635885e-02
4.039999999999999858e+01,7.942756073835426089e-02
4.043999999999999773e+01,5.229766138378690032e-02
4.047999999999999687e+01,5.358842046021430189e-02
4.052000000000000313e+01,1.100978400189906448e-01
4.056000000000000227e+01,1.016409402462487566e-01
4.060000000000000142e+01,9.643081753105704756e-02
4.064000000000000057e+01,7.213580319081425163e-02
4.067999999999999972e+01,8.681823519848252957e-02
4.071999999999999886e+01,7.104692582072684448e-02
4.075999999999999801e+01,1.307957927545314869e-01
4.079999999999999716e+01,6.264363717395660114e-02
4.084000000000000341e+01,1.029001148387930220e-01
4.088000000000000256e+01,8.062645385464151104e-02
4.092000000000000171e+01,9.164581350237999136e-02
4.096000000000000085e+01,9.210691725726168066e-02
4.100000000000000000e+01,7.673137057574433428e-02
4.103999999999999915e+01,8.531014628179839354e-02
4.107999999999999829e+01,9.348142400960136877e-02
4.111999999999999744e+01,1.134261136913140428e-01
4.115999999999999659e+01,5.094517705830197557e-02
4.120000000000000284e+01,5.058541378875372474e-02
4.124000000000000199e+01,7.214982038772098372e-02
4.128000000000000114e+01,7.747154504347657233e-02
4.132000000000000028e+01,8.644607408442234187e-02
4.135999999999999943e+01,8.445631522419799753e-02
4.139999999999999858e+01,8.936760310798402829e-02
4.143999999999999773e+01,1.044281802617676586e-01
4.147999999999999687e+01,7.035761736832024660e-02
4.152000000000000313e+01,8.906952875818359427e-02
4.156000000000000227e+01,8.341815030178170720e-02
4.160000000000000142e+01,8.182560539704597513e-02
4.164000000000000057e+01,1.297672915809662542e-01
4.167999999999999972e+01,8.066625715779865424e-02
4.171999999999999886e+01,7.419693776600069790e-02
4.175999999999999801e+01,8.843369505961579113e-02
4.179999999999999716e+01,1.111956187721492711e-01
4.184000000000000341e+01,5.640427736785154356e-02
4.188000000000000256e+01,5.439540874236239304e-02
4.192000000000000171e+01,1.063871037384477997e-01
4.196000000000000085e+01,3.413204440211166368e-02
4.200000000000000000e+01,9.870773702844472253e-02
4.203999999999999915e+01,9.141458841513185052e-02
4.207999999999999829e+01,9.021042303070331281e-02
4.211999999999999744e+01,9.590730138128086835e-02
4.215999999999999659e+01,6.952631098184901270e-02
4.220000000000000284e+01,7.278406283516765385e-02
4.224000000000000199e+01,7.563431186239512327e-02
4.228000000000000114e+01,6.995645116347926074e-02
4.232000000000000028e+01,8.254848278977425236e-02
4.235999999999999943e+01,9.838728411827556142e-02
4.239999999999999858e+01,4.763563707900392991e-02
4.243999999999999773e+01,7.078003798370562094e-02
4.247999999999999687e+01,7.159129688052483231e-02
4.252000000000000313e+01,1.061016000592021197e-01
4.256000000000000227e+01,7.929984857781405272e-02
4.260000000000000142e+01,6.711371522167032533e-02
4.264000000000000057e+01,6.670098746709395010e-02
4.267999999999999972e+01,6.141442134450348506e-02
4.271999999999999886e+01,1.283997806491410654e-01
4.275999999999999801e+01,8.778562608043354032e-02
4.279999999999999716e+01,8.817906068301248346e-02
4.284000000000000341e+01,6.826950345642791851e-02
4.288000000000000256e+01,9.180371708666151820e-02
4.292000000000000171e+01,9.828318124655188726e-02
4.296000000000000085e+01,6.537622725349798158e-02
4.300000000000000000e+01,5.236328409039448656e-02
4.303999999999999915e+01,9.253883919490354937e-02
4.307999999999999829e+01,1.225621598833543519e-01
4.311999999999999744e+01,1.180714257899242586e-01
4.315999999999999659e+01,1.188576097385837527e-01
4.320000000000000284e+01,1.034011037200203154e-01
4.324000000000000199e+01,9.078533338934688390e-02
4.328000000000000114e+01,1.163349378674472939e-01
4.332000000000000028e+01,1.061523957178994865e-01
4.335999999999999943e+01,5.171106970400742020e-02
4.339999999999999858e+01,8.131654603818946891e-02
4.343999999999999773e+01,1.117326055412057872e-01
4.347999999999999687e+01,9.098736495542465719e-02
4.352000000000000313e+01,7.227079821407687843e-02
4.356000000000000227e+01,1.026824242007294136e-01
4.360000000000000142e+01,1.233478439347981126e-01
4.364000000000000057e+01,7.823487079220831086e-02
4.367999999999999972e+01,9.524306064873430677e-02
4.371999999999999886e+01,9.357237634500210899e-02
4.375999999999999801e+01,1.207283671012228943e-01
4.379999999999999716e+01,1.263632710063417319e-01
4.384000000000000341e+01,1.027625114969507730e-01
4.388000000000000256e+01,1.104246085658775467e-01
4.392000000000000171e+01,1.347324699267619941e-01
4.396000000000000085e+01,1.233081819853278221e-01
4.400000000000000000e+01,1.614181152697023169e-01
4.403999999999999915e+01,1.711044449770210696e-01
4.407999999999999829e+01,1.811953248418594620e-01
4.411999999999999744e+01,2.164586052323503595e-01
4.415999999999999659e+01,2.155837051480439526e-01
4.420000000000000284e+01,3.348923040298124043e-01
4.424000000000000199e+01,3.449772615064833348e-01
4.428000000000000114e+01,3.538426469582624523e-01
4.432000000000000028e+01,3.440291557422798241e-01
4.435999999999999943e+01,3.463950932763317780e-01
4.439999999999999858e+01,2.708017246582265503e-01
4.443999999999999773e+01,2.382460900407859516e-01
4.447999999999999687e+01,2.166517926619465628e-01
4.452000000000000313e+01,1.905896795620599105e-01
4.456000000000000227e+01,1.653381449503342482e-01
4.460000000000000142e+01,1.522660380856419582e-01
4.464000000000000057e+01,1.172668105226984392e-01
4.467999999999999972e+01,1.188088305711101217e-01
4.471999999999999886e+01,1.016719722800907277e-01
4.475999999999999801e+01,1.036170567903896000e-01
4.479999999999999716e+01,1.120571434988675563e-01
4.484000000000000341e+01,1.213078075253384569e-01
4.488000000000000256e+01,1.041650161474697994e-01
4.492000000000000171e+01,1.130066826252040940e-01
4.496000000000000085e+01,1.072297731269485493e-01
4.500000000000000000e+01,9.048856051533474276e-02
4.503999999999999915e+01,9.973180525782310291e-02
4.507999999999999829e+01,9.273235217624398175e-02
4.511999999999999744e+01,1.052208707281250821e-01
4.515999999999999659e+01,1.189259955973079735e-01
4.520000000000000284e+01,8.918438958575736208e-02
4.524000000000000199e+01,1.012624232216005060e-01
4.528000000000000114e+01,8.735303011807937779e-02
4.532000000000000028e+01,8.684115276252017679e-02
4.535999999999999943e+01,1.253067021963441552e-01
4.539999999999999858e+01,8.581294129883827726e-02
4.543999999999999773e+01,1.076282753718159207e-01
4.547999999999999687e+01,9.086924143362284934e-02
4.552000000000000313e+01,4.690468874313144521e-02
4.556000000000000227e+01,1.194693563052418445e-01
4.560000000000000142e+01,1.213832587597845208e-01
4.564000000000000057e+01,6.685745772214150839e-02
4.567999999999999972e+01,9.719051017734754716e-02
4.571999999999999886e+01,7.148988914267838390e-02
4.575999999999999801e+01,7.989432918599229105e-02
4.579999999999999716e+01,6.799576502979186310e-02
4.584000000000000341e+01,7.842738185455720712e-02
4.588000000000000256e+01,1.099710884831886920e-01
4.592000000000000171e+01,8.872936347926449474e-02
4.596000000000000085e+01,9.834445602433472544e-02
4.600000000000000000e+01,9.455905925700859582e-02
4.603999999999999915e+01,9.483247748582196435e-02
4.607999999999999829e+01,1.003828015535409429e-01
4.611999999999999744e+01,7.832157402481386421e-02
4.615999999999999659e+01,1.013282249917955152e-01
4.620000000000000284e+01,1.093102644639692700e-01
4.624000000000000199e+01,9.211693385806157819e-02
4.628000000000000114e+01,9.197538801790841601e-02
4.632000000000000028e+01,7.396701782493671218e-02
4.635999999999999943e+01,9.371797923224278737e-02
4.639999999999999858e+01,9.357196426917521737e-02
4.643999999999999773e+01,1.043872783535305937e-01
4.647999999999999687e+01,6.363524947492649186e-02
4.652000000000000313e+01,6.713903691424075171e-02
4.656000000000000227e+01,1.023117000683343436e-01
4.660000000000000142e+01,8.672908043125629463e-02
4.664000000000000057e+01,6.099421150026525240e-02
4.667999999999999972e+01,7.910912788188072253e-02
4.671999999999999886e+01,8.625973396196100207e-02
4.675999999999999801e+01,7.026511947401127556e-02
4.679999999999999716e+01,7.172831791529069023e-02
4.684000000000000341e+01,1.020181785446713923e-01
4.688000000000000256e+01,1.229678495504262364e-01
4.692000000000000171e+01,8.828987238794305803e-02
4.696000000000000085e+01,1.262898332696402448e-01
4.700000000000000000e+01,7.577368838058068379e-02
4.703999999999999915e+01,1.064621182708971880e-01
4.707999999999999829e+01,8.598923302739482077e-02
4.711999999999999744e+01,7.038721893981415845e-02
4.715999999999999659e+01,8.686010839615368462e-02
4.720000000000000284e+01,7.247319904938651081e-02
4.724000000000000199e+01,7.229585809985832057e-02
4.728000000000000114e+01,9.241854043006610120e-02
4.732000000000000028e+01,9.183218187177293046e-02
4.735999999999999943e+01,5.794984182183988281e-02
4.739999999999999858e+01,6.994743575873028918e-02
4.743999999999999773e+01,1.197043567823921351e-01
4.747999999999999687e+01,9.881050484164162484e-02
4.752000000000000313e+01,4.949303478031485265e-02
4.756000000000000227e+01,9.640325978103182758e-02
4.760000000000000142e+01,9.905468319771257302e-02
4.764000000000000057e+01,8.871164078479804038e-02
4.767999999999999972e+01,9.257816493028644955e-02
4.771999999999999886e+01,7.979594988204749550e-02
4.775999999999999801e+01,9.178008981062844851e-02
4.779999999999999716e+01,1.110712800731594452e-01
4.784000000000000341e+01,9.381824414489366160e-02
4.788000000000000256e+01,8.549637956282093998e-02
4.792000000000000171e+01,9.463232322930399676e-02
4.796000000000000085e+01,7.981098063946148735e-02
4.800000000000000000e+01,9.341026505323589413e-02
4.803999999999999915e+01,9.117286960923615124e-02
4.807999999999999829e+01,8.893397726942132986e-02
4.811999999999999744e+01,6.436191935119051077e-02
4.815999999999999659e+01,8.688788325354458719e-02
4.820000000000000284e+01,9.682540932261111954e-02
4.824000000000000199e+01,1.120398322035703470e-01
4.828000000000000114e+01,6.188187315315456932e-02
4.832000000000000028e+01,1.026732116122360261e-01
4.835999999999999943e+01,8.134041049876278295e-02
4.839999999999999858e+01,7.827747630113079946e-02
4.843999999999999773e+01,9.064219649566353232e-02
4.847999999999999687e+01,1.147802978853956074e-01
4.852000000000000313e+01,9.547165451954128801e-02
4.856000000000000227e+01,1.005233324505245135e-01
4.860000000000000142e+01,1.092277843423212214e-01
4.864000000000000057e+01,8.585434040307006465e-02
4.867999999999999972e+01,7.750251951633768677e-02
4.871999999999999886e+01,9.269895858448690129e-02
4.875999999999999801e+01,1.062697765684066514e-01
4.879999999999999716e+01,9.994360815193854830e-02
4.884000000000000341e+01,8.062296889086799367e-02
4.888000000000000256e+01,8.403852824272269040e-02
4.892000000000000171e+01,9.800937594100818384e-02
4.896000000000000085e+01,1.050762073428543886e-01
4.900000000000000000e+01,6.829026164646696817e-02
4.903999999999999915e+01,9.403148688547448286e-02
4.907999999999999829e+01,1.051541189303011326e-01
4.911999999999999744e+01,1.146511283863962116e-01
4.915999999999999659e+01,6.039987358002148893e-02
4.920000000000000284e+01,5.852503062426754610e-02
4.924000000000000199e+01,9.765774992592850257e-02
4.928000000000000114e+01,8.765929658281210179e-02
4.932000000000000028e+01,8.821612991445745844e-02
4.935999999999999943e+01,1.155694632194677607e-01
4.939999999999999858e+01,7.308407620934295745e-02
4.943999999999999773e+01,8.744143374992445483e-02
4.947999999999999687e+01,1.001731671972722615e-01
4.952000000000000313e+01,8.569936517563130074e-02
4.956000000000000227e+01,7.690848478601948479e-02
4.960000000000000142e+01,9.532013370341550773e-02
4.964000000000000057e+01,1.112940971856217764e-01
4.967999999999999972e+01,1.065590099164796661e-01
4.971999999999999886e+01,7.137014364936022925e-02
4.975999999999999801e+01,9.586623295212165496e-02
4.979999999999999716e+01,9.884121032874551571e-02
4.984000000000000341e+01,9.694231941447947754e-02
4.988000000000000256e+01,7.880071061611745864e-02
4.992000000000000171e+01,8.217720507440846867e-02
4.996000000000000085e+01,8.311601276017450968e-02
5.000000000000000000e+01,9.298598293228772793e-02
5.003999999999999915e+01,7.199614243244412126e-02
5.007999999999999829e+01,1.054128617887707398e-01
5.011999999999999744e+01,1.140602251884705320e-01
5.015999999999999659e+01,7.763671563216381633e-02
5.020000000000000284e+01,7.978458230140053620e-02
5.024000000000000199e+01,8.883345877076187502e-02
5.028000000000000114e+01,9.097831342717606351e-02
5.032000000000000028e+01,7.809853937059105244e-02
5.035999999999999943e+01,8.633083639517898089e-02
5.039999999999999858e+01,8.522292908545342494e-02
5.043999999999999773e+01,1.011667891561244120e-01
5.047999999999999687e+01,9.112320075573365763e-02
5.052000000000000313e+01,1.192449569069068682e-01
5.056000000000000227e+01,1.079802631434241544e-01
5.060000000000000142e+01,6.138942266456096780e-02
5.064000000000000057e+01,6.270865431522336386e-02
5.067999999999999972e+01,1.147801702847540545e-01
5.071999999999999886e+01,9.579486941270916323e-02
5.075999999999999801e+01,1.235015491587562048e-01
5.079999999999999716e+01,9.314438250150995635e-02
5.084000000000000341e+01,6.887616246359619387e-02
5.088000000000000256e+01,6.125367763059867687e-02
5.092000000000000171e+01,7.920959524152410003e-02
5.096000000000000085e+01,1.117810960398108594e-01
5.100000000000000000e+01,6.964150579655506434e-02
5.103999999999999915e+01,7.703610735773282203e-02
5.107999999999999829e+01,7.955683544584672695e-02
5.111999999999999744e+01,8.167002359681657664e-02
5.115999999999999659e+01,9.515055140615907847e-02
5.120000000000000284e+01,9.401247716147471956e-02
5.124000000000000199e+01,6.648092093291327331e-02
5.128000000000000114e+01,9.904034425853448786e-02
5.132000000000000028e+01,9.464949651319407020e-02
5.135999999999999943e+01,8.782095614448701126e-02
5.139999999999999858e+01,8.220899601504459697e-02
5.143999999999999773e+01,9.892719346320137663e-02
5.147999999999999687e+01,1.119896067765581565e-01
5.152000000000000313e+01,1.006886886190904856e-01
5.156000000000000227e+01,8.938625902228722331e-02
5.160000000000000142e+01,1.073165020573680628e-01
5.164000000000000057e+01,1.110341715362302278e-01
5.167999999999999972e+01,8.267393247935971023e-02
5.171999999999999886e+01,9.775742733542158724e-02
5.175999999999999801e+01,8.482331668785936252e-02
5.179999999999999716e+01,9.218921043017307138e-02
5.184000000000000341e+01,9.386916684996311766e-02
5.188000000000000256e+01,9.717173183965921446e-02
5.192000000000000171e+01,7.935920638001611738e-02
5.196000000000000085e+01,1.074265958501694485e-01
5.200000000000000000e+01,9.732562039759104500e-02
5.203999999999999915e+01,1.111789213616851957e-01
5.207999999999999829e+01,7.833721999918437373e-02
5.211999999999999744e+01,6.701361269915692698e-02
5.215999999999999659e+01,9.750961612664861555e-02
5.220000000000000284e+01,1.089206796178541353e-01
5.224000000000000199e+01,8.175734684668226060e-02
5.228000000000000114e+01,8.423271420220113104e-02
5.232000000000000028e+01,1.110683871408685852e-01
5.235999999999999943e+01,1.042020273553889848e-01
5.239999999999999858e+01,1.074849110361751764e-01
5.243999999999999773e+01,1.245713110458585154e-01
5.247999999999999687e+01,6.572852281889121628e-02
5.252000000000000313e+01,9.661692353896352004e-02
5.256000000000000227e+01,6.253895477744637887e-02
5.260000000000000142e+01,7.758914096420910234e-02
5.264000000000000057e+01,9.588605389128390666e-02
5.267999999999999972e+01,7.357841703392394017e-02
5.271999999999999886e+01,1.166401480891135489e-01
5.275999999999999801e+01,8.986314478714799159e-02
5.279999999999999716e+01,8.541629337910715269e-02
5.284000000000000341e+01,1.057357757176891899e-01
5.288000000000000256e+01,1.122487096545229796e-01
5.292000000000000171e+01,1.029249433392204621e-01
5.296000000000000085e+01,9.522378108031750998e-02
5.300000000000000000e+01,1.114768912260816064e-01
5.303999999999999915e+01,7.047820628049429603e-02
5.307999999999999829e+01,6.480264283127934455e-02
5.311999999999999744e+01,7.008838051261434554e-02
5.315999999999999659e+01,1.009525112765258387e-01
5.320000000000000284e+01,8.755781705303450346e-02
5.324000000000000199e+01,7.456763470584172604e-02
5.328000000000000114e+01,1.139538471582456497e-01
5.332000000000000028e+01,1.013666577255052104e-01
5.335999999999999943e+01,9.365031337064953776e-02
5.339999999999999858e+01,7.943596450047236968e-02
5.343999999999999773e+01,8.511558282968376132e-02
5.347999999999999687e+01,9.444795472534631142e-02
5.352000000000000313e+01,1.054029283370719189e-01
5.356000000000000227e+01,6.803877209045014474e-02
5.360000000000000142e+01,1.098490115246106569e-01
5.364000000000000057e+01,8.912905898354088474e-02
5.367999999999999972e+01,8.830307263885807390e-02
5.371999999999999886e+01,9.559617256071209490e-02
5.375999999999999801e+01,1.162867529583111598e-01
5.379999999999999716e+01,9.393659687093652844e-02
5.384000000000000341e+01,8.945025462806016625e-02
5.388000000000000256e+01,1.040458170724476716e-01
5.392000000000000171e+01,8.128506724338051270e-02
5.396000000000000085e+01,9.668964758952375282e-02
5.400000000000000000e+01,1.210253737053236800e-01
5.403999999999999915e+01,1.006962409865715807e-01
5.407999999999999829e+01,8.117764697025740828e-02
5.411999999999999744e+01,1.014485038070629536e-01
5.415999999999999659e+01,9.167159342700897939e-02
5.420000000000000284e+01,8.514140326775770928e-02
5.424000000000000199e+01,1.029715106676437619e-01
5.428000000000000114e+01,9.197194135910231882e-02
5.432000000000000028e+01,8.340703109657426895e-02
5.435999999999999943e+01,8.823959880228790520e-02
5.439999999999999858e+01,6.870882300116011587e-02
5.443999999999999773e+01,1.145474079244050286e-01
5.447999999999999687e+01,8.039649288621159018e-02
5.452000000000000313e+01,7.547823827671813757e-02
5.456000000000000227e+01,6.406197430406303239e-02
5.460000000000000142e+01,1.001497355747657109e-01
5.464000000000000057e+01,7.370730069106547211e-02
5.467999999999999972e+01,7.487340422082049141e-02
5.471999999999999886e+01,9.146713589753627249e-02
5.475999999999999801e+01,1.190221618509590129e-01
5.479999999999999716e+01,1.002882044470814193e-01
5.484000000000000341e+01,7.952257021296071926e-02
5.488000000000000256e+01,8.230517019001841461e-02
5.492000000000000171e+01,1.001093671415578257e-01
5.496000000000000085e+01,7.730900478014901545e-02
5.500000000000000000e+01,7.359054242533089041e-02
5.503999999999999915e+01,1.303690742476508735e-01
5.507999999999999829e+01,8.726261710546022454e-02
5.511999999999999744e+01,8.272751562728383745e-02
5.515999999999999659e+01,6.316776520891304036e-02
5.520000000000000284e+01,7.811906675378010867e-02
5.524000000000000199e+01,6.708289993472384138e-02
5.528000000000000114e+01,8.162511733839811212e-02
5.532000000000000028e+01,1.075346570150868958e-01
5.535999999999999943e+01,1.042084851331975121e-01
5.539999999999999858e+01,1.004747554273054122e-01
5.543999999999999773e+01,7.237767786823255667e-02
5.547999999999999687e+01,6.417455898303600637e-02
5.552000000000000313e+01,8.276791432750127409e-02
5.556000000000000227e+01,8.999089208990136701e-02
5.560000000000000142e+01,1.134535549948786776e-01
5.564000000000000057e+01,8.494280631903107504e-02
5.567999999999999972e+01,8.444662221411061709e-02
5.571999999999999886e+01,9.409966770060279595e-02
5.575999999999999801e+01,9.522454712570496693e-02
5.579999999999999716e+01,9.269362436198122501e-02
5.584000000000000341e+01,8.813102058884193790e-02
5.588000000000000256e+01,9.046940304529361987e-02
5.592000000000000171e+01,9.889671089088095113e-02
5.596000000000000085e+01,1.126008832851486396e-01
5.600000000000000000e+01,1.165587976050919822e-01
5.603999999999999915e+01,9.006290651468708275e-02
5.607999999999999829e+01,9.523585135333854923e-02
5.611999999999999744e+01,7.969971852677004698e-02
5.615999999999999659e+01,8.689975388875033346e-02
5.620000000000000284e+01,9.085001572688014559e-02
5.624000000000000199e+01,9.601683757707910050e-02
5.628000000000000114e+01,9.549770354922812454e-02
5.632000000000000028e+01,8.685643145629476369e-02
5.635999999999999943e+01,7.577744584413172169e-02
5.639999999999999858e+01,1.073301139130846682e-01
5.643999999999999773e+01,1.319787344253871564e-01
5.647999999999999687e+01,9.490921176689780248e-02
5.652000000000000313e+01,9.478691757500398718e-02
5.656000000000000227e+01,7.111333152254448176e-02
5.660000000000000142e+01,7.180003316637498245e-02
5.664000000000000057e+01,8.832038526979898996e-02
5.667999999999999972e+01,5.895777649572252199e-02
5.671999999999999886e+01,8.562582117468718612e-02
5.675999999999999801e+01,6.559884396852923294e-02
5.679999999999999716e+01,6.830803227624941687e-02
5.684000000000000341e+01,7.060965674195837649e-02
5.688000000000000256e+01,9.727156773378889398e-02
5.692000000000000171e+01,6.140327304270289804e-02
5.696000000000000085e+01,7.953547911843537876e-02
5.700000000000000000e+01,7.858272519785323984e-02
5.703999999999999915e+01,1.019902571347249959e-01
5.707999999999999829e+01,7.992085685907138193e-02
5.711999999999999744e+01,7.815143874009530811e-02
5.715999999999999659e+01,9.059154756096622629e-02
5.720000000000000284e+01,1.087145460849874568e-01
5.724000000000000199e+01,9.760182519358602538e-02
5.728000000000000114e+01,7.877299256174087605e-02
5.732000000000000028e+01,9.567329404322037767e-02
5.735999999999999943e+01,9.633084638039285386e-02
5.739999999999999858e+01,8.805419546568804545e-02
5.743999999999999773e+01,7.206143214187174517e-02
5.747999999999999687e+01,1.015425303421747805e-01
5.752000000000000313e+01,8.879493718427076965e-02
5.756000000000000227e+01,8.700862660139027649e-02
5.760000000000000142e+01,1.055222961691845013e-01
5.764000000000000057e+01,8.667963791700197818e-02
5.767999999999999972e+01,8.082841342156370235e-02
5.771999999999999886e+01,7.335153039650950391e-02
5.775999999999999801e+01,8.170829315037546337e-02
5.779999999999999716e+01,7.382230492109854991e-02
5.784000000000000341e+01,9.516896324566838372e-02
5.788000000000000256e+01,9.296432419316483231e-02
5.792000000000000171e+01,8.466769207212411497e-02
5.796000000000000085e+01,9.058058354759190856e-02
5.800000000000000000e+01,7.943866253079373552e-02
5.803999999999999915e+01,8.413038612274735539e-02
5.807999999999999829e+01,7.014317554152435519e-02
5.811999999999999744e+01,1.004117327998172993e-01
5.815999999999999659e+01,9.413602073825221017e-02
5.820000000000000284e+01,8.867083016093399439e-02
5.824000000000000199e+01,9.213676763358066846e-02
5.828000000000000114e+01,1.081881060188237681e-01
5.832000000000000028e+01,8.119868902923321752e-02
5.835999999999999943e+01,7.369718834085758896e-02
5.839999999999999858e+01,6.253987459780729896e-02
5.843999999999999773e+01,6.762223412848415716e-02
5.847999999999999687e+01,6.092817353726756591e-02
5.852000000000000313e+01,7.859439261832931733e-02
5.856000000000000227e+01,8.326610023323098575e-02
5.860000000000000142e+01,9.808702540352844113e-02
5.864000000000000057e+01,9.788328709011048789e-02
5.867999999999999972e+01,1.053925839778888929e-01
5.871999999999999886e+01,9.625309570104123580e-02
5.875999999999999801e+01,8.914221757803637847e-02
5.879999999999999716e+01,7.878155506533224273e-02
5.884000000000000341e+01,7.369774506529119806e-02
5.888000000000000256e+01,8.972597053987244053e-02
5.892000000000000171e+01,7.124007520164578333e-02
5.896000000000000085e+01,8.929536779618925391e-02
5.900000000000000000e+01,8.014508530318784074e-02
5.903999999999999915e+01,7.342944213050507651e-02
5.907999999999999829e+01,5.899767969486775787e-02
5.911999999999999744e+01,8.232519553326607398e-02
5.915999999999999659e+01,7.276271090243185968e-02
5.920000000000000284e+01,9.689920084485664775e-02
5.924000000000000199e+01,7.109241584465668395e-02
5.928000000000000114e+01,7.167605902378512694e-02
5.932000000000000028e+01,1.274782841168174974e-01
5.935999999999999943e+01,9.517038212116406271e-02
5.939999999999999858e+01,7.098154265434702959e-02
5.943999999999999773e+01,1.011992239266445714e-01
5.947999999999999687e+01,6.726256747076674036e-02
5.952000000000000313e+01,8.610831007309295571e-02
5.956000000000000227e+01,9.114747635679773530e-02
5.960000000000000142e+01,4.989763922317388273e-02
5.964000000000000057e+01,7.158095906235972805e-02
5.967999999999999972e+01,8.189388410128897733e-02
5.971999999999999886e+01,8.043038383615067066e-02
5.975999999999999801e+01,7.937136819910561858e-02
5.979999999999999716e+01,1.047027785682194817e-01
5.984000000000000341e+01,8.496327552693581919e-02
5.988000000000000256e+01,9.851671388042966548e-02
5.992000000000000171e+01,7.105954185563490011e-02
5.996000000000000085e+01,7.445912887141802050e-02
