2.003999999999999915e+01,7.756367081097780523e-03
2.007999999999999829e+01,1.731929972749905386e-02
2.012000000000000099e+01,1.294401562543700916e-02
2.016000000000000014e+01,1.889970947983589389e-02
2.019999999999999929e+01,1.550865440385508671e-02
2.023999999999999844e+01,8.838148472994038565e-03
2.028000000000000114e+01,1.077681706315449656e-02
2.032000000000000028e+01,9.108071095052516775e-03
2.035999999999999943e+01,8.341388662390057662e-03
2.039999999999999858e+01,1.003458894598935509e-02
2.044000000000000128e+01,1.017013540234383041e-02
2.048000000000000043e+01,1.760300396911752829e-02
2.051999999999999957e+01,1.363935406376242526e-02
2.055999999999999872e+01,9.511886859318032308e-03
2.060000000000000142e+01,2.161870662636345905e-02
2.064000000000000057e+01,1.544180138830037775e-02
2.067999999999999972e+01,1.147880168359668475e-02
2.071999999999999886e+01,1.079558354092784687e-02
2.076000000000000156e+01,7.406837808200856382e-03
2.080000000000000071e+01,1.221730355702402293e-02
2.083999999999999986e+01,1.866773795779991252e-02
2.087999999999999901e+01,3.307141066210145253e-02
2.092000000000000171e+01,6.772689967261928679e-02
2.096000000000000085e+01,9.172377612849696993e-02
2.100000000000000000e+01,6.521464390488085350e-02
2.103999999999999915e+01,3.731182689010194287e-02
2.107999999999999829e+01,2.031390308685075349e-02
2.112000000000000099e+01,1.438485274486723219e-02
2.116000000000000014e+01,1.722894035315819528e-02
2.119999999999999929e+01,1.621962420565091489e-02
2.123999999999999844e+01,7.257377233481005115e-03
2.128000000000000114e+01,1.502134676836288860e-02
2.132000000000000028e+01,8.437122898724763037e-03
2.135999999999999943e+01,1.361103609054731137e-03
2.139999999999999858e+01,1.330703313352751133e-02
2.144000000000000128e+01,9.264956343398040445e-03
2.148000000000000043e+01,1.268416269001408289e-02
2.151999999999999957e+01,1.208597782231168698e-02
2.155999999999999872e+01,6.158552533590919142e-03
2.160000000000000142e+01,1.015212373942224987e-02
2.164000000000000057e+01,2.062308857380341920e-02
2.167999999999999972e+01,1.805770120060882361e-02
2.171999999999999886e+01,1.278676701394235171e-02
2.176000000000000156e+01,2.284820079153865660e-02
2.180000000000000071e+01,3.086001035657417665e-02
2.183999999999999986e+01,6.207527671826763849e-02
2.187999999999999901e+01,8.951911623293590248e-02
2.192000000000000171e+01,8.121522321007151879e-02
2.196000000000000085e+01,3.675364422191008257e-02
2.200000000000000000e+01,1.779125353652202812e-02
2.203999999999999915e+01,1.014368946603686969e-02
2.207999999999999829e+01,1.610668591949669659e-02
2.212000000000000099e+01,1.280488552110703449e-02
2.216000000000000014e+01,9.175254733889654651e-03
2.219999999999999929e+01,9.973243227619880968e-03
2.223999999999999844e+01,9.787475527709059084e-03
2.228000000000000114e+01,7.224111902099527097e-03
2.232000000000000028e+01,1.736940821564596921e-02
2.235999999999999943e+01,1.193663241894095568e-02
2.239999999999999858e+01,1.322720660832335700e-02
2.244000000000000128e+01,1.025439958487596101e-02
2.248000000000000043e+01,1.162721571018933420e-02
2.251999999999999957e+01,7.096838513566253170e-03
2.255999999999999872e+01,1.445521119666804896e-02
2.260000000000000142e+01,9.269156401902603828e-03
2.264000000000000057e+01,1.097042783808665524e-02
2.267999999999999972e+01,1.332774477705397399e-02
2.271999999999999886e+01,1.133968437100458214e-02
2.276000000000000156e+01,6.318094224687351851e-03
2.280000000000000071e+01,9.823637612572931263e-03
2.283999999999999986e+01,1.029564965823957096e-02
2.287999999999999901e+01,1.060379794823378130e-02
2.292000000000000171e+01,6.484574362975729228e-03
2.296000000000000085e+01,1.064650953194480783e-02
2.300000000000000000e+01,1.218486278158152983e-02
2.303999999999999915e+01,7.820012296599425025e-03
2.307999999999999829e+01,1.452399602508205705e-02
2.312000000000000099e+01,1.778449017772781859e-02
2.316000000000000014e+01,1.227210980530588601e-02
2.319999999999999929e+01,1.807453281949540982e-02
2.323999999999999844e+01,6.413084018742007397e-03
2.328000000000000114e+01,1.500340426664620655e-02
2.332000000000000028e+01,1.121326366983838377e-02
2.335999999999999943e+01,1.537631171607086941e-02
2.339999999999999858e+01,1.535794985141759710e-02
2.344000000000000128e+01,2.722832024502672144e-02
2.348000000000000043e+01,2.048694666283068511e-02
2.351999999999999957e+01,2.752008582017464663e-02
2.355999999999999872e+01,2.733816242449294692e-02
2.360000000000000142e+01,3.068193449667843548e-02
2.364000000000000057e+01,3.009026342819797264e-02
2.367999999999999972e+01,1.777404850908757827e-02
2.371999999999999886e+01,2.054419073036373861e-02
2.376000000000000156e+01,1.905092530661623915e-02
2.380000000000000071e+01,2.075538924442685978e-02
2.383999999999999986e+01,1.622867132667614107e-02
2.387999999999999901e+01,1.284991803458810332e-02
2.392000000000000171e+01,8.815337009316184455e-03
2.396000000000000085e+01,1.355383786602878081e-02
2.400000000000000000e+01,1.657063255795523243e-02
2.403999999999999915e+01,1.212638350907586232e-02
2.407999999999999829e+01,1.407748870387888311e-02
2.412000000000000099e+01,1.520878110990459345e-02
2.416000000000000014e+01,1.683210833190179265e-02
2.419999999999999929e+01,1.779960221388610792e-02
2.423999999999999844e+01,5.361315943479805918e-02
2.428000000000000114e+01,9.000073959411260260e-02
2.432000000000000028e+01,9.662584750847780235e-02
2.435999999999999943e+01,5.889416886323430023e-02
2.439999999999999858e+01,3.469101375999492087e-02
2.444000000000000128e+01,1.942491197774875306e-02
2.448000000000000043e+01,2.555842256990193892e-02
2.451999999999999957e+01,2.660860504491784420e-02
2.455999999999999872e+01,2.044370494251884426e-02
2.460000000000000142e+01,2.321585495721075268e-02
2.464000000000000057e+01,4.014626228137298421e-03
2.467999999999999972e+01,1.203433316898718831e-02
2.471999999999999886e+01,1.349487853138209292e-02
2.476000000000000156e+01,1.479152249225273996e-02
2.480000000000000071e+01,5.757439106259602292e-03
2.483999999999999986e+01,1.189168095869481967e-02
2.487999999999999901e+01,1.679614217702800338e-02
2.492000000000000171e+01,1.432153255845061528e-02
2.496000000000000085e+01,1.844154490538226117e-03
2.500000000000000000e+01,1.347206572114923936e-02
2.503999999999999915e+01,1.280147219045651291e-02
2.507999999999999829e+01,1.385275293366379327e-02
2.512000000000000099e+01,5.721167277211555019e-03
2.516000000000000014e+01,5.952686846687868689e-03
2.519999999999999929e+01,1.553119714541043549e-02
2.523999999999999844e+01,1.551688601475789860e-02
2.528000000000000114e+01,8.533449465203476678e-03
2.532000000000000028e+01,1.655434749165505398e-02
2.535999999999999943e+01,1.063692384184275128e-02
2.539999999999999858e+01,1.029492274994132754e-02
2.544000000000000128e+01,9.789006639930885462e-03
2.548000000000000043e+01,1.207083362371588232e-02
2.551999999999999957e+01,1.049917034634090425e-02
2.555999999999999872e+01,1.212520118759905299e-02
2.560000000000000142e+01,5.880204423215241484e-03
2.564000000000000057e+01,1.660730843561934386e-02
2.567999999999999972e+01,1.339608436395512900e-02
2.571999999999999886e+01,6.741318653041970810e-03
2.576000000000000156e+01,5.170025139112887844e-03
2.580000000000000071e+01,1.549027315065910773e-03
2.583999999999999986e+01,1.588401256722238308e-02
2.587999999999999901e+01,2.431573721549439709e-02
2.592000000000000171e+01,1.265983957201162122e-02
2.596000000000000085e+01,2.643808055608493600e-03
2.600000000000000000e+01,1.328944374831300158e-02
2.603999999999999915e+01,1.450622304284659471e-02
2.607999999999999829e+01,1.736286606153311304e-02
2.612000000000000099e+01,1.374230999297744449e-02
2.616000000000000014e+01,1.602512336522784672e-02
2.619999999999999929e+01,9.043058186120556119e-03
2.623999999999999844e+01,1.239184921518797673e-02
2.628000000000000114e+01,1.598666103244834880e-02
2.632000000000000028e+01,1.212038345329534590e-02
2.635999999999999943e+01,1.907690283153702995e-02
2.639999999999999858e+01,1.193109865743451591e-02
2.644000000000000128e+01,1.593605194020653731e-02
2.648000000000000043e+01,1.731735361877169421e-02
2.651999999999999957e+01,1.017168506639448862e-02
2.655999999999999872e+01,1.155307475651643628e-02
2.660000000000000142e+01,1.162265884522903012e-02
2.664000000000000057e+01,2.415484479166282727e-02
2.667999999999999972e+01,9.138255420248488428e-03
2.671999999999999886e+01,1.297952728251049875e-02
2.676000000000000156e+01,1.411515140837876769e-02
2.680000000000000071e+01,1.393896592795985760e-02
2.683999999999999986e+01,1.532063842780028232e-02
2.687999999999999901e+01,1.448860394046694137e-02
2.692000000000000171e+01,1.562437845823065781e-02
2.696000000000000085e+01,1.200473810077839175e-02
2.700000000000000000e+01,6.991293606803394844e-03
2.703999999999999915e+01,1.091485037040954877e-02
2.707999999999999829e+01,1.082090458409295380e-02
2.712000000000000099e+01,1.318670695014221607e-02
2.716000000000000014e+01,9.813204131804418792e-03
2.719999999999999929e+01,1.742646250108983996e-02
2.723999999999999844e+01,9.625532091819712435e-03
2.728000000000000114e+01,1.223742759071723592e-02
2.732000000000000028e+01,1.288157886778301328e-02
2.735999999999999943e+01,1.664139769422338933e-02
2.739999999999999858e+01,1.236617182040562063e-02
2.744000000000000128e+01,1.833978760013766154e-02
2.748000000000000043e+01,1.480252762122047198e-02
2.751999999999999957e+01,1.782453405280209555e-02
2.755999999999999872e+01,1.592713254381872973e-02
2.760000000000000142e+01,1.534160222048546775e-02
2.764000000000000057e+01,1.598595175646910435e-02
2.767999999999999972e+01,1.704027509721629113e-02
2.771999999999999886e+01,1.563490305422934185e-02
2.776000000000000156e+01,2.316651785126330396e-02
2.780000000000000071e+01,1.790762946753244808e-02
2.783999999999999986e+01,2.043785896686251338e-02
2.787999999999999901e+01,1.968848462497840845e-02
2.792000000000000171e+01,2.492443500633307815e-02
2.796000000000000085e+01,2.770068519810022986e-02
2.800000000000000000e+01,2.645941441750657153e-02
2.803999999999999915e+01,2.316839447216305012e-02
2.807999999999999829e+01,2.094326452468954838e-02
2.812000000000000099e+01,2.478544582093475390e-02
2.816000000000000014e+01,2.444612189020130624e-02
2.819999999999999929e+01,3.632339700306841390e-02
2.823999999999999844e+01,2.786703179152425977e-02
2.828000000000000114e+01,2.760972827909860886e-02
2.832000000000000028e+01,3.292778885336710565e-02
2.835999999999999943e+01,3.791789488759454707e-02
2.839999999999999858e+01,2.478810157816828050e-02
2.844000000000000128e+01,3.305784134655988249e-02
2.848000000000000043e+01,3.780199368303043678e-02
2.851999999999999957e+01,2.754188423651610096e-02
2.855999999999999872e+01,3.786140021131511463e-02
2.860000000000000142e+01,3.793210327192889780e-02
2.864000000000000057e+01,3.980659984497473408e-02
2.867999999999999972e+01,4.012327758980822889e-02
2.871999999999999886e+01,3.609445784328958046e-02
2.876000000000000156e+01,3.321350500341401640e-02
2.880000000000000071e+01,3.361217192850810692e-02
2.883999999999999986e+01,3.581462836115634901e-02
2.887999999999999901e+01,3.670523353678774997e-02
2.892000000000000171e+01,3.677592980657339722e-02
2.896000000000000085e+01,3.118927537342909909e-02
2.900000000000000000e+01,3.101399035967869477e-02
2.903999999999999915e+01,3.075670876537579812e-02
2.907999999999999829e+01,3.377904132921354802e-02
2.912000000000000099e+01,3.106202946086128111e-02
2.916000000000000014e+01,3.449429853622054676e-02
2.919999999999999929e+01,3.464693733817192367e-02
2.923999999999999844e+01,2.668250406963104671e-02
2.928000000000000114e+01,1.978393676969315493e-02
2.932000000000000028e+01,2.206829664780219150e-02
2.935999999999999943e+01,2.927207558437835630e-02
2.939999999999999858e+01,2.327536667437808682e-02
2.944000000000000128e+01,2.375589520269149116e-02
2.948000000000000043e+01,2.866389723439870946e-02
2.951999999999999957e+01,3.176809204133333037e-02
2.955999999999999872e+01,2.560734101496232179e-02
2.960000000000000142e+01,2.280818425940734848e-02
2.964000000000000057e+01,1.886114207901528478e-02
2.967999999999999972e+01,2.393303881717448109e-02
2.971999999999999886e+01,2.187174017742791327e-02
2.976000000000000156e+01,1.964644001421081768e-02
2.980000000000000071e+01,2.398036060588509127e-02
2.983999999999999986e+01,2.175501709423130481e-02
2.987999999999999901e+01,1.698794442080478820e-02
2.992000000000000171e+01,1.591042171182085671e-02
2.996000000000000085e+01,1.680064713379063671e-02
3.000000000000000000e+01,1.957662936038077894e-02
3.003999999999999915e+01,1.915495501843375928e-02
3.007999999999999829e+01,2.160292218344932527e-02
3.012000000000000099e+01,1.740962911295003065e-02
3.016000000000000014e+01,1.534806121924215186e-02
3.019999999999999929e+01,1.959973449459662467e-02
3.023999999999999844e+01,2.081772824725160176e-02
3.028000000000000114e+01,2.925085734595327808e-02
3.032000000000000028e+01,4.137352839934181625e-02
3.035999999999999943e+01,3.668810926699813540e-02
3.039999999999999858e+01,5.610787130147585483e-02
3.044000000000000128e+01,6.511480252617657394e-02
3.048000000000000043e+01,5.370605804647637233e-02
3.051999999999999957e+01,4.524893678836517524e-02
3.055999999999999872e+01,3.334817697296107303e-02
3.060000000000000142e+01,3.005638502688126254e-02
3.064000000000000057e+01,1.766360667187101205e-02
3.067999999999999972e+01,2.158690396786464363e-02
3.071999999999999886e+01,1.813101428548994157e-02
3.076000000000000156e+01,1.541299883419095830e-02
3.080000000000000071e+01,1.581058204836757394e-02
3.083999999999999986e+01,1.210859689556007673e-02
3.087999999999999901e+01,1.832742241097225916e-02
3.092000000000000171e+01,1.175568226952516254e-02
3.096000000000000085e+01,1.699053327757538145e-02
3.100000000000000000e+01,1.435424854828169783e-02
3.103999999999999915e+01,1.893308394649883056e-02
3.107999999999999829e+01,1.203319888967879260e-02
3.112000000000000099e+01,2.071146594491141829e-02
3.116000000000000014e+01,1.454939940348699313e-02
3.119999999999999929e+01,1.166690456849799225e-02
3.123999999999999844e+01,1.108009433467557932e-02
3.128000000000000114e+01,1.213304369818197191e-02
3.132000000000000028e+01,1.080821611551068852e-02
3.135999999999999943e+01,5.055847651741795547e-03
3.139999999999999858e+01,1.594750252284760431e-02
3.144000000000000128e+01,1.363862869762287426e-02
3.148000000000000043e+01,9.935861026611460256e-03
3.151999999999999957e+01,1.262829861782633484e-02
3.155999999999999872e+01,1.105717237378130505e-02
3.160000000000000142e+01,6.944282526014029615e-03
3.164000000000000057e+01,1.390005548293942600e-02
3.167999999999999972e+01,1.528041379595382852e-02
3.171999999999999886e+01,1.272516717123714849e-02
3.176000000000000156e+01,1.451535786894896443e-02
3.180000000000000071e+01,1.343581885662961141e-02
3.183999999999999986e+01,1.465195243084325798e-02
3.187999999999999901e+01,1.299835469307460134e-02
3.192000000000000171e+01,6.999195385908135898e-03
3.196000000000000085e+01,1.600423769280290634e-02
3.200000000000000000e+01,2.591111045124627407e-02
3.203999999999999915e+01,1.671412467296580148e-02
3.207999999999999829e+01,2.678484542442411201e-02
3.211999999999999744e+01,2.767255960549809199e-02
3.215999999999999659e+01,3.249575047245602255e-02
3.220000000000000284e+01,2.633214160920745520e-02
3.224000000000000199e+01,2.189026364523177434e-02
3.228000000000000114e+01,2.351561362351542103e-02
3.232000000000000028e+01,2.169728980158107737e-02
3.235999999999999943e+01,2.037083659562628768e-02
3.239999999999999858e+01,1.715852796930007057e-02
3.243999999999999773e+01,1.845562409953320840e-02
3.247999999999999687e+01,1.762089163137042780e-02
3.252000000000000313e+01,3.039651063252878788e-02
3.256000000000000227e+01,2.669195749572962975e-02
3.260000000000000142e+01,2.798874906373419874e-02
3.264000000000000057e+01,2.846555723516497327e-02
3.267999999999999972e+01,3.820721582805254590e-02
3.271999999999999886e+01,4.015969476700442797e-02
3.275999999999999801e+01,4.940924991687539736e-02
3.279999999999999716e+01,6.521796574846991379e-02
3.284000000000000341e+01,9.094745300048116821e-02
3.288000000000000256e+01,1.207763835715316425e-01
3.292000000000000171e+01,1.715948048843471962e-01
3.296000000000000085e+01,2.418448961561545651e-01
3.300000000000000000e+01,3.457110174728729168e-01
3.303999999999999915e+01,4.526107020750772536e-01
3.307999999999999829e+01,4.885065047637219826e-01
3.311999999999999744e+01,5.061183325428803004e-01
3.315999999999999659e+01,4.646968935087628094e-01
3.320000000000000284e+01,3.982682548838702430e-01
3.324000000000000199e+01,3.103580084576112452e-01
3.328000000000000114e+01,2.376979087892930609e-01
3.332000000000000028e+01,1.700391394082183261e-01
3.335999999999999943e+01,1.311589518671658905e-01
3.339999999999999858e+01,1.009696666525055908e-01
3.343999999999999773e+01,7.086227780069558058e-02
3.347999999999999687e+01,6.379413161093701323e-02
3.352000000000000313e+01,4.828086554486910736e-02
3.356000000000000227e+01,4.268835648165769658e-02
3.360000000000000142e+01,3.701375952667872171e-02
3.364000000000000057e+01,2.773148128857236619e-02
3.367999999999999972e+01,3.123962603791787668e-02
3.371999999999999886e+01,2.966425844574491558e-02
3.375999999999999801e+01,2.464518821823341241e-02
3.379999999999999716e+01,1.938004504336097306e-02
3.384000000000000341e+01,2.469157746737821874e-02
3.388000000000000256e+01,2.213191648381039947e-02
3.392000000000000171e+01,1.268494759597525376e-02
3.396000000000000085e+01,1.012507826300324681e-02
3.400000000000000000e+01,1.404235505712989399e-02
3.403999999999999915e+01,1.008843523976923721e-02
3.407999999999999829e+01,9.414029458602901287e-03
3.411999999999999744e+01,7.099705391188949714e-03
3.415999999999999659e+01,9.458732689100366256e-03
3.420000000000000284e+01,1.255556533418842810e-02
3.424000000000000199e+01,1.376650571402881877e-02
3.428000000000000114e+01,5.876386796161837782e-03
3.432000000000000028e+01,1.495819484338403206e-02
3.435999999999999943e+01,6.903870505885882115e-03
3.439999999999999858e+01,6.884504267528430456e-03
3.443999999999999773e+01,8.586824874787499229e-03
3.447999999999999687e+01,8.485238936303230242e-03
3.452000000000000313e+01,5.595859346806766367e-03
3.456000000000000227e+01,9.845621349736082689e-04
3.460000000000000142e+01,4.244237966687719986e-03
3.464000000000000057e+01,1.365308500846030421e-02
3.467999999999999972e+01,6.909679562001246056e-03
3.471999999999999886e+01,9.513074212602718252e-03
3.475999999999999801e+01,5.229144138449881574e-03
3.479999999999999716e+01,1.373561462443289270e-02
3.484000000000000341e+01,1.346897670048166282e-02
3.488000000000000256e+01,1.385813998176460733e-02
3.492000000000000171e+01,1.580499944624168263e-02
3.496000000000000085e+01,1.037258702893995715e-02
3.500000000000000000e+01,1.264715859471424696e-02
3.503999999999999915e+01,6.558570372465312610e-03
3.507999999999999829e+01,5.143315093103645319e-03
3.511999999999999744e+01,1.127106034317573724e-02
3.515999999999999659e+01,8.461709724793471318e-03
3.520000000000000284e+01,1.114559489994948645e-02
3.524000000000000199e+01,1.883077191552156790e-02
3.528000000000000114e+01,4.725942083922672621e-02
3.532000000000000028e+01,5.527229714048691872e-02
3.535999999999999943e+01,5.451205461913043171e-02
3.539999999999999858e+01,5.366968816210571785e-02
3.543999999999999773e+01,2.872197303860952664e-02
3.547999999999999687e+01,1.959829429690210234e-02
3.552000000000000313e+01,1.178632814768192441e-02
3.556000000000000227e+01,9.139628481788829653e-03
3.560000000000000142e+01,4.852980893551961383e-03
3.564000000000000057e+01,3.189891900599998043e-03
3.567999999999999972e+01,3.904389125884076897e-03
3.571999999999999886e+01,3.798841279475433097e-03
3.575999999999999801e+01,6.808792777571632225e-03
3.579999999999999716e+01,1.121244178668386049e-02
3.584000000000000341e+01,9.712630748994671714e-03
3.588000000000000256e+01,1.157428822895693182e-02
3.592000000000000171e+01,1.286186820842193795e-02
3.596000000000000085e+01,8.327976263516584376e-03
3.600000000000000000e+01,7.647493585482636330e-03
3.603999999999999915e+01,3.769234192575941084e-03
3.607999999999999829e+01,1.177945394965134764e-02
3.611999999999999744e+01,7.162984973758867654e-03
3.615999999999999659e+01,8.859637821568736721e-03
3.620000000000000284e+01,7.522491801319131782e-03
3.624000000000000199e+01,1.028472181816079446e-02
3.628000000000000114e+01,1.690035549504489976e-02
3.632000000000000028e+01,1.728455741198962545e-02
3.635999999999999943e+01,9.797516260863909504e-03
3.639999999999999858e+01,2.198804776090428417e-02
3.643999999999999773e+01,1.786231047907238176e-02
3.647999999999999687e+01,2.127954649350485838e-02
3.652000000000000313e+01,1.305397206950704991e-02
3.656000000000000227e+01,1.843866821629772459e-02
3.660000000000000142e+01,9.884817612689302674e-03
3.664000000000000057e+01,1.207156759039616258e-02
3.667999999999999972e+01,1.499607325479430930e-02
3.671999999999999886e+01,1.127918652270851023e-02
3.675999999999999801e+01,1.059578858538053059e-02
3.679999999999999716e+01,6.550617663928429493e-03
3.684000000000000341e+01,9.392488627098398435e-03
3.688000000000000256e+01,1.666168491318160971e-02
3.692000000000000171e+01,1.015630909177670307e-02
3.696000000000000085e+01,6.930389636325084979e-03
3.700000000000000000e+01,1.034553728551989259e-02
3.703999999999999915e+01,1.097284082224161093e-02
3.707999999999999829e+01,8.074384717294640773e-03
3.711999999999999744e+01,8.537372299756465846e-03
3.715999999999999659e+01,4.900664961094054924e-03
3.720000000000000284e+01,1.348037644652887689e-02
3.724000000000000199e+01,1.254901673527526046e-02
3.728000000000000114e+01,1.514307855824367603e-02
3.732000000000000028e+01,1.306350857868117041e-02
3.735999999999999943e+01,1.450935853138959723e-02
3.739999999999999858e+01,1.267541401069809635e-02
3.743999999999999773e+01,1.338300151603308112e-02
3.747999999999999687e+01,1.056482136994368881e-02
3.752000000000000313e+01,1.496163159332275505e-02
3.756000000000000227e+01,2.042414198336164888e-02
3.760000000000000142e+01,1.908126130473852128e-02
3.764000000000000057e+01,2.036189917262177726e-02
3.767999999999999972e+01,1.860870853634945948e-02
3.771999999999999886e+01,2.562832424646543233e-02
3.775999999999999801e+01,2.469467832900826623e-02
3.779999999999999716e+01,2.540066144986192695e-02
3.784000000000000341e+01,3.233774222808620535e-02
3.788000000000000256e+01,3.886468730872578992e-02
3.792000000000000171e+01,3.538860442394562572e-02
3.796000000000000085e+01,4.429290619544237750e-02
3.800000000000000000e+01,4.975342042819012184e-02
3.803999999999999915e+01,6.177299041486170039e-02
3.807999999999999829e+01,8.199142586163704616e-02
3.811999999999999744e+01,1.049973512939274961e-01
3.815999999999999659e+01,1.355462163815083498e-01
3.820000000000000284e+01,1.715062666641019029e-01
3.824000000000000199e+01,3.124959896504279078e-01
3.828000000000000114e+01,7.106897996035395071e-01
3.832000000000000028e+01,1.000000000000000000e+00
3.835999999999999943e+01,8.698464799835865513e-01
3.839999999999999858e+01,8.157799740157088975e-01
3.843999999999999773e+01,7.155526079869508616e-01
3.847999999999999687e+01,5.198880753563146495e-01
3.852000000000000313e+01,3.739915957314422501e-01
3.856000000000000227e+01,3.133650657912742110e-01
3.860000000000000142e+01,2.474089542144948251e-01
3.864000000000000057e+01,2.317128363926993229e-01
3.867999999999999972e+01,3.968876184198459334e-01
3.871999999999999886e+01,8.062299850711605043e-01
3.875999999999999801e+01,7.855318455286924850e-01
3.879999999999999716e+01,5.852742539594655291e-01
3.884000000000000341e+01,5.450619655944037856e-01
3.888000000000000256e+01,3.297997024953097656e-01
3.892000000000000171e+01,1.437258625274226154e-01
3.896000000000000085e+01,7.998168169619800094e-02
3.900000000000000000e+01,6.420175270115932586e-02
3.903999999999999915e+01,4.809365530560224394e-02
3.907999999999999829e+01,4.149625175148403955e-02
3.911999999999999744e+01,3.276688663702524013e-02
3.915999999999999659e+01,3.043257379845876534e-02
3.920000000000000284e+01,2.973786196405813279e-02
3.924000000000000199e+01,2.231971674635485972e-02
3.928000000000000114e+01,2.416628978913929957e-02
3.932000000000000028e+01,2.355293516527417336e-02
3.935999999999999943e+01,1.998770892163730800e-02
3.939999999999999858e+01,2.150568174231494434e-02
3.943999999999999773e+01,1.589026454802321825e-02
3.947999999999999687e+01,1.617795006967260099e-02
3.952000000000000313e+01,1.843319228911438623e-02
3.956000000000000227e+01,1.486689049638446891e-02
3.960000000000000142e+01,1.703970796595342257e-02
3.964000000000000057e+01,1.183315983960181970e-02
3.967999999999999972e+01,1.343160620324898406e-02
3.971999999999999886e+01,1.945732102054392731e-02
3.975999999999999801e+01,1.416812262181843876e-02
3.979999999999999716e+01,1.355216265086292213e-02
3.984000000000000341e+01,1.072223617664875769e-02
3.988000000000000256e+01,1.879682645544421965e-02
3.992000000000000171e+01,4.162948737808910143e-02
3.996000000000000085e+01,4.240647225796734254e-02
4.000000000000000000e+01,3.818180956852033903e-02
4.003999999999999915e+01,3.321900582737679491e-02
4.007999999999999829e+01,3.046971914644096627e-02
4.011999999999999744e+01,2.198086776503325318e-02
4.015999999999999659e+01,1.562354131652431838e-02
4.020000000000000284e+01,1.000390006885649649e-02
4.024000000000000199e+01,1.446886311184042082e-02
4.028000000000000114e+01,6.798997272543775942e-03
4.032000000000000028e+01,1.191942145875429099e-02
4.035999999999999943e+01,1.072634246113504317e-02
4.039999999999999858e+01,9.369048880543542207e-03
4.043999999999999773e+01,9.569340948517426892e-03
4.047999999999999687e+01,1.034333155978786091e-02
4.052000000000000313e+01,1.365879252196584848e-02
4.056000000000000227e+01,1.361240520831611192e-02
4.060000000000000142e+01,1.036814986857859458e-02
4.064000000000000057e+01,5.811807785006538503e-03
4.067999999999999972e+01,9.618260148841706325e-03
4.071999999999999886e+01,7.521154746855871799e-03
4.075999999999999801e+01,1.198305063245507819e-02
4.079999999999999716e+01,6.113898780962347297e-03
4.084000000000000341e+01,6.557775039030206213e-03
4.088000000000000256e+01,1.175685862388537242e-02
4.092000000000000171e+01,4.411147884061967540e-03
4.096000000000000085e+01,7.559979644118929726e-03
4.100000000000000000e+01,6.609039589396917269e-03
4.103999999999999915e+01,6.887711067175662089e-03
4.107999999999999829e+01,6.428220667893000569e-03
4.111999999999999744e+01,8.182226503453246882e-03
4.115999999999999659e+01,1.149380357001862120e-02
4.120000000000000284e+01,9.639727987276124413e-03
4.124000000000000199e+01,7.457439950358805275e-03
4.128000000000000114e+01,7.324663893666552572e-03
4.132000000000000028e+01,1.022528532051712215e-02
4.135999999999999943e+01,1.066593823096402029e-02
4.139999999999999858e+01,8.810602874747264918e-03
4.143999999999999773e+01,7.037003686266743094e-03
4.147999999999999687e+01,4.607225136326872049e-03
4.152000000000000313e+01,1.332790207547156040e-02
4.156000000000000227e+01,8.683866620750853652e-03
4.160000000000000142e+01,1.379644612208138360e-02
4.164000000000000057e+01,7.430093710824137859e-03
4.167999999999999972e+01,6.966799961851657431e-03
4.171999999999999886e+01,9.372914635950725659e-03
4.175999999999999801e+01,9.237062258532650894e-03
4.179999999999999716e+01,0.000000000000000000e+00
4.184000000000000341e+01,6.422865717424881479e-03
4.188000000000000256e+01,7.516084118241635366e-03
4.192000000000000171e+01,9.920886955454360015e-03
4.196000000000000085e+01,7.651965076970009515e-03
4.200000000000000000e+01,8.826379692232598148e-03
4.203999999999999915e+01,1.647777943850424129e-02
4.207999999999999829e+01,9.288626921788107130e-03
4.211999999999999744e+01,5.870770597323301913e-03
4.215999999999999659e+01,4.748380207694359936e-03
4.220000000000000284e+01,8.791123339447757742e-03
4.224000000000000199e+01,2.830752000419778976e-03
4.228000000000000114e+01,1.146442299696702298e-02
4.232000000000000028e+01,1.124284527579058786e-02
4.235999999999999943e+01,1.274279580706771074e-02
4.239999999999999858e+01,1.284863382622742321e-02
4.243999999999999773e+01,6.804908061543250668e-03
4.247999999999999687e+01,1.519123957684094355e-02
4.252000000000000313e+01,1.996971199243461476e-02
4.256000000000000227e+01,1.966449505090876043e-02
4.260000000000000142e+01,2.239264996170743649e-02
4.264000000000000057e+01,1.798735077949110972e-02
4.267999999999999972e+01,1.604148817014378059e-02
4.271999999999999886e+01,1.032378140549899959e-02
4.275999999999999801e+01,9.033282220358637704e-03
4.279999999999999716e+01,6.594634089418492835e-03
4.284000000000000341e+01,6.697409852802834948e-03
4.288000000000000256e+01,1.393307812957138465e-02
4.292000000000000171e+01,6.410167848222995783e-03
4.296000000000000085e+01,1.159550420263631004e-02
4.300000000000000000e+01,9.893350831327779593e-03
4.303999999999999915e+01,1.589802044700568129e-02
4.307999999999999829e+01,1.386733138000174545e-02
4.311999999999999744e+01,1.601787110764877828e-02
4.315999999999999659e+01,1.095295580424061020e-02
4.320000000000000284e+01,1.129912557389887301e-02
4.324000000000000199e+01,1.508860700706142130e-02
4.328000000000000114e+01,8.219028941215556633e-03
4.332000000000000028e+01,8.482334578022623917e-03
4.335999999999999943e+01,1.153302527254509643e-02
4.339999999999999858e+01,1.245166870234094662e-02
4.343999999999999773e+01,9.188500932490207065e-03
4.347999999999999687e+01,1.568191047283894884e-02
4.352000000000000313e+01,1.471388619727902192e-02
4.356000000000000227e+01,9.646038844503620688e-03
4.360000000000000142e+01,1.359685167078096210e-02
4.364000000000000057e+01,1.566158400255160052e-02
4.367999999999999972e+01,1.108478456808903272e-02
4.371999999999999886e+01,2.274180914123663522e-02
4.375999999999999801e+01,2.029616253864248779e-02
4.379999999999999716e+01,1.817817642229921371e-02
4.384000000000000341e+01,2.147126256341323064e-02
4.388000000000000256e+01,2.558395074097362387e-02
4.392000000000000171e+01,1.780770872354988515e-02
4.396000000000000085e+01,3.200462268292706552e-02
4.400000000000000000e+01,7.645573487926475564e-02
4.403999999999999915e+01,1.112316586623514764e-01
4.407999999999999829e+01,7.770916760040330606e-02
4.411999999999999744e+01,7.148921345960909668e-02
4.415999999999999659e+01,6.772866625558773834e-02
4.420000000000000284e+01,4.256828230825146497e-02
4.424000000000000199e+01,1.871943634072808019e-02
4.428000000000000114e+01,1.372809997860564325e-02
4.432000000000000028e+01,2.013313461335116891e-02
4.435999999999999943e+01,1.251747658307915574e-02
4.439999999999999858e+01,1.597022584629281469e-02
4.443999999999999773e+01,1.573308703761734650e-02
4.447999999999999687e+01,3.017193703621846509e-02
4.452000000000000313e+01,5.100573197998549413e-02
4.456000000000000227e+01,3.576337893261594125e-02
4.460000000000000142e+01,2.847378921025882012e-02
4.464000000000000057e+01,3.381042195733169331e-02
4.467999999999999972e+01,3.127564503341553892e-02
4.471999999999999886e+01,1.881969450359035484e-02
4.475999999999999801e+01,1.538238092452643910e-02
4.479999999999999716e+01,9.157067843728702861e-03
4.484000000000000341e+01,9.326693300292308864e-03
4.488000000000000256e+01,8.512109211042005394e-03
4.492000000000000171e+01,9.992935789313183922e-03
4.496000000000000085e+01,1.663884062165236002e-02
4.500000000000000000e+01,1.237967993696027259e-02
4.503999999999999915e+01,1.221971907473399198e-02
4.507999999999999829e+01,1.312530779576031800e-02
4.511999999999999744e+01,9.275117998661680518e-03
4.515999999999999659e+01,1.378763293970640749e-02
4.520000000000000284e+01,1.190455725351957303e-02
4.524000000000000199e+01,9.201245863454277085e-03
4.528000000000000114e+01,1.371276945359672927e-02
4.532000000000000028e+01,1.240263369108535879e-02
4.535999999999999943e+01,1.215804190499761295e-02
4.539999999999999858e+01,8.387523874322523262e-03
4.543999999999999773e+01,1.437354390604392816e-02
4.547999999999999687e+01,1.273410982333818796e-02
4.552000000000000313e+01,1.093035863278715887e-02
4.556000000000000227e+01,1.183195792093737209e-02
4.560000000000000142e+01,5.846015419953681617e-03
4.564000000000000057e+01,1.560191532760613585e-02
4.567999999999999972e+01,1.543662240593591736e-02
4.571999999999999886e+01,1.330321681367152044e-02
4.575999999999999801e+01,1.223534718807500581e-02
4.579999999999999716e+01,2.731926939400127277e-02
4.584000000000000341e+01,3.904123759532445587e-02
4.588000000000000256e+01,2.624769544876336819e-02
4.592000000000000171e+01,2.255475755002974564e-02
4.596000000000000085e+01,2.911029045315684585e-02
4.600000000000000000e+01,2.180907890198354598e-02
4.603999999999999915e+01,1.639330296422691902e-02
4.607999999999999829e+01,1.310893341498467653e-02
4.611999999999999744e+01,2.064696514120529375e-02
4.615999999999999659e+01,7.850997705959076103e-03
4.620000000000000284e+01,1.653619824073522190e-02
4.624000000000000199e+01,1.234853581965083755e-02
4.628000000000000114e+01,7.258626343965362930e-03
4.632000000000000028e+01,1.118732258099386714e-02
4.635999999999999943e+01,5.850736574977201745e-03
4.639999999999999858e+01,8.712849426145627407e-03
4.643999999999999773e+01,1.633005826849709408e-02
4.647999999999999687e+01,1.369809616058337808e-02
4.652000000000000313e+01,1.557525686582820687e-02
4.656000000000000227e+01,1.089281865995656538e-02
4.660000000000000142e+01,1.006357746243015730e-02
4.664000000000000057e+01,9.725920932604667848e-03
4.667999999999999972e+01,8.649990389137947322e-03
4.671999999999999886e+01,8.311614487494322842e-03
4.675999999999999801e+01,1.346624289744911829e-02
4.679999999999999716e+01,1.238922969186509807e-02
4.684000000000000341e+01,1.221374977589303155e-02
4.688000000000000256e+01,1.105402026532854159e-02
4.692000000000000171e+01,9.565964562058248619e-03
4.696000000000000085e+01,7.257638712959931827e-03
4.700000000000000000e+01,1.659160177143966311e-02
4.703999999999999915e+01,1.444652478562964693e-02
4.707999999999999829e+01,1.123520367499156007e-02
4.711999999999999744e+01,1.064721127964968206e-02
4.715999999999999659e+01,1.038681208861077024e-02
4.720000000000000284e+01,1.274974001091692261e-02
4.724000000000000199e+01,8.553055405521895957e-03
4.728000000000000114e+01,1.526073937265594142e-02
4.732000000000000028e+01,1.065335873938680691e-02
4.735999999999999943e+01,1.498257246810901985e-02
4.739999999999999858e+01,8.980606298770175619e-03
4.743999999999999773e+01,1.552281600521361604e-02
4.747999999999999687e+01,1.607934205560685934e-02
4.752000000000000313e+01,9.420325768607747119e-03
4.756000000000000227e+01,1.243581456694211468e-02
4.760000000000000142e+01,1.405708672633492091e-02
4.764000000000000057e+01,1.559598985153498076e-02
4.767999999999999972e+01,2.164399256160205731e-02
4.771999999999999886e+01,2.695370043266305179e-02
4.775999999999999801e+01,2.201421172224062028e-02
4.779999999999999716e+01,1.264685292976115531e-02
4.784000000000000341e+01,1.811939671332592205e-02
4.788000000000000256e+01,2.096786037075352646e-02
4.792000000000000171e+01,1.094342743134666188e-02
4.796000000000000085e+01,1.567690413969955940e-02
4.800000000000000000e+01,1.467065835539317631e-02
4.803999999999999915e+01,2.153511648684242746e-02
4.807999999999999829e+01,2.249586947296567871e-02
4.811999999999999744e+01,2.009462279887840042e-02
4.815999999999999659e+01,1.720104405112706999e-02
4.820000000000000284e+01,1.266726507372730424e-02
4.824000000000000199e+01,1.813593966650743280e-02
4.828000000000000114e+01,2.237436505447683993e-02
4.832000000000000028e+01,2.210291942234902593e-02
4.835999999999999943e+01,1.691164934235950962e-02
4.839999999999999858e+01,1.877117071576775084e-02
4.843999999999999773e+01,1.964641125653632595e-02
4.847999999999999687e+01,1.765158808046084563e-02
4.852000000000000313e+01,1.385257721621683050e-02
4.856000000000000227e+01,1.464463884073505598e-02
4.860000000000000142e+01,1.264862487084029291e-02
4.864000000000000057e+01,1.261998497630786691e-02
4.867999999999999972e+01,1.431274678008889398e-02
4.871999999999999886e+01,1.338141163724577282e-02
4.875999999999999801e+01,1.187574188074730537e-02
4.879999999999999716e+01,6.680096746022456435e-03
4.884000000000000341e+01,1.484850470651271140e-02
4.888000000000000256e+01,1.768712517966995745e-02
4.892000000000000171e+01,1.117842162198777987e-02
4.896000000000000085e+01,1.450817616620967213e-02
4.900000000000000000e+01,1.332804607374962584e-02
4.903999999999999915e+01,1.370532942010733654e-02
4.907999999999999829e+01,1.637794013252721198e-02
4.911999999999999744e+01,1.085109016423860262e-02
4.915999999999999659e+01,1.811435320585608189e-02
4.920000000000000284e+01,1.873597394661164622e-02
4.924000000000000199e+01,1.615955365055625828e-02
4.928000000000000114e+01,9.975138889925424732e-03
4.932000000000000028e+01,1.567893815636289129e-02
4.935999999999999943e+01,1.055957512478969233e-02
4.939999999999999858e+01,1.388482245330713120e-02
4.943999999999999773e+01,1.770159838123558371e-02
4.947999999999999687e+01,1.290895379288653499e-02
4.952000000000000313e+01,1.205143826702387289e-02
4.956000000000000227e+01,1.922857727056068514e-02
4.960000000000000142e+01,1.435269128986680319e-02
4.964000000000000057e+01,2.144700345379442832e-02
4.967999999999999972e+01,1.853805216548455939e-02
4.971999999999999886e+01,2.005616908692984743e-02
4.975999999999999801e+01,1.903215876174395305e-02
4.979999999999999716e+01,2.341910134865533150e-02
4.984000000000000341e+01,2.132836986981122285e-02
4.988000000000000256e+01,1.694148031748252820e-02
4.992000000000000171e+01,2.026127598434209962e-02
4.996000000000000085e+01,1.595552782751064394e-02
5.000000000000000000e+01,1.607684227360533374e-02
5.003999999999999915e+01,1.857545538770627100e-02
5.007999999999999829e+01,1.992577377845360792e-02
5.011999999999999744e+01,1.988182506879843103e-02
5.015999999999999659e+01,2.057536211706732787e-02
5.020000000000000284e+01,1.807083890511152965e-02
5.024000000000000199e+01,1.441801776589986088e-02
5.028000000000000114e+01,2.125955249926062690e-02
5.032000000000000028e+01,1.826179201549034403e-02
5.035999999999999943e+01,1.747734274120617270e-02
5.039999999999999858e+01,1.365881025253504015e-02
5.043999999999999773e+01,1.861282940002081943e-02
5.047999999999999687e+01,1.348157855039991589e-02
5.052000000000000313e+01,1.261339884030721753e-02
5.056000000000000227e+01,1.412250738553833679e-02
5.060000000000000142e+01,1.669705497939334704e-02
5.064000000000000057e+01,1.746737243337456377e-02
5.067999999999999972e+01,1.446568633791983985e-02
5.071999999999999886e+01,1.466119054746442552e-02
5.075999999999999801e+01,1.256051906206185655e-02
5.079999999999999716e+01,1.439495100792739617e-02
5.084000000000000341e+01,1.360524355546356701e-02
5.088000000000000256e+01,1.609471372945451770e-02
5.092000000000000171e+01,1.300838399028506932e-02
5.096000000000000085e+01,1.705478496743467048e-02
5.100000000000000000e+01,1.183581078837290038e-02
5.103999999999999915e+01,1.850501619442989146e-02
5.107999999999999829e+01,1.738467429876432505e-02
5.111999999999999744e+01,1.609990315867360078e-02
5.115999999999999659e+01,2.030804822286857991e-02
5.120000000000000284e+01,1.967830249529413378e-02
5.124000000000000199e+01,1.371872202282807020e-02
5.128000000000000114e+01,1.439992270672982300e-02
5.132000000000000028e+01,1.672048169919958249e-02
5.135999999999999943e+01,1.674485298208867184e-02
5.139999999999999858e+01,1.070147158796387089e-02
5.143999999999999773e+01,8.757161860213609830e-03
5.147999999999999687e+01,1.132187562465117835e-02
5.152000000000000313e+01,1.724774472529216202e-02
5.156000000000000227e+01,1.440017060821046843e-02
5.160000000000000142e+01,1.261801551536338717e-02
5.164000000000000057e+01,1.263919337399532078e-02
5.167999999999999972e+01,1.462768443384621607e-02
5.171999999999999886e+01,1.128633113709867630e-02
5.175999999999999801e+01,1.368385360607655629e-02
5.179999999999999716e+01,1.411314165617358861e-02
5.184000000000000341e+01,1.388604289213854828e-02
5.188000000000000256e+01,1.324852808906919199e-02
5.192000000000000171e+01,1.580817956173199632e-02
5.196000000000000085e+01,1.352992502408956535e-02
5.200000000000000000e+01,1.518674988844814430e-02
5.203999999999999915e+01,1.356348712234802835e-02
5.207999999999999829e+01,1.694117898594883764e-02
5.211999999999999744e+01,1.457906585640661098e-02
5.215999999999999659e+01,1.254444580922103522e-02
5.220000000000000284e+01,1.526480641273635259e-02
5.224000000000000199e+01,1.495104695698846499e-02
5.228000000000000114e+01,1.521074975674384898e-02
5.232000000000000028e+01,1.383016982636703016e-02
5.235999999999999943e+01,1.064532531416688931e-02
5.239999999999999858e+01,1.410123953101860214e-02
5.243999999999999773e+01,1.599885914016917904e-02
5.247999999999999687e+01,1.478036335884533314e-02
5.252000000000000313e+01,1.224954294394255475e-02
5.256000000000000227e+01,1.078412232986068232e-02
5.260000000000000142e+01,1.694334274424608849e-02
5.264000000000000057e+01,1.121345835097299799e-02
5.267999999999999972e+01,1.573191019566478818e-02
5.271999999999999886e+01,1.229680084792008667e-02
5.275999999999999801e+01,1.091097360041175419e-02
5.279999999999999716e+01,1.296826658324638087e-02
5.284000000000000341e+01,1.625493481078846281e-02
5.288000000000000256e+01,1.035818076162516553e-02
5.292000000000000171e+01,1.643155917708661110e-02
5.296000000000000085e+01,1.430540001818479158e-02
5.300000000000000000e+01,1.759012969333465307e-02
5.303999999999999915e+01,1.415114964861006498e-02
5.307999999999999829e+01,1.489319895561940117e-02
5.311999999999999744e+01,1.620869369764501786e-02
5.315999999999999659e+01,1.809763307371136526e-02
5.320000000000000284e+01,9.491295359543379731e-03
5.324000000000000199e+01,1.621669524186428180e-02
5.328000000000000114e+01,1.285676905878859778e-02
5.332000000000000028e+01,1.572763055553776448e-02
5.335999999999999943e+01,1.646624534464323497e-02
5.339999999999999858e+01,1.769630943657824959e-02
5.343999999999999773e+01,1.613820101605627222e-02
5.347999999999999687e+01,1.474357819498155371e-02
5.352000000000000313e+01,1.679206118668952891e-02
5.356000000000000227e+01,1.375663455299613695e-02
5.360000000000000142e+01,1.555815106121642005e-02
5.364000000000000057e+01,1.227575634208416533e-02
5.367999999999999972e+01,1.604404734757437084e-02
5.371999999999999886e+01,1.399051079554096237e-02
5.375999999999999801e+01,1.734784785902337978e-02
5.379999999999999716e+01,1.455539366159992049e-02
5.384000000000000341e+01,1.061456944911924778e-02
5.388000000000000256e+01,1.700404797069411666e-02
5.392000000000000171e+01,1.453804549162986126e-02
5.396000000000000085e+01,1.453125371032373998e-02
5.400000000000000000e+01,1.509788974257134792e-02
5.403999999999999915e+01,1.492610438167274109e-02
5.407999999999999829e+01,1.721352731560554794e-02
5.411999999999999744e+01,1.490897256262562962e-02
5.415999999999999659e+01,1.457168135037932230e-02
5.420000000000000284e+01,1.669359603003771342e-02
5.424000000000000199e+01,1.832305688774539185e-02
5.428000000000000114e+01,1.732830946322460458e-02
5.432000000000000028e+01,1.764489817267296881e-02
5.435999999999999943e+01,1.181168440755749408e-02
5.439999999999999858e+01,1.581681981166850257e-02
5.443999999999999773e+01,1.768968688179543142e-02
5.447999999999999687e+01,1.644639851266943911e-02
5.452000000000000313e+01,1.946610118551462057e-02
5.456000000000000227e+01,2.018955207073344985e-02
5.460000000000000142e+01,2.050253245057917853e-02
5.464000000000000057e+01,1.712542050976530172e-02
5.467999999999999972e+01,1.792930588166250991e-02
5.471999999999999886e+01,2.143835830885530702e-02
5.475999999999999801e+01,2.486489912820384965e-02
5.479999999999999716e+01,2.517527810049487863e-02
5.484000000000000341e+01,2.523916281227492689e-02
5.488000000000000256e+01,2.513854298792622677e-02
5.492000000000000171e+01,2.659521885898642052e-02
5.496000000000000085e+01,3.420065904451529554e-02
5.500000000000000000e+01,3.582026499058672819e-02
5.503999999999999915e+01,3.916114527985593841e-02
5.507999999999999829e+01,4.496121383956728362e-02
5.511999999999999744e+01,5.543421405340508840e-02
5.515999999999999659e+01,7.254791772898037949e-02
5.520000000000000284e+01,8.260990633056930488e-02
5.524000000000000199e+01,1.011163883498156085e-01
5.528000000000000114e+01,1.256076472250104992e-01
5.532000000000000028e+01,1.329623540042860763e-01
5.535999999999999943e+01,1.475316939179257547e-01
5.539999999999999858e+01,1.498839116551614614e-01
5.543999999999999773e+01,1.456763526647040230e-01
5.547999999999999687e+01,1.484374528296105999e-01
5.552000000000000313e+01,1.911274025427307510e-01
5.556000000000000227e+01,2.462793750082346023e-01
5.560000000000000142e+01,2.151767768943867454e-01
5.564000000000000057e+01,1.446361973795006195e-01
5.567999999999999972e+01,1.298486356029761590e-01
5.571999999999999886e+01,1.309666954399595906e-01
5.575999999999999801e+01,1.061752081570106893e-01
5.579999999999999716e+01,6.760877070610445128e-02
5.584000000000000341e+01,4.601382929543049866e-02
5.588000000000000256e+01,3.392924531645582359e-02
5.592000000000000171e+01,3.340478110214921414e-02
5.596000000000000085e+01,2.607455817139376492e-02
5.600000000000000000e+01,2.481108820438438639e-02
5.603999999999999915e+01,2.674470201262341487e-02
5.607999999999999829e+01,2.507018519044007174e-02
5.611999999999999744e+01,1.855767905649214136e-02
5.615999999999999659e+01,1.966974266418572079e-02
5.620000000000000284e+01,1.922343637247457201e-02
5.624000000000000199e+01,1.639885412680532756e-02
5.628000000000000114e+01,2.013296239019982808e-02
5.632000000000000028e+01,1.976699206517185115e-02
5.635999999999999943e+01,1.398909394502148920e-02
5.639999999999999858e+01,1.575377023530141404e-02
5.643999999999999773e+01,1.612405287103872015e-02
5.647999999999999687e+01,1.493596000054229350e-02
5.652000000000000313e+01,1.973261915575174122e-02
5.656000000000000227e+01,1.764151705452098387e-02
5.660000000000000142e+01,1.702568648236742893e-02
5.664000000000000057e+01,1.526142982686670875e-02
5.667999999999999972e+01,1.316865154062100800e-02
5.671999999999999886e+01,1.697863074984555520e-02
5.675999999999999801e+01,1.340890154560544188e-02
5.679999999999999716e+01,1.541396613345331554e-02
5.684000000000000341e+01,1.233505541590304740e-02
5.688000000000000256e+01,1.417501268562748086e-02
5.692000000000000171e+01,1.281677513123141016e-02
5.696000000000000085e+01,1.391768820142565317e-02
5.700000000000000000e+01,1.477206375842814862e-02
5.703999999999999915e+01,1.054246000515461981e-02
5.707999999999999829e+01,1.475731282466219429e-02
5.711999999999999744e+01,1.101851634442054667e-02
5.715999999999999659e+01,1.039479068675359767e-02
5.720000000000000284e+01,1.296812557604349811e-02
5.724000000000000199e+01,1.291719291091274376e-02
5.728000000000000114e+01,1.368559395541230073e-02
5.732000000000000028e+01,1.076384901388899480e-02
5.735999999999999943e+01,9.481341433622583054e-03
5.739999999999999858e+01,1.073996619257301319e-02
5.743999999999999773e+01,1.273593093189366761e-02
5.747999999999999687e+01,1.038582227842700136e-02
5.752000000000000313e+01,1.008490040910382454e-02
5.756000000000000227e+01,8.799515084710902296e-03
5.760000000000000142e+01,1.103914439895026592e-02
5.764000000000000057e+01,1.172037497866434616e-02
5.767999999999999972e+01,1.543467544291288358e-02
5.771999999999999886e+01,1.267114404921857070e-02
5.775999999999999801e+01,1.490845354669417290e-02
5.779999999999999716e+01,1.050394853356022805e-02
5.784000000000000341e+01,1.142824491107614568e-02
5.788000000000000256e+01,1.390977771180876288e-02
5.792000000000000171e+01,1.901442296443358118e-02
5.796000000000000085e+01,1.452559158966669484e-02
5.800000000000000000e+01,2.110489517669157655e-02
5.803999999999999915e+01,1.817271105973138068e-02
5.807999999999999829e+01,1.663377831039450361e-02
5.811999999999999744e+01,1.476629509519210640e-02
5.815999999999999659e+01,1.748969213461503899e-02
5.820000000000000284e+01,2.013050868229464621e-02
5.824000000000000199e+01,1.547357770577120588e-02
5.828000000000000114e+01,1.688335403738634374e-02
5.832000000000000028e+01,1.517689803609379752e-02
5.835999999999999943e+01,1.256795308557788309e-02
5.839999999999999858e+01,1.405794043168723945e-02
5.843999999999999773e+01,1.341557934625549169e-02
5.847999999999999687e+01,1.990579839373551527e-02
5.852000000000000313e+01,2.852717472632752480e-02
5.856000000000000227e+01,2.435743192794109085e-02
5.860000000000000142e+01,1.748140381660686152e-02
5.864000000000000057e+01,1.749198105820878521e-02
5.867999999999999972e+01,2.348726707283580253e-02
5.871999999999999886e+01,1.800327915830648301e-02
5.875999999999999801e+01,1.489641529910904448e-02
5.879999999999999716e+01,1.703634308179001466e-02
5.884000000000000341e+01,1.302637868064325348e-02
5.888000000000000256e+01,8.031924392232929477e-03
5.892000000000000171e+01,1.230179508530523415e-02
5.896000000000000085e+01,1.238954380020965140e-02
5.900000000000000000e+01,1.059090444598829485e-02
5.903999999999999915e+01,1.485895718136966484e-02
5.907999999999999829e+01,8.467634032392302307e-03
5.911999999999999744e+01,9.864802403579802162e-03
5.915999999999999659e+01,9.457570027096989795e-03
5.920000000000000284e+01,7.245936101968303289e-03
5.924000000000000199e+01,7.739378721895793026e-03
5.928000000000000114e+01,8.068228698381743266e-03
5.932000000000000028e+01,8.724428382597257045e-03
5.935999999999999943e+01,1.274162641180439509e-02
5.939999999999999858e+01,6.755366351710423434e-03
5.943999999999999773e+01,6.835790371463481077e-03
5.947999999999999687e+01,9.293324028988149063e-03
5.952000000000000313e+01,1.109431708507124976e-02
5.956000000000000227e+01,7.155356166555194852e-03
5.960000000000000142e+01,9.119095073268345189e-03
5.964000000000000057e+01,6.080793131651179677e-03
5.967999999999999972e+01,3.451824214341203678e-03
5.971999999999999886e+01,8.693325327920265605e-03
5.975999999999999801e+01,1.040861264668224706e-02
5.979999999999999716e+01,4.744130677836198677e-03
5.984000000000000341e+01,6.786135286236933892e-03
5.988000000000000256e+01,9.565431015498110714e-03
5.992000000000000171e+01,6.604765561380023485e-03
5.996000000000000085e+01,7.005086437619989503e-03
