2.003999999999999915e+01,3.020812287103222249e-02
2.007999999999999829e+01,5.921034258529036393e-02
2.012000000000000099e+01,1.676415483487912403e-02
2.016000000000000014e+01,3.723973088405706927e-02
2.019999999999999929e+01,2.909485517303364924e-02
2.023999999999999844e+01,1.384499359843550242e-02
2.028000000000000114e+01,2.254548823005210478e-02
2.032000000000000028e+01,2.393802187893021016e-02
2.035999999999999943e+01,1.213628845495329060e-02
2.039999999999999858e+01,4.783013899135180741e-02
2.044000000000000128e+01,2.120950993717428054e-02
2.048000000000000043e+01,4.330232234574320216e-02
2.051999999999999957e+01,2.195743239089763266e-02
2.055999999999999872e+01,4.689027180293709601e-02
2.060000000000000142e+01,1.519196404979352225e-02
2.064000000000000057e+01,5.494042164320776106e-02
2.067999999999999972e+01,1.877500460595022194e-02
2.071999999999999886e+01,1.609982528101776625e-02
2.076000000000000156e+01,3.250358184908455628e-02
2.080000000000000071e+01,1.886606130761658146e-02
2.083999999999999986e+01,1.679736234351887625e-02
2.087999999999999901e+01,3.035700721741910191e-02
2.092000000000000171e+01,2.097953954389880638e-02
2.096000000000000085e+01,2.844827321074745383e-02
2.100000000000000000e+01,1.643048880924422375e-02
2.103999999999999915e+01,1.882319365224843430e-02
2.107999999999999829e+01,3.319067515908495636e-02
2.112000000000000099e+01,4.167103800098637123e-02
2.116000000000000014e+01,3.675416737751061730e-02
2.119999999999999929e+01,4.807457273691222166e-02
2.123999999999999844e+01,3.199239547400543893e-02
2.128000000000000114e+01,2.057785810253335776e-02
2.132000000000000028e+01,1.383096110730934469e-02
2.135999999999999943e+01,4.321299873570422223e-02
2.139999999999999858e+01,2.327103809164969908e-02
2.144000000000000128e+01,3.560146735381769512e-02
2.148000000000000043e+01,2.519776694474421333e-02
2.151999999999999957e+01,1.946170933598577110e-02
2.155999999999999872e+01,5.046351704128529403e-02
2.160000000000000142e+01,1.407645699583113565e-02
2.164000000000000057e+01,2.802666118303817622e-02
2.167999999999999972e+01,4.420879704432582880e-02
2.171999999999999886e+01,5.024132364827541691e-02
2.176000000000000156e+01,6.134744813900189914e-02
2.180000000000000071e+01,3.084267057945984034e-02
2.183999999999999986e+01,2.875374208725151384e-02
2.187999999999999901e+01,2.666401071649313406e-02
2.192000000000000171e+01,3.147466397088184015e-02
2.196000000000000085e+01,2.227916518978980548e-02
2.200000000000000000e+01,5.286617838756381416e-02
2.203999999999999915e+01,4.407502942064734502e-02
2.207999999999999829e+01,1.397059067622536885e-02
2.212000000000000099e+01,4.759984384241155303e-02
2.216000000000000014e+01,3.616760581220812565e-02
2.219999999999999929e+01,4.016075153005477932e-02
2.223999999999999844e+01,3.481619864830061417e-02
2.228000000000000114e+01,3.474822604468875975e-02
2.232000000000000028e+01,4.841970843242877562e-03
2.235999999999999943e+01,3.785750610612298450e-02
2.239999999999999858e+01,4.042583147442384978e-02
2.244000000000000128e+01,4.969157168165561078e-02
2.248000000000000043e+01,5.855056410495752817e-02
2.251999999999999957e+01,2.072426098486515947e-02
2.255999999999999872e+01,3.871558764549157955e-02
2.260000000000000142e+01,5.995373757486074928e-02
2.264000000000000057e+01,3.958099563504344914e-02
2.267999999999999972e+01,2.712352797578156463e-02
2.271999999999999886e+01,2.522002423616771793e-02
2.276000000000000156e+01,3.366750881222476538e-02
2.280000000000000071e+01,2.912373197783640899e-02
2.283999999999999986e+01,2.011368994702513249e-02
2.287999999999999901e+01,5.311890753767305878e-02
2.292000000000000171e+01,3.781502572273545693e-02
2.296000000000000085e+01,5.173891090506993473e-02
2.300000000000000000e+01,3.947809132963134293e-02
2.303999999999999915e+01,4.162778523937137737e-02
2.307999999999999829e+01,8.864803542965170313e-03
2.312000000000000099e+01,3.699386063443305811e-02
2.316000000000000014e+01,3.366083659882335155e-02
2.319999999999999929e+01,3.519845181448358340e-02
2.323999999999999844e+01,3.003706970515738345e-02
2.328000000000000114e+01,4.293977358812292588e-02
2.332000000000000028e+01,5.685657248977538797e-02
2.335999999999999943e+01,3.829641224446406200e-02
2.339999999999999858e+01,4.328069384323326996e-02
2.344000000000000128e+01,6.105168506498987596e-02
2.348000000000000043e+01,4.573679032785066267e-02
2.351999999999999957e+01,6.350621506239499670e-02
2.355999999999999872e+01,5.610582227050762982e-02
2.360000000000000142e+01,3.246656034379238887e-02
2.364000000000000057e+01,4.373840414231689594e-02
2.367999999999999972e+01,4.019221239717511718e-02
2.371999999999999886e+01,6.851248601503993896e-02
2.376000000000000156e+01,6.313794880133107024e-02
2.380000000000000071e+01,5.309418193793057766e-02
2.383999999999999986e+01,9.237282552797664026e-02
2.387999999999999901e+01,5.106918323023907497e-02
2.392000000000000171e+01,8.872246131901576072e-02
2.396000000000000085e+01,9.531962015456491022e-02
2.400000000000000000e+01,9.501481478779202905e-02
2.403999999999999915e+01,1.105413676480684199e-01
2.407999999999999829e+01,1.461617770848119557e-01
2.412000000000000099e+01,1.657462997780927705e-01
2.416000000000000014e+01,1.725425536333753673e-01
2.419999999999999929e+01,1.685803000233802307e-01
2.423999999999999844e+01,1.743601244007804696e-01
2.428000000000000114e+01,1.383261006975538276e-01
2.432000000000000028e+01,1.666347238360457728e-01
2.435999999999999943e+01,1.679467543452582423e-01
2.439999999999999858e+01,1.662133711873062802e-01
2.444000000000000128e+01,1.468202964540734623e-01
2.448000000000000043e+01,1.580758397625581235e-01
2.451999999999999957e+01,1.386812227827843857e-01
2.455999999999999872e+01,1.566334357444478798e-01
2.460000000000000142e+01,1.412968002332009032e-01
2.464000000000000057e+01,1.320486779592512372e-01
2.467999999999999972e+01,1.384289455805748081e-01
2.471999999999999886e+01,1.301941663521719028e-01
2.476000000000000156e+01,1.122157668898325911e-01
2.480000000000000071e+01,1.141282566418114763e-01
2.483999999999999986e+01,1.050792705967365515e-01
2.487999999999999901e+01,1.140943899364904313e-01
2.492000000000000171e+01,1.220938627995613174e-01
2.496000000000000085e+01,1.175080526096932004e-01
2.500000000000000000e+01,9.993100767411819407e-02
2.503999999999999915e+01,1.235573441847647030e-01
2.507999999999999829e+01,1.185632880824476348e-01
2.512000000000000099e+01,1.196577510351890805e-01
2.516000000000000014e+01,1.089788377142214548e-01
2.519999999999999929e+01,1.265128380961245413e-01
2.523999999999999844e+01,1.101490694957599631e-01
2.528000000000000114e+01,1.134732198386839558e-01
2.532000000000000028e+01,1.054299480247339188e-01
2.535999999999999943e+01,1.197132852779783235e-01
2.539999999999999858e+01,1.120744447268594846e-01
2.544000000000000128e+01,8.697890080958634029e-02
2.548000000000000043e+01,9.172008269920338408e-02
2.551999999999999957e+01,7.007361428550236415e-02
2.555999999999999872e+01,7.055078127427216739e-02
2.560000000000000142e+01,8.482956450990787600e-02
2.564000000000000057e+01,7.129986627513089370e-02
2.567999999999999972e+01,5.573965033117263962e-02
2.571999999999999886e+01,5.966438257465986328e-02
2.576000000000000156e+01,5.587526759245323160e-02
2.580000000000000071e+01,4.396635369178495539e-02
2.583999999999999986e+01,5.336917423211870459e-02
2.587999999999999901e+01,5.241945984691987609e-02
2.592000000000000171e+01,6.973683954048946754e-02
2.596000000000000085e+01,5.924574164215387628e-02
2.600000000000000000e+01,6.966042794649265901e-02
2.603999999999999915e+01,4.252378536659991853e-02
2.607999999999999829e+01,7.161076740858883516e-02
2.612000000000000099e+01,7.126546508760063514e-02
2.616000000000000014e+01,5.671108554775072808e-02
2.619999999999999929e+01,4.215595548920092472e-02
2.623999999999999844e+01,4.688280383188056510e-02
2.628000000000000114e+01,5.526247222371980655e-02
2.632000000000000028e+01,3.684854783092806479e-02
2.635999999999999943e+01,3.934041200413147810e-02
2.639999999999999858e+01,5.319818905498101963e-02
2.644000000000000128e+01,3.802963779894219520e-02
2.648000000000000043e+01,4.782639833915281607e-02
2.651999999999999957e+01,2.027481190168350586e-02
2.655999999999999872e+01,4.387245368408977664e-02
2.660000000000000142e+01,6.138006713220980209e-02
2.664000000000000057e+01,4.661373727685753920e-02
2.667999999999999972e+01,1.784131259400872568e-02
2.671999999999999886e+01,4.711930508917278049e-02
2.676000000000000156e+01,5.366323190846737645e-02
2.680000000000000071e+01,6.243915245796117369e-02
2.683999999999999986e+01,5.619409967525876987e-02
2.687999999999999901e+01,4.629473501745231395e-02
2.692000000000000171e+01,3.923629381065740773e-02
2.696000000000000085e+01,4.902412666624527543e-02
2.700000000000000000e+01,5.860824261061110124e-02
2.703999999999999915e+01,6.474102470791741337e-02
2.707999999999999829e+01,4.144153407776886289e-02
2.712000000000000099e+01,4.310736300088438555e-02
2.716000000000000014e+01,4.720816610631065058e-02
2.719999999999999929e+01,6.592250920630263189e-02
2.723999999999999844e+01,7.184862079893028497e-02
2.728000000000000114e+01,5.159007950882130156e-02
2.732000000000000028e+01,3.863794047125345549e-02
2.735999999999999943e+01,6.425052184480654904e-02
2.739999999999999858e+01,8.316415631396992247e-02
2.744000000000000128e+01,5.823422011485998584e-02
2.748000000000000043e+01,4.913568383675403356e-02
2.751999999999999957e+01,4.105129348274480505e-02
2.755999999999999872e+01,6.544234330020302914e-02
2.760000000000000142e+01,6.912909851078063994e-02
2.764000000000000057e+01,8.357285336184848423e-02
2.767999999999999972e+01,8.137183635147665628e-02
2.771999999999999886e+01,7.856115897894305755e-02
2.776000000000000156e+01,7.067534777566597537e-02
2.780000000000000071e+01,6.583344677808644629e-02
2.783999999999999986e+01,8.676877841557559257e-02
2.787999999999999901e+01,9.532183848029664175e-02
2.792000000000000171e+01,1.042801210508765425e-01
2.796000000000000085e+01,8.847459160208293039e-02
2.800000000000000000e+01,8.322309006830982958e-02
2.803999999999999915e+01,7.309943418627776190e-02
2.807999999999999829e+01,8.347563553963692484e-02
2.812000000000000099e+01,6.036005499487638593e-02
2.816000000000000014e+01,9.894847867964449983e-02
2.819999999999999929e+01,7.928203860345536813e-02
2.823999999999999844e+01,9.310592738451549388e-02
2.828000000000000114e+01,8.805231459963949736e-02
2.832000000000000028e+01,1.132414142209884761e-01
2.835999999999999943e+01,8.646791077314550100e-02
2.839999999999999858e+01,1.252549601507348676e-01
2.844000000000000128e+01,9.360858334880578502e-02
2.848000000000000043e+01,9.423468178026242481e-02
2.851999999999999957e+01,6.928507062457082977e-02
2.855999999999999872e+01,9.223709450877490279e-02
2.860000000000000142e+01,5.815211601290024013e-02
2.864000000000000057e+01,1.024151868451519953e-01
2.867999999999999972e+01,6.954662347667324440e-02
2.871999999999999886e+01,9.290171672776242895e-02
2.876000000000000156e+01,6.957159006635174614e-02
2.880000000000000071e+01,9.272226873218257504e-02
2.883999999999999986e+01,8.319307858169829040e-02
2.887999999999999901e+01,1.110107707325010823e-01
2.892000000000000171e+01,7.326646865252350871e-02
2.896000000000000085e+01,9.174582610099429880e-02
2.900000000000000000e+01,4.527211855468353530e-02
2.903999999999999915e+01,7.674051300705216072e-02
2.907999999999999829e+01,9.521772216468345207e-02
2.912000000000000099e+01,8.162399416606559710e-02
2.916000000000000014e+01,7.736645160931325538e-02
2.919999999999999929e+01,7.168736227333326327e-02
2.923999999999999844e+01,8.508731161079911842e-02
2.928000000000000114e+01,7.291156057257151824e-02
2.932000000000000028e+01,6.743330776118432179e-02
2.935999999999999943e+01,5.951862966586976555e-02
2.939999999999999858e+01,6.905918347292901160e-02
2.944000000000000128e+01,7.717819340964114649e-02
2.948000000000000043e+01,9.808398617616813364e-02
2.951999999999999957e+01,9.422598583104503656e-02
2.955999999999999872e+01,9.726846271043362857e-02
2.960000000000000142e+01,1.092411781870541582e-01
2.964000000000000057e+01,1.522685264239054814e-01
2.967999999999999972e+01,1.571356616281748553e-01
2.971999999999999886e+01,1.764133912814651595e-01
2.976000000000000156e+01,2.076660028031014904e-01
2.980000000000000071e+01,2.048179245224099887e-01
2.983999999999999986e+01,2.115090160142031328e-01
2.987999999999999901e+01,1.983077448886438054e-01
2.992000000000000171e+01,1.763777965140334303e-01
2.996000000000000085e+01,1.304959647158838443e-01
3.000000000000000000e+01,1.018663960035186694e-01
3.003999999999999915e+01,9.617242134789089070e-02
3.007999999999999829e+01,8.337358009279148552e-02
3.012000000000000099e+01,5.839547050326648892e-02
3.016000000000000014e+01,6.163033473347716285e-02
3.019999999999999929e+01,9.470198197856244393e-02
3.023999999999999844e+01,4.719142042119908037e-02
3.028000000000000114e+01,5.265691697047617664e-02
3.032000000000000028e+01,4.330445845511581709e-02
3.035999999999999943e+01,5.242212392160499473e-02
3.039999999999999858e+01,4.996945271373470082e-02
3.044000000000000128e+01,3.675834967148110949e-02
3.048000000000000043e+01,6.617152663160974502e-02
3.051999999999999957e+01,5.113224198772696460e-02
3.055999999999999872e+01,6.856843387631868236e-02
3.060000000000000142e+01,3.728966726592128356e-02
3.064000000000000057e+01,3.726852162488111797e-02
3.067999999999999972e+01,3.947941674094249814e-02
3.071999999999999886e+01,3.722414216882598270e-02
3.076000000000000156e+01,4.329019198715868683e-02
3.080000000000000071e+01,4.529602526452182476e-02
3.083999999999999986e+01,4.019700115386835165e-02
3.087999999999999901e+01,5.843953345861559873e-02
3.092000000000000171e+01,7.079506587771725035e-02
3.096000000000000085e+01,3.991599855849943534e-02
3.100000000000000000e+01,3.440824999702948861e-02
3.103999999999999915e+01,5.934622289788822613e-02
3.107999999999999829e+01,3.313353005203068663e-02
3.112000000000000099e+01,4.995107714315159125e-02
3.116000000000000014e+01,3.896020966811269276e-02
3.119999999999999929e+01,2.675079574330814849e-02
3.123999999999999844e+01,6.406685805122445954e-02
3.128000000000000114e+01,4.657868743825923502e-02
3.132000000000000028e+01,5.182315030727029787e-02
3.135999999999999943e+01,6.214132741828090611e-02
3.139999999999999858e+01,3.835883411950083421e-02
3.144000000000000128e+01,5.111134979490435798e-02
3.148000000000000043e+01,6.041258543753873222e-02
3.151999999999999957e+01,7.559944161658910255e-02
3.155999999999999872e+01,6.094812718970690768e-02
3.160000000000000142e+01,7.633658883496004244e-02
3.164000000000000057e+01,7.365949399376768569e-02
3.167999999999999972e+01,1.107650284562907428e-01
3.171999999999999886e+01,1.387359553087856023e-01
3.176000000000000156e+01,1.656913185876935923e-01
3.180000000000000071e+01,1.678829163893169329e-01
3.183999999999999986e+01,1.956488192185608099e-01
3.187999999999999901e+01,2.374193904991692416e-01
3.192000000000000171e+01,2.948184394262812202e-01
3.196000000000000085e+01,3.164930160206648191e-01
3.200000000000000000e+01,3.219288252910401660e-01
3.203999999999999915e+01,3.216806243393365849e-01
3.207999999999999829e+01,2.976835417479958834e-01
3.211999999999999744e+01,2.643488803059706460e-01
3.215999999999999659e+01,2.373057993349575734e-01
3.220000000000000284e+01,2.037668057259565957e-01
3.224000000000000199e+01,1.805789153334084185e-01
3.228000000000000114e+01,1.525189219828246845e-01
3.232000000000000028e+01,1.307505110425068173e-01
3.235999999999999943e+01,1.193332047730822215e-01
3.239999999999999858e+01,1.038557013552249692e-01
3.243999999999999773e+01,8.025847949793486757e-02
3.247999999999999687e+01,4.854153968602512026e-02
3.252000000000000313e+01,8.421198743444686940e-02
3.256000000000000227e+01,6.690500257513293247e-02
3.260000000000000142e+01,4.513187081387217553e-02
3.264000000000000057e+01,1.828366436910597997e-02
3.267999999999999972e+01,5.841689524634356007e-02
3.271999999999999886e+01,6.018697384802897815e-02
3.275999999999999801e+01,3.171294421060334018e-02
3.279999999999999716e+01,4.545727051715728328e-02
3.284000000000000341e+01,5.311164412031946225e-02
3.288000000000000256e+01,5.061654372908947624e-02
3.292000000000000171e+01,4.507613293595490872e-02
3.296000000000000085e+01,2.309399036554357632e-02
3.300000000000000000e+01,2.140878857378408773e-02
3.303999999999999915e+01,6.153599345730344228e-02
3.307999999999999829e+01,2.980899577812719942e-02
3.311999999999999744e+01,3.766166876715896367e-02
3.315999999999999659e+01,4.226605817437607826e-02
3.320000000000000284e+01,3.428526440022008209e-02
3.324000000000000199e+01,2.305618801387623526e-02
3.328000000000000114e+01,5.059487987983133511e-02
3.332000000000000028e+01,3.307221581234286167e-02
3.335999999999999943e+01,3.056911857826917142e-02
3.339999999999999858e+01,3.131297551256346373e-02
3.343999999999999773e+01,2.312522177259771286e-02
3.347999999999999687e+01,3.584334289541711571e-02
3.352000000000000313e+01,2.806021725253378743e-02
3.356000000000000227e+01,2.798952167066746932e-02
3.360000000000000142e+01,4.273541974230577606e-02
3.364000000000000057e+01,1.932115277789143298e-02
3.367999999999999972e+01,6.227940698944448017e-02
3.371999999999999886e+01,6.119119055964161724e-02
3.375999999999999801e+01,1.950709748273812827e-02
3.379999999999999716e+01,4.115088570438183574e-02
3.384000000000000341e+01,1.854522865031930923e-02
3.388000000000000256e+01,1.359783388652507224e-02
3.392000000000000171e+01,9.867638705766495349e-03
3.396000000000000085e+01,1.303797407899637793e-02
3.400000000000000000e+01,2.168800786949334064e-02
3.403999999999999915e+01,2.242131870188512552e-02
3.407999999999999829e+01,3.188194634182183601e-02
3.411999999999999744e+01,3.707942159151272898e-02
3.415999999999999659e+01,2.421137089800397962e-02
3.420000000000000284e+01,3.103134726117795159e-02
3.424000000000000199e+01,2.709293784724410917e-02
3.428000000000000114e+01,1.381697576255077470e-02
3.432000000000000028e+01,2.550642049753837695e-02
3.435999999999999943e+01,1.872438953581215260e-02
3.439999999999999858e+01,2.391729668078948143e-02
3.443999999999999773e+01,3.215419451049320032e-02
3.447999999999999687e+01,1.867200067727231919e-02
3.452000000000000313e+01,1.655581813882309877e-02
3.456000000000000227e+01,2.134017342656375701e-02
3.460000000000000142e+01,2.429709520730798100e-02
3.464000000000000057e+01,3.171884271838058128e-02
3.467999999999999972e+01,3.102089893957215433e-02
3.471999999999999886e+01,3.478778186071895123e-02
3.475999999999999801e+01,2.840521357370460673e-02
3.479999999999999716e+01,3.237377953120249702e-02
3.484000000000000341e+01,2.659884742774742961e-02
3.488000000000000256e+01,1.047148948178080498e-02
3.492000000000000171e+01,1.585895211825474188e-02
3.496000000000000085e+01,1.170589423700674030e-02
3.500000000000000000e+01,2.013671000103572223e-02
3.503999999999999915e+01,3.140854763320184706e-02
3.507999999999999829e+01,3.415474664603973531e-02
3.511999999999999744e+01,2.837530752436287843e-02
3.515999999999999659e+01,1.792677644000781681e-02
3.520000000000000284e+01,5.213234345392623453e-02
3.524000000000000199e+01,2.300872981428325401e-02
3.528000000000000114e+01,2.818743471421521207e-02
3.532000000000000028e+01,1.793931688481608180e-02
3.535999999999999943e+01,5.051851429382787223e-02
3.539999999999999858e+01,2.951138525048517536e-02
3.543999999999999773e+01,1.438992425527429661e-02
3.547999999999999687e+01,2.058031454110123212e-02
3.552000000000000313e+01,3.468613473259371527e-02
3.556000000000000227e+01,3.397406337000768300e-02
3.560000000000000142e+01,2.311255098034247640e-02
3.564000000000000057e+01,1.854266124045754124e-02
3.567999999999999972e+01,1.559594459298041351e-02
3.571999999999999886e+01,2.218846898556157965e-02
3.575999999999999801e+01,1.599286513603825552e-02
3.579999999999999716e+01,2.583173813750219705e-02
3.584000000000000341e+01,2.044677080100014421e-02
3.588000000000000256e+01,2.378914208864727625e-02
3.592000000000000171e+01,3.098742635428041944e-02
3.596000000000000085e+01,2.519460871308555616e-02
3.600000000000000000e+01,2.427258546345699777e-02
3.603999999999999915e+01,2.659754837988255807e-02
3.607999999999999829e+01,4.150639803154763940e-02
3.611999999999999744e+01,3.855272158466175464e-02
3.615999999999999659e+01,3.255377400575888702e-02
3.620000000000000284e+01,2.147979489174552462e-02
3.624000000000000199e+01,2.136589574189979787e-02
3.628000000000000114e+01,2.267220086787258282e-02
3.632000000000000028e+01,3.412668257247713360e-02
3.635999999999999943e+01,2.893649762015539431e-02
3.639999999999999858e+01,1.116116827153470180e-02
3.643999999999999773e+01,8.202466998171939472e-03
3.647999999999999687e+01,7.475876779857615340e-03
3.652000000000000313e+01,1.425877640996309551e-02
3.656000000000000227e+01,2.652140548539499293e-02
3.660000000000000142e+01,1.929770556971146037e-02
3.664000000000000057e+01,1.938052086809740823e-02
3.667999999999999972e+01,3.448294323941255429e-02
3.671999999999999886e+01,8.989524839820548646e-03
3.675999999999999801e+01,2.348177340403976091e-02
3.679999999999999716e+01,2.214126499944316095e-02
3.684000000000000341e+01,2.668644161144828261e-02
3.688000000000000256e+01,8.700651294171656003e-03
3.692000000000000171e+01,2.379934286107640920e-02
3.696000000000000085e+01,3.666467734739543155e-02
3.700000000000000000e+01,1.502345712022213307e-02
3.703999999999999915e+01,2.991731374111221767e-02
3.707999999999999829e+01,3.809381776834662274e-03
3.711999999999999744e+01,4.102937135061876517e-02
3.715999999999999659e+01,1.674698834100215791e-02
3.720000000000000284e+01,2.006873621191212348e-02
3.724000000000000199e+01,2.318689128383743039e-02
3.728000000000000114e+01,2.407169315368437937e-02
3.732000000000000028e+01,1.034160089003423842e-02
3.735999999999999943e+01,2.015611967035066052e-02
3.739999999999999858e+01,2.956407150214527754e-02
3.743999999999999773e+01,0.000000000000000000e+00
3.747999999999999687e+01,1.935255209509813626e-02
3.752000000000000313e+01,1.475331239639438713e-02
3.756000000000000227e+01,1.685167079609680568e-02
3.760000000000000142e+01,2.828631693329786492e-02
3.764000000000000057e+01,1.901679015178851448e-02
3.767999999999999972e+01,1.137046070335824728e-02
3.771999999999999886e+01,3.112529234923849808e-02
3.775999999999999801e+01,3.545333083940664654e-02
3.779999999999999716e+01,2.841409843448981093e-02
3.784000000000000341e+01,3.659746325088228391e-02
3.788000000000000256e+01,2.915106027721219364e-02
3.792000000000000171e+01,3.469451851778053431e-02
3.796000000000000085e+01,2.927665998009911993e-02
3.800000000000000000e+01,3.400699838321329105e-02
3.803999999999999915e+01,1.925102524849546873e-02
3.807999999999999829e+01,3.900038067908324219e-02
3.811999999999999744e+01,3.906044945267510976e-02
3.815999999999999659e+01,3.993181702194451010e-02
3.820000000000000284e+01,3.004484681063537832e-02
3.824000000000000199e+01,2.502869814044442892e-02
3.828000000000000114e+01,3.625003246846385252e-02
3.832000000000000028e+01,3.387136522727530324e-02
3.835999999999999943e+01,2.946233396276174213e-02
3.839999999999999858e+01,3.033007835620145365e-02
3.843999999999999773e+01,2.855853142957085269e-02
3.847999999999999687e+01,4.363339819158983113e-02
3.852000000000000313e+01,4.896481149549117978e-02
3.856000000000000227e+01,1.410635850748446184e-02
3.860000000000000142e+01,3.486275362158983843e-02
3.864000000000000057e+01,2.476618349778581668e-02
3.867999999999999972e+01,4.227376219260520901e-02
3.871999999999999886e+01,3.177004186221179388e-02
3.875999999999999801e+01,1.740917755751128504e-02
3.879999999999999716e+01,1.725604166568887182e-02
3.884000000000000341e+01,1.527552365709313950e-02
3.888000000000000256e+01,1.958666756816528076e-02
3.892000000000000171e+01,2.207043033209104416e-02
3.896000000000000085e+01,3.328156905079989597e-02
3.900000000000000000e+01,1.993200564743155892e-02
3.903999999999999915e+01,3.723123675786791514e-02
3.907999999999999829e+01,2.895488627190058797e-02
3.911999999999999744e+01,4.828268993750434862e-02
3.915999999999999659e+01,3.513372595744772980e-02
3.920000000000000284e+01,5.263355843044946469e-02
3.924000000000000199e+01,5.064709391002195776e-02
3.928000000000000114e+01,4.967491784883863032e-02
3.932000000000000028e+01,6.636107001254967774e-02
3.935999999999999943e+01,4.854069606676043175e-02
3.939999999999999858e+01,3.680901425442296288e-02
3.943999999999999773e+01,4.456244692053634021e-02
3.947999999999999687e+01,4.094862905372873008e-02
3.952000000000000313e+01,3.794315037746442965e-02
3.956000000000000227e+01,6.660135296153281426e-02
3.960000000000000142e+01,5.709946274674906896e-02
3.964000000000000057e+01,4.982972188727446960e-02
3.967999999999999972e+01,6.407485930303823130e-02
3.971999999999999886e+01,5.416525550094796609e-02
3.975999999999999801e+01,5.582470259297891979e-02
3.979999999999999716e+01,5.240916178310775497e-02
3.984000000000000341e+01,7.740968820661220384e-02
3.988000000000000256e+01,5.795786647244711987e-02
3.992000000000000171e+01,6.448639987579610211e-02
3.996000000000000085e+01,7.547982348965924515e-02
4.000000000000000000e+01,7.936850073778049797e-02
4.003999999999999915e+01,9.178159094185661671e-02
4.007999999999999829e+01,7.943101602502748715e-02
4.011999999999999744e+01,1.129524553712674267e-01
4.015999999999999659e+01,1.050661912853921576e-01
4.020000000000000284e+01,1.227543335531436769e-01
4.024000000000000199e+01,1.382091584950104202e-01
4.028000000000000114e+01,1.556931644604104825e-01
4.032000000000000028e+01,1.843402759297383398e-01
4.035999999999999943e+01,2.263832303645051391e-01
4.039999999999999858e+01,2.881142870020356739e-01
4.043999999999999773e+01,3.291412046577955608e-01
4.047999999999999687e+01,4.249710888467359560e-01
4.052000000000000313e+01,4.919777914719048462e-01
4.056000000000000227e+01,6.288076921703922295e-01
4.060000000000000142e+01,7.205763251714798479e-01
4.064000000000000057e+01,7.985420086337473577e-01
4.067999999999999972e+01,8.377386841207533630e-01
4.071999999999999886e+01,8.726722872117287366e-01
4.075999999999999801e+01,9.307445903782304297e-01
4.079999999999999716e+01,9.366514651637252165e-01
4.084000000000000341e+01,1.000000000000000000e+00
4.088000000000000256e+01,9.770831245080585648e-01
4.092000000000000171e+01,9.401603267822004062e-01
4.096000000000000085e+01,9.206929010697962878e-01
4.100000000000000000e+01,9.245671544305898992e-01
4.103999999999999915e+01,9.217426262083718846e-01
4.107999999999999829e+01,9.018675363596309058e-01
4.111999999999999744e+01,8.564168896399708686e-01
4.115999999999999659e+01,8.460805370826223193e-01
4.120000000000000284e+01,8.416299223865391088e-01
4.124000000000000199e+01,7.535525908798390571e-01
4.128000000000000114e+01,6.642568350963568014e-01
4.132000000000000028e+01,6.283432234056021137e-01
4.135999999999999943e+01,5.682748903743438662e-01
4.139999999999999858e+01,4.540113753463730917e-01
4.143999999999999773e+01,3.557824055280827125e-01
4.147999999999999687e+01,3.044403469004713925e-01
4.152000000000000313e+01,2.809054476020274027e-01
4.156000000000000227e+01,2.183985749054266068e-01
4.160000000000000142e+01,1.887732647273872855e-01
4.164000000000000057e+01,1.851283305338394802e-01
4.167999999999999972e+01,1.579376071446675911e-01
4.171999999999999886e+01,1.555094041768698421e-01
4.175999999999999801e+01,1.368425521795398891e-01
4.179999999999999716e+01,1.228435887829323336e-01
4.184000000000000341e+01,1.232553667338139036e-01
4.188000000000000256e+01,1.116909949742080632e-01
4.192000000000000171e+01,9.789332625088142947e-02
4.196000000000000085e+01,1.319974549799484420e-01
4.200000000000000000e+01,9.830701103552784426e-02
4.203999999999999915e+01,1.058201545830349255e-01
4.207999999999999829e+01,1.186101183913305518e-01
4.211999999999999744e+01,1.259191702393214485e-01
4.215999999999999659e+01,1.090735104430773095e-01
4.220000000000000284e+01,1.466248858494095253e-01
4.224000000000000199e+01,1.488578656976455306e-01
4.228000000000000114e+01,1.650956400487369746e-01
4.232000000000000028e+01,1.864072614807067707e-01
4.235999999999999943e+01,2.245653436282286086e-01
4.239999999999999858e+01,2.698270347141625836e-01
4.243999999999999773e+01,3.398512549481124134e-01
4.247999999999999687e+01,4.257070569081010114e-01
4.252000000000000313e+01,5.089236169989889147e-01
4.256000000000000227e+01,5.972140270796357786e-01
4.260000000000000142e+01,7.265050553508075604e-01
4.264000000000000057e+01,8.044425818975524667e-01
4.267999999999999972e+01,8.115409026807779425e-01
4.271999999999999886e+01,7.406958550776228112e-01
4.275999999999999801e+01,7.143020211136877906e-01
4.279999999999999716e+01,6.152421980415573310e-01
4.284000000000000341e+01,5.565740678024605481e-01
4.288000000000000256e+01,4.465524387478174151e-01
4.292000000000000171e+01,3.627141772804861053e-01
4.296000000000000085e+01,3.074949969507683178e-01
4.300000000000000000e+01,2.189871911623162415e-01
4.303999999999999915e+01,1.893419047109178854e-01
4.307999999999999829e+01,1.357448938547839157e-01
4.311999999999999744e+01,1.081282769212382616e-01
4.315999999999999659e+01,9.309563253490855950e-02
4.320000000000000284e+01,6.791363923605069075e-02
4.324000000000000199e+01,7.398941962277938433e-02
4.328000000000000114e+01,5.509859758488618725e-02
4.332000000000000028e+01,6.990126326769470488e-02
4.335999999999999943e+01,5.303911656541541314e-02
4.339999999999999858e+01,3.942404523486074674e-02
4.343999999999999773e+01,4.082866291070441633e-02
4.347999999999999687e+01,4.345059603999264219e-02
4.352000000000000313e+01,4.079461026623679848e-02
4.356000000000000227e+01,3.610832349490133292e-02
4.360000000000000142e+01,3.446613843056701987e-02
4.364000000000000057e+01,5.535376008195366099e-02
4.367999999999999972e+01,4.031407536215534521e-02
4.371999999999999886e+01,3.542265691147270662e-02
4.375999999999999801e+01,4.473902699053294851e-02
4.379999999999999716e+01,3.497510752247599830e-02
4.384000000000000341e+01,3.860707319862605874e-02
4.388000000000000256e+01,2.376767856365782569e-02
4.392000000000000171e+01,3.937416150094154993e-02
4.396000000000000085e+01,2.818726545631554739e-02
4.400000000000000000e+01,1.842066725649933734e-02
4.403999999999999915e+01,5.168446558839832200e-02
4.407999999999999829e+01,5.267453199547916104e-02
4.411999999999999744e+01,2.666824527111309392e-02
4.415999999999999659e+01,3.902390649071670742e-02
4.420000000000000284e+01,2.316535901575614287e-02
4.424000000000000199e+01,2.354436677620656143e-02
4.428000000000000114e+01,5.254247167311357908e-02
4.432000000000000028e+01,4.195970835761798912e-02
4.435999999999999943e+01,3.949545818034597838e-02
4.439999999999999858e+01,4.941221949071541997e-02
4.443999999999999773e+01,1.954513795433190579e-02
4.447999999999999687e+01,4.874356929707598929e-02
4.452000000000000313e+01,2.070221512669432815e-02
4.456000000000000227e+01,2.797817241655614975e-02
4.460000000000000142e+01,4.073395659924308049e-02
4.464000000000000057e+01,4.537017021059209371e-02
4.467999999999999972e+01,3.011420058555656573e-02
4.471999999999999886e+01,3.089281592490241563e-02
4.475999999999999801e+01,3.897804489544328538e-02
4.479999999999999716e+01,6.411274024394582327e-02
4.484000000000000341e+01,4.134455404220195585e-02
4.488000000000000256e+01,2.608595901488407892e-02
4.492000000000000171e+01,5.324884291880476600e-02
4.496000000000000085e+01,7.066835141956941124e-02
4.500000000000000000e+01,3.795224333264370781e-02
4.503999999999999915e+01,3.953857207976912286e-02
4.507999999999999829e+01,4.193628349529485849e-02
4.511999999999999744e+01,6.321024996640592364e-02
4.515999999999999659e+01,5.809680417759126997e-02
4.520000000000000284e+01,4.060129674022228130e-02
4.524000000000000199e+01,7.263143522027344645e-02
4.528000000000000114e+01,7.746225853967646235e-02
4.532000000000000028e+01,6.118304984696555648e-02
4.535999999999999943e+01,7.433485573583660522e-02
4.539999999999999858e+01,1.023033982981730594e-01
4.543999999999999773e+01,1.048994124382313653e-01
4.547999999999999687e+01,1.257627577308237654e-01
4.552000000000000313e+01,1.484523714687176199e-01
4.556000000000000227e+01,1.494230278370060339e-01
4.560000000000000142e+01,1.796217256069662371e-01
4.564000000000000057e+01,1.988591996828544817e-01
4.567999999999999972e+01,2.493544770179483006e-01
4.571999999999999886e+01,2.645314009737140259e-01
4.575999999999999801e+01,2.689500787786388014e-01
4.579999999999999716e+01,3.090920352506045243e-01
4.584000000000000341e+01,3.465947900929840508e-01
4.588000000000000256e+01,3.333530107471964765e-01
4.592000000000000171e+01,3.578642724107972128e-01
4.596000000000000085e+01,3.436065900945085017e-01
4.600000000000000000e+01,3.701465910890953115e-01
4.603999999999999915e+01,3.467539641899315961e-01
4.607999999999999829e+01,3.308709430095966852e-01
4.611999999999999744e+01,2.979374212892301754e-01
4.615999999999999659e+01,2.625676779065754807e-01
4.620000000000000284e+01,2.430295613376081687e-01
4.624000000000000199e+01,2.163867740337935275e-01
4.628000000000000114e+01,1.866988382557588921e-01
4.632000000000000028e+01,1.407723087169226173e-01
4.635999999999999943e+01,1.614214301287005549e-01
4.639999999999999858e+01,1.416778041832112978e-01
4.643999999999999773e+01,1.010271358891747240e-01
4.647999999999999687e+01,1.255312873786579297e-01
4.652000000000000313e+01,8.853317973108222605e-02
4.656000000000000227e+01,7.974824467674702932e-02
4.660000000000000142e+01,8.375029995237322222e-02
4.664000000000000057e+01,5.669651086398458384e-02
4.667999999999999972e+01,6.983148506192768390e-02
4.671999999999999886e+01,6.632191816962194897e-02
4.675999999999999801e+01,6.179696950876423928e-02
4.679999999999999716e+01,4.204831334881941468e-02
4.684000000000000341e+01,5.518128321799514735e-02
4.688000000000000256e+01,5.004590522585017354e-02
4.692000000000000171e+01,4.693978873626737658e-02
4.696000000000000085e+01,3.348139281782775561e-02
4.700000000000000000e+01,3.849332256362317239e-02
4.703999999999999915e+01,4.127201740181639378e-02
4.707999999999999829e+01,4.344128652754635639e-02
4.711999999999999744e+01,3.464934989730123621e-02
4.715999999999999659e+01,4.737238220240520825e-02
4.720000000000000284e+01,2.883660084209171623e-02
4.724000000000000199e+01,3.039495676521929146e-02
4.728000000000000114e+01,2.931412851204382233e-02
4.732000000000000028e+01,3.432208838537857687e-02
4.735999999999999943e+01,4.744859775794382090e-02
4.739999999999999858e+01,3.520260246408881549e-02
4.743999999999999773e+01,3.493170332611435919e-02
4.747999999999999687e+01,3.912578554357822730e-02
4.752000000000000313e+01,5.448306053138673999e-02
4.756000000000000227e+01,2.863569786635464937e-02
4.760000000000000142e+01,3.749675524101435398e-02
4.764000000000000057e+01,2.788649787701789201e-02
4.767999999999999972e+01,3.918228748457296823e-02
4.771999999999999886e+01,3.160081114551736153e-02
4.775999999999999801e+01,2.483074995736156074e-02
4.779999999999999716e+01,3.998161763915112493e-02
4.784000000000000341e+01,4.051771869337478932e-02
4.788000000000000256e+01,2.745393404879942212e-02
4.792000000000000171e+01,3.245453404158651911e-02
4.796000000000000085e+01,3.603381463264295620e-02
4.800000000000000000e+01,2.905785231120107046e-02
4.803999999999999915e+01,3.080937599719007006e-02
4.807999999999999829e+01,3.621398395565601780e-02
4.811999999999999744e+01,3.796453747494745595e-02
4.815999999999999659e+01,3.626401312866848331e-02
4.820000000000000284e+01,3.111241140163256008e-02
4.824000000000000199e+01,3.468829810609461162e-02
4.828000000000000114e+01,3.359525186668237129e-02
4.832000000000000028e+01,2.316482312602335947e-02
4.835999999999999943e+01,4.236842141674392742e-02
4.839999999999999858e+01,4.452154680179831042e-02
4.843999999999999773e+01,3.774324331762755891e-02
4.847999999999999687e+01,2.812279411276586566e-02
4.852000000000000313e+01,4.123518685965400082e-02
4.856000000000000227e+01,3.851496517287371357e-02
4.860000000000000142e+01,4.898771023430745220e-02
4.864000000000000057e+01,2.881058734997917620e-02
4.867999999999999972e+01,3.075738009028224779e-02
4.871999999999999886e+01,4.670904538840243980e-02
4.875999999999999801e+01,3.891203121408446514e-02
4.879999999999999716e+01,4.207524923534997768e-02
4.884000000000000341e+01,5.071834553966384634e-02
4.888000000000000256e+01,3.236514640532864306e-02
4.892000000000000171e+01,3.146741576231949777e-02
4.896000000000000085e+01,3.503468441284548346e-02
4.900000000000000000e+01,4.144314413139447290e-02
4.903999999999999915e+01,3.993506269687319837e-02
4.907999999999999829e+01,5.243185818348987393e-02
4.911999999999999744e+01,5.904187437457010523e-02
4.915999999999999659e+01,4.393297682925326880e-02
4.920000000000000284e+01,4.445276636984021174e-02
4.924000000000000199e+01,3.989768242449372865e-02
4.928000000000000114e+01,6.761532581551463195e-02
4.932000000000000028e+01,4.864799848813704253e-02
4.935999999999999943e+01,4.815102542898658938e-02
4.939999999999999858e+01,5.130715264115618540e-02
4.943999999999999773e+01,5.689852407671516094e-02
4.947999999999999687e+01,5.822692929038399828e-02
4.952000000000000313e+01,5.772808183246453534e-02
4.956000000000000227e+01,7.265494973497896303e-02
4.960000000000000142e+01,5.855577003757906490e-02
4.964000000000000057e+01,5.399600009530992201e-02
4.967999999999999972e+01,6.262920999121730781e-02
4.971999999999999886e+01,6.842028919565003309e-02
4.975999999999999801e+01,5.371031846863127956e-02
4.979999999999999716e+01,5.848558778674078223e-02
4.984000000000000341e+01,5.189373213860686007e-02
4.988000000000000256e+01,5.484128915448413522e-02
4.992000000000000171e+01,5.596159834690735135e-02
4.996000000000000085e+01,4.530883184994601021e-02
5.000000000000000000e+01,5.840380568678458367e-02
5.003999999999999915e+01,5.566618302805160373e-02
5.007999999999999829e+01,6.267095154618769481e-02
5.011999999999999744e+01,7.069013990800653013e-02
5.015999999999999659e+01,7.160470504669384784e-02
5.020000000000000284e+01,5.952834087213292047e-02
5.024000000000000199e+01,5.536758501457862691e-02
5.028000000000000114e+01,5.831053360368144284e-02
5.032000000000000028e+01,6.287683272690626490e-02
5.035999999999999943e+01,5.790279798557835395e-02
5.039999999999999858e+01,5.597294736953409983e-02
5.043999999999999773e+01,3.963133772758736101e-02
5.047999999999999687e+01,6.774103529385236411e-02
5.052000000000000313e+01,4.368542228877296540e-02
5.056000000000000227e+01,4.561029338157915336e-02
5.060000000000000142e+01,5.118827929010816291e-02
5.064000000000000057e+01,5.270628912512715508e-02
5.067999999999999972e+01,6.498157785317008883e-02
5.071999999999999886e+01,4.843380864486538512e-02
5.075999999999999801e+01,5.137129111721124713e-02
5.079999999999999716e+01,5.532320167506805247e-02
5.084000000000000341e+01,5.683894729380754157e-02
5.088000000000000256e+01,4.942329361694091511e-02
5.092000000000000171e+01,4.687861516704872056e-02
5.096000000000000085e+01,5.143764940564196642e-02
5.100000000000000000e+01,2.737660519037226833e-02
5.103999999999999915e+01,4.736092279312085346e-02
5.107999999999999829e+01,3.974004335558681961e-02
5.111999999999999744e+01,4.896573080774518916e-02
5.115999999999999659e+01,3.687848094175924518e-02
5.120000000000000284e+01,5.767290994955719813e-02
5.124000000000000199e+01,6.202582873981429129e-02
5.128000000000000114e+01,4.506581166636734748e-02
5.132000000000000028e+01,4.759105306095891968e-02
5.135999999999999943e+01,3.773430746826378357e-02
5.139999999999999858e+01,4.208544300467596116e-02
5.143999999999999773e+01,5.232244051459061102e-02
5.147999999999999687e+01,5.586078297779823593e-02
5.152000000000000313e+01,4.255166643957750128e-02
5.156000000000000227e+01,3.208377199743911445e-02
5.160000000000000142e+01,5.145291994535859670e-02
5.164000000000000057e+01,5.356865816870868408e-02
5.167999999999999972e+01,4.228753283932594476e-02
5.171999999999999886e+01,4.135774683053493328e-02
5.175999999999999801e+01,6.620548337524151394e-02
5.179999999999999716e+01,5.959148591928403738e-02
5.184000000000000341e+01,5.054133564454485472e-02
5.188000000000000256e+01,3.844610476946529881e-02
5.192000000000000171e+01,5.801470496206720395e-02
5.196000000000000085e+01,5.484954491125848541e-02
5.200000000000000000e+01,6.264465584110748275e-02
5.203999999999999915e+01,6.029052500219558852e-02
5.207999999999999829e+01,5.773298123008013122e-02
5.211999999999999744e+01,5.842261851901643654e-02
5.215999999999999659e+01,7.088443308302685986e-02
5.220000000000000284e+01,4.883987716264700379e-02
5.224000000000000199e+01,6.475141494096763040e-02
5.228000000000000114e+01,3.418099396587391536e-02
5.232000000000000028e+01,7.018629617859503678e-02
5.235999999999999943e+01,5.666499927566833600e-02
5.239999999999999858e+01,6.344087828590552758e-02
5.243999999999999773e+01,6.595382695044614552e-02
5.247999999999999687e+01,6.501575010926642639e-02
5.252000000000000313e+01,7.463199837373762913e-02
5.256000000000000227e+01,8.465376778913845379e-02
5.260000000000000142e+01,1.023881980367473271e-01
5.264000000000000057e+01,1.008394697922155719e-01
5.267999999999999972e+01,1.102510207701697803e-01
5.271999999999999886e+01,1.101222664875634027e-01
5.275999999999999801e+01,1.268400989719999372e-01
5.279999999999999716e+01,1.360473880534097679e-01
5.284000000000000341e+01,1.663637627360937954e-01
5.288000000000000256e+01,1.380196206101234335e-01
5.292000000000000171e+01,1.401214651394260824e-01
5.296000000000000085e+01,1.341038399385836022e-01
5.300000000000000000e+01,1.392494739275251803e-01
5.303999999999999915e+01,1.628655067875291740e-01
5.307999999999999829e+01,1.158454360242950065e-01
5.311999999999999744e+01,1.112469435790518768e-01
5.315999999999999659e+01,9.751410338377725084e-02
5.320000000000000284e+01,9.250881173686549552e-02
5.324000000000000199e+01,7.309179500099116655e-02
5.328000000000000114e+01,7.559577355450154690e-02
5.332000000000000028e+01,7.160409545151323607e-02
5.335999999999999943e+01,5.441855024674662616e-02
5.339999999999999858e+01,6.382245182799101135e-02
5.343999999999999773e+01,5.394320461336334083e-02
5.347999999999999687e+01,5.238555716321113831e-02
5.352000000000000313e+01,5.448105992016185478e-02
5.356000000000000227e+01,4.175888928907610376e-02
5.360000000000000142e+01,5.440831133532422759e-02
5.364000000000000057e+01,4.757161092097664246e-02
5.367999999999999972e+01,4.560591918572992620e-02
5.371999999999999886e+01,4.323385830583954814e-02
5.375999999999999801e+01,3.050960041537493714e-02
5.379999999999999716e+01,3.321110927556739784e-02
5.384000000000000341e+01,2.799613516030088900e-02
5.388000000000000256e+01,4.043966574201588587e-02
5.392000000000000171e+01,3.623874249989892521e-02
5.396000000000000085e+01,3.609692697541407036e-02
5.400000000000000000e+01,4.407374142918851767e-02
5.403999999999999915e+01,3.215848609292019933e-02
5.407999999999999829e+01,4.094637920956097077e-02
5.411999999999999744e+01,2.212911213173958391e-02
5.415999999999999659e+01,2.908939669622143467e-02
5.420000000000000284e+01,3.178677224679751084e-02
5.424000000000000199e+01,4.179087632935078039e-02
5.428000000000000114e+01,4.550231147971816464e-02
5.432000000000000028e+01,3.622286725262029855e-02
5.435999999999999943e+01,3.627991389984679127e-02
5.439999999999999858e+01,5.440142372421079980e-02
5.443999999999999773e+01,3.395706843792259400e-02
5.447999999999999687e+01,4.172598173793334864e-02
5.452000000000000313e+01,3.061771150961601143e-02
5.456000000000000227e+01,3.087569546759700093e-02
5.460000000000000142e+01,2.869756005892271436e-02
5.464000000000000057e+01,3.159342105366227255e-02
5.467999999999999972e+01,5.052398773132635995e-02
5.471999999999999886e+01,2.297262522919523570e-02
5.475999999999999801e+01,3.317441088021971796e-02
5.479999999999999716e+01,3.586567736888867514e-02
5.484000000000000341e+01,3.875951655406191521e-02
5.488000000000000256e+01,3.150414839222766272e-02
5.492000000000000171e+01,5.022931717294239207e-02
5.496000000000000085e+01,2.856184234646324052e-02
5.500000000000000000e+01,3.206300107699727037e-02
5.503999999999999915e+01,3.779649581600971059e-02
5.507999999999999829e+01,3.865816394063961714e-02
5.511999999999999744e+01,4.134621686579333100e-02
5.515999999999999659e+01,3.835053979102880095e-02
5.520000000000000284e+01,2.764137231325231037e-02
5.524000000000000199e+01,2.708061073085831286e-02
5.528000000000000114e+01,4.153968165963686787e-02
5.532000000000000028e+01,5.011204843896005512e-02
5.535999999999999943e+01,2.580189174447922520e-02
5.539999999999999858e+01,4.756691060058710480e-02
5.543999999999999773e+01,3.929107219558761188e-02
5.547999999999999687e+01,3.669816864145586388e-02
5.552000000000000313e+01,2.456499376370342713e-02
5.556000000000000227e+01,1.425820901942255990e-02
5.560000000000000142e+01,5.043255442737892141e-02
5.564000000000000057e+01,3.565950785285361413e-02
5.567999999999999972e+01,4.098070085740251195e-02
5.571999999999999886e+01,4.061817064942090799e-02
5.575999999999999801e+01,3.619572642404789153e-02
5.579999999999999716e+01,4.212467097023601253e-02
5.584000000000000341e+01,3.364192194033429478e-02
5.588000000000000256e+01,2.698556692241145180e-02
5.592000000000000171e+01,2.905679342016452213e-02
5.596000000000000085e+01,4.046453018477902397e-02
5.600000000000000000e+01,3.989628837804561068e-02
5.603999999999999915e+01,2.978778155026604729e-02
5.607999999999999829e+01,4.768958661253189929e-02
5.611999999999999744e+01,3.230292523486743422e-02
5.615999999999999659e+01,2.970337005757326190e-02
5.620000000000000284e+01,4.293556289732329556e-02
5.624000000000000199e+01,4.337987571944312837e-02
5.628000000000000114e+01,3.042738074237425969e-02
5.632000000000000028e+01,3.046496999372006950e-02
5.635999999999999943e+01,3.780931347215470140e-02
5.639999999999999858e+01,3.541042020407326324e-02
5.643999999999999773e+01,4.904625395070714988e-02
5.647999999999999687e+01,4.380492792487086090e-02
5.652000000000000313e+01,3.795429060253992931e-02
5.656000000000000227e+01,3.190029464610926596e-02
5.660000000000000142e+01,3.863341022299664890e-02
5.664000000000000057e+01,4.150959853717861581e-02
5.667999999999999972e+01,3.870207527435244599e-02
5.671999999999999886e+01,3.406738660635470761e-02
5.675999999999999801e+01,3.186803088260337785e-02
5.679999999999999716e+01,3.941114778437671690e-02
5.684000000000000341e+01,3.091877452007030583e-02
5.688000000000000256e+01,3.338673138365970405e-02
5.692000000000000171e+01,2.996800349033075864e-02
5.696000000000000085e+01,4.725245895647765121e-02
5.700000000000000000e+01,2.739191296156649399e-02
5.703999999999999915e+01,3.209109698278118233e-02
5.707999999999999829e+01,3.171550254149403669e-02
5.711999999999999744e+01,2.849786709921611413e-02
5.715999999999999659e+01,3.766139780006285548e-02
5.720000000000000284e+01,3.525491665154580762e-02
5.724000000000000199e+01,3.609567862019906481e-02
5.728000000000000114e+01,3.023785584009211491e-02
5.732000000000000028e+01,3.493441634324719047e-02
5.735999999999999943e+01,4.714071928261737848e-02
5.739999999999999858e+01,3.884606488990056256e-02
5.743999999999999773e+01,4.171472350125813439e-02
5.747999999999999687e+01,2.651813881564384426e-02
5.752000000000000313e+01,3.040093556656782436e-02
5.756000000000000227e+01,3.205062491582080092e-02
5.760000000000000142e+01,3.735351392314623792e-02
5.764000000000000057e+01,4.488877045182282366e-02
5.767999999999999972e+01,4.856711232294314701e-02
5.771999999999999886e+01,3.458616598355351152e-02
5.775999999999999801e+01,4.029353225595478510e-02
5.779999999999999716e+01,4.863922016654226993e-02
5.784000000000000341e+01,4.034050176501347701e-02
5.788000000000000256e+01,3.670986685920470810e-02
5.792000000000000171e+01,2.516279842890642091e-02
5.796000000000000085e+01,3.959630378697755193e-02
5.800000000000000000e+01,3.170207428604684963e-02
5.803999999999999915e+01,4.369913687939172564e-02
5.807999999999999829e+01,3.296251340578028322e-02
5.811999999999999744e+01,4.394396779518747881e-02
5.815999999999999659e+01,3.990482846131139516e-02
5.820000000000000284e+01,4.439032218868590313e-02
5.824000000000000199e+01,3.507307969514813356e-02
5.828000000000000114e+01,4.605308438234789054e-02
5.832000000000000028e+01,5.297320608021557214e-02
5.835999999999999943e+01,4.710547345556472670e-02
5.839999999999999858e+01,4.570285454041765616e-02
5.843999999999999773e+01,3.780464102489044381e-02
5.847999999999999687e+01,3.498047045486601947e-02
5.852000000000000313e+01,4.047796073580876147e-02
5.856000000000000227e+01,4.130664266992787464e-02
5.860000000000000142e+01,3.442187541017648067e-02
5.864000000000000057e+01,5.067602493755303528e-02
5.867999999999999972e+01,4.561732829170944692e-02
5.871999999999999886e+01,4.421184487871437224e-02
5.875999999999999801e+01,4.422683820668348725e-02
5.879999999999999716e+01,2.556767597015173477e-02
5.884000000000000341e+01,3.715159605248941066e-02
5.888000000000000256e+01,3.716552464762737373e-02
5.892000000000000171e+01,4.611004720823884406e-02
5.896000000000000085e+01,5.221255106927718409e-02
5.900000000000000000e+01,5.222541929490475549e-02
5.903999999999999915e+01,4.614865236993492131e-02
5.907999999999999829e+01,5.529474010220380292e-02
5.911999999999999744e+01,3.866251304080510487e-02
5.915999999999999659e+01,5.288230044315523487e-02
5.920000000000000284e+01,3.300175438104616110e-02
5.924000000000000199e+01,3.605715628947588763e-02
5.928000000000000114e+01,3.647351946563051617e-02
5.932000000000000028e+01,4.561750536660227895e-02
5.935999999999999943e+01,4.725102737394926838e-02
5.939999999999999858e+01,3.690861201908966771e-02
5.943999999999999773e+01,4.706643399334761030e-02
5.947999999999999687e+01,4.098582171042124134e-02
5.952000000000000313e+01,4.850426070735586181e-02
5.956000000000000227e+01,4.181402730463985862e-02
5.960000000000000142e+01,4.446034828680713036e-02
5.964000000000000057e+01,4.487358707760161214e-02
5.967999999999999972e+01,4.021207891876692198e-02
5.971999999999999886e+01,3.575320260367459424e-02
5.975999999999999801e+01,3.738326519206808946e-02
5.979999999999999716e+01,3.982488886020291163e-02
5.984000000000000341e+01,4.307807409289237527e-02
5.988000000000000256e+01,5.018746270681041788e-02
5.992000000000000171e+01,5.019234639207299092e-02
5.996000000000000085e+01,4.390462998865624772e-02
