2.003999999999999915e+01,4.841176331691572632e-03
2.007999999999999829e+01,4.311046072460984931e-03
2.012000000000000099e+01,4.187108303004813230e-03
2.016000000000000014e+01,4.604843702275054039e-03
2.019999999999999929e+01,3.193344577468192492e-03
2.023999999999999844e+01,5.304089029831743525e-03
2.028000000000000114e+01,4.637236243273805923e-03
2.032000000000000028e+01,2.683071422016606103e-03
2.035999999999999943e+01,2.151203843027199667e-03
2.039999999999999858e+01,2.161010791301789819e-03
2.044000000000000128e+01,3.593115434690195321e-03
2.048000000000000043e+01,3.873389401598540966e-03
2.051999999999999957e+01,4.221156991194720265e-03
2.055999999999999872e+01,6.262183860228116329e-03
2.060000000000000142e+01,5.051433717878864131e-03
2.064000000000000057e+01,4.043658330013600102e-03
2.067999999999999972e+01,6.422648557444657694e-03
2.071999999999999886e+01,4.872460190126030703e-03
2.076000000000000156e+01,2.915585220188024549e-03
2.080000000000000071e+01,5.293839712505774703e-03
2.083999999999999986e+01,3.607435836815646706e-03
2.087999999999999901e+01,6.323902102490877065e-03
2.092000000000000171e+01,7.482098824757520486e-03
2.096000000000000085e+01,5.320780347184953310e-03
2.100000000000000000e+01,5.597866128602284157e-03
2.103999999999999915e+01,6.077928928733712134e-03
2.107999999999999829e+01,5.744865580048178801e-03
2.112000000000000099e+01,3.921274046332716944e-03
2.116000000000000014e+01,4.061906093453977740e-03
2.119999999999999929e+01,7.250605568052605199e-03
2.123999999999999844e+01,4.884363961074198596e-03
2.128000000000000114e+01,6.920994759691200329e-03
2.132000000000000028e+01,5.841333075066835329e-03
2.135999999999999943e+01,5.100130673067785128e-03
2.139999999999999858e+01,4.832868232644271615e-03
2.144000000000000128e+01,4.768585075164892204e-03
2.148000000000000043e+01,5.652423915952274266e-03
2.151999999999999957e+01,5.723139098575780702e-03
2.155999999999999872e+01,3.964627455504379956e-03
2.160000000000000142e+01,4.034861431395582280e-03
2.164000000000000057e+01,5.798360800145173008e-03
2.167999999999999972e+01,7.087438547740931329e-03
2.171999999999999886e+01,8.511756936978238583e-03
2.176000000000000156e+01,7.700408275054078204e-03
2.180000000000000071e+01,6.008197313663470041e-03
2.183999999999999986e+01,6.415694234827893673e-03
2.187999999999999901e+01,6.890692477062316211e-03
2.192000000000000171e+01,5.062284347563689862e-03
2.196000000000000085e+01,6.959350210215545923e-03
2.200000000000000000e+01,5.604646986289936461e-03
2.203999999999999915e+01,4.859367799235138861e-03
2.207999999999999829e+01,6.552498984591439112e-03
2.212000000000000099e+01,4.722900857584878473e-03
2.216000000000000014e+01,4.247869935617780771e-03
2.219999999999999929e+01,4.043562824895523093e-03
2.223999999999999844e+01,6.548627897330783904e-03
2.228000000000000114e+01,6.953509314630840557e-03
2.232000000000000028e+01,6.748492281017919037e-03
2.235999999999999943e+01,5.798096570387864523e-03
2.239999999999999858e+01,4.170062635427243362e-03
2.244000000000000128e+01,5.590103147057189255e-03
2.248000000000000043e+01,5.587363398302951090e-03
2.251999999999999957e+01,8.564958322721692371e-03
2.255999999999999872e+01,5.716658732468170648e-03
2.260000000000000142e+01,5.984174720760817440e-03
2.264000000000000057e+01,5.506313616997354776e-03
2.267999999999999972e+01,7.873307639571667724e-03
2.271999999999999886e+01,5.227290768328951565e-03
2.276000000000000156e+01,6.780934001542089987e-03
2.280000000000000071e+01,5.489254034219458699e-03
2.283999999999999986e+01,4.603781953436972968e-03
2.287999999999999901e+01,4.530959343199238328e-03
2.292000000000000171e+01,6.219149597619703061e-03
2.296000000000000085e+01,3.910433710715215463e-03
2.300000000000000000e+01,5.801379286804565945e-03
2.303999999999999915e+01,5.050223699687033524e-03
2.307999999999999829e+01,4.027875095011642856e-03
2.312000000000000099e+01,3.614956640628241760e-03
2.316000000000000014e+01,8.146843043830325620e-03
2.319999999999999929e+01,4.888371993483829787e-03
2.323999999999999844e+01,7.184368289941241159e-03
2.328000000000000114e+01,7.380186591838596745e-03
2.332000000000000028e+01,6.627410972080129310e-03
2.335999999999999943e+01,5.874404824779264588e-03
2.339999999999999858e+01,5.188908602622616627e-03
2.344000000000000128e+01,4.503182305769586405e-03
2.348000000000000043e+01,6.662315663714433490e-03
2.351999999999999957e+01,1.437534737076345348e-03
2.355999999999999872e+01,5.831636544442316168e-03
2.360000000000000142e+01,4.806291081715807594e-03
2.364000000000000057e+01,5.406482106734366785e-03
2.367999999999999972e+01,4.787120342849758743e-03
2.371999999999999886e+01,5.522334614501841175e-03
2.376000000000000156e+01,4.021893156142737971e-03
2.380000000000000071e+01,4.485690222538732744e-03
2.383999999999999986e+01,2.713832011769578157e-03
2.387999999999999901e+01,2.228810515965504602e-03
2.392000000000000171e+01,4.385430486821587440e-03
2.396000000000000085e+01,1.732267261764660086e-03
2.400000000000000000e+01,6.801262925983998439e-03
2.403999999999999915e+01,3.063802497583835698e-03
2.407999999999999829e+01,6.913020958778772276e-03
2.412000000000000099e+01,7.036300749970332905e-03
2.416000000000000014e+01,2.959460513736309265e-03
2.419999999999999929e+01,3.962911474613133901e-03
2.423999999999999844e+01,6.185460961998521905e-03
2.428000000000000114e+01,9.152927618470266258e-03
2.432000000000000028e+01,6.497730401672811504e-03
2.435999999999999943e+01,5.874515105816182498e-03
2.439999999999999858e+01,3.828530417879643776e-03
2.444000000000000128e+01,5.372553307792760427e-03
2.448000000000000043e+01,3.597080923091164600e-03
2.451999999999999957e+01,5.479356795348840937e-03
2.455999999999999872e+01,4.990501013528235441e-03
2.460000000000000142e+01,6.601368737450054834e-03
2.464000000000000057e+01,4.147599603549581050e-03
2.467999999999999972e+01,2.100048771647497394e-03
2.471999999999999886e+01,5.065051854091751418e-03
2.476000000000000156e+01,5.387963509518342402e-03
2.480000000000000071e+01,4.152627584567908717e-03
2.483999999999999986e+01,6.168600370379171555e-03
2.487999999999999901e+01,3.374795168006536946e-03
2.492000000000000171e+01,3.967779581768824358e-03
2.496000000000000085e+01,5.102464335017761060e-03
2.500000000000000000e+01,4.475681961213899725e-03
2.503999999999999915e+01,3.239016533261473117e-03
2.507999999999999829e+01,3.289194612964324322e-03
2.512000000000000099e+01,3.677853259055047837e-03
2.516000000000000014e+01,2.846967493893808824e-03
2.519999999999999929e+01,4.048068404556483951e-03
2.523999999999999844e+01,4.300586261867611268e-03
2.528000000000000114e+01,2.859378803350581897e-03
2.532000000000000028e+01,4.018485180644246440e-04
2.535999999999999943e+01,3.092356222419887293e-03
2.539999999999999858e+01,9.246594066370635511e-05
2.544000000000000128e+01,3.527678400403584224e-03
2.548000000000000043e+01,7.369113690601990577e-03
2.551999999999999957e+01,1.455738098141671046e-03
2.555999999999999872e+01,5.635438144680941265e-03
2.560000000000000142e+01,8.732104765707050147e-04
2.564000000000000057e+01,4.578293469979595812e-03
2.567999999999999972e+01,4.692927076409570894e-03
2.571999999999999886e+01,4.671863061727268319e-03
2.576000000000000156e+01,3.024816674556476698e-03
2.580000000000000071e+01,1.580774250437459250e-03
2.583999999999999986e+01,1.559060088538042482e-03
2.587999999999999901e+01,4.111258261762442898e-03
2.592000000000000171e+01,4.495553158081570626e-03
2.596000000000000085e+01,3.118386361500045511e-03
2.600000000000000000e+01,4.721573936892973535e-03
2.603999999999999915e+01,4.360079593440443699e-03
2.607999999999999829e+01,3.930629892946329446e-03
2.612000000000000099e+01,2.688082572933977663e-03
2.616000000000000014e+01,3.003345779052480659e-03
2.619999999999999929e+01,3.115173854871198730e-03
2.623999999999999844e+01,4.446111778348769972e-03
2.628000000000000114e+01,3.576176020752345184e-04
2.632000000000000028e+01,1.281686397068253257e-03
2.635999999999999943e+01,3.153904813934736793e-03
2.639999999999999858e+01,3.196923802290005650e-03
2.644000000000000128e+01,1.410743588557092712e-03
2.648000000000000043e+01,3.621023857828745661e-03
2.651999999999999957e+01,1.360236553577736512e-03
2.655999999999999872e+01,1.334664302323641544e-03
2.660000000000000142e+01,4.018488914334691041e-03
2.664000000000000057e+01,3.315090252309753956e-03
2.667999999999999972e+01,4.372725738705529955e-03
2.671999999999999886e+01,1.975398177647723959e-03
2.676000000000000156e+01,4.522895852245924740e-03
2.680000000000000071e+01,1.244523013010491973e-03
2.683999999999999986e+01,5.349624007766732442e-03
2.687999999999999901e+01,2.070829737472539359e-03
2.692000000000000171e+01,6.581951111597628655e-03
2.696000000000000085e+01,2.422113374509844621e-03
2.700000000000000000e+01,1.174895443708067486e-03
2.703999999999999915e+01,5.075725012314149381e-03
2.707999999999999829e+01,4.302269498528851072e-03
2.712000000000000099e+01,3.325384062172901615e-03
2.716000000000000014e+01,3.228912549886938516e-03
2.719999999999999929e+01,4.690257450729960059e-03
2.723999999999999844e+01,2.696642247618468227e-03
2.728000000000000114e+01,2.735025494327201871e-03
2.732000000000000028e+01,2.637720176843904186e-03
2.735999999999999943e+01,1.930544937746373575e-03
2.739999999999999858e+01,4.068251542901306535e-03
2.744000000000000128e+01,3.496141665116370319e-03
2.748000000000000043e+01,2.381902771249821364e-03
2.751999999999999957e+01,5.264130247385975098e-03
2.755999999999999872e+01,5.301061467324074544e-03
2.760000000000000142e+01,3.441059825177537630e-03
2.764000000000000057e+01,7.541991793947177593e-03
2.767999999999999972e+01,1.069435452116862008e-02
2.771999999999999886e+01,2.346562353038672902e-02
2.776000000000000156e+01,6.936165756149426098e-02
2.780000000000000071e+01,1.972909002032346426e-01
2.783999999999999986e+01,3.185813955029762612e-01
2.787999999999999901e+01,2.951785625619220976e-01
2.792000000000000171e+01,1.993612230297580612e-01
2.796000000000000085e+01,9.731157819244598550e-02
2.800000000000000000e+01,3.041890652346940574e-02
2.803999999999999915e+01,1.311187644339849301e-02
2.807999999999999829e+01,1.063975210542862301e-02
2.812000000000000099e+01,5.931996717555194226e-03
2.816000000000000014e+01,4.611049286080146428e-03
2.819999999999999929e+01,5.728546869736052434e-03
2.823999999999999844e+01,4.813634761548221848e-03
2.828000000000000114e+01,3.153377486948090100e-03
2.832000000000000028e+01,4.541227943120360565e-03
2.835999999999999943e+01,3.064373947470232164e-04
2.839999999999999858e+01,2.100324985590562056e-03
2.844000000000000128e+01,4.503672840985861042e-03
2.848000000000000043e+01,3.452067611539809747e-03
2.851999999999999957e+01,3.009923099491533353e-03
2.855999999999999872e+01,1.551474100937595907e-03
2.860000000000000142e+01,1.718589666581451028e-03
2.864000000000000057e+01,2.969348212737303594e-03
2.867999999999999972e+01,3.271543177920107053e-03
2.871999999999999886e+01,4.115459766352101700e-03
2.876000000000000156e+01,5.433357978192697620e-03
2.880000000000000071e+01,2.280201522621975573e-03
2.883999999999999986e+01,3.258999361540359119e-03
2.887999999999999901e+01,3.221494525337109845e-03
2.892000000000000171e+01,0.000000000000000000e+00
2.896000000000000085e+01,5.110354476764302628e-03
2.900000000000000000e+01,4.191630214169481637e-03
2.903999999999999915e+01,3.543668481153495770e-03
2.907999999999999829e+01,1.134262716231306933e-03
2.912000000000000099e+01,2.992293283286443818e-03
2.916000000000000014e+01,2.614698687436173025e-03
2.919999999999999929e+01,2.236906621802352106e-03
2.923999999999999844e+01,2.062137991598805582e-03
2.928000000000000114e+01,3.038756190938929694e-03
2.932000000000000028e+01,8.313869653752592633e-04
2.935999999999999943e+01,2.620494525272544332e-03
2.939999999999999858e+01,2.919120769702083628e-03
2.944000000000000128e+01,2.946589997831695201e-03
2.948000000000000043e+01,1.890019720921177733e-03
2.951999999999999957e+01,3.678343288682416664e-03
2.955999999999999872e+01,3.231043957768305486e-03
2.960000000000000142e+01,5.086717114263159846e-03
2.964000000000000057e+01,5.858351671409898521e-03
2.967999999999999972e+01,2.023456089924254974e-03
2.971999999999999886e+01,2.185039331706621103e-03
2.976000000000000156e+01,4.243154609008356615e-03
2.980000000000000071e+01,5.149491966390419909e-03
2.983999999999999986e+01,2.939585068631342998e-03
2.987999999999999901e+01,5.064859031150313780e-03
2.992000000000000171e+01,2.583604213574938312e-03
2.996000000000000085e+01,3.489167541433193468e-03
3.000000000000000000e+01,3.717135665332006386e-03
3.003999999999999915e+01,3.199768585430762865e-03
3.007999999999999829e+01,2.208027433206888324e-03
3.012000000000000099e+01,1.283834245192200284e-03
3.016000000000000014e+01,2.730356940772158715e-03
3.019999999999999929e+01,4.989570542306921187e-03
3.023999999999999844e+01,5.419606451939048240e-03
3.028000000000000114e+01,7.813917566853229371e-03
3.032000000000000028e+01,1.562725565291614785e-02
3.035999999999999943e+01,4.924942904189490850e-02
3.039999999999999858e+01,1.237187681907320480e-01
3.044000000000000128e+01,1.628275187792987688e-01
3.048000000000000043e+01,1.390731491709958911e-01
3.051999999999999957e+01,9.675776756864171158e-02
3.055999999999999872e+01,5.329061234840501426e-02
3.060000000000000142e+01,1.835853609240377035e-02
3.064000000000000057e+01,7.474050841425737557e-03
3.067999999999999972e+01,4.244022066102363239e-03
3.071999999999999886e+01,3.046011212977700090e-03
3.076000000000000156e+01,5.979965522646409071e-03
3.080000000000000071e+01,3.833214449681698281e-03
3.083999999999999986e+01,1.144353380167836961e-03
3.087999999999999901e+01,1.774575437553161479e-03
3.092000000000000171e+01,4.504556775515831078e-03
3.096000000000000085e+01,4.050559971917925065e-03
3.100000000000000000e+01,3.189934529990124442e-03
3.103999999999999915e+01,1.854940449891823032e-03
3.107999999999999829e+01,4.787393796498148717e-03
3.112000000000000099e+01,5.281012396135546967e-03
3.116000000000000014e+01,3.268056248963405533e-03
3.119999999999999929e+01,1.864575989530433764e-03
3.123999999999999844e+01,5.338206098866511186e-03
3.128000000000000114e+01,3.053731280009208161e-03
3.132000000000000028e+01,4.630263888812951104e-03
3.135999999999999943e+01,5.122767634457829448e-03
3.139999999999999858e+01,5.818307042375285565e-03
3.144000000000000128e+01,5.158857134925476373e-03
3.148000000000000043e+01,1.486347728213449626e-02
3.151999999999999957e+01,4.685444753281922670e-02
3.155999999999999872e+01,1.067542068932816335e-01
3.160000000000000142e+01,1.351545771567660426e-01
3.164000000000000057e+01,1.130882951958870897e-01
3.167999999999999972e+01,7.625446047798578597e-02
3.171999999999999886e+01,4.057202640143153100e-02
3.176000000000000156e+01,1.538914441702434778e-02
3.180000000000000071e+01,8.834641902819415429e-03
3.183999999999999986e+01,3.905722293075763671e-03
3.187999999999999901e+01,2.702332828388034382e-03
3.192000000000000171e+01,3.666448531116407467e-03
3.196000000000000085e+01,4.427161708457813018e-03
3.200000000000000000e+01,4.984472586835276761e-03
3.203999999999999915e+01,5.338381392671794935e-03
3.207999999999999829e+01,4.540525184699947293e-03
3.211999999999999744e+01,2.184462831761143330e-03
3.215999999999999659e+01,4.502295376529717036e-03
3.220000000000000284e+01,2.552313178633281408e-03
3.224000000000000199e+01,5.276226331290245417e-03
3.228000000000000114e+01,2.513001121383370319e-03
3.232000000000000028e+01,5.372034882566332874e-03
3.235999999999999943e+01,6.198682273475148406e-03
3.239999999999999858e+01,4.857463068005630873e-03
3.243999999999999773e+01,1.483857945107981127e-03
3.247999999999999687e+01,3.461551793937784217e-03
3.252000000000000313e+01,4.084262440821486047e-03
3.256000000000000227e+01,1.116562645483234117e-03
3.260000000000000142e+01,4.448525668831869277e-03
3.264000000000000057e+01,5.002961417967801208e-03
3.267999999999999972e+01,3.321791929422816640e-03
3.271999999999999886e+01,4.824235530708075211e-03
3.275999999999999801e+01,4.632996157267252509e-03
3.279999999999999716e+01,4.983501502222214760e-03
3.284000000000000341e+01,5.130609303096354823e-03
3.288000000000000256e+01,3.380814129722619146e-03
3.292000000000000171e+01,2.579205711595304595e-03
3.296000000000000085e+01,5.570873778208669004e-03
3.300000000000000000e+01,4.294731630617133582e-03
3.303999999999999915e+01,2.679712618532589189e-03
3.307999999999999829e+01,3.977347829030928109e-03
3.311999999999999744e+01,4.732885949091477328e-03
3.315999999999999659e+01,3.049600869756376263e-03
3.320000000000000284e+01,3.466087977109972001e-03
3.324000000000000199e+01,2.459855731867965911e-03
3.328000000000000114e+01,3.553396126160633488e-03
3.332000000000000028e+01,2.682295810594907508e-03
3.335999999999999943e+01,3.504527229828266997e-03
3.339999999999999858e+01,4.529805632484501868e-03
3.343999999999999773e+01,2.506600384333727057e-03
3.347999999999999687e+01,5.292777958376725447e-03
3.352000000000000313e+01,3.404706904132288534e-03
3.356000000000000227e+01,2.871267585483969296e-03
3.360000000000000142e+01,4.979524527863194924e-03
3.364000000000000057e+01,1.440355356988148525e-02
3.367999999999999972e+01,1.664694651755110888e-02
3.371999999999999886e+01,1.455479310036632105e-02
3.375999999999999801e+01,1.300438983572946468e-02
3.379999999999999716e+01,7.863583147983833899e-03
3.384000000000000341e+01,8.006342904084248063e-03
3.388000000000000256e+01,4.626439916185509822e-03
3.392000000000000171e+01,5.243039525970394528e-03
3.396000000000000085e+01,4.572404311300988858e-03
3.400000000000000000e+01,3.901598797608736915e-03
3.403999999999999915e+01,3.230623211316618025e-03
3.407999999999999829e+01,4.388463887964905163e-03
3.411999999999999744e+01,7.849302637821811701e-03
3.415999999999999659e+01,5.416572309414532764e-03
3.420000000000000284e+01,9.554474761668794308e-03
3.424000000000000199e+01,1.247288420069340813e-02
3.428000000000000114e+01,2.243610845707076640e-02
3.432000000000000028e+01,7.162075523243463526e-02
3.435999999999999943e+01,1.701878586927483006e-01
3.439999999999999858e+01,2.138174706184882423e-01
3.443999999999999773e+01,1.904518309611563931e-01
3.447999999999999687e+01,1.501509671559773940e-01
3.452000000000000313e+01,8.736018087575883606e-02
3.456000000000000227e+01,4.373971149903877614e-02
3.460000000000000142e+01,2.267657056542027663e-02
3.464000000000000057e+01,1.820961839012941869e-02
3.467999999999999972e+01,1.753595243576848775e-02
3.471999999999999886e+01,1.354284917108232802e-02
3.475999999999999801e+01,1.185274760237286888e-02
3.479999999999999716e+01,8.604455059037841025e-03
3.484000000000000341e+01,5.762438329144680196e-03
3.488000000000000256e+01,3.529918317907209616e-03
3.492000000000000171e+01,4.751984754819704032e-03
3.496000000000000085e+01,2.519134787417788655e-03
3.500000000000000000e+01,6.382740545292310032e-03
3.503999999999999915e+01,2.727016775882343258e-03
3.507999999999999829e+01,5.641930768440039760e-03
3.511999999999999744e+01,5.305149941166160954e-03
3.515999999999999659e+01,5.171426059927403118e-03
3.520000000000000284e+01,3.614993920820328346e-03
3.524000000000000199e+01,3.480943253339204447e-03
3.528000000000000114e+01,4.837014510170643301e-03
3.532000000000000028e+01,5.583260903566004615e-03
3.535999999999999943e+01,4.229397682149063122e-03
3.539999999999999858e+01,3.146332991568864292e-03
3.543999999999999773e+01,3.282430225938851205e-03
3.547999999999999687e+01,3.553845991464400517e-03
3.552000000000000313e+01,3.350918478196100812e-03
3.556000000000000227e+01,4.841335152992216548e-03
3.560000000000000142e+01,3.486501082614431278e-03
3.564000000000000057e+01,5.044335725891906097e-03
3.567999999999999972e+01,3.147258040469072104e-03
3.571999999999999886e+01,4.840251784183522213e-03
3.575999999999999801e+01,3.213814104570896814e-03
3.579999999999999716e+01,5.041967854414351399e-03
3.584000000000000341e+01,3.550690633776744636e-03
3.588000000000000256e+01,4.565642127750802089e-03
3.592000000000000171e+01,3.548227403098236799e-03
3.596000000000000085e+01,4.088678678212941640e-03
3.600000000000000000e+01,4.425750296664269536e-03
3.603999999999999915e+01,5.846506783883661552e-03
3.607999999999999829e+01,4.354275016741624912e-03
3.611999999999999744e+01,6.181156037912530037e-03
3.615999999999999659e+01,5.095049257568012857e-03
3.620000000000000284e+01,3.060421463775532536e-03
3.624000000000000199e+01,5.496490984046233097e-03
3.628000000000000114e+01,5.967936549760960788e-03
3.632000000000000028e+01,2.103850468116660009e-03
3.635999999999999943e+01,5.758772561666626079e-03
3.639999999999999858e+01,2.029853278841503138e-03
3.643999999999999773e+01,4.736099003839035551e-03
3.647999999999999687e+01,4.529358738705195793e-03
3.652000000000000313e+01,4.796644023043078811e-03
3.656000000000000227e+01,2.150943770095604685e-03
3.660000000000000142e+01,2.282437212428317132e-03
3.664000000000000057e+01,4.716942992619015639e-03
3.667999999999999972e+01,5.525528213801799218e-03
3.671999999999999886e+01,4.437232197345275693e-03
3.675999999999999801e+01,2.874599921208088361e-03
3.679999999999999716e+01,6.460070391692170934e-03
3.684000000000000341e+01,4.693908764362275839e-03
3.688000000000000256e+01,4.011436760683573591e-03
3.692000000000000171e+01,5.631978679823888313e-03
3.696000000000000085e+01,3.526654610745688558e-03
3.700000000000000000e+01,7.517797588094214493e-03
3.703999999999999915e+01,5.276686658316966962e-03
3.707999999999999829e+01,5.270850330787164688e-03
3.711999999999999744e+01,4.926160233910948510e-03
3.715999999999999659e+01,5.461940666856159032e-03
3.720000000000000284e+01,5.523387330773759339e-03
3.724000000000000199e+01,4.229877510659946563e-03
3.728000000000000114e+01,5.307123877435803230e-03
3.732000000000000028e+01,4.961673986762648800e-03
3.735999999999999943e+01,2.990307386272688089e-03
3.739999999999999858e+01,5.692865344903872901e-03
3.743999999999999773e+01,3.653456638438585657e-03
3.747999999999999687e+01,9.607244030856939426e-03
3.752000000000000313e+01,1.481573856057732431e-02
3.756000000000000227e+01,1.528226710447025578e-02
3.760000000000000142e+01,1.703571002641928248e-02
3.764000000000000057e+01,1.546973216692249832e-02
3.767999999999999972e+01,1.315846235041977230e-02
3.771999999999999886e+01,1.010190080333411844e-02
3.775999999999999801e+01,6.638748883406532693e-03
3.779999999999999716e+01,6.765680166612527205e-03
3.784000000000000341e+01,6.418281303559012635e-03
3.788000000000000256e+01,9.999667227803097844e-03
3.792000000000000171e+01,7.755245583809153818e-03
3.796000000000000085e+01,9.304128727431614995e-03
3.800000000000000000e+01,1.017546195169578317e-02
3.803999999999999915e+01,1.395947747499554428e-02
3.807999999999999829e+01,2.289160299045276542e-02
3.811999999999999744e+01,5.783582841367974903e-02
3.815999999999999659e+01,1.476494903593937869e-01
3.820000000000000284e+01,2.081314878083610764e-01
3.824000000000000199e+01,1.942345705217095320e-01
3.828000000000000114e+01,1.571026095548814228e-01
3.832000000000000028e+01,1.178028155022797924e-01
3.835999999999999943e+01,7.037404867913078788e-02
3.839999999999999858e+01,2.951593841105890417e-02
3.843999999999999773e+01,1.595699416114926272e-02
3.847999999999999687e+01,1.018803099190758975e-02
3.852000000000000313e+01,1.126068596206647975e-02
3.856000000000000227e+01,9.623587394881101195e-03
3.860000000000000142e+01,1.083143407038981119e-02
3.864000000000000057e+01,8.652125398764242206e-03
3.867999999999999972e+01,9.046801517624365394e-03
3.871999999999999886e+01,9.238113376585508491e-03
3.875999999999999801e+01,9.293801428334273404e-03
3.879999999999999716e+01,1.056867042456571641e-02
3.884000000000000341e+01,1.069181267247676717e-02
3.888000000000000256e+01,1.101803292376247502e-02
3.892000000000000171e+01,1.208925321495464729e-02
3.896000000000000085e+01,1.234744856841346952e-02
3.900000000000000000e+01,1.267324215198876308e-02
3.903999999999999915e+01,1.564076279012039175e-02
3.907999999999999829e+01,1.562757192935242470e-02
3.911999999999999744e+01,2.563979323871937860e-02
3.915999999999999659e+01,3.104553807170631549e-02
3.920000000000000284e+01,4.281872330943970600e-02
3.924000000000000199e+01,7.457513465732645841e-02
3.928000000000000114e+01,2.454698303394647896e-01
3.932000000000000028e+01,6.644290944141492128e-01
3.935999999999999943e+01,1.000000000000000000e+00
3.939999999999999858e+01,9.512127220342581069e-01
3.943999999999999773e+01,7.807638581935937294e-01
3.947999999999999687e+01,5.929056169241125884e-01
3.952000000000000313e+01,3.501099131022023525e-01
3.956000000000000227e+01,1.470098430445377635e-01
3.960000000000000142e+01,5.215851595630650178e-02
3.964000000000000057e+01,3.290514300487558386e-02
3.967999999999999972e+01,2.469328878745569514e-02
3.971999999999999886e+01,2.210373542938170316e-02
3.975999999999999801e+01,1.687217555291723944e-02
3.979999999999999716e+01,1.943060422907993273e-02
3.984000000000000341e+01,1.690837869420849446e-02
3.988000000000000256e+01,1.994071469811138642e-02
3.992000000000000171e+01,1.904398079030738059e-02
3.996000000000000085e+01,2.458243181555053170e-02
4.000000000000000000e+01,2.849498107489526616e-02
4.003999999999999915e+01,3.897819617266035791e-02
4.007999999999999829e+01,8.143466218411943291e-02
4.011999999999999744e+01,2.731227109979899037e-01
4.015999999999999659e+01,6.483866375563407392e-01
4.020000000000000284e+01,8.736058277373571768e-01
4.024000000000000199e+01,7.672364753810095861e-01
4.028000000000000114e+01,6.144649332834839495e-01
4.032000000000000028e+01,4.628448405082517536e-01
4.035999999999999943e+01,2.701062960932484325e-01
4.039999999999999858e+01,1.080539401043145858e-01
4.043999999999999773e+01,3.907652115665050108e-02
4.047999999999999687e+01,2.402018869631735928e-02
4.052000000000000313e+01,2.000537972487837976e-02
4.056000000000000227e+01,1.544851577768066586e-02
4.060000000000000142e+01,1.217858319026449317e-02
4.064000000000000057e+01,1.378581418102373460e-02
4.067999999999999972e+01,1.356392657628484495e-02
4.071999999999999886e+01,8.803311551926757197e-03
4.075999999999999801e+01,9.732743500176326001e-03
4.079999999999999716e+01,7.478253006924755718e-03
4.084000000000000341e+01,7.797759531001174915e-03
4.088000000000000256e+01,9.336458773556556220e-03
4.092000000000000171e+01,8.097677611461418998e-03
4.096000000000000085e+01,6.791025321682834029e-03
4.100000000000000000e+01,7.448708918551853568e-03
4.103999999999999915e+01,9.393326365855455759e-03
4.107999999999999829e+01,6.731478205083325263e-03
4.111999999999999744e+01,8.946796339562676503e-03
4.115999999999999659e+01,7.910453844084336730e-03
4.120000000000000284e+01,5.315956601661342429e-03
4.124000000000000199e+01,6.108341355959619190e-03
4.128000000000000114e+01,6.358675210113276868e-03
4.132000000000000028e+01,3.763790697582875076e-03
4.135999999999999943e+01,7.942800174222842610e-03
4.139999999999999858e+01,5.821840197581063490e-03
4.143999999999999773e+01,5.258777240658350956e-03
4.147999999999999687e+01,5.847170172296090214e-03
4.152000000000000313e+01,3.522605643101189322e-03
4.156000000000000227e+01,6.075209899810839372e-03
4.160000000000000142e+01,4.698753754579843012e-03
4.164000000000000057e+01,5.286637118764543619e-03
4.167999999999999972e+01,4.926030489453069733e-03
4.171999999999999886e+01,4.633037487022466198e-03
4.175999999999999801e+01,3.662515848996105057e-03
4.179999999999999716e+01,4.453113947286658700e-03
4.184000000000000341e+01,6.937091782053528104e-03
4.188000000000000256e+01,5.492010799840791116e-03
4.192000000000000171e+01,6.620932948377206140e-03
4.196000000000000085e+01,8.494872344968528236e-03
4.200000000000000000e+01,5.897831793740447581e-03
4.203999999999999915e+01,7.636040935384177421e-03
4.207999999999999829e+01,4.090387866891295743e-03
4.211999999999999744e+01,4.202582681480214119e-03
4.215999999999999659e+01,5.466237233820682960e-03
4.220000000000000284e+01,3.071795685619997836e-03
4.224000000000000199e+01,3.115878627025305686e-03
4.228000000000000114e+01,4.379162211714787006e-03
4.232000000000000028e+01,2.390791732713727115e-03
4.235999999999999943e+01,6.092477283240569676e-03
4.239999999999999858e+01,1.800693384470769586e-03
4.243999999999999773e+01,3.808628004447289859e-03
4.247999999999999687e+01,2.429429013898095225e-03
4.252000000000000313e+01,4.979041075715173736e-03
4.256000000000000227e+01,3.870559074798141184e-03
4.260000000000000142e+01,3.981279528549333535e-03
4.264000000000000057e+01,2.330632707793268456e-03
4.267999999999999972e+01,4.879758750149908869e-03
4.271999999999999886e+01,4.990115708209293989e-03
4.275999999999999801e+01,4.829391048829680469e-03
4.279999999999999716e+01,3.923403414588869098e-03
4.284000000000000341e+01,2.746334615755073247e-03
4.288000000000000256e+01,3.194911214132136867e-03
4.292000000000000171e+01,5.540094341197492750e-03
4.296000000000000085e+01,4.023964990967987022e-03
4.300000000000000000e+01,2.643196739419128791e-03
4.303999999999999915e+01,4.175139089781598409e-03
4.307999999999999829e+01,2.929613262335844636e-03
4.311999999999999744e+01,4.258097358329431849e-03
4.315999999999999659e+01,2.402672371779199234e-03
4.320000000000000284e+01,4.069620929204730876e-03
4.324000000000000199e+01,4.991309002422125198e-03
4.328000000000000114e+01,3.812932292582352223e-03
4.332000000000000028e+01,3.718281660497694228e-03
4.335999999999999943e+01,4.571876880063962569e-03
4.339999999999999858e+01,5.154394104959326463e-03
4.343999999999999773e+01,4.788431298970770127e-03
4.347999999999999687e+01,2.254664615776480995e-03
4.352000000000000313e+01,3.175533061678394078e-03
4.356000000000000227e+01,2.606000345856598378e-03
4.360000000000000142e+01,4.204038912968591571e-03
4.364000000000000057e+01,2.821391793403642614e-03
4.367999999999999972e+01,1.845070526764854045e-03
4.371999999999999886e+01,5.542709594082126205e-03
4.375999999999999801e+01,5.311300486301055550e-03
4.379999999999999716e+01,5.215257005660747965e-03
4.384000000000000341e+01,4.170735758366584875e-03
4.388000000000000256e+01,3.938982853695217543e-03
4.392000000000000171e+01,3.639375576642823150e-03
4.396000000000000085e+01,3.204173927368811348e-03
4.400000000000000000e+01,3.581741299986609603e-03
4.403999999999999915e+01,2.468910227956767553e-03
4.407999999999999829e+01,4.336535871099995824e-03
4.411999999999999744e+01,3.494439449696772233e-03
4.415999999999999659e+01,3.939294539722588105e-03
4.420000000000000284e+01,4.519517521119224834e-03
4.424000000000000199e+01,6.183471788000111623e-03
4.428000000000000114e+01,5.205445122290173164e-03
4.432000000000000028e+01,6.191773136337312342e-03
4.435999999999999943e+01,1.923574976984117335e-02
4.439999999999999858e+01,3.173769316419488423e-02
4.443999999999999773e+01,3.780420386088808454e-02
4.447999999999999687e+01,3.499663394085413687e-02
4.452000000000000313e+01,2.690521562248691934e-02
4.456000000000000227e+01,2.172651651010525792e-02
4.460000000000000142e+01,1.566708415937044171e-02
4.464000000000000057e+01,9.268840606814298874e-03
4.467999999999999972e+01,6.799420333466746867e-03
4.471999999999999886e+01,4.194409989934678139e-03
4.475999999999999801e+01,4.773080889557582834e-03
4.479999999999999716e+01,5.283902398105594540e-03
4.484000000000000341e+01,5.117212705629302708e-03
4.488000000000000256e+01,8.608386519422217900e-03
4.492000000000000171e+01,1.629934587601615179e-02
4.496000000000000085e+01,3.550603543830309350e-02
4.500000000000000000e+01,4.902243796175122931e-02
4.503999999999999915e+01,4.465531294533526402e-02
4.507999999999999829e+01,3.398823930655413272e-02
4.511999999999999744e+01,2.840157528411584031e-02
4.515999999999999659e+01,2.322124549225493273e-02
4.520000000000000284e+01,1.404413545026028491e-02
4.524000000000000199e+01,6.424943938170250488e-03
4.528000000000000114e+01,4.021643400642315423e-03
4.532000000000000028e+01,3.921404334764606522e-03
4.535999999999999943e+01,3.888799500261288199e-03
4.539999999999999858e+01,4.872192291245791389e-03
4.543999999999999773e+01,3.958753204806242897e-03
4.547999999999999687e+01,2.096845635056082333e-03
4.552000000000000313e+01,3.215402931707197522e-03
4.556000000000000227e+01,4.130634686793322081e-03
4.560000000000000142e+01,2.403892981247809490e-03
4.564000000000000057e+01,3.522136368845384721e-03
4.567999999999999972e+01,3.895133084038181204e-03
4.571999999999999886e+01,2.980961543140385386e-03
4.575999999999999801e+01,2.879568986746644781e-03
4.579999999999999716e+01,3.455475188752778117e-03
4.584000000000000341e+01,3.624836755364155543e-03
4.588000000000000256e+01,3.997315949376206538e-03
4.592000000000000171e+01,3.624549829521500014e-03
4.596000000000000085e+01,2.912979979804656682e-03
4.600000000000000000e+01,2.201307757966696355e-03
4.603999999999999915e+01,4.199142440974685045e-03
4.607999999999999829e+01,3.487266154163505029e-03
4.611999999999999744e+01,3.452690437136227402e-03
4.615999999999999659e+01,3.824454611261464323e-03
4.620000000000000284e+01,3.925156640326210415e-03
4.624000000000000199e+01,4.228978334598665172e-03
4.628000000000000114e+01,2.906933811384606204e-03
4.632000000000000028e+01,3.955696646659532210e-03
4.635999999999999943e+01,2.091529418285508184e-03
4.639999999999999858e+01,1.514326381028864577e-03
4.643999999999999773e+01,4.053073870429830562e-03
4.647999999999999687e+01,2.459567902706046808e-03
4.652000000000000313e+01,3.033649746795475093e-03
4.656000000000000227e+01,2.185087637150219357e-03
4.660000000000000142e+01,3.707334470954995551e-03
4.664000000000000057e+01,4.484340066507119110e-03
4.667999999999999972e+01,5.870909175501638939e-03
4.671999999999999886e+01,7.934782250625159114e-03
4.675999999999999801e+01,7.085727526329790513e-03
4.679999999999999716e+01,5.084991111892197407e-03
4.684000000000000341e+01,5.658285678233461458e-03
4.688000000000000256e+01,5.960521948705328581e-03
4.692000000000000171e+01,5.517518565885586555e-03
4.696000000000000085e+01,3.787353946088437440e-03
4.700000000000000000e+01,1.786131709690901362e-03
4.703999999999999915e+01,2.968603622559675033e-03
4.707999999999999829e+01,2.457473620138437946e-03
4.711999999999999744e+01,2.420429169285458464e-03
4.715999999999999659e+01,3.534872759059745281e-03
4.720000000000000284e+01,5.597583937093515358e-03
4.724000000000000199e+01,4.611889580257271144e-03
4.728000000000000114e+01,3.084178286727269451e-03
4.732000000000000028e+01,4.062760464788604635e-03
4.735999999999999943e+01,4.025144575156988473e-03
4.739999999999999858e+01,5.206758310954284590e-03
4.743999999999999773e+01,4.559291716741424930e-03
4.747999999999999687e+01,1.000835149178280065e-02
4.752000000000000313e+01,1.633794044020409758e-02
4.756000000000000227e+01,2.537704489754556356e-02
4.760000000000000142e+01,2.350987961124628017e-02
4.764000000000000057e+01,1.859431105430704376e-02
4.767999999999999972e+01,1.489797370775775009e-02
4.771999999999999886e+01,1.269182870307583068e-02
4.775999999999999801e+01,9.808189026249016992e-03
4.779999999999999716e+01,5.230951509746314780e-03
4.784000000000000341e+01,3.634191992179222185e-03
4.788000000000000256e+01,4.543729116125538696e-03
4.792000000000000171e+01,4.166110437246584204e-03
4.796000000000000085e+01,3.246478670864970904e-03
4.800000000000000000e+01,4.088001736366180666e-03
4.803999999999999915e+01,3.506889225783924122e-03
4.807999999999999829e+01,3.467607927185660435e-03
4.811999999999999744e+01,3.834677614467193150e-03
4.815999999999999659e+01,3.862956025151904286e-03
4.820000000000000284e+01,3.213742254344800330e-03
4.824000000000000199e+01,3.309581280004523281e-03
4.828000000000000114e+01,5.031096269980883662e-03
4.832000000000000028e+01,3.094549802135976822e-03
4.835999999999999943e+01,1.632095904972501090e-03
4.839999999999999858e+01,3.488824307984729912e-03
4.843999999999999773e+01,3.448737815298346093e-03
4.847999999999999687e+01,2.866641178608382492e-03
4.852000000000000313e+01,3.097339149609887581e-03
4.856000000000000227e+01,2.379586071872224692e-03
4.860000000000000142e+01,3.829432579944056121e-03
4.864000000000000057e+01,3.585686003223112137e-03
4.867999999999999972e+01,2.190268378241210043e-03
4.871999999999999886e+01,3.843073959764649068e-03
4.875999999999999801e+01,1.295898764011073345e-03
4.879999999999999716e+01,3.625933336726091041e-03
4.884000000000000341e+01,3.584973694127341955e-03
4.888000000000000256e+01,2.392344135382663654e-03
4.892000000000000171e+01,2.893134389986322212e-03
4.896000000000000085e+01,2.106774728762866086e-03
4.900000000000000000e+01,1.523550355934521474e-03
4.903999999999999915e+01,2.566006249459937532e-03
4.907999999999999829e+01,2.930974942799653704e-03
4.911999999999999744e+01,3.973261187648725185e-03
4.915999999999999659e+01,3.931619327576502294e-03
4.920000000000000284e+01,3.415711625378413212e-03
4.924000000000000199e+01,3.373901475167881501e-03
4.928000000000000114e+01,3.738448877104309873e-03
4.932000000000000028e+01,2.680367948493474640e-03
4.935999999999999943e+01,2.773787513775220932e-03
4.939999999999999858e+01,3.950967573108961871e-03
4.943999999999999773e+01,3.163598171055635906e-03
4.947999999999999687e+01,6.237338992707983781e-03
4.952000000000000313e+01,8.091673294718892268e-03
4.956000000000000227e+01,2.091984203095965944e-02
4.960000000000000142e+01,2.561910162151762732e-02
4.964000000000000057e+01,2.354425681808784351e-02
4.967999999999999972e+01,1.794683870774618425e-02
4.971999999999999886e+01,1.607505172712102998e-02
4.975999999999999801e+01,1.501606637330052743e-02
4.979999999999999716e+01,1.056998884436435859e-02
4.984000000000000341e+01,6.598012263760840747e-03
4.988000000000000256e+01,5.945226360984241266e-03
4.992000000000000171e+01,3.463374166423843856e-03
4.996000000000000085e+01,3.420090161109561652e-03
5.000000000000000000e+01,3.715427557292734842e-03
5.003999999999999915e+01,3.671984318760372363e-03
5.007999999999999829e+01,2.815579088090255488e-03
5.011999999999999744e+01,2.230055711923021721e-03
5.015999999999999659e+01,3.676660299535314085e-03
5.020000000000000284e+01,2.752278370216039178e-03
5.024000000000000199e+01,2.234259427195864778e-03
5.028000000000000114e+01,2.596785280743010328e-03
5.032000000000000028e+01,3.501155025962474077e-03
5.035999999999999943e+01,3.389343685214422051e-03
5.039999999999999858e+01,2.938753747557874222e-03
5.043999999999999773e+01,2.962268154579061463e-03
5.047999999999999687e+01,4.272769847864199902e-03
5.052000000000000313e+01,2.941325930547418477e-03
5.056000000000000227e+01,1.745285905859374556e-03
5.060000000000000142e+01,3.800700408348740844e-03
5.064000000000000057e+01,3.959312468404828367e-03
5.067999999999999972e+01,3.101745253877442442e-03
5.071999999999999886e+01,2.582803516461624604e-03
5.075999999999999801e+01,1.792825446207970373e-03
5.079999999999999716e+01,2.357576699865916205e-03
5.084000000000000341e+01,9.577864169419987974e-04
5.088000000000000256e+01,1.251427042093704225e-03
5.092000000000000171e+01,3.983641290643658017e-03
5.096000000000000085e+01,3.057809025290729454e-03
5.100000000000000000e+01,1.860941785637985294e-03
5.103999999999999915e+01,2.831687943598104867e-03
5.107999999999999829e+01,3.666880032631639110e-03
5.111999999999999744e+01,3.824596469052770134e-03
5.115999999999999659e+01,7.436991281364211011e-03
5.120000000000000284e+01,1.043965112017286936e-02
5.124000000000000199e+01,1.059714874520289139e-02
5.128000000000000114e+01,9.467509586940134336e-03
5.132000000000000028e+01,1.030226473246046229e-02
5.135999999999999943e+01,8.901520379843602324e-03
5.139999999999999858e+01,7.365223769684186780e-03
5.143999999999999773e+01,5.761115354668838381e-03
5.147999999999999687e+01,4.156935587484177248e-03
5.152000000000000313e+01,4.178450124879615549e-03
5.156000000000000227e+01,3.861192631633729097e-03
5.160000000000000142e+01,2.460020845269916823e-03
5.164000000000000057e+01,2.955504947809633153e-03
5.167999999999999972e+01,3.721879735349457527e-03
5.171999999999999886e+01,1.846315704977531712e-03
5.175999999999999801e+01,4.238316162004211914e-03
5.179999999999999716e+01,5.139962100446377434e-03
5.184000000000000341e+01,6.380239855844285421e-03
5.188000000000000256e+01,8.975253048574938219e-03
5.192000000000000171e+01,2.227315312943838749e-02
5.196000000000000085e+01,4.945773095924689555e-02
5.200000000000000000e+01,6.167165037612921952e-02
5.203999999999999915e+01,4.963450060839489503e-02
5.207999999999999829e+01,3.962948967274439183e-02
5.211999999999999744e+01,3.551781069262599511e-02
5.215999999999999659e+01,3.330279054491020602e-02
5.220000000000000284e+01,2.146859099120776437e-02
5.224000000000000199e+01,8.415000314628280631e-03
5.228000000000000114e+01,4.844974491243799267e-03
5.232000000000000028e+01,6.423139266606840356e-03
5.235999999999999943e+01,5.698069978144219318e-03
5.239999999999999858e+01,4.566493187659805691e-03
5.243999999999999773e+01,3.705811384212596461e-03
5.247999999999999687e+01,3.386985699280017047e-03
5.252000000000000313e+01,3.068094549176269073e-03
5.256000000000000227e+01,3.155579517905951134e-03
5.260000000000000142e+01,3.242999474310463617e-03
5.264000000000000057e+01,2.111030572067996124e-03
5.267999999999999972e+01,3.553125708363226009e-03
5.271999999999999886e+01,2.962949723694258911e-03
5.275999999999999801e+01,3.321072800082571375e-03
5.279999999999999716e+01,3.475911317469953469e-03
5.284000000000000341e+01,2.208141429534553161e-03
5.288000000000000256e+01,2.972514902143077141e-03
5.292000000000000171e+01,3.398124042492489758e-03
5.296000000000000085e+01,2.265645004260930309e-03
5.300000000000000000e+01,3.504011137160325650e-03
5.303999999999999915e+01,3.048809091797582971e-03
5.307999999999999829e+01,4.354790634039379035e-03
5.311999999999999744e+01,2.544659699329409816e-03
5.315999999999999659e+01,3.715036877814835697e-03
5.320000000000000284e+01,3.327327236257329821e-03
5.324000000000000199e+01,3.887919372833179791e-03
5.328000000000000114e+01,3.838788309902542960e-03
5.332000000000000028e+01,6.160504229486908449e-03
5.335999999999999943e+01,1.241109256207210618e-02
5.339999999999999858e+01,1.805195837441983184e-02
5.343999999999999773e+01,1.861224695955540631e-02
5.347999999999999687e+01,1.368551718632020527e-02
5.352000000000000313e+01,1.397472503078628359e-02
5.356000000000000227e+01,1.263810786675291335e-02
5.360000000000000142e+01,1.238527497118713239e-02
5.364000000000000057e+01,7.932488921951036040e-03
5.367999999999999972e+01,4.969928951610173666e-03
5.371999999999999886e+01,5.936243432077195105e-03
5.375999999999999801e+01,4.396111094732958746e-03
5.379999999999999716e+01,7.800957054996645983e-03
5.384000000000000341e+01,1.364439316753801243e-02
5.388000000000000256e+01,2.815852047503138861e-02
5.392000000000000171e+01,4.131778571688676793e-02
5.396000000000000085e+01,4.899003531744745149e-02
5.400000000000000000e+01,4.968498452533719190e-02
5.403999999999999915e+01,4.204782904170697305e-02
5.407999999999999829e+01,3.562994099614763543e-02
5.411999999999999744e+01,3.178612514035422665e-02
5.415999999999999659e+01,2.286173613296273860e-02
5.420000000000000284e+01,1.529209569543835134e-02
5.424000000000000199e+01,9.415905185522085996e-03
5.428000000000000114e+01,4.555762567000906822e-03
5.432000000000000028e+01,3.150316211787494887e-03
5.435999999999999943e+01,3.099619332133215534e-03
5.439999999999999858e+01,4.200451475670241054e-03
5.443999999999999773e+01,3.269022234432318510e-03
5.447999999999999687e+01,4.098784505604149975e-03
5.452000000000000313e+01,2.489844487265436071e-03
5.456000000000000227e+01,2.777576886709674786e-03
5.460000000000000142e+01,3.674917631351458727e-03
5.464000000000000057e+01,4.165763553659767617e-03
5.467999999999999972e+01,2.827570128521955401e-03
5.471999999999999886e+01,3.250569574331928831e-03
5.475999999999999801e+01,2.860633519495835685e-03
5.479999999999999716e+01,3.351267847026702905e-03
5.484000000000000341e+01,2.961226900493912038e-03
5.488000000000000256e+01,3.113055657856102481e-03
5.492000000000000171e+01,2.722910725318636142e-03
5.496000000000000085e+01,3.213337080840177572e-03
5.500000000000000000e+01,2.416647710408459989e-03
5.503999999999999915e+01,2.771490985936164025e-03
5.507999999999999829e+01,4.413347586373483379e-03
5.511999999999999744e+01,3.955206424963355477e-03
5.515999999999999659e+01,3.293794063509629475e-03
5.520000000000000284e+01,2.564591180962507311e-03
5.524000000000000199e+01,4.680427733079862464e-03
5.528000000000000114e+01,1.512476794652528687e-03
5.532000000000000028e+01,2.883071400325713188e-03
5.535999999999999943e+01,3.711694806752322690e-03
5.539999999999999858e+01,2.575802488819718076e-03
5.543999999999999773e+01,2.794665759867403804e-03
5.547999999999999687e+01,2.403818284673914056e-03
5.552000000000000313e+01,1.809701647243873879e-03
5.556000000000000227e+01,1.892939015427123504e-03
5.560000000000000142e+01,2.789011068173846870e-03
5.564000000000000057e+01,3.278593959162235099e-03
5.567999999999999972e+01,3.971349951187721355e-03
5.571999999999999886e+01,3.038293161556035113e-03
5.575999999999999801e+01,2.308409925807454553e-03
5.579999999999999716e+01,3.001024543109794256e-03
5.584000000000000341e+01,3.761332714614053739e-03
5.588000000000000256e+01,3.302270367734774868e-03
5.592000000000000171e+01,1.691577955158585786e-03
5.596000000000000085e+01,3.332370410442607716e-03
5.600000000000000000e+01,2.060287370022069898e-03
5.603999999999999915e+01,4.446131007889353101e-03
5.607999999999999829e+01,4.122320281688915747e-03
5.611999999999999744e+01,4.679087409814631192e-03
5.615999999999999659e+01,4.084225830781473485e-03
5.620000000000000284e+01,3.895760975075286420e-03
5.624000000000000199e+01,3.707251711537446967e-03
5.628000000000000114e+01,3.179997135272967686e-03
5.632000000000000028e+01,4.142983581822095966e-03
5.635999999999999943e+01,3.141459738164167903e-03
5.639999999999999858e+01,5.662384158073885052e-03
5.643999999999999773e+01,4.728513762823311622e-03
5.647999999999999687e+01,6.097768011241605675e-03
5.652000000000000313e+01,8.212121925688901578e-03
5.656000000000000227e+01,1.493276862961351488e-02
5.660000000000000142e+01,3.709814455161471181e-02
5.664000000000000057e+01,6.021184149770475447e-02
5.667999999999999972e+01,5.460364059084912153e-02
5.671999999999999886e+01,4.208589491435055924e-02
5.675999999999999801e+01,3.193901569274550101e-02
5.679999999999999716e+01,3.303697279298874190e-02
5.684000000000000341e+01,2.952855349582050523e-02
5.688000000000000256e+01,2.107505689634582569e-02
5.692000000000000171e+01,9.166768198786911029e-03
5.696000000000000085e+01,7.893654692395909653e-03
5.700000000000000000e+01,6.552760853946790372e-03
5.703999999999999915e+01,5.279567362389737777e-03
5.707999999999999829e+01,5.903060553265013569e-03
5.711999999999999744e+01,4.291086850915916233e-03
5.715999999999999659e+01,5.320942772744797350e-03
5.720000000000000284e+01,5.673357458258139301e-03
5.724000000000000199e+01,7.177317242996213327e-03
5.728000000000000114e+01,9.290900543273226259e-03
5.732000000000000028e+01,8.898057177386484856e-03
5.735999999999999943e+01,1.074060321021112069e-02
5.739999999999999858e+01,1.949261448035865055e-02
5.743999999999999773e+01,5.662774293981377716e-02
5.747999999999999687e+01,1.344747099949750169e-01
5.752000000000000313e+01,1.804837335439480883e-01
5.756000000000000227e+01,1.517075103620324494e-01
5.760000000000000142e+01,1.043026882481769696e-01
5.764000000000000057e+01,9.557749884781156779e-02
5.767999999999999972e+01,1.003325782172994757e-01
5.771999999999999886e+01,7.941407580270191946e-02
5.775999999999999801e+01,4.467653142657221355e-02
5.779999999999999716e+01,1.881292111363992020e-02
5.784000000000000341e+01,6.361840249989323196e-03
5.788000000000000256e+01,1.016837856511471246e-02
5.792000000000000171e+01,8.081482297241371349e-03
5.796000000000000085e+01,1.019444538606893019e-02
5.800000000000000000e+01,1.745563122571082773e-02
5.803999999999999915e+01,2.979729981632646754e-02
5.807999999999999829e+01,3.258756251140090821e-02
5.811999999999999744e+01,2.779088609900159934e-02
5.815999999999999659e+01,1.974264528642204544e-02
5.820000000000000284e+01,2.022963966995194873e-02
5.824000000000000199e+01,1.983597802537366908e-02
5.828000000000000114e+01,1.375210451439451247e-02
5.832000000000000028e+01,8.684301763534052129e-03
5.835999999999999943e+01,3.751947057788444870e-03
5.839999999999999858e+01,3.358155330714822102e-03
5.843999999999999773e+01,4.590097079401308025e-03
5.847999999999999687e+01,4.738163479726865968e-03
5.852000000000000313e+01,4.208796115696088885e-03
5.856000000000000227e+01,3.408436571313602694e-03
5.860000000000000142e+01,5.520875707391698778e-03
5.864000000000000057e+01,5.262376101792434757e-03
5.867999999999999972e+01,4.394183863792461460e-03
5.871999999999999886e+01,3.322740577396411307e-03
5.875999999999999801e+01,3.877032578144523883e-03
5.879999999999999716e+01,3.753892399497344920e-03
5.884000000000000341e+01,2.140437552714664644e-03
5.888000000000000256e+01,3.846224328935217256e-03
5.892000000000000171e+01,4.061696889866268402e-03
5.896000000000000085e+01,4.141659987202872192e-03
5.900000000000000000e+01,4.763516110004060305e-03
5.903999999999999915e+01,3.556357565466758061e-03
5.907999999999999829e+01,3.162053404294439245e-03
5.911999999999999744e+01,4.867668151918568345e-03
5.915999999999999659e+01,4.270087327628006857e-03
5.920000000000000284e+01,4.011179982126245915e-03
5.924000000000000199e+01,2.600661364037059383e-03
5.928000000000000114e+01,3.764244144281518947e-03
5.932000000000000028e+01,4.318137914893365598e-03
5.935999999999999943e+01,7.107432405366889694e-03
5.939999999999999858e+01,1.348693236739711802e-02
5.943999999999999773e+01,2.542110458905149500e-02
5.947999999999999687e+01,2.861676155513308284e-02
5.952000000000000313e+01,2.253198168195610224e-02
5.956000000000000227e+01,1.712457845669296611e-02
5.960000000000000142e+01,1.693314726542800158e-02
5.964000000000000057e+01,1.647073000723249525e-02
5.967999999999999972e+01,1.289223740545815053e-02
5.971999999999999886e+01,9.652421225971681909e-03
5.975999999999999801e+01,3.770711739597624838e-03
5.979999999999999716e+01,4.933961528454013784e-03
5.984000000000000341e+01,4.132720725904827884e-03
5.988000000000000256e+01,4.347559513971567535e-03
5.992000000000000171e+01,2.394687484687942070e-03
5.996000000000000085e+01,2.812700024138255206e-03
