2.003999999999999915e+01,1.688163544888079612e-02
2.007999999999999829e+01,8.825489454655834412e-03
2.012000000000000099e+01,1.092766537938088568e-02
2.016000000000000014e+01,7.334237994175428141e-03
2.019999999999999929e+01,1.007378853472873370e-02
2.023999999999999844e+01,1.081556805909393917e-02
2.028000000000000114e+01,1.312989745776301474e-02
2.032000000000000028e+01,1.748431870062774895e-02
2.035999999999999943e+01,1.134020458355758550e-02
2.039999999999999858e+01,1.038146493363393749e-02
2.044000000000000128e+01,1.809341299968841160e-02
2.048000000000000043e+01,1.322413830741212687e-02
2.051999999999999957e+01,1.366774936705365644e-02
2.055999999999999872e+01,0.000000000000000000e+00
2.060000000000000142e+01,1.047432889413605489e-02
2.064000000000000057e+01,1.057763347614972850e-02
2.067999999999999972e+01,1.348609814414420370e-02
2.071999999999999886e+01,1.375923377262207141e-02
2.076000000000000156e+01,8.591788127554482110e-03
2.080000000000000071e+01,1.035237301127202129e-02
2.083999999999999986e+01,1.190034646507174068e-02
2.087999999999999901e+01,1.140804413401796252e-02
2.092000000000000171e+01,6.112717604911970491e-03
2.096000000000000085e+01,9.870612409139237209e-03
2.100000000000000000e+01,1.197076563826512778e-02
2.103999999999999915e+01,1.504841412451855646e-02
2.107999999999999829e+01,1.136786241757458717e-02
2.112000000000000099e+01,1.325521849893371122e-02
2.116000000000000014e+01,1.612006965970119721e-02
2.119999999999999929e+01,7.423788695746578147e-03
2.123999999999999844e+01,1.283868332923372539e-02
2.128000000000000114e+01,1.476817167724563118e-02
2.132000000000000028e+01,1.321225368054259816e-02
2.135999999999999943e+01,9.403540083958918105e-03
2.139999999999999858e+01,1.469055098990184986e-02
2.144000000000000128e+01,9.564032578098144097e-03
2.148000000000000043e+01,6.732627217519529007e-03
2.151999999999999957e+01,1.278442707759772090e-02
2.155999999999999872e+01,1.713598071238857379e-02
2.160000000000000142e+01,1.043644748002187095e-02
2.164000000000000057e+01,1.257761546976275506e-02
2.167999999999999972e+01,1.352858290645878730e-02
2.171999999999999886e+01,1.039908991442094546e-02
2.176000000000000156e+01,1.339005343364265375e-02
2.180000000000000071e+01,1.353316720972504161e-02
2.183999999999999986e+01,1.116846175006953532e-02
2.187999999999999901e+01,9.016181528565240036e-03
2.192000000000000171e+01,8.011410544235512618e-03
2.196000000000000085e+01,1.057686652515854239e-02
2.200000000000000000e+01,1.454485454975759824e-02
2.203999999999999915e+01,1.128709893027482307e-02
2.207999999999999829e+01,1.185459302330650611e-02
2.212000000000000099e+01,1.123188591165667077e-02
2.216000000000000014e+01,1.175668768174314462e-02
2.219999999999999929e+01,1.954954847386622396e-02
2.223999999999999844e+01,1.327355017205664178e-02
2.228000000000000114e+01,1.286298468640970083e-02
2.232000000000000028e+01,8.499469345923665528e-03
2.235999999999999943e+01,9.236317928178312819e-03
2.239999999999999858e+01,1.681618702796964723e-02
2.244000000000000128e+01,1.172982282502438821e-02
2.248000000000000043e+01,1.080873830883770544e-02
2.251999999999999957e+01,1.039760482877790868e-02
2.255999999999999872e+01,1.364170506703560846e-02
2.260000000000000142e+01,1.297535885660642749e-02
2.264000000000000057e+01,1.379655138367825648e-02
2.267999999999999972e+01,1.529770999323872352e-02
2.271999999999999886e+01,1.220836084311099044e-02
2.276000000000000156e+01,9.756473836162397884e-03
2.280000000000000071e+01,1.278748448778898282e-02
2.283999999999999986e+01,1.037791078540548084e-02
2.287999999999999901e+01,1.663902118537816804e-02
2.292000000000000171e+01,1.342168413399818377e-02
2.296000000000000085e+01,1.075680128793853225e-02
2.300000000000000000e+01,1.297976231263358975e-02
2.303999999999999915e+01,1.388500930764348558e-02
2.307999999999999829e+01,1.262246579712572939e-02
2.312000000000000099e+01,1.157234568832835910e-02
2.316000000000000014e+01,1.001208396789932120e-02
2.319999999999999929e+01,8.494230247390733082e-03
2.323999999999999844e+01,9.398998434050591030e-03
2.328000000000000114e+01,9.666113368869281089e-03
2.332000000000000028e+01,1.367346853811131357e-02
2.335999999999999943e+01,8.329887066854392910e-03
2.339999999999999858e+01,9.574301707160677577e-03
2.344000000000000128e+01,1.753422386228090796e-02
2.348000000000000043e+01,1.784336203238856555e-02
2.351999999999999957e+01,1.500712116623862183e-02
2.355999999999999872e+01,7.920401863007801163e-03
2.360000000000000142e+01,1.430729734962411098e-02
2.364000000000000057e+01,1.457354616415404945e-02
2.367999999999999972e+01,1.296953033037172819e-02
2.371999999999999886e+01,1.536077706359652989e-02
2.376000000000000156e+01,1.443662912180497006e-02
2.380000000000000071e+01,9.006979462513473728e-03
2.383999999999999986e+01,5.659920255153752869e-03
2.387999999999999901e+01,7.625741823576686999e-03
2.392000000000000171e+01,1.358682566280820445e-02
2.396000000000000085e+01,1.168460570200003691e-02
2.400000000000000000e+01,1.075987661458125029e-02
2.403999999999999915e+01,1.230027207036699793e-02
2.407999999999999829e+01,1.214041756876399654e-02
2.412000000000000099e+01,1.465820659603679632e-02
2.416000000000000014e+01,1.284050865597287025e-02
2.419999999999999929e+01,9.450072043291495721e-03
2.423999999999999844e+01,7.462164156862675923e-03
2.428000000000000114e+01,1.554756438679490496e-02
2.432000000000000028e+01,7.523919042483230915e-03
2.435999999999999943e+01,1.522658986646169450e-02
2.439999999999999858e+01,9.625467172505909261e-03
2.444000000000000128e+01,1.261001862889759607e-02
2.448000000000000043e+01,9.686441273319756212e-03
2.451999999999999957e+01,1.862133215353058840e-02
2.455999999999999872e+01,1.327484139975525744e-02
2.460000000000000142e+01,1.706657423016031544e-02
2.464000000000000057e+01,1.197491055352736117e-02
2.467999999999999972e+01,1.810415756327217462e-02
2.471999999999999886e+01,8.761915718828127558e-03
2.476000000000000156e+01,9.450477459038571573e-03
2.480000000000000071e+01,9.756406621279878691e-03
2.483999999999999986e+01,1.716037561241668882e-02
2.487999999999999901e+01,8.837832587424992656e-03
2.492000000000000171e+01,1.160868843088242418e-02
2.496000000000000085e+01,1.340185796778996935e-02
2.500000000000000000e+01,9.541920847592689353e-03
2.503999999999999915e+01,1.035730547277453548e-02
2.507999999999999829e+01,8.409843138821553390e-03
2.512000000000000099e+01,1.296536672746419899e-02
2.516000000000000014e+01,9.020027426423934264e-03
2.519999999999999929e+01,1.361785732934660091e-02
2.523999999999999844e+01,1.562285531949613414e-02
2.528000000000000114e+01,1.265480737114515163e-02
2.532000000000000028e+01,9.219118433048604025e-03
2.535999999999999943e+01,7.951025337435331866e-03
2.539999999999999858e+01,1.926396412844961006e-02
2.544000000000000128e+01,1.774064989042892226e-02
2.548000000000000043e+01,1.086175503023789797e-02
2.551999999999999957e+01,1.103839517103729663e-02
2.555999999999999872e+01,1.057737868333235437e-02
2.560000000000000142e+01,1.275149971180400930e-02
2.564000000000000057e+01,1.352289521834938550e-02
2.567999999999999972e+01,1.055385499807121388e-02
2.571999999999999886e+01,9.582394803798478453e-03
2.576000000000000156e+01,1.587898835922857410e-02
2.580000000000000071e+01,1.023190858989927836e-02
2.583999999999999986e+01,1.669831802642924787e-02
2.587999999999999901e+01,9.010855336553188003e-03
2.592000000000000171e+01,1.581709570054470881e-02
2.596000000000000085e+01,1.093468542779887746e-02
2.600000000000000000e+01,9.324969391284649439e-03
2.603999999999999915e+01,1.319814621492955940e-02
2.607999999999999829e+01,1.303335997354288824e-02
2.612000000000000099e+01,1.057326726192058843e-02
2.616000000000000014e+01,9.345685149724459670e-03
2.619999999999999929e+01,1.215586575250395159e-02
2.623999999999999844e+01,1.152313654491494976e-02
2.628000000000000114e+01,1.152786426741109031e-02
2.632000000000000028e+01,1.727050736036924924e-02
2.635999999999999943e+01,9.751857853477857024e-03
2.639999999999999858e+01,1.158394836913083370e-02
2.644000000000000128e+01,1.320341916130737640e-02
2.648000000000000043e+01,1.762804144970754952e-02
2.651999999999999957e+01,1.508193638415984868e-02
2.655999999999999872e+01,7.095241455309517914e-03
2.660000000000000142e+01,1.253965305249834725e-02
2.664000000000000057e+01,1.462616188858196532e-02
2.667999999999999972e+01,1.369479847096172556e-02
2.671999999999999886e+01,8.470448115493798766e-03
2.676000000000000156e+01,1.246932578692253393e-02
2.680000000000000071e+01,9.199948943914439126e-03
2.683999999999999986e+01,1.128595231378098050e-02
2.687999999999999901e+01,1.243677035442195856e-02
2.692000000000000171e+01,7.636952148641306531e-03
2.696000000000000085e+01,7.724971948884658962e-03
2.700000000000000000e+01,1.163823417515883960e-02
2.703999999999999915e+01,1.134351663132796006e-02
2.707999999999999829e+01,1.134622426614699010e-02
2.712000000000000099e+01,1.156134937871596165e-02
2.716000000000000014e+01,1.177637280564450620e-02
2.719999999999999929e+01,1.165126392105175768e-02
2.723999999999999844e+01,9.995915682454156737e-03
2.728000000000000114e+01,7.915427372195613792e-03
2.732000000000000028e+01,1.246543318883938656e-02
2.735999999999999943e+01,8.514572857616477600e-03
2.739999999999999858e+01,1.650718413858380876e-02
2.744000000000000128e+01,9.495844566193872849e-03
2.748000000000000043e+01,1.302535040012019196e-02
2.751999999999999957e+01,1.272941014053625107e-02
2.755999999999999872e+01,1.077571859053939526e-02
2.760000000000000142e+01,1.111713102809279950e-02
2.764000000000000057e+01,1.630387664376509171e-02
2.767999999999999972e+01,1.094957223780643196e-02
2.771999999999999886e+01,1.158820405390096481e-02
2.776000000000000156e+01,1.299180207070198788e-02
2.780000000000000071e+01,1.452280891651768456e-02
2.783999999999999986e+01,1.222836919490547652e-02
2.787999999999999901e+01,1.316411710442864404e-02
2.792000000000000171e+01,1.235710554872132723e-02
2.796000000000000085e+01,1.163499876423972762e-02
2.800000000000000000e+01,9.467659141859157898e-03
2.803999999999999915e+01,1.346327055093469484e-02
2.807999999999999829e+01,1.529108404951953076e-02
2.812000000000000099e+01,1.163580155362313635e-02
2.816000000000000014e+01,1.333589731569111148e-02
2.819999999999999929e+01,1.257066824373829009e-02
2.823999999999999844e+01,1.486561098644296683e-02
2.828000000000000114e+01,9.127228247899264735e-03
2.832000000000000028e+01,1.256956740507360164e-02
2.835999999999999943e+01,1.006126818319695929e-02
2.839999999999999858e+01,1.715872894686031047e-02
2.844000000000000128e+01,1.307758125088624192e-02
2.848000000000000043e+01,1.001642161428480289e-02
2.851999999999999957e+01,8.060257619476542471e-03
2.855999999999999872e+01,1.375467761506307500e-02
2.860000000000000142e+01,1.460355821774403547e-02
2.864000000000000057e+01,5.973982897794583545e-03
2.867999999999999972e+01,1.026546517345797854e-02
2.871999999999999886e+01,1.417430906566120689e-02
2.876000000000000156e+01,1.247254455305750118e-02
2.880000000000000071e+01,1.472353126318835283e-02
2.883999999999999986e+01,1.187395529999453296e-02
2.887999999999999901e+01,1.191453492030239078e-02
2.892000000000000171e+01,1.127494911514055967e-02
2.896000000000000085e+01,1.089028188353239474e-02
2.900000000000000000e+01,1.169561722450124935e-02
2.903999999999999915e+01,7.272878133456517520e-03
2.907999999999999829e+01,7.440447162920465519e-03
2.912000000000000099e+01,6.885346649886068225e-03
2.916000000000000014e+01,9.900462438957608607e-03
2.919999999999999929e+01,1.028023662969519171e-02
2.923999999999999844e+01,8.449707371160478098e-03
2.928000000000000114e+01,7.766676449694700883e-03
2.932000000000000028e+01,6.530990972852629591e-03
2.935999999999999943e+01,8.270468010296044836e-03
2.939999999999999858e+01,1.519530618595244485e-02
2.944000000000000128e+01,6.818663800455383381e-03
2.948000000000000043e+01,7.835260696875602504e-03
2.951999999999999957e+01,1.458976822458148311e-02
2.955999999999999872e+01,7.742947846620328554e-03
2.960000000000000142e+01,8.589213739651805138e-03
2.964000000000000057e+01,1.109302328655654805e-02
2.967999999999999972e+01,1.253413189496598371e-02
2.971999999999999886e+01,1.486771526382678170e-02
2.976000000000000156e+01,8.615421288778356973e-03
2.980000000000000071e+01,6.740915263773238596e-03
2.983999999999999986e+01,8.776655100440190413e-03
2.987999999999999901e+01,8.899617285810564743e-03
2.992000000000000171e+01,8.087389639737809985e-03
2.996000000000000085e+01,1.131291914010843641e-02
3.000000000000000000e+01,7.440204670186467695e-03
3.003999999999999915e+01,9.815445911395669770e-03
3.007999999999999829e+01,8.110214342772693180e-03
3.012000000000000099e+01,1.040023586280413442e-02
3.016000000000000014e+01,9.714883796107577976e-03
3.019999999999999929e+01,7.414280350007775022e-03
3.023999999999999844e+01,4.348501881867767455e-03
3.028000000000000114e+01,7.658190231911127938e-03
3.032000000000000028e+01,6.674886312533373847e-03
3.035999999999999943e+01,1.104695739293626473e-02
3.039999999999999858e+01,9.553394714723511053e-03
3.044000000000000128e+01,1.039743563887214443e-02
3.048000000000000043e+01,1.217645401874789882e-02
3.051999999999999957e+01,9.874998937154716092e-03
3.055999999999999872e+01,4.130627647304983482e-03
3.060000000000000142e+01,5.654302939153873532e-03
3.064000000000000057e+01,8.920528045543690832e-03
3.067999999999999972e+01,9.466401720070198936e-03
3.071999999999999886e+01,6.696870411871739572e-03
3.076000000000000156e+01,6.774988082078707563e-03
3.080000000000000071e+01,8.680662971528049429e-03
3.083999999999999986e+01,5.740795150648327072e-03
3.087999999999999901e+01,9.048881796865981125e-03
3.092000000000000171e+01,5.343730751938121672e-03
3.096000000000000085e+01,6.653923251554197567e-03
3.100000000000000000e+01,8.899092436781242191e-03
3.103999999999999915e+01,1.088913126513564762e-02
3.107999999999999829e+01,7.778604102741947489e-03
3.112000000000000099e+01,1.372128322679652158e-02
3.116000000000000014e+01,1.048302944193028538e-02
3.119999999999999929e+01,7.584698554854547685e-03
3.123999999999999844e+01,7.704031218628318647e-03
3.128000000000000114e+01,5.018003920282930637e-03
3.132000000000000028e+01,1.164020553716812664e-02
3.135999999999999943e+01,7.423824936558585767e-03
3.139999999999999858e+01,8.520313974667228715e-03
3.144000000000000128e+01,7.959045976111618279e-03
3.148000000000000043e+01,7.737700460668573733e-03
3.151999999999999957e+01,1.112907157301904620e-02
3.155999999999999872e+01,9.802410371216190715e-03
3.160000000000000142e+01,8.900679116467068511e-03
3.164000000000000057e+01,7.403786049608647793e-03
3.167999999999999972e+01,8.372006211171177312e-03
3.171999999999999886e+01,8.830072083805274794e-03
3.176000000000000156e+01,7.247846058386261600e-03
3.180000000000000071e+01,1.289116101664459016e-02
3.183999999999999986e+01,1.211629041286613022e-02
3.187999999999999901e+01,1.282894486221691950e-02
3.192000000000000171e+01,1.315895618893117569e-02
3.196000000000000085e+01,8.813438429925194231e-03
3.200000000000000000e+01,1.012081998768292468e-02
3.203999999999999915e+01,1.015297800765208730e-02
3.207999999999999829e+01,1.341531743858767091e-02
3.211999999999999744e+01,9.876936505337283526e-03
3.215999999999999659e+01,1.228898139770273970e-02
3.220000000000000284e+01,1.074806180302209820e-02
3.224000000000000199e+01,1.307488069480113035e-02
3.228000000000000114e+01,8.260948418794270692e-03
3.232000000000000028e+01,8.334846210690978474e-03
3.235999999999999943e+01,1.061883329895284278e-02
3.239999999999999858e+01,7.972267724876904924e-03
3.243999999999999773e+01,1.131863138256903462e-02
3.247999999999999687e+01,1.249719061340294132e-02
3.252000000000000313e+01,1.384565550379654626e-02
3.256000000000000227e+01,1.255877381972096869e-02
3.260000000000000142e+01,1.586219504306011011e-02
3.264000000000000057e+01,1.521265112771637285e-02
3.267999999999999972e+01,1.987597495542027526e-02
3.271999999999999886e+01,1.506083681804390104e-02
3.275999999999999801e+01,2.095655155066333819e-02
3.279999999999999716e+01,2.366436968258357754e-02
3.284000000000000341e+01,2.284426058792385708e-02
3.288000000000000256e+01,3.384010352712438913e-02
3.292000000000000171e+01,4.322069105862178656e-02
3.296000000000000085e+01,5.043347345238446966e-02
3.300000000000000000e+01,5.637103088660570804e-02
3.303999999999999915e+01,5.580539333993873863e-02
3.307999999999999829e+01,5.251940080702616198e-02
3.311999999999999744e+01,3.711970882516772707e-02
3.315999999999999659e+01,3.736131233720407785e-02
3.320000000000000284e+01,2.323651377781780353e-02
3.324000000000000199e+01,2.483801823550722127e-02
3.328000000000000114e+01,1.768362485287284722e-02
3.332000000000000028e+01,1.261180788236032982e-02
3.335999999999999943e+01,1.408546845189444056e-02
3.339999999999999858e+01,1.407138436533936741e-02
3.343999999999999773e+01,1.001932631364706346e-02
3.347999999999999687e+01,1.340532586171521746e-02
3.352000000000000313e+01,7.780404289040560029e-03
3.356000000000000227e+01,9.636044018477066958e-03
3.360000000000000142e+01,1.586946607018495034e-02
3.364000000000000057e+01,1.177434837769660361e-02
3.367999999999999972e+01,8.486691939268599730e-03
3.371999999999999886e+01,9.661825287053121478e-03
3.375999999999999801e+01,8.881671416459568924e-03
3.379999999999999716e+01,9.291513009678500565e-03
3.384000000000000341e+01,8.978678070113951457e-03
3.388000000000000256e+01,7.985670359356381726e-03
3.392000000000000171e+01,6.567512743146894025e-03
3.396000000000000085e+01,6.381854174621203087e-03
3.400000000000000000e+01,4.368419494769618626e-03
3.403999999999999915e+01,8.092888752117090301e-03
3.407999999999999829e+01,1.313486452108952526e-02
3.411999999999999744e+01,8.528360968271473871e-03
3.415999999999999659e+01,1.335759358715542244e-02
3.420000000000000284e+01,9.643446107353074309e-03
3.424000000000000199e+01,8.054377497989494844e-03
3.428000000000000114e+01,8.080341849863312970e-03
3.432000000000000028e+01,8.658743582981369771e-03
3.435999999999999943e+01,1.072466669636699260e-02
3.439999999999999858e+01,1.189789716429273669e-02
3.443999999999999773e+01,1.013825152767225228e-02
3.447999999999999687e+01,1.254386780589894501e-02
3.452000000000000313e+01,1.732958546486729548e-02
3.456000000000000227e+01,1.756728165002504477e-02
3.460000000000000142e+01,1.691228489352438261e-02
3.464000000000000057e+01,9.796594607377471717e-03
3.467999999999999972e+01,1.101154038123279902e-02
3.471999999999999886e+01,8.783563785902285398e-03
3.475999999999999801e+01,8.128115620102582123e-03
3.479999999999999716e+01,8.790172899613146740e-03
3.484000000000000341e+01,7.624452823764034728e-03
3.488000000000000256e+01,8.116268641386889179e-03
3.492000000000000171e+01,7.715391043433701343e-03
3.496000000000000085e+01,7.271896387267540000e-03
3.500000000000000000e+01,1.133369344247350981e-02
3.503999999999999915e+01,7.787193213222443587e-03
3.507999999999999829e+01,1.078616797671074629e-02
3.511999999999999744e+01,1.216988407431213344e-02
3.515999999999999659e+01,1.002566950943066353e-02
3.520000000000000284e+01,1.009154003489533269e-02
3.524000000000000199e+01,9.392228133356727432e-03
3.528000000000000114e+01,8.182756670555981632e-03
3.532000000000000028e+01,9.693415970343925367e-03
3.535999999999999943e+01,1.133147290284240716e-02
3.539999999999999858e+01,8.761537684137574514e-03
3.543999999999999773e+01,1.044187060018730677e-02
3.547999999999999687e+01,9.784379363080415726e-03
3.552000000000000313e+01,1.040188868413898481e-02
3.556000000000000227e+01,1.084926859589857920e-02
3.560000000000000142e+01,1.282667187232505550e-02
3.564000000000000057e+01,1.199870872950457856e-02
3.567999999999999972e+01,7.005256841632996438e-03
3.571999999999999886e+01,8.514775177835392714e-03
3.575999999999999801e+01,6.326346679638803622e-03
3.579999999999999716e+01,1.208601819526146197e-02
3.584000000000000341e+01,1.317015487891256241e-02
3.588000000000000256e+01,8.048619121467398552e-03
3.592000000000000171e+01,1.168275579589500915e-02
3.596000000000000085e+01,1.599683888522938219e-02
3.600000000000000000e+01,1.453028756404977154e-02
3.603999999999999915e+01,1.693146910155789511e-02
3.607999999999999829e+01,9.939191339510851722e-03
3.611999999999999744e+01,1.331773090468332463e-02
3.615999999999999659e+01,1.716369748441333790e-02
3.620000000000000284e+01,1.824680063637067889e-02
3.624000000000000199e+01,1.461186454312926597e-02
3.628000000000000114e+01,1.407959217819486179e-02
3.632000000000000028e+01,1.048692946195770893e-02
3.635999999999999943e+01,1.547992324263601331e-02
3.639999999999999858e+01,1.435225145376217877e-02
3.643999999999999773e+01,1.721982339366945336e-02
3.647999999999999687e+01,1.626193597037265542e-02
3.652000000000000313e+01,2.065941442394199010e-02
3.656000000000000227e+01,1.757610480443593318e-02
3.660000000000000142e+01,1.963564183916589878e-02
3.664000000000000057e+01,2.084498673184267611e-02
3.667999999999999972e+01,2.247925404813069100e-02
3.671999999999999886e+01,2.394339023716831813e-02
3.675999999999999801e+01,2.264466216907740428e-02
3.679999999999999716e+01,2.478862762581844972e-02
3.684000000000000341e+01,3.228795848550800734e-02
3.688000000000000256e+01,3.757697458114169636e-02
3.692000000000000171e+01,3.806294278284137050e-02
3.696000000000000085e+01,5.172497924251590051e-02
3.700000000000000000e+01,5.773621169415773385e-02
3.703999999999999915e+01,8.402165036392814090e-02
3.707999999999999829e+01,1.175326221977349012e-01
3.711999999999999744e+01,2.131840636488771812e-01
3.715999999999999659e+01,4.016637332974751784e-01
3.720000000000000284e+01,6.518163304157978954e-01
3.724000000000000199e+01,8.731087165764105373e-01
3.728000000000000114e+01,1.000000000000000000e+00
3.732000000000000028e+01,9.992521927381584623e-01
3.735999999999999943e+01,8.860816625888352505e-01
3.739999999999999858e+01,7.090277728808094260e-01
3.743999999999999773e+01,5.508029588902904061e-01
3.747999999999999687e+01,3.862449586265963020e-01
3.752000000000000313e+01,2.695036397680842244e-01
3.756000000000000227e+01,1.942034291309934768e-01
3.760000000000000142e+01,1.379448130786013749e-01
3.764000000000000057e+01,1.057432424096245993e-01
3.767999999999999972e+01,8.340244090755719042e-02
3.771999999999999886e+01,6.373926279286606933e-02
3.775999999999999801e+01,5.933483897203246232e-02
3.779999999999999716e+01,5.301762577044079328e-02
3.784000000000000341e+01,4.759287530364046670e-02
3.788000000000000256e+01,4.794852690785767618e-02
3.792000000000000171e+01,3.814564771255082865e-02
3.796000000000000085e+01,4.215639260667831262e-02
3.800000000000000000e+01,4.387181343637793635e-02
3.803999999999999915e+01,4.647969670467035075e-02
3.807999999999999829e+01,6.430382997207256812e-02
3.811999999999999744e+01,8.922598340078838342e-02
3.815999999999999659e+01,1.200560499483342702e-01
3.820000000000000284e+01,1.368172337653053849e-01
3.824000000000000199e+01,1.440149398004567649e-01
3.828000000000000114e+01,1.327233656202196077e-01
3.832000000000000028e+01,1.036650761194665565e-01
3.835999999999999943e+01,8.735781459499729340e-02
3.839999999999999858e+01,6.110454066427822156e-02
3.843999999999999773e+01,4.721976020389231227e-02
3.847999999999999687e+01,4.200564074237778805e-02
3.852000000000000313e+01,3.283854743394385572e-02
3.856000000000000227e+01,2.681661829798392266e-02
3.860000000000000142e+01,1.926443298394304657e-02
3.864000000000000057e+01,2.127548866924766635e-02
3.867999999999999972e+01,2.409399820364956438e-02
3.871999999999999886e+01,2.440466350315821306e-02
3.875999999999999801e+01,1.498183496741040469e-02
3.879999999999999716e+01,1.490972808989857179e-02
3.884000000000000341e+01,1.726022001607044679e-02
3.888000000000000256e+01,1.268247010405588147e-02
3.892000000000000171e+01,1.469269331859917628e-02
3.896000000000000085e+01,1.419507194281101337e-02
3.900000000000000000e+01,8.766888130133793089e-03
3.903999999999999915e+01,1.358200585768724183e-02
3.907999999999999829e+01,1.512421004224761938e-02
3.911999999999999744e+01,1.624125662019450939e-02
3.915999999999999659e+01,1.170517557018116266e-02
3.920000000000000284e+01,1.796494549423145043e-02
3.924000000000000199e+01,2.150435130912167064e-02
3.928000000000000114e+01,2.002818663078461542e-02
3.932000000000000028e+01,3.058048355286611258e-02
3.935999999999999943e+01,4.223776006278087691e-02
3.939999999999999858e+01,3.948612149828865242e-02
3.943999999999999773e+01,3.346156885764603461e-02
3.947999999999999687e+01,2.930706440206003530e-02
3.952000000000000313e+01,2.370731004754019627e-02
3.956000000000000227e+01,1.819244328473176159e-02
3.960000000000000142e+01,1.454762452926084207e-02
3.964000000000000057e+01,1.209279258860555470e-02
3.967999999999999972e+01,1.155051235763849930e-02
3.971999999999999886e+01,1.020053924399114305e-02
3.975999999999999801e+01,1.246327055475818409e-02
3.979999999999999716e+01,1.170811018119829322e-02
3.984000000000000341e+01,1.320553184700895034e-02
3.988000000000000256e+01,1.223761138080508779e-02
3.992000000000000171e+01,9.824440423270301009e-03
3.996000000000000085e+01,1.259661496466652104e-02
4.000000000000000000e+01,1.031071412569063879e-02
4.003999999999999915e+01,9.554830075774425197e-03
4.007999999999999829e+01,1.347424549710842662e-02
4.011999999999999744e+01,1.233558536035122416e-02
4.015999999999999659e+01,1.119680428504960489e-02
4.020000000000000284e+01,1.239561235762145705e-02
4.024000000000000199e+01,1.427436050645168771e-02
4.028000000000000114e+01,1.109503286023189386e-02
4.032000000000000028e+01,8.425629888470523299e-03
4.035999999999999943e+01,9.028899885886860349e-03
4.039999999999999858e+01,1.269232368909051917e-02
4.043999999999999773e+01,1.261528990601962219e-02
4.047999999999999687e+01,1.062546277313042645e-02
4.052000000000000313e+01,9.018048556010722569e-03
4.056000000000000227e+01,1.136336814515241309e-02
4.060000000000000142e+01,1.608878011060067836e-02
4.064000000000000057e+01,1.482103168957852983e-02
4.067999999999999972e+01,1.244806221831219924e-02
4.071999999999999886e+01,1.237017730397306503e-02
4.075999999999999801e+01,1.424734632068029062e-02
4.079999999999999716e+01,9.451293580676086575e-03
4.084000000000000341e+01,1.154073786953489431e-02
4.088000000000000256e+01,9.762212457992013384e-03
4.092000000000000171e+01,1.214893942370386115e-02
4.096000000000000085e+01,9.647604870611285049e-03
4.100000000000000000e+01,9.908896488899473359e-03
4.103999999999999915e+01,9.915042940388906281e-03
4.107999999999999829e+01,1.179123520734680006e-02
4.111999999999999744e+01,1.247719813076348175e-02
4.115999999999999659e+01,1.006025971404301590e-02
4.120000000000000284e+01,1.287116878065282417e-02
4.124000000000000199e+01,1.232415346366525291e-02
4.128000000000000114e+01,7.824160212218642108e-03
4.132000000000000028e+01,1.025216709958875518e-02
4.135999999999999943e+01,1.182997485462051503e-02
4.139999999999999858e+01,7.839659305928880009e-03
4.143999999999999773e+01,1.171242777659788591e-02
4.147999999999999687e+01,1.146220273328877812e-02
4.152000000000000313e+01,9.851732470720861792e-03
4.156000000000000227e+01,1.257652892089297647e-02
4.160000000000000142e+01,1.147585842517884029e-02
4.164000000000000057e+01,1.186269852810604986e-02
4.167999999999999972e+01,1.148434666643757818e-02
4.171999999999999886e+01,9.745749289311749636e-03
4.175999999999999801e+01,9.197135587297211243e-03
4.179999999999999716e+01,1.489646017994069628e-02
4.184000000000000341e+01,1.217990482160475479e-02
4.188000000000000256e+01,1.396863098541175491e-02
4.192000000000000171e+01,1.218691265439571410e-02
4.196000000000000085e+01,1.469795662289251695e-02
4.200000000000000000e+01,1.368105979891699048e-02
4.203999999999999915e+01,1.117640552307608455e-02
4.207999999999999829e+01,1.028677265673017156e-02
4.211999999999999744e+01,1.560257379029453967e-02
4.215999999999999659e+01,1.467018936129890413e-02
4.220000000000000284e+01,1.318513130174210277e-02
4.224000000000000199e+01,1.586532366452980333e-02
4.228000000000000114e+01,1.586765123677001676e-02
4.232000000000000028e+01,1.518979353823953285e-02
4.235999999999999943e+01,1.302417791392604558e-02
4.239999999999999858e+01,1.566136978745030078e-02
4.243999999999999773e+01,1.987107871648210664e-02
4.247999999999999687e+01,1.932023533809110877e-02
4.252000000000000313e+01,1.694160323031715723e-02
4.256000000000000227e+01,1.804815993768785209e-02
4.260000000000000142e+01,1.783697364715785758e-02
4.264000000000000057e+01,1.754065510356148452e-02
4.267999999999999972e+01,1.817929594758233361e-02
4.271999999999999886e+01,1.962538465749029751e-02
4.275999999999999801e+01,2.115635621993332618e-02
4.279999999999999716e+01,2.306973732148265288e-02
4.284000000000000341e+01,2.715068837776442312e-02
4.288000000000000256e+01,2.761868969664008425e-02
4.292000000000000171e+01,3.033926849342904325e-02
4.296000000000000085e+01,3.820268452534100745e-02
4.300000000000000000e+01,4.445083022114426630e-02
4.303999999999999915e+01,5.235649972551975617e-02
4.307999999999999829e+01,6.353483817077305862e-02
4.311999999999999744e+01,9.613497699213355285e-02
4.315999999999999659e+01,1.424637245601065028e-01
4.320000000000000284e+01,2.060063941235236173e-01
4.324000000000000199e+01,2.698889687535800941e-01
4.328000000000000114e+01,3.099267743386875384e-01
4.332000000000000028e+01,3.374683309812532284e-01
4.335999999999999943e+01,3.351295759025106902e-01
4.339999999999999858e+01,3.087760363177795564e-01
4.343999999999999773e+01,2.713288737001819939e-01
4.347999999999999687e+01,2.205353854864810781e-01
4.352000000000000313e+01,1.847031162903093326e-01
4.356000000000000227e+01,1.384997888376644504e-01
4.360000000000000142e+01,1.079802452381816574e-01
4.364000000000000057e+01,8.434619452078255530e-02
4.367999999999999972e+01,6.704508695543566488e-02
4.371999999999999886e+01,5.471680021633683333e-02
4.375999999999999801e+01,4.396102857783529272e-02
4.379999999999999716e+01,3.792305472212158940e-02
4.384000000000000341e+01,3.226748886528187782e-02
4.388000000000000256e+01,2.618675835230382942e-02
4.392000000000000171e+01,2.669399356092058348e-02
4.396000000000000085e+01,2.210064370360437930e-02
4.400000000000000000e+01,1.822973217484444644e-02
4.403999999999999915e+01,1.971417538588620191e-02
4.407999999999999829e+01,2.022090397379929655e-02
4.411999999999999744e+01,1.498948994636852342e-02
4.415999999999999659e+01,1.787617883497932131e-02
4.420000000000000284e+01,1.646985489799153088e-02
4.424000000000000199e+01,1.561595365080126023e-02
4.428000000000000114e+01,1.408186423009477432e-02
4.432000000000000028e+01,1.378025851398861738e-02
4.435999999999999943e+01,1.335101417667863832e-02
4.439999999999999858e+01,1.674698649612800169e-02
4.443999999999999773e+01,1.363974695137337018e-02
4.447999999999999687e+01,1.274257875335342571e-02
4.452000000000000313e+01,1.044265707226668498e-02
4.456000000000000227e+01,1.120288303603799232e-02
4.460000000000000142e+01,9.370248415019212865e-03
4.464000000000000057e+01,1.391305934512987452e-02
4.467999999999999972e+01,1.157012366812706569e-02
4.471999999999999886e+01,1.271237360732486131e-02
4.475999999999999801e+01,1.368448051209165788e-02
4.479999999999999716e+01,1.350885644409455591e-02
4.484000000000000341e+01,1.329060068567745716e-02
4.488000000000000256e+01,8.396796707115568997e-03
4.492000000000000171e+01,1.497889636462179826e-02
4.496000000000000085e+01,1.038236309649263542e-02
4.500000000000000000e+01,1.199125956301501546e-02
4.503999999999999915e+01,1.308998201378734974e-02
4.507999999999999829e+01,8.790590994104022227e-03
4.511999999999999744e+01,1.362939316863267039e-02
4.515999999999999659e+01,1.345261614169747204e-02
4.520000000000000284e+01,7.920229287417637418e-03
4.524000000000000199e+01,1.127101252464983439e-02
4.528000000000000114e+01,8.926155249416877629e-03
4.532000000000000028e+01,9.556436851827302889e-03
4.535999999999999943e+01,1.133419297694543415e-02
4.539999999999999858e+01,1.068910261579996378e-02
4.543999999999999773e+01,9.703852929827954873e-03
4.547999999999999687e+01,1.254381830114328043e-02
4.552000000000000313e+01,1.019818865451687165e-02
4.556000000000000227e+01,1.142275102171754972e-02
4.560000000000000142e+01,1.171210033551094501e-02
4.564000000000000057e+01,1.272388554903274190e-02
4.567999999999999972e+01,8.805098432634829789e-03
4.571999999999999886e+01,1.228184696781764625e-02
4.575999999999999801e+01,7.937763238151925721e-03
4.579999999999999716e+01,1.226432966649167525e-02
4.584000000000000341e+01,9.705147769766527335e-03
4.588000000000000256e+01,7.655882313180879806e-03
4.592000000000000171e+01,1.002688475386773539e-02
4.596000000000000085e+01,7.424810629126805776e-03
4.600000000000000000e+01,1.209076027879826820e-02
4.603999999999999915e+01,1.127358739460086398e-02
4.607999999999999829e+01,1.126385740015540919e-02
4.611999999999999744e+01,1.125399764044953885e-02
4.615999999999999659e+01,8.353748239794154401e-03
4.620000000000000284e+01,7.536056176075733165e-03
4.624000000000000199e+01,7.908341152621668063e-03
4.628000000000000114e+01,8.280496126948396277e-03
4.632000000000000028e+01,1.120275028962449369e-02
4.635999999999999943e+01,1.102209541100185666e-02
4.639999999999999858e+01,9.481188085876453286e-03
4.643999999999999773e+01,7.387600850781211349e-03
4.647999999999999687e+01,1.120191441265747101e-02
4.652000000000000313e+01,1.055319642971173921e-02
4.656000000000000227e+01,1.236956963801689319e-02
4.660000000000000142e+01,8.745323303927464084e-03
4.664000000000000057e+01,1.243160361724528207e-02
4.667999999999999972e+01,9.699676390595927955e-03
4.671999999999999886e+01,7.775191105863236453e-03
4.675999999999999801e+01,1.044098775768981593e-02
4.679999999999999716e+01,8.856271554167179788e-03
4.684000000000000341e+01,1.139429513959287939e-02
4.688000000000000256e+01,1.235954646348867182e-02
4.692000000000000171e+01,1.166701782495457168e-02
4.696000000000000085e+01,9.274205343920732814e-03
4.700000000000000000e+01,8.071368777596864275e-03
4.703999999999999915e+01,9.801164720778954981e-03
4.707999999999999829e+01,7.918004706385947319e-03
4.711999999999999744e+01,9.137492366340042166e-03
4.715999999999999659e+01,8.529184425105449524e-03
4.720000000000000284e+01,7.750729835817885861e-03
4.724000000000000199e+01,8.502281372443179150e-03
4.728000000000000114e+01,7.213518026009983590e-03
4.732000000000000028e+01,1.034502050345966102e-02
4.735999999999999943e+01,4.210558438247900305e-03
4.739999999999999858e+01,9.722011619563130855e-03
4.743999999999999773e+01,1.119547010184455266e-02
4.747999999999999687e+01,7.398323021778447153e-03
4.752000000000000313e+01,1.074168600252554777e-02
4.756000000000000227e+01,1.047209231482110724e-02
4.760000000000000142e+01,5.186915812030861231e-03
4.764000000000000057e+01,8.657394383879959618e-03
4.767999999999999972e+01,8.344900826237854757e-03
4.771999999999999886e+01,9.477405041971880342e-03
4.775999999999999801e+01,7.804524888828464138e-03
4.779999999999999716e+01,8.936764657146207061e-03
4.784000000000000341e+01,9.898856829575693878e-03
4.788000000000000256e+01,1.018075549691555524e-02
4.792000000000000171e+01,1.080255229984942306e-02
4.796000000000000085e+01,1.248681213324993704e-02
4.800000000000000000e+01,1.106816049652383296e-02
4.803999999999999915e+01,8.841803655258878916e-03
4.807999999999999829e+01,6.487802683497579694e-03
4.811999999999999744e+01,9.064112200786711079e-03
4.815999999999999659e+01,8.750029115141088817e-03
4.820000000000000284e+01,8.605828467090985076e-03
4.824000000000000199e+01,1.003413628479126428e-02
4.828000000000000114e+01,8.869578067648646591e-03
4.832000000000000028e+01,1.038262753936060323e-02
4.835999999999999943e+01,8.665253545298172433e-03
4.839999999999999858e+01,1.009302915074243058e-02
4.843999999999999773e+01,8.205373530272621133e-03
4.847999999999999687e+01,8.357768049246485156e-03
4.852000000000000313e+01,9.657632410991424249e-03
4.856000000000000227e+01,1.155241688547591072e-02
4.860000000000000142e+01,6.901479513996995434e-03
4.864000000000000057e+01,9.221035261298991814e-03
4.867999999999999972e+01,9.797800797963818892e-03
4.871999999999999886e+01,6.506585023244857054e-03
4.875999999999999801e+01,8.060671148080776963e-03
4.879999999999999716e+01,9.742135001086490997e-03
4.884000000000000341e+01,1.023335807728802636e-02
4.888000000000000256e+01,9.151805929974421092e-03
4.892000000000000171e+01,7.730089303979994705e-03
4.896000000000000085e+01,8.560941210703471027e-03
4.900000000000000000e+01,1.083678899513253364e-02
4.903999999999999915e+01,1.226242627319998856e-02
4.907999999999999829e+01,1.011760845253727344e-02
4.911999999999999744e+01,9.077755765219918532e-03
4.915999999999999659e+01,9.227875793668490270e-03
4.920000000000000284e+01,1.082299140362412079e-02
4.924000000000000199e+01,8.507621111249660459e-03
4.928000000000000114e+01,6.192116373678127617e-03
4.932000000000000028e+01,9.954523510379629028e-03
4.935999999999999943e+01,9.168887254579852555e-03
4.939999999999999858e+01,1.267600227970788404e-02
4.943999999999999773e+01,9.339867469027738484e-03
4.947999999999999687e+01,1.276170542894403126e-02
4.952000000000000313e+01,1.133797301358925244e-02
4.956000000000000227e+01,9.489067530058088035e-03
4.960000000000000142e+01,9.000149393976667953e-03
4.964000000000000057e+01,1.106132552934914644e-02
4.967999999999999972e+01,8.744473081623259370e-03
4.971999999999999886e+01,8.765195682721172929e-03
4.975999999999999801e+01,7.808195248652390758e-03
4.979999999999999716e+01,8.976250640777304335e-03
4.984000000000000341e+01,7.891468254351967013e-03
4.988000000000000256e+01,8.251680442358693898e-03
4.992000000000000171e+01,1.111948266631126135e-02
4.996000000000000085e+01,1.105438580071224294e-02
5.000000000000000000e+01,1.217926040684534639e-02
5.003999999999999915e+01,8.118533300950123155e-03
5.007999999999999829e+01,1.060325897290506116e-02
5.011999999999999744e+01,1.092015409329208549e-02
5.015999999999999659e+01,9.749279736153710491e-03
5.020000000000000284e+01,1.010840712119004565e-02
5.024000000000000199e+01,1.216755147248194634e-02
5.028000000000000114e+01,1.184634593109642163e-02
5.032000000000000028e+01,9.229798079454048371e-03
5.035999999999999943e+01,9.333358716271450070e-03
5.039999999999999858e+01,9.479287070010193259e-03
5.043999999999999773e+01,9.540071618940179285e-03
5.047999999999999687e+01,1.015326961627375894e-02
5.052000000000000313e+01,1.046880458616847483e-02
5.056000000000000227e+01,8.871531277839352428e-03
5.060000000000000142e+01,8.719251477627617056e-03
5.064000000000000057e+01,9.586926917992202174e-03
5.067999999999999972e+01,1.130454225637282650e-02
5.071999999999999886e+01,8.346600725611804175e-03
5.075999999999999801e+01,1.189160714479583353e-02
5.079999999999999716e+01,8.593361714021740053e-03
5.084000000000000341e+01,1.056545331063927888e-02
5.088000000000000256e+01,1.053972851345506313e-02
5.092000000000000171e+01,1.123643179635825697e-02
5.096000000000000085e+01,1.121043319188444812e-02
5.100000000000000000e+01,1.126930523656654790e-02
5.103999999999999915e+01,9.755398858789475491e-03
5.107999999999999829e+01,9.856500561573899172e-03
5.111999999999999744e+01,1.076503768990748171e-02
5.115999999999999659e+01,1.090836881383540173e-02
5.120000000000000284e+01,1.113657029072071328e-02
5.124000000000000199e+01,1.140713824049358407e-02
5.128000000000000114e+01,1.125253057478278404e-02
5.132000000000000028e+01,1.071525105517874381e-02
5.135999999999999943e+01,1.213300976809937072e-02
5.139999999999999858e+01,1.100040164631029514e-02
5.143999999999999773e+01,1.114277050528426211e-02
5.147999999999999687e+01,7.884695994466346669e-03
5.152000000000000313e+01,7.686758820797882918e-03
5.156000000000000227e+01,9.656378687606260308e-03
5.160000000000000142e+01,1.107331100252292345e-02
5.164000000000000057e+01,1.172503660215745876e-02
5.167999999999999972e+01,1.471433434787026810e-02
5.171999999999999886e+01,1.557830299325713500e-02
5.175999999999999801e+01,1.418943101658790874e-02
5.179999999999999716e+01,1.297043614594078909e-02
5.184000000000000341e+01,1.234635653037747388e-02
5.188000000000000256e+01,1.176464243986642851e-02
5.192000000000000171e+01,9.142606594491167402e-03
5.196000000000000085e+01,1.213093668443692742e-02
5.200000000000000000e+01,9.041081922175925323e-03
5.203999999999999915e+01,6.971180327101562414e-03
5.207999999999999829e+01,8.811491656423555557e-03
5.211999999999999744e+01,9.504061172115742945e-03
5.215999999999999659e+01,1.155661424391656381e-02
5.220000000000000284e+01,1.071876872957247713e-02
5.224000000000000199e+01,1.315357859021386126e-02
5.228000000000000114e+01,1.325053941702272926e-02
5.232000000000000028e+01,1.058461294245799031e-02
5.235999999999999943e+01,7.876043640408801616e-03
5.239999999999999858e+01,1.277551920106038442e-02
5.243999999999999773e+01,1.236187803281093428e-02
5.247999999999999687e+01,6.975150643061866183e-03
5.252000000000000313e+01,1.098162841316027011e-02
5.256000000000000227e+01,1.031254658909060325e-02
5.260000000000000142e+01,1.138598205696408211e-02
5.264000000000000057e+01,1.305433159512726753e-02
5.267999999999999972e+01,1.204480094041976944e-02
5.271999999999999886e+01,1.141766513337186956e-02
5.275999999999999801e+01,1.015283241482053435e-02
5.279999999999999716e+01,9.695432633750786580e-03
5.284000000000000341e+01,1.183062620578870586e-02
5.288000000000000256e+01,1.184048895954923492e-02
5.292000000000000171e+01,1.040508196907488810e-02
5.296000000000000085e+01,1.190229872063021388e-02
5.300000000000000000e+01,1.297433730939456450e-02
5.303999999999999915e+01,1.000837290556648961e-02
5.307999999999999829e+01,1.142016197427367721e-02
5.311999999999999744e+01,9.644024348511779504e-03
5.315999999999999659e+01,8.505303843753571000e-03
5.320000000000000284e+01,1.000167997977582587e-02
5.324000000000000199e+01,9.330220943533223954e-03
5.328000000000000114e+01,9.211171208914903374e-03
5.332000000000000028e+01,1.113216444573601228e-02
5.335999999999999943e+01,1.245796370328824954e-02
5.339999999999999858e+01,1.293354599735109696e-02
5.343999999999999773e+01,1.013619348136695318e-02
5.347999999999999687e+01,1.231164733714296827e-02
5.352000000000000313e+01,1.010906692280897842e-02
5.356000000000000227e+01,7.523811337158308257e-03
5.360000000000000142e+01,1.258910265784739767e-02
5.364000000000000057e+01,1.170371815999224699e-02
5.367999999999999972e+01,9.968116283969772132e-03
5.371999999999999886e+01,1.052757971197052118e-02
5.375999999999999801e+01,1.070436767245604506e-02
5.379999999999999716e+01,5.950571277361830537e-03
5.384000000000000341e+01,1.041996280388429730e-02
5.388000000000000256e+01,1.063883098962982096e-02
5.392000000000000171e+01,9.752458516788964360e-03
5.396000000000000085e+01,1.184121212581531676e-02
5.400000000000000000e+01,1.120957976623059710e-02
5.403999999999999915e+01,1.057780591192398513e-02
5.407999999999999829e+01,8.755783520411888551e-03
5.411999999999999744e+01,1.101398631539178205e-02
5.415999999999999659e+01,1.641733017936089847e-02
5.420000000000000284e+01,1.127958474577496310e-02
5.424000000000000199e+01,1.255977446661952525e-02
5.428000000000000114e+01,1.120458544583535603e-02
5.432000000000000028e+01,1.159191116968703861e-02
5.435999999999999943e+01,8.621293079318255448e-03
5.439999999999999858e+01,1.130354113147863208e-02
5.443999999999999773e+01,1.160543313003231311e-02
5.447999999999999687e+01,1.343732053211232728e-02
5.452000000000000313e+01,1.178375242052264252e-02
5.456000000000000227e+01,1.510298908122109131e-02
5.460000000000000142e+01,1.051637274343602060e-02
5.464000000000000057e+01,1.141260690942135295e-02
5.467999999999999972e+01,1.294625594530158380e-02
5.471999999999999886e+01,1.299212875033008835e-02
5.475999999999999801e+01,1.465300418586728583e-02
5.479999999999999716e+01,1.482610327207333281e-02
5.484000000000000341e+01,1.661420487030865548e-02
5.488000000000000256e+01,1.423678928843472198e-02
5.492000000000000171e+01,1.462197926252438093e-02
5.496000000000000085e+01,1.730223270420640572e-02
5.500000000000000000e+01,2.032237379605473723e-02
5.503999999999999915e+01,1.994206624577748999e-02
5.507999999999999829e+01,2.738231869329148596e-02
5.511999999999999744e+01,2.653418298473455769e-02
5.515999999999999659e+01,2.581341558523443311e-02
5.520000000000000284e+01,2.938539087690495571e-02
5.524000000000000199e+01,3.091703949681579022e-02
5.528000000000000114e+01,2.870820855252171136e-02
5.532000000000000028e+01,2.802937176772015912e-02
5.535999999999999943e+01,2.348254383774385848e-02
5.539999999999999858e+01,2.441856528598356987e-02
5.543999999999999773e+01,1.927639678740192611e-02
5.547999999999999687e+01,2.216730679836518420e-02
5.552000000000000313e+01,1.689733952335088427e-02
5.556000000000000227e+01,1.868286276030890758e-02
5.560000000000000142e+01,1.417767670933605360e-02
5.564000000000000057e+01,1.596291227691360934e-02
5.567999999999999972e+01,1.494275174615225868e-02
5.571999999999999886e+01,1.256232496603696888e-02
5.575999999999999801e+01,1.413460948109536257e-02
5.579999999999999716e+01,1.285899389926557779e-02
5.584000000000000341e+01,1.345340227345329445e-02
5.588000000000000256e+01,1.073236840314188874e-02
5.592000000000000171e+01,1.073143478697133682e-02
5.596000000000000085e+01,1.043283008676210155e-02
5.600000000000000000e+01,1.170672235980056534e-02
5.603999999999999915e+01,1.425558480103604302e-02
5.607999999999999829e+01,1.268143210580127862e-02
5.611999999999999744e+01,1.459244814345131945e-02
5.615999999999999659e+01,1.221043364283114392e-02
5.620000000000000284e+01,8.850686569451846758e-03
5.624000000000000199e+01,7.615985784673805561e-03
5.628000000000000114e+01,1.165161397068758403e-02
5.632000000000000028e+01,1.169173812728329168e-02
5.635999999999999943e+01,1.028658744502953214e-02
5.639999999999999858e+01,1.109149045607850034e-02
5.643999999999999773e+01,1.176873695553287517e-02
5.647999999999999687e+01,1.223331924249269551e-02
5.652000000000000313e+01,8.999923949646874977e-03
5.656000000000000227e+01,1.112186485457522522e-02
5.660000000000000142e+01,1.400872924838307207e-02
5.664000000000000057e+01,9.457279651613997862e-03
5.667999999999999972e+01,1.179130362478495939e-02
5.671999999999999886e+01,1.068237264693258810e-02
5.675999999999999801e+01,8.680715908625517147e-03
5.679999999999999716e+01,1.254444086261603114e-02
5.684000000000000341e+01,1.096753110884760365e-02
5.688000000000000256e+01,1.368336155818224154e-02
5.692000000000000171e+01,1.304124440195531844e-02
5.696000000000000085e+01,1.074133241413265626e-02
5.700000000000000000e+01,9.588877710263706347e-03
5.703999999999999915e+01,1.102901013933345678e-02
5.707999999999999829e+01,1.144890487154043637e-02
5.711999999999999744e+01,1.254871468085048958e-02
5.715999999999999659e+01,1.275579813730878982e-02
5.720000000000000284e+01,1.105006348175228623e-02
5.724000000000000199e+01,8.451602354864615890e-03
5.728000000000000114e+01,1.201604895520906255e-02
5.732000000000000028e+01,9.119768436994784427e-03
5.735999999999999943e+01,1.183384585674140434e-02
5.739999999999999858e+01,1.118997496005001702e-02
5.743999999999999773e+01,1.084348427907280178e-02
5.747999999999999687e+01,1.058185465041937279e-02
5.752000000000000313e+01,9.129971389945886959e-03
5.756000000000000227e+01,1.069571270059631839e-02
5.760000000000000142e+01,1.213379578170073816e-02
5.764000000000000057e+01,9.406357595156280768e-03
5.767999999999999972e+01,1.190674248518384763e-02
5.771999999999999886e+01,1.007159070576256650e-02
5.775999999999999801e+01,1.099904027628586210e-02
5.779999999999999716e+01,9.971167025368673706e-03
5.784000000000000341e+01,1.145087208093581096e-02
5.788000000000000256e+01,1.165531532986526127e-02
5.792000000000000171e+01,1.343225270853660828e-02
5.796000000000000085e+01,1.244629443303599085e-02
5.800000000000000000e+01,1.320284545211841513e-02
5.803999999999999915e+01,1.051643956526726771e-02
5.807999999999999829e+01,1.029510780863209483e-02
5.811999999999999744e+01,8.671002427430598430e-03
5.815999999999999659e+01,1.350733021599866829e-02
5.820000000000000284e+01,1.192543340356467391e-02
5.824000000000000199e+01,1.225606081359602133e-02
5.828000000000000114e+01,1.250153280783650872e-02
5.832000000000000028e+01,1.227931493957520187e-02
5.835999999999999943e+01,1.222696446202444637e-02
5.839999999999999858e+01,7.286526637158079536e-03
5.843999999999999773e+01,1.314191129205748154e-02
5.847999999999999687e+01,9.773818756487744064e-03
5.852000000000000313e+01,9.295837907798601418e-03
5.856000000000000227e+01,1.009282349520510338e-02
5.860000000000000142e+01,1.101717229705381947e-02
5.864000000000000057e+01,1.185636514995432218e-02
5.867999999999999972e+01,1.006017274485861840e-02
5.871999999999999886e+01,9.623954180560022331e-03
5.875999999999999801e+01,1.118526671027088651e-02
5.879999999999999716e+01,8.411040971060894725e-03
5.884000000000000341e+01,9.972056353038579249e-03
5.888000000000000256e+01,1.085286193900790279e-02
5.892000000000000171e+01,1.245608375712372977e-02
5.896000000000000085e+01,1.405915679403399281e-02
5.900000000000000000e+01,1.034910338673169714e-02
5.903999999999999915e+01,9.741680000344537724e-03
5.907999999999999829e+01,1.147181780069031660e-02
5.911999999999999744e+01,1.018403530393190842e-02
5.915999999999999659e+01,1.153134062123798743e-02
5.920000000000000284e+01,1.275098533940986767e-02
5.924000000000000199e+01,1.154776307438037421e-02
5.928000000000000114e+01,1.280961316237571278e-02
5.932000000000000028e+01,1.330624516106565340e-02
5.935999999999999943e+01,1.048742976140219774e-02
5.939999999999999858e+01,1.072874002866641696e-02
5.943999999999999773e+01,1.130993137048971406e-02
5.947999999999999687e+01,1.197598080265157780e-02
5.952000000000000313e+01,7.923956512106661992e-03
5.956000000000000227e+01,9.099752513867643763e-03
5.960000000000000142e+01,9.425322369985025123e-03
5.964000000000000057e+01,1.208845258347949689e-02
5.967999999999999972e+01,1.313628775790845297e-02
5.971999999999999886e+01,8.190934288527946736e-03
5.975999999999999801e+01,1.153367591502479222e-02
5.979999999999999716e+01,1.173098477485204696e-02
5.984000000000000341e+01,1.039800600031525780e-02
5.988000000000000256e+01,8.554831232098044497e-03
5.992000000000000171e+01,1.045184249397454468e-02
5.996000000000000085e+01,1.030852009380622825e-02
