2.003999999999999915e+01,3.067656623041243105e-02
2.007999999999999829e+01,2.769157444852672276e-02
2.012000000000000099e+01,2.070491952022727664e-02
2.016000000000000014e+01,3.921035979300493274e-02
2.019999999999999929e+01,2.387742979679957286e-02
2.023999999999999844e+01,1.117321819167153493e-02
2.028000000000000114e+01,2.910536375029588660e-02
2.032000000000000028e+01,3.754863858478562494e-02
2.035999999999999943e+01,2.164184757903961712e-02
2.039999999999999858e+01,2.425382525384198532e-02
2.044000000000000128e+01,2.606501776865853895e-02
2.048000000000000043e+01,2.284570081180460621e-02
2.051999999999999957e+01,1.676789593231925793e-02
2.055999999999999872e+01,2.326438396216990584e-02
2.060000000000000142e+01,1.364162605047662853e-02
2.064000000000000057e+01,2.493829530914995138e-02
2.067999999999999972e+01,3.429101429618379437e-02
2.071999999999999886e+01,3.735574180952318246e-02
2.076000000000000156e+01,2.635892993601120574e-02
2.080000000000000071e+01,2.393532360092952282e-02
2.083999999999999986e+01,2.311159312371172461e-02
2.087999999999999901e+01,2.754587962820777627e-02
2.092000000000000171e+01,3.175097300866223243e-02
2.096000000000000085e+01,3.046829694005965053e-02
2.100000000000000000e+01,1.752473997442392795e-02
2.103999999999999915e+01,3.327416504439782707e-02
2.107999999999999829e+01,3.724839359098426617e-02
2.112000000000000099e+01,3.184808094396238132e-02
2.116000000000000014e+01,1.297496864270570455e-03
2.119999999999999929e+01,2.710458481777642745e-02
2.123999999999999844e+01,2.833298705447823487e-02
2.128000000000000114e+01,3.150422277223995787e-02
2.132000000000000028e+01,2.370048399125159258e-02
2.135999999999999943e+01,3.967410601602221198e-02
2.139999999999999858e+01,2.935429149646894345e-02
2.144000000000000128e+01,2.772200951784107442e-02
2.148000000000000043e+01,2.448874057884002642e-02
2.151999999999999957e+01,2.674213251441799610e-02
2.155999999999999872e+01,1.321924434774971770e-02
2.160000000000000142e+01,2.495984035369833848e-02
2.164000000000000057e+01,3.978644443247787016e-02
2.167999999999999972e+01,3.735065073022376253e-02
2.171999999999999886e+01,2.428283952040782151e-02
2.176000000000000156e+01,3.019108604088602960e-02
2.180000000000000071e+01,4.032851206592720505e-02
2.183999999999999986e+01,1.617032617282536042e-02
2.187999999999999901e+01,3.533769755486626529e-02
2.192000000000000171e+01,2.866890817016501392e-02
2.196000000000000085e+01,1.959892117659380040e-02
2.200000000000000000e+01,3.510652333349713328e-02
2.203999999999999915e+01,4.386888731148350096e-02
2.207999999999999829e+01,2.325126944928678635e-02
2.212000000000000099e+01,3.738544587652436330e-02
2.216000000000000014e+01,3.174226051868039855e-02
2.219999999999999929e+01,3.261459879287879893e-02
2.223999999999999844e+01,4.057404578297786613e-02
2.228000000000000114e+01,2.761296398031817118e-02
2.232000000000000028e+01,4.666007425825002830e-02
2.235999999999999943e+01,2.523846875415668156e-02
2.239999999999999858e+01,2.862309250135613298e-02
2.244000000000000128e+01,5.281285496890357478e-02
2.248000000000000043e+01,3.893455824822079220e-02
2.251999999999999957e+01,3.831648674747718114e-02
2.255999999999999872e+01,4.272782499203534728e-02
2.260000000000000142e+01,2.324640035027540283e-02
2.264000000000000057e+01,2.342694868520191903e-02
2.267999999999999972e+01,4.818509691473564505e-02
2.271999999999999886e+01,2.721595809329134183e-02
2.276000000000000156e+01,2.853808262306853361e-02
2.280000000000000071e+01,1.911388981912469712e-02
2.283999999999999986e+01,3.495320078003984893e-02
2.287999999999999901e+01,2.335592967721937530e-02
2.292000000000000171e+01,3.427855823439179134e-02
2.296000000000000085e+01,3.068241460366210455e-02
2.300000000000000000e+01,3.737426462734341065e-02
2.303999999999999915e+01,2.451740055085525893e-02
2.307999999999999829e+01,2.366328474834465331e-02
2.312000000000000099e+01,3.001060845627664259e-02
2.316000000000000014e+01,2.332528271115657040e-02
2.319999999999999929e+01,4.258936776118615181e-02
2.323999999999999844e+01,2.172770160447257126e-02
2.328000000000000114e+01,3.344582714838843090e-02
2.332000000000000028e+01,4.482048059836121062e-02
2.335999999999999943e+01,2.692948932277088037e-02
2.339999999999999858e+01,3.898900316532181304e-02
2.344000000000000128e+01,1.732451482189266770e-02
2.348000000000000043e+01,2.423873017617943215e-02
2.351999999999999957e+01,3.446761708840441474e-02
2.355999999999999872e+01,3.817992361874941731e-02
2.360000000000000142e+01,4.132012869846601183e-02
2.364000000000000057e+01,3.154200879959423443e-02
2.367999999999999972e+01,2.930828793038452867e-02
2.371999999999999886e+01,5.039469759391444759e-02
2.376000000000000156e+01,3.798574390826690156e-02
2.380000000000000071e+01,3.232097291571433412e-02
2.383999999999999986e+01,4.094530001268928410e-02
2.387999999999999901e+01,3.722289037497315822e-02
2.392000000000000171e+01,2.869865939899843982e-02
2.396000000000000085e+01,3.446352840857463962e-02
2.400000000000000000e+01,5.257411089941824850e-02
2.403999999999999915e+01,4.576310124289435094e-02
2.407999999999999829e+01,4.226677199241814231e-02
2.412000000000000099e+01,2.676666047040789087e-02
2.416000000000000014e+01,3.710165802136468349e-02
2.419999999999999929e+01,3.177473407296088626e-02
2.423999999999999844e+01,2.336074719791205942e-02
2.428000000000000114e+01,2.946449914521661814e-02
2.432000000000000028e+01,3.911156907135588529e-02
2.435999999999999943e+01,4.761496510316472197e-02
2.439999999999999858e+01,4.720113932748610380e-02
2.444000000000000128e+01,3.421195188448562102e-02
2.448000000000000043e+01,3.105351391870484271e-02
2.451999999999999957e+01,3.155271398216782930e-02
2.455999999999999872e+01,4.256856612908656301e-02
2.460000000000000142e+01,4.180927736930520333e-02
2.464000000000000057e+01,3.956336846813786334e-02
2.467999999999999972e+01,2.977204486797859970e-02
2.471999999999999886e+01,3.655617106892002088e-02
2.476000000000000156e+01,3.316559535637363110e-02
2.480000000000000071e+01,3.583331679489710347e-02
2.483999999999999986e+01,5.004654675426161575e-02
2.487999999999999901e+01,3.979546539990286291e-02
2.492000000000000171e+01,4.223306273410157297e-02
2.496000000000000085e+01,3.895432003928416681e-02
2.500000000000000000e+01,3.521781490448167018e-02
2.503999999999999915e+01,2.965174527726121417e-02
2.507999999999999829e+01,5.014943303992745044e-02
2.512000000000000099e+01,3.532270869576069339e-02
2.516000000000000014e+01,4.095821537736303586e-02
2.519999999999999929e+01,2.853116166202854589e-02
2.523999999999999844e+01,2.959300992390432108e-02
2.528000000000000114e+01,2.722486102022798893e-02
2.532000000000000028e+01,2.920026412817204597e-02
2.535999999999999943e+01,2.866020645754004462e-02
2.539999999999999858e+01,3.417845541809508281e-02
2.544000000000000128e+01,3.306583681076727399e-02
2.548000000000000043e+01,3.263863225124872397e-02
2.551999999999999957e+01,3.781246865746044211e-02
2.555999999999999872e+01,4.492920616956794927e-02
2.560000000000000142e+01,2.563825660780159540e-02
2.564000000000000057e+01,2.246550382183542388e-02
2.567999999999999972e+01,4.741422193253447270e-02
2.571999999999999886e+01,3.520946717059648262e-02
2.576000000000000156e+01,2.700532070125461967e-02
2.580000000000000071e+01,2.874626145576029621e-02
2.583999999999999986e+01,3.220147395947632607e-02
2.587999999999999901e+01,3.256964944886750479e-02
2.592000000000000171e+01,3.842455533369688175e-02
2.596000000000000085e+01,3.536226405934355527e-02
2.600000000000000000e+01,4.315959829183731861e-02
2.603999999999999915e+01,3.323733607066857443e-02
2.607999999999999829e+01,2.194279335076513085e-02
2.612000000000000099e+01,2.825257456556640179e-02
2.616000000000000014e+01,3.044647117676683654e-02
2.619999999999999929e+01,3.584076480005884274e-02
2.623999999999999844e+01,2.671633806008929385e-02
2.628000000000000114e+01,3.096651283916309824e-02
2.632000000000000028e+01,4.081774122412339806e-02
2.635999999999999943e+01,3.466413156703464227e-02
2.639999999999999858e+01,3.125365452059617605e-02
2.644000000000000128e+01,3.104357827829605163e-02
2.648000000000000043e+01,2.671762248845769086e-02
2.651999999999999957e+01,2.444889986307267546e-02
2.655999999999999872e+01,3.795543787855710366e-02
2.660000000000000142e+01,2.996993090627608075e-02
2.664000000000000057e+01,3.695946760628968097e-02
2.667999999999999972e+01,3.205957937363931864e-02
2.671999999999999886e+01,3.699047601064602009e-02
2.676000000000000156e+01,3.529052593602764742e-02
2.680000000000000071e+01,4.330704510471187346e-02
2.683999999999999986e+01,3.954845875913345910e-02
2.687999999999999901e+01,2.504361954463079840e-02
2.692000000000000171e+01,3.397327831386267455e-02
2.696000000000000085e+01,3.204236858781583236e-02
2.700000000000000000e+01,3.319755162364668860e-02
2.703999999999999915e+01,3.503817335559154117e-02
2.707999999999999829e+01,2.510369336532051673e-02
2.712000000000000099e+01,4.020415098400408754e-02
2.716000000000000014e+01,3.689912850302341785e-02
2.719999999999999929e+01,2.421966089362184715e-02
2.723999999999999844e+01,3.588923144697782341e-02
2.728000000000000114e+01,3.726982301296797445e-02
2.732000000000000028e+01,3.144799226359187155e-02
2.735999999999999943e+01,3.305630179822647424e-02
2.739999999999999858e+01,2.334678222818804133e-02
2.744000000000000128e+01,3.912947288464693057e-02
2.748000000000000043e+01,4.256548368711773889e-02
2.751999999999999957e+01,4.108541314166289787e-02
2.755999999999999872e+01,4.726411982099788106e-02
2.760000000000000142e+01,3.446576890090414375e-02
2.764000000000000057e+01,4.864575094215772139e-02
2.767999999999999972e+01,2.270005192953523585e-02
2.771999999999999886e+01,5.059715637924212805e-02
2.776000000000000156e+01,2.922322980948297358e-02
2.780000000000000071e+01,3.688534275576370314e-02
2.783999999999999986e+01,4.454700569609421762e-02
2.787999999999999901e+01,5.369433883729322898e-02
2.792000000000000171e+01,3.677697223218174410e-02
2.796000000000000085e+01,4.969586590373177570e-02
2.800000000000000000e+01,4.500951098037201531e-02
2.803999999999999915e+01,3.060577352964517772e-02
2.807999999999999829e+01,4.020813684272975946e-02
2.812000000000000099e+01,4.740939987614740253e-02
2.816000000000000014e+01,5.803972467077940511e-02
2.819999999999999929e+01,4.694939597721818625e-02
2.823999999999999844e+01,3.814496140518629230e-02
2.828000000000000114e+01,4.603034977332037814e-02
2.832000000000000028e+01,5.665890108847970036e-02
2.835999999999999943e+01,5.596963846715338753e-02
2.839999999999999858e+01,3.984715448802677445e-02
2.844000000000000128e+01,3.744225682747560902e-02
2.848000000000000043e+01,4.818336166565726636e-02
2.851999999999999957e+01,4.040469100207017689e-02
2.855999999999999872e+01,5.640349490564806889e-02
2.860000000000000142e+01,5.353957390036256925e-02
2.864000000000000057e+01,4.255871631300818525e-02
2.867999999999999972e+01,4.049413944073308042e-02
2.871999999999999886e+01,4.734584391554508276e-02
2.876000000000000156e+01,3.762116381692642841e-02
2.880000000000000071e+01,4.801582158567736791e-02
2.883999999999999986e+01,4.034797647020229444e-02
2.887999999999999901e+01,4.514023883131778464e-02
2.892000000000000171e+01,3.152704890111267255e-02
2.896000000000000085e+01,4.237724120037117403e-02
2.900000000000000000e+01,5.219814980857524073e-02
2.903999999999999915e+01,3.606869325705765184e-02
2.907999999999999829e+01,3.331388246513013185e-02
2.912000000000000099e+01,5.547972399217768885e-02
2.916000000000000014e+01,4.014919632814981099e-02
2.919999999999999929e+01,4.025102034639679860e-02
2.923999999999999844e+01,3.155001592047158854e-02
2.928000000000000114e+01,3.393732260677419232e-02
2.932000000000000028e+01,3.438081553512439131e-02
2.935999999999999943e+01,3.688158650048253134e-02
2.939999999999999858e+01,4.624094553039925781e-02
2.944000000000000128e+01,2.816382614586146124e-02
2.948000000000000043e+01,4.495293423056513638e-02
2.951999999999999957e+01,4.527998664035651905e-02
2.955999999999999872e+01,3.817601834647909448e-02
2.960000000000000142e+01,4.398943646681306024e-02
2.964000000000000057e+01,3.539850483491942951e-02
2.967999999999999972e+01,2.703578605017516526e-02
2.971999999999999886e+01,2.976138532974459752e-02
2.976000000000000156e+01,2.722798798271553605e-02
2.980000000000000071e+01,2.880957965144156571e-02
2.983999999999999986e+01,4.342287841679592919e-02
2.987999999999999901e+01,3.757303603235592065e-02
2.992000000000000171e+01,4.006790950338704610e-02
2.996000000000000085e+01,1.684106613161613988e-02
3.000000000000000000e+01,3.168133137555021600e-02
3.003999999999999915e+01,3.154566873548454026e-02
3.007999999999999829e+01,1.849178287008816299e-02
3.012000000000000099e+01,2.338523481128783332e-02
3.016000000000000014e+01,3.216504767557274574e-02
3.019999999999999929e+01,2.574030140314896922e-02
3.023999999999999844e+01,3.200431787632147113e-02
3.028000000000000114e+01,1.917700220421853993e-02
3.032000000000000028e+01,3.469986452242710545e-02
3.035999999999999943e+01,2.472965009865191882e-02
3.039999999999999858e+01,2.584776448332330029e-02
3.044000000000000128e+01,2.559366725811129673e-02
3.048000000000000043e+01,1.973763411133126755e-02
3.051999999999999957e+01,1.616753111052574368e-02
3.055999999999999872e+01,1.968466828324556481e-02
3.060000000000000142e+01,2.788839156372703923e-02
3.064000000000000057e+01,2.351685113809731317e-02
3.067999999999999972e+01,3.400610132718116796e-02
3.071999999999999886e+01,1.648730887421002295e-02
3.076000000000000156e+01,2.537531422734509712e-02
3.080000000000000071e+01,1.883013614314858405e-02
3.083999999999999986e+01,2.211580802541368573e-02
3.087999999999999901e+01,1.877069829285818101e-02
3.092000000000000171e+01,2.216988375078806847e-02
3.096000000000000085e+01,2.911249210084920075e-02
3.100000000000000000e+01,2.325120865212939106e-02
3.103999999999999915e+01,2.127630003066663736e-02
3.107999999999999829e+01,2.101574595143746241e-02
3.112000000000000099e+01,1.172375935166303229e-02
3.116000000000000014e+01,1.386306423959375068e-02
3.119999999999999929e+01,1.725945800430120011e-02
3.123999999999999844e+01,1.905501901854142477e-02
3.128000000000000114e+01,2.450832487134543131e-02
3.132000000000000028e+01,2.710331344362707298e-02
3.135999999999999943e+01,2.466796445036281357e-02
3.139999999999999858e+01,1.240096912801752667e-02
3.144000000000000128e+01,2.162515606999818041e-02
3.148000000000000043e+01,2.250381752172439173e-02
3.151999999999999957e+01,2.292481955073871758e-02
3.155999999999999872e+01,1.420007912092368860e-02
3.160000000000000142e+01,2.959581196197752853e-02
3.164000000000000057e+01,3.001564219934397745e-02
3.167999999999999972e+01,1.888907717613303935e-02
3.171999999999999886e+01,6.161686986548632269e-03
3.176000000000000156e+01,2.498537046991884669e-02
3.180000000000000071e+01,2.185982356505872595e-02
3.183999999999999986e+01,2.090591077206084905e-02
3.187999999999999901e+01,2.189499894219289200e-02
3.192000000000000171e+01,1.179496320527466911e-02
3.196000000000000085e+01,2.432928685248468212e-02
3.200000000000000000e+01,2.177339669370759526e-02
3.203999999999999915e+01,2.218936203942229596e-02
3.207999999999999829e+01,2.454833150830599067e-02
3.211999999999999744e+01,2.759281993829568527e-02
3.215999999999999659e+01,0.000000000000000000e+00
3.220000000000000284e+01,1.939104088670436446e-02
3.224000000000000199e+01,1.729012589874453359e-02
3.228000000000000114e+01,1.884697154954382767e-02
3.232000000000000028e+01,2.291840956740929039e-02
3.235999999999999943e+01,1.818706843771182233e-02
3.239999999999999858e+01,2.077163033463911082e-02
3.243999999999999773e+01,8.037351596925116845e-03
3.247999999999999687e+01,1.084979325649649759e-02
3.252000000000000313e+01,1.343322507429148098e-02
3.256000000000000227e+01,1.624491524379808802e-02
3.260000000000000142e+01,6.938640237056632395e-03
3.264000000000000057e+01,2.472509408300891179e-02
3.267999999999999972e+01,1.507512070713929592e-02
3.271999999999999886e+01,1.834258304209039278e-02
3.275999999999999801e+01,8.691864496234120302e-03
3.279999999999999716e+01,1.904623012815852973e-02
3.284000000000000341e+01,9.051818269236623984e-03
3.288000000000000256e+01,2.294926612469337657e-02
3.292000000000000171e+01,1.398296616517793675e-02
3.296000000000000085e+01,2.273541510407299515e-02
3.300000000000000000e+01,2.645755238974240725e-02
3.303999999999999915e+01,1.463222474014750328e-02
3.307999999999999829e+01,2.544127417089956517e-02
3.311999999999999744e+01,1.087160735857693218e-02
3.315999999999999659e+01,3.503538690657379863e-03
3.320000000000000284e+01,9.510180879132548032e-03
3.324000000000000199e+01,2.066071844936517160e-02
3.328000000000000114e+01,2.575209677709618464e-02
3.332000000000000028e+01,2.386978137137284531e-02
3.335999999999999943e+01,8.154759441998758046e-03
3.339999999999999858e+01,1.598865477199467450e-02
3.343999999999999773e+01,1.479115423789840490e-02
3.347999999999999687e+01,1.805165153538605682e-02
3.352000000000000313e+01,7.022177275773928973e-03
3.356000000000000227e+01,2.857265714279856941e-02
3.360000000000000142e+01,1.765678114789785702e-02
3.364000000000000057e+01,1.519999667556481797e-02
3.367999999999999972e+01,2.566066308223989220e-02
3.371999999999999886e+01,1.954502328445282752e-02
3.375999999999999801e+01,1.605831549638326791e-02
3.379999999999999716e+01,2.731813072926635166e-02
3.384000000000000341e+01,1.708601536779777094e-02
3.388000000000000256e+01,7.653763666148929480e-03
3.392000000000000171e+01,2.348519079552270281e-02
3.396000000000000085e+01,1.839627367841855515e-02
3.400000000000000000e+01,1.307837010382693031e-02
3.403999999999999915e+01,2.193540889038455427e-02
3.407999999999999829e+01,7.242816847976108613e-03
3.411999999999999744e+01,1.564188587959795124e-02
3.415999999999999659e+01,2.266880207806289127e-02
3.420000000000000284e+01,2.157886954354464037e-02
3.424000000000000199e+01,2.266060904135729429e-02
3.428000000000000114e+01,3.300166840645304273e-02
3.432000000000000028e+01,2.162217098055066802e-02
3.435999999999999943e+01,9.327791443010711656e-03
3.439999999999999858e+01,2.309731655317757981e-02
3.443999999999999773e+01,1.617513878170041483e-02
3.447999999999999687e+01,1.908386848939573957e-02
3.452000000000000313e+01,2.222088751718541075e-02
3.456000000000000227e+01,1.564062703488123054e-02
3.460000000000000142e+01,1.866264214703279925e-02
3.464000000000000057e+01,3.174420104712826624e-02
3.467999999999999972e+01,2.653471555539798493e-02
3.471999999999999886e+01,1.926718473639976378e-02
3.475999999999999801e+01,1.520018617916461291e-02
3.479999999999999716e+01,1.742027655569230657e-02
3.484000000000000341e+01,2.055456265059727242e-02
3.488000000000000256e+01,2.345987619218665651e-02
3.492000000000000171e+01,1.847698615767357985e-02
3.496000000000000085e+01,2.023845514643480420e-02
3.500000000000000000e+01,2.611499531196659687e-02
3.503999999999999915e+01,1.084257451449115867e-02
3.507999999999999829e+01,2.186270288959548183e-02
3.511999999999999744e+01,1.973605389161315476e-02
3.515999999999999659e+01,1.589431718955902975e-02
3.520000000000000284e+01,1.365268323617296713e-02
3.524000000000000199e+01,1.849836340122603534e-02
3.528000000000000114e+01,1.579879634935718938e-02
3.532000000000000028e+01,1.058392588885728736e-02
3.535999999999999943e+01,1.920106797465412699e-02
3.539999999999999858e+01,1.844389449363133607e-02
3.543999999999999773e+01,1.997272889554389461e-02
3.547999999999999687e+01,2.984636700201328402e-02
3.552000000000000313e+01,1.754219971623855248e-02
3.556000000000000227e+01,2.055616771161061090e-02
3.560000000000000142e+01,2.859975148683090856e-02
3.564000000000000057e+01,2.052432695544425048e-02
3.567999999999999972e+01,3.291129966788096384e-02
3.571999999999999886e+01,2.380637149033307601e-02
3.575999999999999801e+01,3.836471475098611472e-02
3.579999999999999716e+01,1.599837818571071130e-02
3.584000000000000341e+01,3.021312293446979866e-02
3.588000000000000256e+01,2.133553285609450165e-02
3.592000000000000171e+01,1.508690891585850145e-02
3.596000000000000085e+01,1.889784961982409958e-02
3.600000000000000000e+01,2.190825101484250581e-02
3.603999999999999915e+01,2.457538129440176369e-02
3.607999999999999829e+01,3.135759981494245369e-02
3.611999999999999744e+01,2.819392969295373211e-02
3.615999999999999659e+01,2.354382144782859315e-02
3.620000000000000284e+01,2.186563443600763809e-02
3.624000000000000199e+01,2.544570709690001376e-02
3.628000000000000114e+01,2.959704755734069229e-02
3.632000000000000028e+01,1.785802423604740743e-02
3.635999999999999943e+01,2.212305017827746051e-02
3.639999999999999858e+01,2.821683161015006366e-02
3.643999999999999773e+01,2.710833482443741893e-02
3.647999999999999687e+01,2.074094758943855615e-02
3.652000000000000313e+01,2.477608451786085172e-02
3.656000000000000227e+01,2.469550116471329326e-02
3.660000000000000142e+01,3.753241482714408245e-02
3.664000000000000057e+01,2.819154079354949799e-02
3.667999999999999972e+01,2.708117253437603358e-02
3.671999999999999886e+01,3.625901470829273610e-02
3.675999999999999801e+01,2.565972577997899587e-02
3.679999999999999716e+01,3.517990112059708047e-02
3.684000000000000341e+01,2.492294662300033325e-02
3.688000000000000256e+01,3.558567589094155381e-02
3.692000000000000171e+01,4.293290879797363735e-02
3.696000000000000085e+01,3.427547114502663139e-02
3.700000000000000000e+01,4.653771915364102174e-02
3.703999999999999915e+01,4.050896005889055573e-02
3.707999999999999829e+01,5.620010612230757346e-02
3.711999999999999744e+01,4.193992352862820072e-02
3.715999999999999659e+01,3.991134545641612102e-02
3.720000000000000284e+01,4.039743685622317754e-02
3.724000000000000199e+01,4.568453616745858648e-02
3.728000000000000114e+01,5.051406706510695732e-02
3.732000000000000028e+01,5.831553689227815529e-02
3.735999999999999943e+01,5.148414516398924085e-02
3.739999999999999858e+01,5.379780570922261529e-02
3.743999999999999773e+01,6.239859690073428639e-02
3.747999999999999687e+01,5.556631020021876588e-02
3.752000000000000313e+01,4.759055753594262222e-02
3.756000000000000227e+01,5.733362645097527660e-02
3.760000000000000142e+01,5.815968212109816349e-02
3.764000000000000057e+01,7.498980727899438870e-02
3.767999999999999972e+01,6.632697135233629748e-02
3.771999999999999886e+01,5.732089085454716154e-02
3.775999999999999801e+01,7.620783833904209992e-02
3.779999999999999716e+01,7.577493871498991451e-02
3.784000000000000341e+01,7.534174708694034439e-02
3.788000000000000256e+01,8.279612952243597945e-02
3.792000000000000171e+01,9.253655902535123934e-02
3.796000000000000085e+01,9.781833969585977673e-02
3.800000000000000000e+01,1.056148024785436429e-01
3.803999999999999915e+01,9.569185840990829250e-02
3.807999999999999829e+01,1.210925452536740360e-01
3.811999999999999744e+01,1.172278205827591430e-01
3.815999999999999659e+01,1.189643365920427243e-01
3.820000000000000284e+01,1.449357470438540352e-01
3.824000000000000199e+01,1.680489495524942756e-01
3.828000000000000114e+01,1.720709463174212861e-01
3.832000000000000028e+01,1.998705718594192549e-01
3.835999999999999943e+01,2.060640213335780679e-01
3.839999999999999858e+01,2.271183833999579071e-01
3.843999999999999773e+01,2.618904897868659654e-01
3.847999999999999687e+01,2.919753217767286357e-01
3.852000000000000313e+01,2.990821775423426199e-01
3.856000000000000227e+01,3.395692846681602761e-01
3.860000000000000142e+01,3.578786350663352711e-01
3.864000000000000057e+01,3.868191769050855489e-01
3.867999999999999972e+01,4.189603129423644656e-01
3.871999999999999886e+01,4.915693500708225860e-01
3.875999999999999801e+01,4.920441519079487014e-01
3.879999999999999716e+01,5.549356990513231169e-01
3.884000000000000341e+01,6.119968085820221004e-01
3.888000000000000256e+01,6.771741417572014754e-01
3.892000000000000171e+01,7.444089040192555240e-01
3.896000000000000085e+01,7.790630782180609781e-01
3.900000000000000000e+01,8.504127005498881564e-01
3.903999999999999915e+01,8.967266508469066144e-01
3.907999999999999829e+01,9.450980327588311969e-01
3.911999999999999744e+01,9.822660876347414360e-01
3.915999999999999659e+01,1.000000000000000000e+00
3.920000000000000284e+01,9.862964969977575658e-01
3.924000000000000199e+01,9.309813760170856378e-01
3.928000000000000114e+01,9.106469542379388438e-01
3.932000000000000028e+01,8.773944552272655573e-01
3.935999999999999943e+01,7.991008334230842447e-01
3.939999999999999858e+01,7.307525137254061720e-01
3.943999999999999773e+01,6.654904833440349332e-01
3.947999999999999687e+01,5.916544200932314368e-01
3.952000000000000313e+01,5.161033380272074256e-01
3.956000000000000227e+01,4.878791837467308934e-01
3.960000000000000142e+01,4.150711780262732464e-01
3.964000000000000057e+01,3.891328337938985693e-01
3.967999999999999972e+01,3.478757633202962940e-01
3.971999999999999886e+01,3.037605082878119811e-01
3.975999999999999801e+01,2.772497927046959076e-01
3.979999999999999716e+01,2.346201345437853025e-01
3.984000000000000341e+01,2.195405865584548200e-01
3.988000000000000256e+01,1.926861390934079543e-01
3.992000000000000171e+01,1.867514234264927575e-01
3.996000000000000085e+01,1.856177586475370178e-01
4.000000000000000000e+01,1.756814354345102303e-01
4.003999999999999915e+01,1.463109836150037479e-01
4.007999999999999829e+01,1.339734918490777249e-01
4.011999999999999744e+01,1.214071103228593351e-01
4.015999999999999659e+01,1.200435287053635142e-01
4.020000000000000284e+01,1.162790376745595627e-01
4.024000000000000199e+01,8.896501314399243854e-02
4.028000000000000114e+01,1.058913717351215034e-01
4.032000000000000028e+01,9.709617717347168719e-02
4.035999999999999943e+01,9.150160335467846795e-02
4.039999999999999858e+01,8.659267932260819589e-02
4.043999999999999773e+01,7.962580034038693744e-02
4.047999999999999687e+01,7.345888929927427147e-02
4.052000000000000313e+01,7.735161495125369990e-02
4.056000000000000227e+01,7.655709907059397856e-02
4.060000000000000142e+01,7.644823613669625428e-02
4.064000000000000057e+01,8.045453349267034371e-02
4.067999999999999972e+01,6.685578260021084185e-02
4.071999999999999886e+01,6.183055198607161074e-02
4.075999999999999801e+01,6.503589161115014283e-02
4.079999999999999716e+01,6.012448678453432421e-02
4.084000000000000341e+01,6.527272370707308535e-02
4.088000000000000256e+01,5.498793645824861381e-02
4.092000000000000171e+01,6.162180564479854267e-02
4.096000000000000085e+01,5.145084923955998979e-02
4.100000000000000000e+01,6.757253554405723284e-02
4.103999999999999915e+01,5.637224360673517148e-02
4.107999999999999829e+01,6.609170179577122939e-02
4.111999999999999744e+01,5.031825325292474393e-02
4.115999999999999659e+01,5.020597914342873197e-02
4.120000000000000284e+01,5.866723289634669797e-02
4.124000000000000199e+01,4.952344724894037348e-02
4.128000000000000114e+01,4.998204274129430802e-02
4.132000000000000028e+01,4.403865535360642486e-02
4.135999999999999943e+01,5.238464287486727794e-02
4.139999999999999858e+01,5.764383860083398259e-02
4.143999999999999773e+01,4.712706833243659327e-02
4.147999999999999687e+01,5.227147755345219055e-02
4.152000000000000313e+01,5.947335694185026944e-02
4.156000000000000227e+01,4.038211831786119727e-02
4.160000000000000142e+01,4.849806700668567172e-02
4.164000000000000057e+01,4.918318585820019573e-02
4.167999999999999972e+01,5.604118545845092336e-02
4.171999999999999886e+01,4.460825190025072967e-02
4.175999999999999801e+01,4.380655907923507869e-02
4.179999999999999716e+01,5.466495964074249286e-02
4.184000000000000341e+01,5.203373833536528714e-02
4.188000000000000256e+01,4.597278214767747812e-02
4.192000000000000171e+01,6.106022313925196093e-02
4.196000000000000085e+01,5.591334762813115339e-02
4.200000000000000000e+01,6.871399762992629057e-02
4.203999999999999915e+01,5.316383317676675463e-02
4.207999999999999829e+01,6.882195478346693485e-02
4.211999999999999744e+01,5.121363691331506235e-02
4.215999999999999659e+01,6.755721173592020568e-02
4.220000000000000284e+01,6.686734677823885642e-02
4.224000000000000199e+01,5.245923249301088359e-02
4.228000000000000114e+01,5.897088729437535704e-02
4.232000000000000028e+01,6.593958843809757941e-02
4.235999999999999943e+01,5.313124696068284580e-02
4.239999999999999858e+01,5.724158530293153857e-02
4.243999999999999773e+01,5.129181796951493011e-02
4.247999999999999687e+01,6.271799928125763868e-02
4.252000000000000313e+01,6.248363971616964496e-02
4.256000000000000227e+01,6.110589382030525568e-02
4.260000000000000142e+01,5.252596703605855871e-02
4.264000000000000057e+01,3.880156402209858357e-02
4.267999999999999972e+01,4.691147153776972084e-02
4.271999999999999886e+01,5.010553786848338104e-02
4.275999999999999801e+01,4.129611644330303394e-02
4.279999999999999716e+01,4.894811359638392284e-02
4.284000000000000341e+01,6.162984092272686537e-02
4.288000000000000256e+01,5.224819603663304751e-02
4.292000000000000171e+01,4.309497319227394846e-02
4.296000000000000085e+01,4.720229852384536656e-02
4.300000000000000000e+01,5.142373027079708003e-02
4.303999999999999915e+01,4.261282667257879075e-02
4.307999999999999829e+01,4.912017717297574582e-02
4.311999999999999744e+01,4.911125634331235668e-02
4.315999999999999659e+01,5.424638763334358599e-02
4.320000000000000284e+01,4.623486921586597576e-02
4.324000000000000199e+01,4.028084814210670939e-02
4.328000000000000114e+01,4.701579584849012450e-02
4.332000000000000028e+01,4.209021531819904377e-02
4.335999999999999943e+01,5.156835818761734691e-02
4.339999999999999858e+01,4.824280518067611268e-02
4.343999999999999773e+01,5.463398433228695145e-02
4.347999999999999687e+01,5.199392625376617755e-02
4.352000000000000313e+01,4.992525036820755213e-02
4.356000000000000227e+01,5.277199914168143741e-02
4.360000000000000142e+01,4.818794904622818870e-02
4.364000000000000057e+01,4.028850876717805785e-02
4.367999999999999972e+01,4.393487468464802453e-02
4.371999999999999886e+01,4.495175302475719337e-02
4.375999999999999801e+01,5.831465705799254023e-02
4.379999999999999716e+01,4.755649938830952550e-02
4.384000000000000341e+01,5.874698746685418083e-02
4.388000000000000256e+01,4.981750626944857901e-02
4.392000000000000171e+01,5.449153908727117496e-02
4.396000000000000085e+01,5.802220769459073835e-02
4.400000000000000000e+01,5.343618241084078374e-02
4.403999999999999915e+01,5.993870145020098461e-02
4.407999999999999829e+01,6.495490750397134305e-02
4.411999999999999744e+01,5.705311216715268363e-02
4.415999999999999659e+01,6.092576439168798791e-02
4.420000000000000284e+01,6.468390821109776256e-02
4.424000000000000199e+01,6.112558016407537709e-02
4.428000000000000114e+01,6.271132193296632962e-02
4.432000000000000028e+01,7.938670361197454339e-02
4.435999999999999943e+01,7.914299652948814101e-02
4.439999999999999858e+01,7.718434773673421567e-02
4.443999999999999773e+01,8.059840506866505772e-02
4.447999999999999687e+01,8.526976110396587705e-02
4.452000000000000313e+01,7.988104432800756383e-02
4.456000000000000227e+01,9.324011174605553731e-02
4.460000000000000142e+01,9.539593871315936446e-02
4.464000000000000057e+01,9.343617306427104419e-02
4.467999999999999972e+01,9.033305458102038055e-02
4.471999999999999886e+01,1.071208917235079439e-01
4.475999999999999801e+01,1.068753295342089737e-01
4.479999999999999716e+01,1.172610561146882058e-01
4.484000000000000341e+01,1.277609181829070517e-01
4.488000000000000256e+01,1.189410450079613629e-01
4.492000000000000171e+01,1.361852426987767983e-01
4.496000000000000085e+01,1.347956077526637764e-01
4.500000000000000000e+01,1.374068850949039244e-01
4.503999999999999915e+01,1.588802711056142292e-01
4.507999999999999829e+01,1.722369802894659907e-01
4.511999999999999744e+01,1.788488159629077201e-01
4.515999999999999659e+01,1.892329326719938143e-01
4.520000000000000284e+01,2.012173101317007162e-01
4.524000000000000199e+01,2.112581253725640262e-01
4.528000000000000114e+01,2.353597436784014008e-01
4.532000000000000028e+01,2.328253527094757414e-01
4.535999999999999943e+01,2.568123071198774032e-01
4.539999999999999858e+01,2.442176840573354046e-01
4.543999999999999773e+01,2.579157738573962799e-01
4.547999999999999687e+01,2.484073636218274150e-01
4.552000000000000313e+01,2.648487168417667514e-01
4.556000000000000227e+01,2.529393112234388230e-01
4.560000000000000142e+01,2.672083041053748831e-01
4.564000000000000057e+01,2.586137501508226633e-01
4.567999999999999972e+01,2.513908307502447648e-01
4.571999999999999886e+01,2.154742043683207375e-01
4.575999999999999801e+01,2.252841672679738727e-01
4.579999999999999716e+01,2.114303676265794629e-01
4.584000000000000341e+01,1.917462409738762696e-01
4.588000000000000256e+01,1.940107923017991842e-01
4.592000000000000171e+01,1.764983572572803305e-01
4.596000000000000085e+01,1.785339467596316898e-01
4.600000000000000000e+01,1.397582433254641043e-01
4.603999999999999915e+01,1.527679287865420787e-01
4.607999999999999829e+01,1.334257724625019237e-01
4.611999999999999744e+01,1.212854190533956267e-01
4.615999999999999659e+01,1.172614043141916029e-01
4.620000000000000284e+01,1.136944972221029387e-01
4.624000000000000199e+01,1.073838254787754937e-01
4.628000000000000114e+01,1.008443613043586151e-01
4.632000000000000028e+01,8.550233855310490627e-02
4.635999999999999943e+01,8.822222709398859497e-02
4.639999999999999858e+01,8.488316369093268365e-02
4.643999999999999773e+01,7.960055702926756294e-02
4.647999999999999687e+01,6.871626724915874673e-02
4.652000000000000313e+01,6.571968804628240679e-02
4.656000000000000227e+01,6.443770797266246131e-02
4.660000000000000142e+01,6.098355338772440404e-02
4.664000000000000057e+01,6.393099170123128783e-02
4.667999999999999972e+01,4.584396985637410188e-02
4.671999999999999886e+01,5.576443445392073595e-02
4.675999999999999801e+01,4.819426375859104522e-02
4.679999999999999716e+01,5.068382898157982458e-02
4.684000000000000341e+01,4.265609048828221395e-02
4.688000000000000256e+01,5.314753906470385397e-02
4.692000000000000171e+01,4.249021438443822962e-02
4.696000000000000085e+01,3.720563564534935808e-02
4.700000000000000000e+01,4.026604262906691850e-02
4.703999999999999915e+01,3.589570509652910413e-02
4.707999999999999829e+01,3.929877009896295958e-02
4.711999999999999744e+01,3.870059856025909878e-02
4.715999999999999659e+01,3.215780397613416525e-02
4.720000000000000284e+01,3.064480845412264828e-02
4.724000000000000199e+01,3.313276061290181679e-02
4.728000000000000114e+01,3.287696455264525752e-02
4.732000000000000028e+01,4.302386329791891423e-02
4.735999999999999943e+01,2.447708097416656514e-02
4.739999999999999858e+01,3.313757760436033400e-02
4.743999999999999773e+01,3.791115963984897225e-02
4.747999999999999687e+01,3.445378587857757940e-02
4.752000000000000313e+01,3.579758245474198852e-02
4.756000000000000227e+01,2.067960839151698760e-02
4.760000000000000142e+01,2.248039630897081739e-02
4.764000000000000057e+01,3.148301115765538005e-02
4.767999999999999972e+01,3.625576453257145504e-02
4.771999999999999886e+01,3.451231925832543013e-02
4.775999999999999801e+01,2.819606310321632128e-02
4.779999999999999716e+01,2.816710128440863201e-02
4.784000000000000341e+01,3.614018778946116728e-02
4.788000000000000256e+01,2.753719182081670533e-02
4.792000000000000171e+01,3.048006904152031002e-02
4.796000000000000085e+01,1.536074547773156988e-02
4.800000000000000000e+01,2.767734412874629096e-02
4.803999999999999915e+01,2.936234113333888521e-02
4.807999999999999829e+01,2.041573712351717196e-02
4.811999999999999744e+01,2.507271348974382530e-02
4.815999999999999659e+01,2.572846974703583284e-02
4.820000000000000284e+01,2.466934433480246977e-02
4.824000000000000199e+01,1.492200757247721769e-02
4.828000000000000114e+01,2.632316847865621978e-02
4.832000000000000028e+01,2.412049301284596367e-02
4.835999999999999943e+01,1.585889657147885115e-02
4.839999999999999858e+01,2.714536322945844404e-02
4.843999999999999773e+01,1.945510156407893182e-02
4.847999999999999687e+01,2.216755303245608946e-02
4.852000000000000313e+01,3.082435954216504459e-02
4.856000000000000227e+01,2.804935438896292987e-02
4.860000000000000142e+01,1.795794625818008736e-02
4.864000000000000057e+01,1.884083824103555474e-02
4.867999999999999972e+01,1.732295479623889231e-02
4.871999999999999886e+01,2.689368961946626141e-02
4.875999999999999801e+01,2.697600307611280543e-02
4.879999999999999716e+01,3.014475373889402565e-02
4.884000000000000341e+01,2.736890790058226636e-02
4.888000000000000256e+01,2.550747961538946812e-02
4.892000000000000171e+01,3.462035586788965447e-02
4.896000000000000085e+01,2.521377957461254371e-02
4.900000000000000000e+01,2.552402328897326877e-02
4.903999999999999915e+01,3.177863026076729880e-02
4.907999999999999829e+01,2.420077908798034041e-02
4.911999999999999744e+01,2.542521469589409389e-02
4.915999999999999659e+01,2.619226959654067863e-02
4.920000000000000284e+01,2.741647954488844394e-02
4.924000000000000199e+01,2.018112772407977540e-02
4.928000000000000114e+01,3.558040894678152904e-02
4.932000000000000028e+01,2.685871568364285242e-02
4.935999999999999943e+01,2.545319341844082262e-02
4.939999999999999858e+01,2.381892801875861582e-02
4.943999999999999773e+01,3.487372872842200988e-02
4.947999999999999687e+01,3.221039450395255660e-02
4.952000000000000313e+01,2.451700964548346115e-02
4.956000000000000227e+01,1.842395442648657108e-02
4.960000000000000142e+01,2.113319357228409662e-02
4.964000000000000057e+01,3.047270679785255704e-02
4.967999999999999972e+01,2.883769361820891566e-02
4.971999999999999886e+01,2.091514717053390149e-02
4.975999999999999801e+01,2.728210835344793347e-02
4.979999999999999716e+01,2.610405173827539185e-02
4.984000000000000341e+01,2.606906162514947486e-02
4.988000000000000256e+01,2.134697723720438770e-02
4.992000000000000171e+01,2.096883354568350108e-02
4.996000000000000085e+01,2.424872984037420437e-02
5.000000000000000000e+01,2.638535735774132085e-02
5.003999999999999915e+01,2.257740733424974666e-02
5.007999999999999829e+01,2.505678767150480712e-02
5.011999999999999744e+01,2.890787271560130156e-02
5.015999999999999659e+01,2.898640303189384607e-02
5.020000000000000284e+01,3.112254066126385332e-02
5.024000000000000199e+01,2.411323097945226521e-02
5.028000000000000114e+01,2.224808591472565017e-02
5.032000000000000028e+01,2.792776079686333165e-02
5.035999999999999943e+01,1.291598433646573563e-02
5.039999999999999858e+01,1.505164787803391080e-02
5.043999999999999773e+01,2.210284478397817054e-02
5.047999999999999687e+01,2.069449951300812718e-02
5.052000000000000313e+01,2.065786526895760714e-02
5.056000000000000227e+01,1.753458395940169640e-02
5.060000000000000142e+01,1.681186695411153800e-02
5.064000000000000057e+01,2.649189721099993317e-02
5.067999999999999972e+01,2.656921954731231855e-02
5.071999999999999886e+01,2.390284801726082556e-02
5.075999999999999801e+01,2.146502240247498763e-02
5.079999999999999716e+01,2.074186290977357919e-02
5.084000000000000341e+01,1.921839858302286722e-02
5.088000000000000256e+01,2.329637591495454380e-02
5.092000000000000171e+01,1.960071936427827330e-02
5.096000000000000085e+01,2.002038616148915651e-02
5.100000000000000000e+01,2.043996888527242761e-02
5.103999999999999915e+01,1.480067297802222653e-02
5.107999999999999829e+01,1.933549750429631661e-02
5.111999999999999744e+01,2.375592296279619917e-02
5.115999999999999659e+01,2.383222504183708096e-02
5.120000000000000284e+01,2.287959419415878937e-02
5.124000000000000199e+01,2.089803105176915587e-02
5.128000000000000114e+01,1.765890246593586344e-02
5.132000000000000028e+01,1.933532114865046947e-02
5.135999999999999943e+01,2.238346413044868186e-02
5.139999999999999858e+01,2.314519155149599369e-02
5.143999999999999773e+01,2.424979252231185267e-02
5.147999999999999687e+01,2.512568322305376578e-02
5.152000000000000313e+01,2.108587178055658373e-02
5.156000000000000227e+01,2.401931542531546629e-02
5.160000000000000142e+01,2.386612843677206330e-02
5.164000000000000057e+01,2.565625462321723463e-02
5.167999999999999972e+01,1.670051978558101738e-02
5.171999999999999886e+01,2.077683775284584061e-02
5.175999999999999801e+01,2.633920322964237656e-02
5.179999999999999716e+01,2.892925812354575285e-02
5.184000000000000341e+01,2.671793282064266820e-02
5.188000000000000256e+01,1.924796039146055987e-02
5.192000000000000171e+01,1.943715007982523349e-02
5.196000000000000085e+01,9.566384510383645762e-03
5.200000000000000000e+01,2.736023813726674511e-02
5.203999999999999915e+01,2.960692703259577493e-02
5.207999999999999829e+01,2.670928885205498329e-02
5.211999999999999744e+01,2.003912691209302696e-02
5.215999999999999659e+01,2.079949710098455418e-02
5.220000000000000284e+01,2.453204132630466480e-02
5.224000000000000199e+01,2.129119075786506735e-02
5.228000000000000114e+01,2.319453640690100418e-02
5.232000000000000028e+01,1.743858718397239480e-02
5.235999999999999943e+01,2.574355289140044939e-02
5.239999999999999858e+01,3.039031615383207263e-02
5.243999999999999773e+01,2.874958912476342429e-02
5.247999999999999687e+01,2.539404805100515389e-02
5.252000000000000313e+01,2.352456649492707871e-02
5.256000000000000227e+01,2.062617350039537556e-02
5.260000000000000142e+01,2.001405952014995854e-02
5.264000000000000057e+01,1.883030292694689786e-02
5.267999999999999972e+01,2.782069204758053430e-02
5.271999999999999886e+01,1.749146979858061390e-02
5.275999999999999801e+01,2.316655593630660356e-02
5.279999999999999716e+01,2.141098856690200336e-02
5.284000000000000341e+01,1.828356351198825655e-02
5.288000000000000256e+01,2.933137849390276414e-02
5.292000000000000171e+01,2.346023996399426020e-02
5.296000000000000085e+01,2.216172394384368499e-02
5.300000000000000000e+01,2.257790880620714688e-02
5.303999999999999915e+01,2.150792225273051236e-02
5.307999999999999829e+01,1.757996223098070784e-02
5.311999999999999744e+01,2.622680957292499934e-02
5.315999999999999659e+01,2.218443213878576459e-02
5.320000000000000284e+01,1.711315337831791766e-02
5.324000000000000199e+01,2.061559271461513645e-02
5.328000000000000114e+01,2.251754753674905379e-02
5.332000000000000028e+01,2.567694073597924162e-02
5.335999999999999943e+01,2.220590750877858913e-02
5.339999999999999858e+01,2.433635575675246326e-02
5.343999999999999773e+01,2.212271664971258642e-02
5.347999999999999687e+01,2.562487717223290579e-02
5.352000000000000313e+01,2.318251513857410781e-02
5.356000000000000227e+01,2.348371484886933175e-02
5.360000000000000142e+01,1.452520344626901175e-02
5.364000000000000057e+01,1.997057786938546617e-02
5.367999999999999972e+01,2.301525586582620422e-02
5.371999999999999886e+01,2.960371636684271807e-02
5.375999999999999801e+01,3.367716481482908170e-02
5.379999999999999716e+01,2.849090530995892004e-02
5.384000000000000341e+01,2.147553635829470287e-02
5.388000000000000256e+01,2.577750098440219004e-02
5.392000000000000171e+01,2.402063248403859055e-02
5.396000000000000085e+01,1.826263551587303108e-02
5.400000000000000000e+01,1.936361529706989368e-02
5.403999999999999915e+01,2.560881910408595655e-02
5.407999999999999829e+01,2.248000249193016914e-02
5.411999999999999744e+01,2.209475647183775648e-02
5.415999999999999659e+01,2.753963771580839742e-02
5.420000000000000284e+01,3.378470367956684650e-02
5.424000000000000199e+01,2.894099839663363469e-02
5.428000000000000114e+01,2.764108446638549599e-02
5.432000000000000028e+01,2.039666062011444639e-02
5.435999999999999943e+01,3.121427446754305307e-02
5.439999999999999858e+01,2.385547239336684860e-02
5.443999999999999773e+01,3.410144171542562469e-02
5.447999999999999687e+01,2.342739101101354651e-02
5.452000000000000313e+01,2.418500088686829225e-02
5.456000000000000227e+01,1.671176683134557861e-02
5.460000000000000142e+01,2.284221553713664324e-02
5.464000000000000057e+01,2.085613846593596665e-02
5.467999999999999972e+01,2.698653468230126709e-02
5.471999999999999886e+01,2.271406857828908721e-02
5.475999999999999801e+01,2.095654939772511813e-02
5.479999999999999716e+01,2.171397777261711501e-02
5.484000000000000341e+01,3.104514952458666335e-02
5.488000000000000256e+01,3.054504593606031937e-02
5.492000000000000171e+01,3.541781405826514156e-02
5.496000000000000085e+01,2.691548450251746855e-02
5.500000000000000000e+01,1.784154962227298830e-02
5.503999999999999915e+01,2.225698756505814502e-02
5.507999999999999829e+01,2.884442681624374213e-02
5.511999999999999744e+01,2.171382024639790728e-02
5.515999999999999659e+01,2.807258839560514488e-02
5.520000000000000284e+01,2.437145247963877492e-02
5.524000000000000199e+01,2.341390485195446805e-02
5.528000000000000114e+01,2.177043943345798038e-02
5.532000000000000028e+01,3.110137967390420172e-02
5.535999999999999943e+01,2.259886983204333066e-02
5.539999999999999858e+01,2.392759800944011667e-02
5.543999999999999773e+01,3.588778307069290935e-02
5.547999999999999687e+01,2.784249902863067047e-02
5.552000000000000313e+01,2.814233532703860549e-02
5.556000000000000227e+01,2.809920892979925200e-02
5.560000000000000142e+01,3.205716230298300690e-02
5.564000000000000057e+01,2.298297941345728290e-02
5.567999999999999972e+01,2.991315104722774842e-02
5.571999999999999886e+01,2.438277213415463579e-02
5.575999999999999801e+01,2.433959509434684837e-02
5.579999999999999716e+01,3.206995836721356075e-02
5.584000000000000341e+01,2.573933652407923989e-02
5.588000000000000256e+01,2.832542516133574814e-02
5.592000000000000171e+01,3.125445813323562971e-02
5.596000000000000085e+01,3.429780229104661959e-02
5.600000000000000000e+01,3.013917728309198005e-02
5.603999999999999915e+01,2.563759716358371410e-02
5.607999999999999829e+01,2.582300574081280650e-02
5.611999999999999744e+01,3.092403742752710197e-02
5.615999999999999659e+01,3.168102473575881012e-02
5.620000000000000284e+01,2.877986963973614906e-02
5.624000000000000199e+01,2.816505107071053463e-02
5.628000000000000114e+01,2.732159807254826503e-02
5.632000000000000028e+01,3.070787000168988604e-02
5.635999999999999943e+01,3.535162834052139880e-02
5.639999999999999858e+01,3.359364206625589655e-02
5.643999999999999773e+01,2.989227053533390771e-02
5.647999999999999687e+01,3.064926024048722497e-02
5.652000000000000313e+01,2.843401393966903806e-02
5.656000000000000227e+01,2.930532745450090126e-02
5.660000000000000142e+01,2.949074403477836698e-02
5.664000000000000057e+01,2.761846162806829916e-02
5.667999999999999972e+01,3.306246587672434512e-02
5.671999999999999886e+01,2.993270965131450759e-02
5.675999999999999801e+01,3.114700219566458525e-02
5.679999999999999716e+01,2.973201382920805103e-02
5.684000000000000341e+01,3.128927281208616906e-02
5.688000000000000256e+01,3.204632239409448830e-02
5.692000000000000171e+01,2.743048759243792503e-02
5.696000000000000085e+01,3.207433100649333818e-02
5.700000000000000000e+01,3.065938995867913477e-02
5.703999999999999915e+01,3.130216429727804978e-02
5.707999999999999829e+01,2.188506427507050031e-02
5.711999999999999744e+01,2.995846110325120493e-02
5.715999999999999659e+01,3.345919557240446818e-02
5.720000000000000284e+01,3.513087368341970967e-02
5.724000000000000199e+01,3.142967246683260607e-02
5.728000000000000114e+01,2.704258505982384819e-02
5.732000000000000028e+01,3.054337887215649236e-02
5.735999999999999943e+01,3.027173171809119726e-02
5.739999999999999858e+01,2.679922868148616050e-02
5.743999999999999773e+01,4.218903023577268152e-02
5.747999999999999687e+01,3.837361251972522258e-02
5.752000000000000313e+01,3.432957996678329821e-02
5.756000000000000227e+01,3.028556698969476352e-02
5.760000000000000142e+01,4.007391795524595929e-02
5.764000000000000057e+01,3.568699535477755369e-02
5.767999999999999972e+01,3.095714355507579729e-02
5.771999999999999886e+01,3.079998947406149476e-02
5.775999999999999801e+01,4.081706137187596228e-02
5.779999999999999716e+01,2.694192655024609320e-02
5.784000000000000341e+01,3.615882758327846475e-02
5.788000000000000256e+01,3.737357092232185263e-02
5.792000000000000171e+01,3.481588214307670265e-02
5.796000000000000085e+01,3.260116993087326664e-02
5.800000000000000000e+01,3.027216735623913108e-02
5.803999999999999915e+01,3.480220536375637497e-02
5.807999999999999829e+01,2.824353279733184119e-02
5.811999999999999744e+01,2.877253585781440123e-02
5.815999999999999659e+01,4.016167255942424547e-02
5.820000000000000284e+01,3.417467161276185189e-02
5.824000000000000199e+01,3.447512995643951805e-02
5.828000000000000114e+01,3.511856992322143212e-02
5.832000000000000028e+01,3.073209829772213450e-02
5.835999999999999943e+01,3.457647499487750964e-02
5.839999999999999858e+01,2.676056172230322633e-02
5.843999999999999773e+01,3.220544121268233140e-02
5.847999999999999687e+01,3.570696767880337380e-02
5.852000000000000313e+01,3.623628973934345937e-02
5.856000000000000227e+01,4.099537211962487465e-02
5.860000000000000142e+01,3.763799129168786395e-02
5.864000000000000057e+01,3.107977417345318683e-02
5.867999999999999972e+01,3.458148067985682139e-02
5.871999999999999886e+01,3.339623258516757898e-02
5.875999999999999801e+01,3.243965680730621221e-02
5.879999999999999716e+01,3.422672556642212399e-02
5.884000000000000341e+01,4.001492528859387082e-02
5.888000000000000256e+01,3.871551823993249486e-02
5.892000000000000171e+01,4.073134207612214702e-02
5.896000000000000085e+01,3.177278613291188020e-02
5.900000000000000000e+01,3.367437710299296671e-02
5.903999999999999915e+01,3.763371505987769816e-02
5.907999999999999829e+01,3.484840007707858123e-02
5.911999999999999744e+01,3.446378401620902449e-02
5.915999999999999659e+01,4.036664178185917634e-02
5.920000000000000284e+01,3.803872892903797237e-02
5.924000000000000199e+01,3.468201018306767136e-02
5.928000000000000114e+01,3.441189422927853209e-02
5.932000000000000028e+01,3.677111413819813407e-02
5.935999999999999943e+01,3.192841797000826182e-02
5.939999999999999858e+01,3.245866429742447212e-02
5.943999999999999773e+01,4.041955777911575287e-02
5.947999999999999687e+01,3.511974189010726166e-02
5.952000000000000313e+01,3.885101088457054014e-02
5.956000000000000227e+01,3.583763452344362194e-02
5.960000000000000142e+01,3.682540113352098660e-02
5.964000000000000057e+01,3.872775530681855233e-02
5.967999999999999972e+01,4.291650035978490652e-02
5.971999999999999886e+01,4.367579240592438239e-02
5.975999999999999801e+01,3.654727335281206246e-02
5.979999999999999716e+01,4.382273745461948838e-02
5.984000000000000341e+01,3.806613165453753833e-02
5.988000000000000256e+01,3.025187806010086466e-02
5.992000000000000171e+01,3.798477842030797968e-02
5.996000000000000085e+01,3.885872285463296688e-02
