2.003999999999999915e+01,6.852020779699030673e-02
2.007999999999999829e+01,1.060873992457246617e-01
2.012000000000000099e+01,8.461332138611159237e-02
2.016000000000000014e+01,8.802614670104107197e-02
2.019999999999999929e+01,2.660955388009938680e-02
2.023999999999999844e+01,9.079367159936968523e-02
2.028000000000000114e+01,1.023034867138720161e-01
2.032000000000000028e+01,1.421730968099216286e-01
2.035999999999999943e+01,1.085310660115820225e-01
2.039999999999999858e+01,1.206132805396904484e-01
2.044000000000000128e+01,8.523052920797392906e-02
2.048000000000000043e+01,1.430348524717749703e-01
2.051999999999999957e+01,8.796811817918748222e-02
2.055999999999999872e+01,1.382435740132202107e-01
2.060000000000000142e+01,1.462634007323702634e-01
2.064000000000000057e+01,1.606480570815431996e-01
2.067999999999999972e+01,1.044151512951711908e-01
2.071999999999999886e+01,9.101241980098327689e-02
2.076000000000000156e+01,9.149911411621836077e-02
2.080000000000000071e+01,9.661419505468871183e-02
2.083999999999999986e+01,3.747868056117884678e-02
2.087999999999999901e+01,1.224659636704111820e-01
2.092000000000000171e+01,6.274737018901666019e-02
2.096000000000000085e+01,1.170531963517681406e-01
2.100000000000000000e+01,2.954722178601973046e-02
2.103999999999999915e+01,9.889797629899911569e-02
2.107999999999999829e+01,1.549338564560782394e-01
2.112000000000000099e+01,8.825883165027648136e-02
2.116000000000000014e+01,1.923320968750241999e-01
2.119999999999999929e+01,1.227587399231017812e-01
2.123999999999999844e+01,3.118828585675998549e-02
2.128000000000000114e+01,1.555136916555783511e-01
2.132000000000000028e+01,8.940684232606886661e-02
2.135999999999999943e+01,1.465854571375423132e-01
2.139999999999999858e+01,8.163198534495051673e-02
2.144000000000000128e+01,8.729181554161978551e-02
2.148000000000000043e+01,1.085775251757978704e-01
2.151999999999999957e+01,2.278033911635358663e-02
2.155999999999999872e+01,1.193077475015387051e-01
2.160000000000000142e+01,6.591995268966514832e-02
2.164000000000000057e+01,7.156916269476540360e-02
2.167999999999999972e+01,9.284425455130532190e-02
2.171999999999999886e+01,1.309028587006935973e-01
2.176000000000000156e+01,7.287605466008437172e-02
2.180000000000000071e+01,7.793796222277050989e-02
2.183999999999999986e+01,8.184011916802454156e-02
2.187999999999999901e+01,1.071563101717595973e-01
2.192000000000000171e+01,1.104754122684412920e-01
2.196000000000000085e+01,1.386814392650415895e-01
2.200000000000000000e+01,1.518361580718931292e-01
2.203999999999999915e+01,1.053708157648392124e-01
2.207999999999999829e+01,1.370433779026687948e-01
2.212000000000000099e+01,1.270391442508048141e-01
2.216000000000000014e+01,1.378701330576139750e-01
2.219999999999999929e+01,1.226523314816979210e-01
2.223999999999999844e+01,7.038825539893404926e-02
2.228000000000000114e+01,8.352815663014440117e-02
2.232000000000000028e+01,1.285007668580809004e-01
2.235999999999999943e+01,6.523286157228400106e-02
2.239999999999999858e+01,1.200410981661153426e-01
2.244000000000000128e+01,1.435912124601392004e-01
2.248000000000000043e+01,9.362971144744494656e-02
2.251999999999999957e+01,6.103054736263471142e-02
2.255999999999999872e+01,1.320371526058236322e-01
2.260000000000000142e+01,1.428448885148042580e-01
2.264000000000000057e+01,1.328131741655067255e-01
2.267999999999999972e+01,1.065725298752036310e-01
2.271999999999999886e+01,1.335807536439936882e-01
2.276000000000000156e+01,1.362766387269986335e-01
2.280000000000000071e+01,7.530076701386066718e-02
2.283999999999999986e+01,6.525850489093061590e-02
2.287999999999999901e+01,7.663028889613753003e-02
2.292000000000000171e+01,8.279063046396528680e-02
2.296000000000000085e+01,4.206485156681183391e-02
2.300000000000000000e+01,9.626262261864244885e-02
2.303999999999999915e+01,9.836493935726689508e-02
2.307999999999999829e+01,4.142602251373964095e-02
2.312000000000000099e+01,1.558142343365984117e-01
2.316000000000000014e+01,1.208660767703722549e-01
2.319999999999999929e+01,1.148565639256158150e-01
2.323999999999999844e+01,7.643130847815515772e-02
2.328000000000000114e+01,9.646426266259396087e-02
2.332000000000000028e+01,1.462367769258971113e-02
2.335999999999999943e+01,1.538883125064291757e-01
2.339999999999999858e+01,1.160334618209767216e-01
2.344000000000000128e+01,1.325851178433918309e-01
2.348000000000000043e+01,1.039871046149801609e-01
2.351999999999999957e+01,2.438221499842626872e-01
2.355999999999999872e+01,1.503926587922375657e-01
2.360000000000000142e+01,1.345222754116625341e-01
2.364000000000000057e+01,1.336989825597429959e-01
2.367999999999999972e+01,1.351888511744244736e-01
2.371999999999999886e+01,7.937393886946743360e-02
2.376000000000000156e+01,9.996050634848320515e-02
2.380000000000000071e+01,6.903044366654179087e-02
2.383999999999999986e+01,1.619646900376429388e-01
2.387999999999999901e+01,9.224983118566007501e-02
2.392000000000000171e+01,1.388746876212500758e-01
2.396000000000000085e+01,1.449804004339358687e-01
2.400000000000000000e+01,1.510840186582683431e-01
2.403999999999999915e+01,9.814641488731989938e-02
2.407999999999999829e+01,1.117704401143488624e-01
2.412000000000000099e+01,1.045550329461899658e-01
2.416000000000000014e+01,9.791634810013431778e-02
2.419999999999999929e+01,1.462629941141962153e-01
2.423999999999999844e+01,1.459870901745044802e-01
2.428000000000000114e+01,1.572853946121826052e-01
2.432000000000000028e+01,1.384832293996295371e-01
2.435999999999999943e+01,5.774577115753059403e-02
2.439999999999999858e+01,1.008726287274806788e-01
2.444000000000000128e+01,2.192433443301483320e-01
2.448000000000000043e+01,1.043495344755924342e-01
2.451999999999999957e+01,1.127412269021339786e-01
2.455999999999999872e+01,8.350785784411958457e-02
2.460000000000000142e+01,1.185208641430599424e-01
2.464000000000000057e+01,1.512165236609840924e-01
2.467999999999999972e+01,1.474447531013330648e-01
2.471999999999999886e+01,1.587200861055660661e-01
2.476000000000000156e+01,8.548634671498925308e-02
2.480000000000000071e+01,1.193312935643069811e-01
2.483999999999999986e+01,7.677057869474045171e-02
2.487999999999999901e+01,2.043793837755329690e-01
2.492000000000000171e+01,9.930248368906174905e-02
2.496000000000000085e+01,1.325602806564207814e-01
2.500000000000000000e+01,1.079344971739901460e-01
2.503999999999999915e+01,1.504491692557180516e-01
2.507999999999999829e+01,1.165581825152782053e-01
2.512000000000000099e+01,1.758543263735612150e-01
2.516000000000000014e+01,1.130184290096863248e-01
2.519999999999999929e+01,1.398967733342406372e-01
2.523999999999999844e+01,1.059974652091679459e-01
2.528000000000000114e+01,1.247682410621975824e-01
2.532000000000000028e+01,1.128597443553416291e-01
2.535999999999999943e+01,1.073161342472856994e-01
2.539999999999999858e+01,1.665977241312206758e-01
2.544000000000000128e+01,1.541041793725522469e-01
2.548000000000000043e+01,1.427661878472440138e-01
2.551999999999999957e+01,8.859381161045180864e-02
2.555999999999999872e+01,1.507611704554684406e-01
2.560000000000000142e+01,1.058456828510597608e-01
2.564000000000000057e+01,7.771375485255152538e-02
2.567999999999999972e+01,1.659215633842109072e-01
2.571999999999999886e+01,1.927729102803673045e-01
2.576000000000000156e+01,2.144128490169678602e-01
2.580000000000000071e+01,9.134697006286363052e-02
2.583999999999999986e+01,1.014064639700892473e-01
2.587999999999999901e+01,1.919191681041353958e-01
2.592000000000000171e+01,1.788219195269118711e-01
2.596000000000000085e+01,1.107351769833237465e-01
2.600000000000000000e+01,1.416237254528642797e-01
2.603999999999999915e+01,1.227321157354116787e-01
2.607999999999999829e+01,2.074463178311478084e-01
2.612000000000000099e+01,1.885505696295456390e-01
2.616000000000000014e+01,1.632857881376281461e-01
2.619999999999999929e+01,4.772380183809626919e-02
2.623999999999999844e+01,1.723679644002793221e-01
2.628000000000000114e+01,9.153074223754430194e-02
2.632000000000000028e+01,1.600257181502798831e-01
2.635999999999999943e+01,1.550091255865634898e-01
2.639999999999999858e+01,1.129463087257694537e-01
2.644000000000000128e+01,1.513367088508036640e-01
2.648000000000000043e+01,1.156367269684333565e-01
2.651999999999999957e+01,1.904883419616326956e-01
2.655999999999999872e+01,1.605723820095201759e-01
2.660000000000000142e+01,2.006909713467842082e-01
2.664000000000000057e+01,1.586157708974360037e-01
2.667999999999999972e+01,1.090139134753712463e-01
2.671999999999999886e+01,8.545666836341141159e-02
2.676000000000000156e+01,1.585594635202756120e-01
2.680000000000000071e+01,1.708846250561769919e-01
2.683999999999999986e+01,2.098332153298521630e-01
2.687999999999999901e+01,1.347531948515312550e-01
2.692000000000000171e+01,1.239195777317673303e-01
2.696000000000000085e+01,1.136627167291440754e-01
2.700000000000000000e+01,1.444996608782136149e-01
2.703999999999999915e+01,1.851744017789710706e-01
2.707999999999999829e+01,1.859088516934627733e-01
2.712000000000000099e+01,1.495970860010297498e-01
2.716000000000000014e+01,1.566943873086776851e-01
2.719999999999999929e+01,9.664709505080498753e-02
2.723999999999999844e+01,1.911413467862847770e-01
2.728000000000000114e+01,2.011265565424886492e-01
2.732000000000000028e+01,1.891147425677828231e-01
2.735999999999999943e+01,2.749206060623169412e-01
2.739999999999999858e+01,2.131265962810420245e-01
2.744000000000000128e+01,1.432271237206790560e-01
2.748000000000000043e+01,1.827216296641332449e-01
2.751999999999999957e+01,2.326327531320216413e-01
2.755999999999999872e+01,2.049806177518690431e-01
2.760000000000000142e+01,2.051095502410505977e-01
2.764000000000000057e+01,2.596450401306562572e-01
2.767999999999999972e+01,2.117282285102090877e-01
2.771999999999999886e+01,2.500527991178595477e-01
2.776000000000000156e+01,2.507523468638541697e-01
2.780000000000000071e+01,2.323489515689293738e-01
2.783999999999999986e+01,3.030810148470156062e-01
2.787999999999999901e+01,2.788853737600220928e-01
2.792000000000000171e+01,3.015716987219144163e-01
2.796000000000000085e+01,2.316455802015433829e-01
2.800000000000000000e+01,2.763227812750096435e-01
2.803999999999999915e+01,2.613799936525080247e-01
2.807999999999999829e+01,2.672724999410455160e-01
2.812000000000000099e+01,2.789511111613228733e-01
2.816000000000000014e+01,3.768711099203473358e-01
2.819999999999999929e+01,3.086691657213368467e-01
2.823999999999999844e+01,3.243933501094016236e-01
2.828000000000000114e+01,3.603740158431255058e-01
2.832000000000000028e+01,3.170549869638141227e-01
2.835999999999999943e+01,3.061475549612632241e-01
2.839999999999999858e+01,3.288093502768815179e-01
2.844000000000000128e+01,3.572572543865302208e-01
2.848000000000000043e+01,3.637081487660708268e-01
2.851999999999999957e+01,3.852061925741891435e-01
2.855999999999999872e+01,2.521585973555686144e-01
2.860000000000000142e+01,3.130119811381765760e-01
2.864000000000000057e+01,3.292945729286949064e-01
2.867999999999999972e+01,2.986911132926663992e-01
2.871999999999999886e+01,3.196001491957359275e-01
2.876000000000000156e+01,2.843620949688558941e-01
2.880000000000000071e+01,3.376806959225459592e-01
2.883999999999999986e+01,2.688673000704130955e-01
2.887999999999999901e+01,2.839800405299352515e-01
2.892000000000000171e+01,3.205069000183180528e-01
2.896000000000000085e+01,3.049383766458591549e-01
2.900000000000000000e+01,2.476931405229418903e-01
2.903999999999999915e+01,2.853715272497322486e-01
2.907999999999999829e+01,3.097351361778726275e-01
2.912000000000000099e+01,2.796881042590723676e-01
2.916000000000000014e+01,2.073855465416478694e-01
2.919999999999999929e+01,2.647355123637318286e-01
2.923999999999999844e+01,2.809875833113861798e-01
2.928000000000000114e+01,2.966588084191614794e-01
2.932000000000000028e+01,2.075624918938771823e-01
2.935999999999999943e+01,1.786609033219342113e-01
2.939999999999999858e+01,2.452617569240864714e-01
2.944000000000000128e+01,2.493485638312353259e-01
2.948000000000000043e+01,2.094434038641169726e-01
2.951999999999999957e+01,2.494126830780573623e-01
2.955999999999999872e+01,2.835917850178246158e-01
2.960000000000000142e+01,2.020058640971272579e-01
2.964000000000000057e+01,2.130283133506878923e-01
2.967999999999999972e+01,1.123374455645335668e-01
2.971999999999999886e+01,2.315942443666145767e-01
2.976000000000000156e+01,2.281402424876454449e-01
2.980000000000000071e+01,2.275782909208846350e-01
2.983999999999999986e+01,1.888125266180420148e-01
2.987999999999999901e+01,1.946134921033672582e-01
2.992000000000000171e+01,1.975183595561504080e-01
2.996000000000000085e+01,1.882660897902024844e-01
3.000000000000000000e+01,1.905880974400580574e-01
3.003999999999999915e+01,1.923292684229737926e-01
3.007999999999999829e+01,1.911743433044925389e-01
3.012000000000000099e+01,1.917538424018875032e-01
3.016000000000000014e+01,1.228735237427003441e-01
3.019999999999999929e+01,1.280795026788288660e-01
3.023999999999999844e+01,1.251800526309064798e-01
3.028000000000000114e+01,1.205421388541399602e-01
3.032000000000000028e+01,1.268996913761561429e-01
3.035999999999999943e+01,1.865062041694392492e-01
3.039999999999999858e+01,2.021207611925388281e-01
3.044000000000000128e+01,1.928442572455020265e-01
3.048000000000000043e+01,1.222113491145260383e-01
3.051999999999999957e+01,1.036697732273401951e-01
3.055999999999999872e+01,1.105940410184278744e-01
3.060000000000000142e+01,1.157798489429613387e-01
3.064000000000000057e+01,8.276185378713789287e-02
3.067999999999999972e+01,1.417734263787040205e-01
3.071999999999999886e+01,1.081725888002583735e-01
3.076000000000000156e+01,1.081410070243703225e-01
3.080000000000000071e+01,5.832932451305205407e-02
3.083999999999999986e+01,9.302261694922585311e-02
3.087999999999999901e+01,1.282927128155932905e-01
3.092000000000000171e+01,2.266516303605209115e-01
3.096000000000000085e+01,1.646767880527748584e-01
3.100000000000000000e+01,9.980586074771535809e-02
3.103999999999999915e+01,1.385408051213402880e-01
3.107999999999999829e+01,9.681845823555922104e-02
3.112000000000000099e+01,1.233942702560679450e-01
3.116000000000000014e+01,9.150776119655848473e-02
3.119999999999999929e+01,1.140278525054492925e-01
3.123999999999999844e+01,6.361524921712123637e-02
3.128000000000000114e+01,1.029169610007325403e-01
3.132000000000000028e+01,8.549279857340358335e-02
3.135999999999999943e+01,1.108989388594009418e-01
3.139999999999999858e+01,1.195174394724848460e-01
3.144000000000000128e+01,1.009296312678448215e-01
3.148000000000000043e+01,4.587447505929222874e-02
3.151999999999999957e+01,1.366786898125570138e-01
3.155999999999999872e+01,1.122967203411949083e-01
3.160000000000000142e+01,1.434789860247170923e-01
3.164000000000000057e+01,1.335633858009840358e-01
3.167999999999999972e+01,6.750073069069824350e-02
3.171999999999999886e+01,1.299329995768328250e-01
3.176000000000000156e+01,1.124868003902387559e-01
3.180000000000000071e+01,8.982926594481231708e-02
3.183999999999999986e+01,7.122143639231484635e-02
3.187999999999999901e+01,1.122295502293821079e-01
3.192000000000000171e+01,1.393441055663117156e-01
3.196000000000000085e+01,1.247819838789652608e-01
3.200000000000000000e+01,9.458985971912116375e-02
3.203999999999999915e+01,1.182255310868772918e-01
3.207999999999999829e+01,1.216006811132207543e-01
3.211999999999999744e+01,1.064517552188704863e-01
3.215999999999999659e+01,1.300814368383949593e-01
3.220000000000000284e+01,1.467633430890169510e-01
3.224000000000000199e+01,1.101922761086479990e-01
3.228000000000000114e+01,1.083481132353360937e-01
3.232000000000000028e+01,0.000000000000000000e+00
3.235999999999999943e+01,9.770802571332953823e-02
3.239999999999999858e+01,1.456359700026788051e-01
3.243999999999999773e+01,1.825644369646663157e-01
3.247999999999999687e+01,1.673975635510024096e-01
3.252000000000000313e+01,5.267252194097665069e-02
3.256000000000000227e+01,6.123307965208439618e-02
3.260000000000000142e+01,6.284586682215206888e-02
3.264000000000000057e+01,1.478060207064713916e-01
3.267999999999999972e+01,4.812220636686696112e-02
3.271999999999999886e+01,3.525864958295213403e-02
3.275999999999999801e+01,5.943726261677323430e-02
3.279999999999999716e+01,5.583076826829179440e-02
3.284000000000000341e+01,1.187860086479764071e-01
3.288000000000000256e+01,1.261730236040062847e-01
3.292000000000000171e+01,8.783166826745340827e-02
3.296000000000000085e+01,1.010028596453412392e-01
3.300000000000000000e+01,6.497279182035331502e-02
3.303999999999999915e+01,9.261038624090772720e-02
3.307999999999999829e+01,7.336198234140284269e-02
3.311999999999999744e+01,8.420997285297879276e-02
3.315999999999999659e+01,6.553641538939566913e-02
3.320000000000000284e+01,9.027199782661761429e-02
3.324000000000000199e+01,6.812158387492497913e-02
3.328000000000000114e+01,8.938031078960965992e-02
3.332000000000000028e+01,5.970133742577587999e-02
3.335999999999999943e+01,1.133697394663462088e-01
3.339999999999999858e+01,8.252917339393670004e-02
3.343999999999999773e+01,7.310278090523397720e-02
3.347999999999999687e+01,7.988122766922603479e-02
3.352000000000000313e+01,1.179137036307831565e-01
3.356000000000000227e+01,5.407276403117739633e-02
3.360000000000000142e+01,6.084527318785265537e-02
3.364000000000000057e+01,1.237608571008220887e-01
3.367999999999999972e+01,5.470464797681876684e-02
3.371999999999999886e+01,9.620012262990969287e-02
3.375999999999999801e+01,6.534174808062641338e-02
3.379999999999999716e+01,8.715356034291653342e-02
3.384000000000000341e+01,1.112786566995153520e-01
3.388000000000000256e+01,3.758204621241769544e-02
3.392000000000000171e+01,1.294245449508840129e-01
3.396000000000000085e+01,1.031868135353438271e-01
3.400000000000000000e+01,4.395465440729032225e-02
3.403999999999999915e+01,4.723253963581358628e-02
3.407999999999999829e+01,6.960934625538012233e-02
3.411999999999999744e+01,4.162727723146400494e-02
3.415999999999999659e+01,1.213028223987363541e-01
3.420000000000000284e+01,1.980730756382773419e-02
3.424000000000000199e+01,1.168433596374965078e-01
3.428000000000000114e+01,6.975251135045652806e-02
3.432000000000000028e+01,9.848445532364884236e-02
3.435999999999999943e+01,4.270744277073093564e-02
3.439999999999999858e+01,3.844299431255847332e-02
3.443999999999999773e+01,9.321570516295969722e-02
3.447999999999999687e+01,8.721087508735793359e-02
3.452000000000000313e+01,7.425829764445608661e-02
3.456000000000000227e+01,6.535545792394810427e-02
3.460000000000000142e+01,1.288025239673103173e-01
3.464000000000000057e+01,9.500670731922562784e-02
3.467999999999999972e+01,5.426314523498593917e-02
3.471999999999999886e+01,5.808637135605040913e-02
3.475999999999999801e+01,9.663653151691954657e-02
3.479999999999999716e+01,6.167522506923508313e-02
3.484000000000000341e+01,1.424749507304582663e-01
3.488000000000000256e+01,6.757148368654783410e-02
3.492000000000000171e+01,8.238237564812572744e-02
3.496000000000000085e+01,5.030729198059777363e-02
3.500000000000000000e+01,1.114194581599962375e-01
3.503999999999999915e+01,9.323201083444919435e-02
3.507999999999999829e+01,9.587994190753433565e-02
3.511999999999999744e+01,1.158903619861725021e-01
3.515999999999999659e+01,8.901480884963607065e-02
3.520000000000000284e+01,1.645875476429321249e-01
3.524000000000000199e+01,9.371813774514579920e-02
3.528000000000000114e+01,6.510026289442739922e-02
3.532000000000000028e+01,7.236695880114299428e-02
3.535999999999999943e+01,2.695953411350619083e-02
3.539999999999999858e+01,6.953002928685973749e-02
3.543999999999999773e+01,6.868744450040802085e-02
3.547999999999999687e+01,1.048870623611572739e-01
3.552000000000000313e+01,8.841256155869907374e-02
3.556000000000000227e+01,6.904203079655973907e-02
3.560000000000000142e+01,1.249154927645014790e-01
3.564000000000000057e+01,1.530038816279646052e-01
3.567999999999999972e+01,6.822139591102820144e-02
3.571999999999999886e+01,7.083801893806117300e-02
3.575999999999999801e+01,8.560780388142878727e-02
3.579999999999999716e+01,5.117636341695817187e-02
3.584000000000000341e+01,7.925498903444565257e-02
3.588000000000000256e+01,1.055952185131637799e-01
3.592000000000000171e+01,4.800532527374683917e-02
3.596000000000000085e+01,7.202639388190726355e-02
3.600000000000000000e+01,7.752343339964024027e-02
3.603999999999999915e+01,6.565407426835405402e-02
3.607999999999999829e+01,7.925062543984355556e-02
3.611999999999999744e+01,9.052996838997051654e-02
3.615999999999999659e+01,9.544039874634464848e-02
3.620000000000000284e+01,9.108784209519739383e-02
3.624000000000000199e+01,9.367911834002116966e-02
3.628000000000000114e+01,3.722932032215590936e-02
3.632000000000000028e+01,1.092745018211302710e-01
3.635999999999999943e+01,1.147540152919457462e-01
3.639999999999999858e+01,1.231256587347008824e-01
3.643999999999999773e+01,9.097830918386180798e-02
3.647999999999999687e+01,1.259715532740483812e-01
3.652000000000000313e+01,1.007660960396413591e-01
3.656000000000000227e+01,9.871129498420168347e-02
3.660000000000000142e+01,1.227012254870701174e-01
3.664000000000000057e+01,1.131179451620066695e-01
3.667999999999999972e+01,5.375463507109175254e-02
3.671999999999999886e+01,4.416747213859194277e-02
3.675999999999999801e+01,1.387650649025211069e-01
3.679999999999999716e+01,9.965445734887198870e-02
3.684000000000000341e+01,6.864531989160967129e-02
3.688000000000000256e+01,4.689528297214221736e-02
3.692000000000000171e+01,5.813576122500399568e-02
3.696000000000000085e+01,1.428838036847466242e-01
3.700000000000000000e+01,1.494898862546919227e-01
3.703999999999999915e+01,8.432097419004638827e-02
3.707999999999999829e+01,1.129181520565230856e-01
3.711999999999999744e+01,1.229913143505872997e-01
3.715999999999999659e+01,1.174345364515799045e-01
3.720000000000000284e+01,9.277492896642161591e-02
3.724000000000000199e+01,1.144185850400341459e-01
3.728000000000000114e+01,1.210111173482447122e-01
3.732000000000000028e+01,1.443873502359410421e-01
3.735999999999999943e+01,9.714622230995831331e-02
3.739999999999999858e+01,1.587203776394721377e-01
3.743999999999999773e+01,1.195787941967109830e-01
3.747999999999999687e+01,1.024302480783788605e-01
3.752000000000000313e+01,8.354332561551390535e-02
3.756000000000000227e+01,6.407565724952399289e-02
3.760000000000000142e+01,1.372164551322556381e-01
3.764000000000000057e+01,7.549143287729870311e-02
3.767999999999999972e+01,7.222479405729079205e-02
3.771999999999999886e+01,1.418869136377916007e-01
3.775999999999999801e+01,1.617690164876694758e-01
3.779999999999999716e+01,1.116125788138281338e-01
3.784000000000000341e+01,1.639044649337116910e-01
3.788000000000000256e+01,1.409484766816501700e-01
3.792000000000000171e+01,9.194388778185898226e-02
3.796000000000000085e+01,2.096360868276651301e-01
3.800000000000000000e+01,2.132998093360524150e-01
3.803999999999999915e+01,1.509766990726143510e-01
3.807999999999999829e+01,1.824196908099548209e-01
3.811999999999999744e+01,1.814471195410765625e-01
3.815999999999999659e+01,2.412481974178261879e-01
3.820000000000000284e+01,2.923651274056780491e-01
3.824000000000000199e+01,2.572367027597532441e-01
3.828000000000000114e+01,2.504682898664026824e-01
3.832000000000000028e+01,3.594609510843634892e-01
3.835999999999999943e+01,4.337227922755793608e-01
3.839999999999999858e+01,4.773055187780134712e-01
3.843999999999999773e+01,5.284109197089731369e-01
3.847999999999999687e+01,5.546253567098324844e-01
3.852000000000000313e+01,6.630296014359003953e-01
3.856000000000000227e+01,7.743260022043654267e-01
3.860000000000000142e+01,7.785397134289367971e-01
3.864000000000000057e+01,8.846229431236465324e-01
3.867999999999999972e+01,9.276134226676661099e-01
3.871999999999999886e+01,9.005653727920501783e-01
3.875999999999999801e+01,9.805961776487304160e-01
3.879999999999999716e+01,9.836426742996166039e-01
3.884000000000000341e+01,1.000000000000000000e+00
3.888000000000000256e+01,9.850994018257255291e-01
3.892000000000000171e+01,9.823520037078992129e-01
3.896000000000000085e+01,9.471890527223657541e-01
3.900000000000000000e+01,8.645613598898268526e-01
3.903999999999999915e+01,8.531259964518097538e-01
3.907999999999999829e+01,8.306912358289489928e-01
3.911999999999999744e+01,7.943630036074753598e-01
3.915999999999999659e+01,7.672938994426129478e-01
3.920000000000000284e+01,6.487701174170455998e-01
3.924000000000000199e+01,5.881259226757797887e-01
3.928000000000000114e+01,5.697333112602073202e-01
3.932000000000000028e+01,5.414989355151297312e-01
3.935999999999999943e+01,4.727456020198544939e-01
3.939999999999999858e+01,4.983372014366148073e-01
3.943999999999999773e+01,4.556267250618248887e-01
3.947999999999999687e+01,4.285423453783562819e-01
3.952000000000000313e+01,5.270589089380725012e-01
3.956000000000000227e+01,4.721875961958900692e-01
3.960000000000000142e+01,4.109474123795721634e-01
3.964000000000000057e+01,4.208995651995702802e-01
3.967999999999999972e+01,4.441625572075771355e-01
3.971999999999999886e+01,5.339873669829848790e-01
3.975999999999999801e+01,5.549312898498215407e-01
3.979999999999999716e+01,4.878934319736124015e-01
3.984000000000000341e+01,5.829218648994668461e-01
3.988000000000000256e+01,6.391677912892772540e-01
3.992000000000000171e+01,6.832567006741333548e-01
3.996000000000000085e+01,6.480460559367523521e-01
4.000000000000000000e+01,7.494338448428989885e-01
4.003999999999999915e+01,7.414237016682129200e-01
4.007999999999999829e+01,7.293599531300701821e-01
4.011999999999999744e+01,6.761984410353574226e-01
4.015999999999999659e+01,5.802027209289279952e-01
4.020000000000000284e+01,5.235645203557205418e-01
4.024000000000000199e+01,4.252497426949907733e-01
4.028000000000000114e+01,4.374867279883004056e-01
4.032000000000000028e+01,3.750546833389368229e-01
4.035999999999999943e+01,2.854164375331831871e-01
4.039999999999999858e+01,2.490272731780452387e-01
4.043999999999999773e+01,2.855669000528808232e-01
4.047999999999999687e+01,2.260213446816839444e-01
4.052000000000000313e+01,2.324588017543021412e-01
4.056000000000000227e+01,2.047442803327300387e-01
4.060000000000000142e+01,1.984440189136036370e-01
4.064000000000000057e+01,1.799867491796749153e-01
4.067999999999999972e+01,1.534241764689068810e-01
4.071999999999999886e+01,2.055785481607253773e-01
4.075999999999999801e+01,1.448621065859981016e-01
4.079999999999999716e+01,1.744389099656488973e-01
4.084000000000000341e+01,9.693305083743558592e-02
4.088000000000000256e+01,1.189814772981475088e-01
4.092000000000000171e+01,1.219271190718300146e-01
4.096000000000000085e+01,8.724789730331902748e-02
4.100000000000000000e+01,1.382314030686297990e-01
4.103999999999999915e+01,1.220704823124621613e-01
4.107999999999999829e+01,1.551069463590997732e-01
4.111999999999999744e+01,1.204201698705208434e-01
4.115999999999999659e+01,1.140934398951261863e-01
4.120000000000000284e+01,1.477030565019207820e-01
4.124000000000000199e+01,1.564217424908662668e-01
4.128000000000000114e+01,9.105022510331968466e-02
4.132000000000000028e+01,1.223389237187925971e-01
4.135999999999999943e+01,1.125298737440690450e-01
4.139999999999999858e+01,1.102435339240537548e-01
4.143999999999999773e+01,9.464256548633953603e-02
4.147999999999999687e+01,1.045075725275447787e-01
4.152000000000000313e+01,1.224741061511280399e-01
4.156000000000000227e+01,1.045522284122444440e-01
4.160000000000000142e+01,7.447335394542876907e-02
4.164000000000000057e+01,1.497369240335862661e-01
4.167999999999999972e+01,7.913723813855878808e-02
4.171999999999999886e+01,1.034613281364801796e-01
4.175999999999999801e+01,1.254682779859003783e-01
4.179999999999999716e+01,6.238754612814200601e-02
4.184000000000000341e+01,8.960007177720395732e-02
4.188000000000000256e+01,1.092861239123248951e-01
4.192000000000000171e+01,1.197092580783582494e-01
4.196000000000000085e+01,1.301305144270652470e-01
4.200000000000000000e+01,7.398617082047484472e-02
4.203999999999999915e+01,1.046621972587705451e-01
4.207999999999999829e+01,1.017650785280644204e-01
4.211999999999999744e+01,1.318585377319000385e-01
4.215999999999999659e+01,1.208542580012642309e-01
4.220000000000000284e+01,1.023235086189775989e-01
4.224000000000000199e+01,8.552732973680095274e-02
4.228000000000000114e+01,1.075098805134204610e-01
4.232000000000000028e+01,1.265964829212350984e-01
4.235999999999999943e+01,1.028489038705770048e-01
4.239999999999999858e+01,6.925959766495531911e-02
4.243999999999999773e+01,1.184389614769055521e-01
4.247999999999999687e+01,1.079985108787246684e-01
4.252000000000000313e+01,1.033443390153341301e-01
4.256000000000000227e+01,8.306029213501575637e-02
4.260000000000000142e+01,1.287592828033973791e-01
4.264000000000000057e+01,1.154172759721036057e-01
4.267999999999999972e+01,1.263836291446953641e-01
4.271999999999999886e+01,7.773017080387320532e-02
4.275999999999999801e+01,1.077936814877365201e-01
4.279999999999999716e+01,9.386538606515379413e-02
4.284000000000000341e+01,8.745981817758430310e-02
4.288000000000000256e+01,9.841683295610015314e-02
4.292000000000000171e+01,1.238423559869330365e-01
4.296000000000000085e+01,6.765310118725412214e-02
4.300000000000000000e+01,1.295402369021216860e-01
4.303999999999999915e+01,9.997274110376412615e-02
4.307999999999999829e+01,8.487375548886844090e-02
4.311999999999999744e+01,1.021865448988600461e-01
4.315999999999999659e+01,7.145582769230521269e-02
4.320000000000000284e+01,1.020776354417567006e-01
4.324000000000000199e+01,8.407712256092347847e-02
4.328000000000000114e+01,9.154260688439080917e-02
4.332000000000000028e+01,1.013214897225084288e-01
4.335999999999999943e+01,5.263819873041395564e-02
4.339999999999999858e+01,8.903884926000510402e-02
4.343999999999999773e+01,7.102903178013363072e-02
4.347999999999999687e+01,1.357878968702766476e-01
4.352000000000000313e+01,7.089034760610782304e-02
4.356000000000000227e+01,1.153869709258291548e-01
4.360000000000000142e+01,1.176282427327622199e-01
4.364000000000000057e+01,4.577933964759185043e-02
4.367999999999999972e+01,1.111077296015949706e-01
4.371999999999999886e+01,1.081340954221767375e-01
4.375999999999999801e+01,1.225230545301412288e-01
4.379999999999999716e+01,1.033388892289126421e-01
4.384000000000000341e+01,1.362462169392956446e-01
4.388000000000000256e+01,1.043244123232675291e-01
4.392000000000000171e+01,8.455586811196895425e-02
4.396000000000000085e+01,1.377161576158339451e-01
4.400000000000000000e+01,9.768538225541127662e-02
4.403999999999999915e+01,7.849009343774046576e-02
4.407999999999999829e+01,1.339600847215251522e-01
4.411999999999999744e+01,1.338619862445912523e-01
4.415999999999999659e+01,1.331832215242639006e-01
4.420000000000000284e+01,1.353966809191946841e-01
4.424000000000000199e+01,1.439752547880355504e-01
4.428000000000000114e+01,1.537096087997745775e-01
4.432000000000000028e+01,1.304496596578525458e-01
4.435999999999999943e+01,1.980618134175957668e-01
4.439999999999999858e+01,1.255988938167279523e-01
4.443999999999999773e+01,1.961014262210815928e-01
4.447999999999999687e+01,1.930926088511543126e-01
4.452000000000000313e+01,1.860302397070440483e-01
4.456000000000000227e+01,1.998033633819071841e-01
4.460000000000000142e+01,2.048924164136724235e-01
4.464000000000000057e+01,2.296593332713618152e-01
4.467999999999999972e+01,2.266412861342649576e-01
4.471999999999999886e+01,2.977097118438922774e-01
4.475999999999999801e+01,2.674836721518175087e-01
4.479999999999999716e+01,3.391272252789643837e-01
4.484000000000000341e+01,3.401535078734609363e-01
4.488000000000000256e+01,3.365474280595399659e-01
4.492000000000000171e+01,3.861904842510808789e-01
4.496000000000000085e+01,3.368543373720945810e-01
4.500000000000000000e+01,3.760750412021096056e-01
4.503999999999999915e+01,4.019811598651881202e-01
4.507999999999999829e+01,3.566911959130230070e-01
4.511999999999999744e+01,4.167437185182347736e-01
4.515999999999999659e+01,3.465610315840604860e-01
4.520000000000000284e+01,3.440978585176251436e-01
4.524000000000000199e+01,4.527653232500351566e-01
4.528000000000000114e+01,3.218015488016511827e-01
4.532000000000000028e+01,3.627439859453328030e-01
4.535999999999999943e+01,3.185987843498122030e-01
4.539999999999999858e+01,3.618528083325335265e-01
4.543999999999999773e+01,2.986030403071205375e-01
4.547999999999999687e+01,3.175431640117237775e-01
4.552000000000000313e+01,2.861245496669256871e-01
4.556000000000000227e+01,2.697532904176478397e-01
4.560000000000000142e+01,2.950548757949795209e-01
4.564000000000000057e+01,2.896774338678402283e-01
4.567999999999999972e+01,2.929803837121600085e-01
4.571999999999999886e+01,2.395576331485895216e-01
4.575999999999999801e+01,2.231772093082858843e-01
4.579999999999999716e+01,2.160559936671108128e-01
4.584000000000000341e+01,2.841788943492968289e-01
4.588000000000000256e+01,2.457980083339975086e-01
4.592000000000000171e+01,2.201492218420509350e-01
4.596000000000000085e+01,2.390673592183446272e-01
4.600000000000000000e+01,2.018386145455629832e-01
4.603999999999999915e+01,2.276988740445439197e-01
4.607999999999999829e+01,2.338775961566105233e-01
4.611999999999999744e+01,2.608918299163144328e-01
4.615999999999999659e+01,2.473871879994826994e-01
4.620000000000000284e+01,2.321442745027342824e-01
4.624000000000000199e+01,2.163207198674774179e-01
4.628000000000000114e+01,2.010741545351200366e-01
4.632000000000000028e+01,2.367614821884996834e-01
4.635999999999999943e+01,2.394545313103170481e-01
4.639999999999999858e+01,2.618254655006537202e-01
4.643999999999999773e+01,2.928768006353877351e-01
4.647999999999999687e+01,2.579414048661954340e-01
4.652000000000000313e+01,3.011442085242850841e-01
4.656000000000000227e+01,2.870425069336846602e-01
4.660000000000000142e+01,2.202668204116681461e-01
4.664000000000000057e+01,2.646217885860153718e-01
4.667999999999999972e+01,2.545663278565862275e-01
4.671999999999999886e+01,2.433514168027723912e-01
4.675999999999999801e+01,2.489203202659992231e-01
4.679999999999999716e+01,1.682439724117070212e-01
4.684000000000000341e+01,2.033288015021974537e-01
4.688000000000000256e+01,1.967371336476829990e-01
4.692000000000000171e+01,1.756732733585639472e-01
4.696000000000000085e+01,1.632898202900636420e-01
4.700000000000000000e+01,1.572715150077247381e-01
4.703999999999999915e+01,1.749828073736613698e-01
4.707999999999999829e+01,1.562269400223228744e-01
4.711999999999999744e+01,1.409421470089499140e-01
4.715999999999999659e+01,1.175521292301098530e-01
4.720000000000000284e+01,1.207857859272451068e-01
4.724000000000000199e+01,1.720592718176463254e-01
4.728000000000000114e+01,1.399815870805180551e-01
4.732000000000000028e+01,1.374216531642785677e-01
4.735999999999999943e+01,1.186530871861502384e-01
4.739999999999999858e+01,1.218776782634410222e-01
4.743999999999999773e+01,1.245216426858107017e-01
4.747999999999999687e+01,1.352672056257094024e-01
4.752000000000000313e+01,1.298041384348644911e-01
4.756000000000000227e+01,1.150782213477931776e-01
4.760000000000000142e+01,1.072962742679879344e-01
4.764000000000000057e+01,6.420480418853692639e-02
4.767999999999999972e+01,1.131431070406314909e-01
4.771999999999999886e+01,1.296659627552074479e-01
4.775999999999999801e+01,1.218767815254040154e-01
4.779999999999999716e+01,9.035437881331856436e-02
4.784000000000000341e+01,1.253938918742427133e-01
4.788000000000000256e+01,8.402802130116222845e-02
4.792000000000000171e+01,1.213791820321935555e-01
4.796000000000000085e+01,8.927073984652390826e-02
4.800000000000000000e+01,1.057809510063700831e-01
4.803999999999999915e+01,1.419690670289716072e-01
4.807999999999999829e+01,1.000153568935669285e-01
4.811999999999999744e+01,1.061014865727258755e-01
4.815999999999999659e+01,4.562209064566977168e-02
4.820000000000000284e+01,1.327387119402302640e-01
4.824000000000000199e+01,1.075634252285845999e-01
4.828000000000000114e+01,1.252186454488490308e-01
4.832000000000000028e+01,6.357441244920311596e-02
4.835999999999999943e+01,1.003269253608891076e-01
4.839999999999999858e+01,1.058216293010448561e-01
4.843999999999999773e+01,1.217332032628434119e-01
4.847999999999999687e+01,1.278031234531883664e-01
4.852000000000000313e+01,1.014576061617397801e-01
4.856000000000000227e+01,8.147725548511632054e-02
4.860000000000000142e+01,1.303740896716848729e-01
4.864000000000000057e+01,1.011291044592548538e-01
4.867999999999999972e+01,1.176087059031521165e-01
4.871999999999999886e+01,1.097762819895401198e-01
4.875999999999999801e+01,8.168353805638157994e-02
4.879999999999999716e+01,9.757893728997618643e-02
4.884000000000000341e+01,1.036326870971935321e-01
4.888000000000000256e+01,1.195244972573916292e-01
4.892000000000000171e+01,8.505761040501966241e-02
4.896000000000000085e+01,1.113645030505629463e-01
4.900000000000000000e+01,1.174110785732772888e-01
4.903999999999999915e+01,1.170888969594111040e-01
4.907999999999999829e+01,9.245469433311187535e-02
4.911999999999999744e+01,8.865603956341865099e-02
4.915999999999999659e+01,1.132175278641595756e-01
4.920000000000000284e+01,7.642283792492653161e-02
4.924000000000000199e+01,9.692904098724697270e-02
4.928000000000000114e+01,1.347979039614527197e-01
4.932000000000000028e+01,5.342909221294985661e-02
4.935999999999999943e+01,8.319096799027607403e-02
4.939999999999999858e+01,7.822215698986223487e-02
4.943999999999999773e+01,7.846089326694924426e-02
4.947999999999999687e+01,1.047445165595167899e-01
4.952000000000000313e+01,1.084525690882328502e-01
4.956000000000000227e+01,9.247912623243827179e-02
4.960000000000000142e+01,1.187573912611890187e-01
4.964000000000000057e+01,1.172507521606487996e-01
4.967999999999999972e+01,1.244245531101921959e-01
4.971999999999999886e+01,1.298601249650090939e-01
4.975999999999999801e+01,1.468702127320369588e-01
4.979999999999999716e+01,1.349377683422965934e-01
4.984000000000000341e+01,1.305281359751634118e-01
4.988000000000000256e+01,1.411659108444653921e-01
4.992000000000000171e+01,1.026026307294755913e-01
4.996000000000000085e+01,9.124187338202317810e-02
5.000000000000000000e+01,1.024531194504069431e-01
5.003999999999999915e+01,9.166761601047140884e-02
5.007999999999999829e+01,1.121363416416084613e-01
5.011999999999999744e+01,1.233422482748393473e-01
5.015999999999999659e+01,1.339675610826140395e-01
5.020000000000000284e+01,1.063893068925083063e-01
5.024000000000000199e+01,1.089076537459984645e-01
5.028000000000000114e+01,1.085301483051474003e-01
5.032000000000000028e+01,9.715338134238864221e-02
5.035999999999999943e+01,1.436563358785091227e-01
5.039999999999999858e+01,1.068081574444276760e-01
5.043999999999999773e+01,1.428888909368822846e-01
5.047999999999999687e+01,6.378366856260622719e-02
5.052000000000000313e+01,1.010184825287587657e-01
5.056000000000000227e+01,8.847343425588838350e-02
5.060000000000000142e+01,1.251258856889507498e-01
5.064000000000000057e+01,8.132128194508340957e-02
5.067999999999999972e+01,1.162337428175790194e-01
5.071999999999999886e+01,5.274588512007846036e-02
5.075999999999999801e+01,1.171743662459426016e-01
5.079999999999999716e+01,1.335594329674341108e-01
5.084000000000000341e+01,8.916715622249890560e-02
5.088000000000000256e+01,1.315953562182107794e-01
5.092000000000000171e+01,1.178767335475558037e-01
5.096000000000000085e+01,1.139961963347666668e-01
5.100000000000000000e+01,1.135867802902090912e-01
5.103999999999999915e+01,9.002299684836657934e-02
5.107999999999999829e+01,1.098685691127826852e-01
5.111999999999999744e+01,1.054021449868643295e-01
5.115999999999999659e+01,5.810164561544816503e-02
5.120000000000000284e+01,9.414873697110352768e-02
5.124000000000000199e+01,1.174601329710020792e-01
5.128000000000000114e+01,7.825774587718972719e-02
5.132000000000000028e+01,1.183512461036311664e-01
5.135999999999999943e+01,8.956399942951404070e-02
5.139999999999999858e+01,8.219114311012992724e-02
5.143999999999999773e+01,1.170700168834587773e-01
5.147999999999999687e+01,1.484742378667232576e-01
5.152000000000000313e+01,7.858407503916167713e-02
5.156000000000000227e+01,9.667202711823544292e-02
5.160000000000000142e+01,1.170734776487129397e-01
5.164000000000000057e+01,8.074929922366495816e-02
5.167999999999999972e+01,7.104884934665237073e-02
5.171999999999999886e+01,1.059153928591002325e-01
5.175999999999999801e+01,7.768934409196107116e-02
5.179999999999999716e+01,7.782347025914888861e-02
5.184000000000000341e+01,1.288915560365760660e-01
5.188000000000000256e+01,9.660852670689246136e-02
5.192000000000000171e+01,8.226700413229763587e-02
5.196000000000000085e+01,9.339158352661988682e-02
5.200000000000000000e+01,8.541351196570387549e-02
5.203999999999999915e+01,1.214236226772271304e-01
5.207999999999999829e+01,1.117055943507816174e-01
5.211999999999999744e+01,1.147197403795577886e-01
5.215999999999999659e+01,7.258456331524858196e-02
5.220000000000000284e+01,8.659268502005328105e-02
5.224000000000000199e+01,8.149815866633720873e-02
5.228000000000000114e+01,1.174977425852233165e-01
5.232000000000000028e+01,9.040474098353014354e-02
5.235999999999999943e+01,1.084575554751882331e-01
5.239999999999999858e+01,1.079865388187814385e-01
5.243999999999999773e+01,1.324028149454157810e-01
5.247999999999999687e+01,8.620191275157365607e-02
5.252000000000000313e+01,1.268215070926151378e-01
5.256000000000000227e+01,1.622300167408879668e-01
5.260000000000000142e+01,1.131297900135806445e-01
5.264000000000000057e+01,9.644145321428818085e-02
5.267999999999999972e+01,1.266353813085695501e-01
5.271999999999999886e+01,1.174681428618823131e-01
5.275999999999999801e+01,9.672285736393765321e-02
5.279999999999999716e+01,1.054953888285980745e-01
5.284000000000000341e+01,9.111357462135458163e-02
5.288000000000000256e+01,9.177920385951505999e-02
5.292000000000000171e+01,1.127016118396644839e-01
5.296000000000000085e+01,8.442300152727690021e-02
5.300000000000000000e+01,1.325462239156109390e-01
5.303999999999999915e+01,1.494116933356196275e-01
5.307999999999999829e+01,1.054998463252312946e-01
5.311999999999999744e+01,1.414627233397889872e-01
5.315999999999999659e+01,1.079660601998585628e-01
5.320000000000000284e+01,1.103541836228155854e-01
5.324000000000000199e+01,1.237380499810765144e-01
5.328000000000000114e+01,8.734208692977961375e-02
5.332000000000000028e+01,1.088258811035445750e-01
5.335999999999999943e+01,1.100494107781815889e-01
5.339999999999999858e+01,1.182169804640910010e-01
5.343999999999999773e+01,8.933865221642814380e-02
5.347999999999999687e+01,9.981800378702217202e-02
5.352000000000000313e+01,1.467609607621047363e-01
5.356000000000000227e+01,1.080375629898555900e-01
5.360000000000000142e+01,9.767436187731425024e-02
5.364000000000000057e+01,1.006221684451829718e-01
5.367999999999999972e+01,7.752156458310456577e-02
5.371999999999999886e+01,1.076702029394632082e-01
5.375999999999999801e+01,9.266953751418637031e-02
5.379999999999999716e+01,7.303661734182552434e-02
5.384000000000000341e+01,1.193868703811010873e-01
5.388000000000000256e+01,1.292700457767637645e-01
5.392000000000000171e+01,9.458273430124701509e-02
5.396000000000000085e+01,1.033048132925989404e-01
5.400000000000000000e+01,9.118782053009194533e-02
5.403999999999999915e+01,8.312080060688252503e-02
5.407999999999999829e+01,7.389441919195870179e-02
5.411999999999999744e+01,9.302824071296424135e-02
5.415999999999999659e+01,1.306824110043992571e-01
5.420000000000000284e+01,1.376576573076210286e-01
5.424000000000000199e+01,1.087446452916175366e-01
5.428000000000000114e+01,1.134011729564864540e-01
5.432000000000000028e+01,1.203712319022239990e-01
5.435999999999999943e+01,1.354429724047256922e-01
5.439999999999999858e+01,8.337044763635650946e-02
5.443999999999999773e+01,1.291159271835184696e-01
5.447999999999999687e+01,1.181358120529789613e-01
5.452000000000000313e+01,9.384122617584422787e-02
5.456000000000000227e+01,1.042738133177075477e-01
5.460000000000000142e+01,7.823933150611073195e-02
5.464000000000000057e+01,5.857008969284918654e-02
5.467999999999999972e+01,9.099247172627249192e-02
5.471999999999999886e+01,6.958333687526649380e-02
5.475999999999999801e+01,6.322166816061836059e-02
5.479999999999999716e+01,1.025846599685936444e-01
5.484000000000000341e+01,7.133050194048122516e-02
5.488000000000000256e+01,1.049018997178257778e-01
5.492000000000000171e+01,1.158977919074623553e-01
5.496000000000000085e+01,1.025817340542445888e-01
5.500000000000000000e+01,7.247832137200087288e-02
5.503999999999999915e+01,1.129886162194684573e-01
5.507999999999999829e+01,1.205047377827763028e-01
5.511999999999999744e+01,8.923853675160144105e-02
5.515999999999999659e+01,1.141156702157233305e-01
5.520000000000000284e+01,1.187325613888848691e-01
5.524000000000000199e+01,1.152443253194018052e-01
5.528000000000000114e+01,9.496873780039670476e-02
5.532000000000000028e+01,1.163661122250596730e-01
5.535999999999999943e+01,1.458651802761430361e-01
5.539999999999999858e+01,1.325302242570710054e-01
5.543999999999999773e+01,1.162994782230842294e-01
5.547999999999999687e+01,8.733308800868290478e-02
5.552000000000000313e+01,1.145100366346544218e-01
5.556000000000000227e+01,1.063775578526577892e-01
5.560000000000000142e+01,1.219747800351939637e-01
5.564000000000000057e+01,9.415916606498141161e-02
5.567999999999999972e+01,1.224868928662868478e-01
5.571999999999999886e+01,1.415518682597607103e-01
5.575999999999999801e+01,1.079429692798695162e-01
5.579999999999999716e+01,1.200587428922580829e-01
5.584000000000000341e+01,1.472219956762333415e-01
5.588000000000000256e+01,1.182384856593367006e-01
5.592000000000000171e+01,9.098971125544758065e-02
5.596000000000000085e+01,1.083079814163615401e-01
5.600000000000000000e+01,1.076812788592837883e-01
5.603999999999999915e+01,1.082104983842614582e-01
5.607999999999999829e+01,1.185778651637450082e-01
5.611999999999999744e+01,6.701032224596469022e-02
5.615999999999999659e+01,1.306252537828523075e-01
5.620000000000000284e+01,1.039433426018131906e-01
5.624000000000000199e+01,1.177767745099039809e-01
5.628000000000000114e+01,9.630078770017903855e-02
5.632000000000000028e+01,9.566043564858493775e-02
5.635999999999999943e+01,1.077523091275551237e-01
5.639999999999999858e+01,1.128966993233037619e-01
5.643999999999999773e+01,1.122512366772392273e-01
5.647999999999999687e+01,9.076673221006349712e-02
5.652000000000000313e+01,1.439476579908666454e-01
5.656000000000000227e+01,1.288267146126344243e-01
5.660000000000000142e+01,1.275956296203059337e-01
5.664000000000000057e+01,1.431484783932215621e-01
5.667999999999999972e+01,1.152885035658310214e-01
5.671999999999999886e+01,1.100006132623665561e-01
5.675999999999999801e+01,1.174449533173288901e-01
5.679999999999999716e+01,9.710447566173854850e-02
5.684000000000000341e+01,8.312926455772715051e-02
5.688000000000000256e+01,1.009871795777619319e-01
5.692000000000000171e+01,1.194222123218386666e-01
5.696000000000000085e+01,1.291733236037686805e-01
5.700000000000000000e+01,1.493414082235992590e-01
5.703999999999999915e+01,9.831355458127478963e-02
5.707999999999999829e+01,9.127394404245722792e-02
5.711999999999999744e+01,1.027547180002519461e-01
5.715999999999999659e+01,9.166001340636904804e-02
5.720000000000000284e+01,1.031373991298471238e-01
5.724000000000000199e+01,1.209800562327666001e-01
5.728000000000000114e+01,1.040921216668375116e-01
5.732000000000000028e+01,1.155644286597376502e-01
5.735999999999999943e+01,1.380325283149252957e-01
5.739999999999999858e+01,1.217183328944466403e-01
5.743999999999999773e+01,1.152423011432061051e-01
5.747999999999999687e+01,1.099222088543259507e-01
5.752000000000000313e+01,1.271742107450971881e-01
5.756000000000000227e+01,1.044862895327250268e-01
5.760000000000000142e+01,1.043704634655764629e-01
5.764000000000000057e+01,1.256691030678161736e-01
5.767999999999999972e+01,1.238134554152884176e-01
5.771999999999999886e+01,1.283230849356368775e-01
5.775999999999999801e+01,1.062055382909248558e-01
5.779999999999999716e+01,1.107117940605443773e-01
5.784000000000000341e+01,9.032731956860848288e-02
5.788000000000000256e+01,1.336108071324762503e-01
5.792000000000000171e+01,9.007036261409165356e-02
5.796000000000000085e+01,1.501361146895373866e-01
5.800000000000000000e+01,8.749140693102522293e-02
5.803999999999999915e+01,1.070367424974115605e-01
5.807999999999999829e+01,1.260015798300195555e-01
5.811999999999999744e+01,7.550693687363412010e-02
5.815999999999999659e+01,1.326701977801867383e-01
5.820000000000000284e+01,1.331079089081593780e-01
5.824000000000000199e+01,1.069184496645061849e-01
5.828000000000000114e+01,1.090892435665523352e-01
5.832000000000000028e+01,1.361474012212186002e-01
5.835999999999999943e+01,1.157410506974242276e-01
5.839999999999999858e+01,1.271678446435535181e-01
5.843999999999999773e+01,1.021276159837027492e-01
5.847999999999999687e+01,1.268637971179870094e-01
5.852000000000000313e+01,1.278668861567039683e-01
5.856000000000000227e+01,8.429954432744649062e-02
5.860000000000000142e+01,9.166624369930490013e-02
5.864000000000000057e+01,1.100287511826106290e-01
5.867999999999999972e+01,8.671490414285534798e-02
5.871999999999999886e+01,1.149139147318853776e-01
5.875999999999999801e+01,9.564842197031754589e-02
5.879999999999999716e+01,1.140042282996450301e-01
5.884000000000000341e+01,1.045752415405190039e-01
5.888000000000000256e+01,6.967672209296923991e-02
5.892000000000000171e+01,1.013402521502201614e-01
5.896000000000000085e+01,1.248986998639479568e-01
5.900000000000000000e+01,1.079384268755267245e-01
5.903999999999999915e+01,8.403070246777638586e-02
5.907999999999999829e+01,1.353672541856358880e-01
5.911999999999999744e+01,1.114561878910492743e-01
5.915999999999999659e+01,7.596715179100474447e-02
5.920000000000000284e+01,1.215105430580381701e-01
5.924000000000000199e+01,9.875209751271533942e-02
5.928000000000000114e+01,1.246124414586303603e-01
5.932000000000000028e+01,1.302125928405689914e-01
5.935999999999999943e+01,1.207618869551156382e-01
5.939999999999999858e+01,1.014696590988551639e-01
5.943999999999999773e+01,9.259443403045622412e-02
5.947999999999999687e+01,1.097642166741002595e-01
5.952000000000000313e+01,1.425603378849768788e-01
5.956000000000000227e+01,1.319436702561571362e-01
5.960000000000000142e+01,1.201677077601253224e-01
5.964000000000000057e+01,1.135994156520881704e-01
5.967999999999999972e+01,8.214041549066293524e-02
5.971999999999999886e+01,1.403960736622008876e-01
5.975999999999999801e+01,1.071973021251663577e-01
5.979999999999999716e+01,8.094264784520424638e-02
5.984000000000000341e+01,9.057286027064706535e-02
5.988000000000000256e+01,1.262480852359957606e-01
5.992000000000000171e+01,8.436044192737914005e-02
5.996000000000000085e+01,7.662122183459349478e-02
