2.003999999999999915e+01,1.720997001982453936e-02
2.007999999999999829e+01,9.172568983853050112e-03
2.012000000000000099e+01,7.445044797260234881e-03
2.016000000000000014e+01,8.834381119675722982e-03
2.019999999999999929e+01,1.311250522707917317e-02
2.023999999999999844e+01,8.647715101790428779e-03
2.028000000000000114e+01,1.064484966387608568e-02
2.032000000000000028e+01,1.325004573777717118e-02
2.035999999999999943e+01,3.767262571738571805e-03
2.039999999999999858e+01,7.436532864247822651e-03
2.044000000000000128e+01,5.175783459100118805e-03
2.048000000000000043e+01,9.529006441174773384e-03
2.051999999999999957e+01,1.722716127480900666e-02
2.055999999999999872e+01,1.200107002956768247e-02
2.060000000000000142e+01,6.698821571494282222e-03
2.064000000000000057e+01,1.249597247022876320e-02
2.067999999999999972e+01,9.626231811946892383e-03
2.071999999999999886e+01,1.291431754025990954e-02
2.076000000000000156e+01,1.232503573860011838e-02
2.080000000000000071e+01,1.219176540041150107e-02
2.083999999999999986e+01,1.578354678506305175e-02
2.087999999999999901e+01,1.314121017127816565e-02
2.092000000000000171e+01,1.361573144171132968e-02
2.096000000000000085e+01,9.072521562071477960e-03
2.100000000000000000e+01,1.859365341226952920e-02
2.103999999999999915e+01,6.903900239103599040e-03
2.107999999999999829e+01,1.155921437821398091e-02
2.112000000000000099e+01,2.024367605430092004e-02
2.116000000000000014e+01,1.493955084523476869e-02
2.119999999999999929e+01,1.130782284282837169e-02
2.123999999999999844e+01,1.086897581475631223e-02
2.128000000000000114e+01,1.103818698297547203e-02
2.132000000000000028e+01,1.272774655283179582e-02
2.135999999999999943e+01,1.441717048035708569e-02
2.139999999999999858e+01,6.907530997185422177e-03
2.144000000000000128e+01,8.976804202063459401e-03
2.148000000000000043e+01,8.461118710273692403e-03
2.151999999999999957e+01,1.030204707758860735e-02
2.155999999999999872e+01,1.670429082930234219e-02
2.160000000000000142e+01,1.276710755021888757e-02
2.164000000000000057e+01,1.437955391802439933e-02
2.167999999999999972e+01,1.409125865604750685e-02
2.171999999999999886e+01,1.327065714138054089e-02
2.176000000000000156e+01,1.032124113476427796e-02
2.180000000000000071e+01,1.026060738726222894e-02
2.183999999999999986e+01,1.757418328290059201e-02
2.187999999999999901e+01,8.086274580973204507e-03
2.192000000000000171e+01,1.159836569743144703e-02
2.196000000000000085e+01,6.747657617338695575e-03
2.200000000000000000e+01,1.155188448653097881e-02
2.203999999999999915e+01,1.666007014606012832e-02
2.207999999999999829e+01,1.074460935941048967e-02
2.212000000000000099e+01,1.182323627241795710e-02
2.216000000000000014e+01,1.282570058486652217e-02
2.219999999999999929e+01,1.147127629987730428e-02
2.223999999999999844e+01,2.144431843169548879e-02
2.228000000000000114e+01,1.431177780331526969e-02
2.232000000000000028e+01,1.691019521433640566e-02
2.235999999999999943e+01,1.867220738115372980e-02
2.239999999999999858e+01,1.283166078471549391e-02
2.244000000000000128e+01,1.314893463455788468e-02
2.248000000000000043e+01,1.012100438115081866e-02
2.251999999999999957e+01,1.401113625064137960e-02
2.255999999999999872e+01,1.546835408408150057e-02
2.260000000000000142e+01,1.738157716438491762e-02
2.264000000000000057e+01,1.853441822874773298e-02
2.267999999999999972e+01,2.090350621659081351e-02
2.271999999999999886e+01,1.255304232906982904e-02
2.276000000000000156e+01,9.524131634453057715e-03
2.280000000000000071e+01,1.424954824390778016e-02
2.283999999999999986e+01,1.327300945276833205e-02
2.287999999999999901e+01,1.244837816030003319e-02
2.292000000000000171e+01,1.154758164248278346e-02
2.296000000000000085e+01,7.757724535400354823e-03
2.300000000000000000e+01,1.810822644610481785e-02
2.303999999999999915e+01,1.713098181394194161e-02
2.307999999999999829e+01,9.007321241773565135e-03
2.312000000000000099e+01,1.183100307072677305e-02
2.316000000000000014e+01,1.039718810444132009e-02
2.319999999999999929e+01,1.306853768678776020e-02
2.323999999999999844e+01,1.627191450093914971e-02
2.328000000000000114e+01,1.985527001816637591e-02
2.332000000000000028e+01,1.439160388423041392e-02
2.335999999999999943e+01,1.462960984745134002e-02
2.339999999999999858e+01,8.481440718402745091e-03
2.344000000000000128e+01,2.012279046149700878e-02
2.348000000000000043e+01,1.526674686231610512e-02
2.351999999999999957e+01,1.953346359580279343e-02
2.355999999999999872e+01,1.171219003760252779e-02
2.360000000000000142e+01,1.027680550529776193e-02
2.364000000000000057e+01,1.667176957127181405e-02
2.367999999999999972e+01,1.196705746990230079e-02
2.371999999999999886e+01,1.973016960327309693e-02
2.376000000000000156e+01,1.259239552845324399e-02
2.380000000000000071e+01,2.050726805197627955e-02
2.383999999999999986e+01,1.739848805085943487e-02
2.387999999999999901e+01,1.793872507813173631e-02
2.392000000000000171e+01,1.718640630172701272e-02
2.396000000000000085e+01,1.035200728016124304e-02
2.400000000000000000e+01,1.697374606509173545e-02
2.403999999999999915e+01,1.302797680639447737e-02
2.407999999999999829e+01,1.478387715821105099e-02
2.412000000000000099e+01,1.524722101561637108e-02
2.416000000000000014e+01,1.563439536512065131e-02
2.419999999999999929e+01,1.184009352285949994e-02
2.423999999999999844e+01,1.215095263741238288e-02
2.428000000000000114e+01,1.732721452354302541e-02
2.432000000000000028e+01,1.330440291425732426e-02
2.435999999999999943e+01,1.163819535565053381e-02
2.439999999999999858e+01,1.088413199904554422e-02
2.444000000000000128e+01,7.545099722906469485e-03
2.448000000000000043e+01,1.059195343343236756e-02
2.451999999999999957e+01,4.819853934262955004e-03
2.455999999999999872e+01,1.379630162748221069e-02
2.460000000000000142e+01,1.387777163942141394e-02
2.464000000000000057e+01,1.570765117268314512e-02
2.467999999999999972e+01,1.358412544229051742e-02
2.471999999999999886e+01,7.811291091260937763e-03
2.476000000000000156e+01,1.283374508675035226e-02
2.480000000000000071e+01,1.413086599001803917e-02
2.483999999999999986e+01,1.710037152858296869e-02
2.487999999999999901e+01,4.484769233226075166e-03
2.492000000000000171e+01,9.354583917414664718e-03
2.496000000000000085e+01,1.962196839172225885e-02
2.500000000000000000e+01,1.582472852348886308e-02
2.503999999999999915e+01,1.157119513166860597e-02
2.507999999999999829e+01,1.948138449643172648e-02
2.512000000000000099e+01,1.097019905019032925e-02
2.516000000000000014e+01,1.895611521582943326e-02
2.519999999999999929e+01,1.804705162798590432e-02
2.523999999999999844e+01,2.534845208900289928e-02
2.528000000000000114e+01,1.227521903129253147e-02
2.532000000000000028e+01,1.410257893176289704e-02
2.535999999999999943e+01,9.695805361350610940e-03
2.539999999999999858e+01,2.140601159748241333e-02
2.544000000000000128e+01,9.852664341238987281e-03
2.548000000000000043e+01,1.061508685069263540e-02
2.551999999999999957e+01,9.096633491811710950e-03
2.555999999999999872e+01,1.708105439656481053e-02
2.560000000000000142e+01,1.449796186996332899e-02
2.564000000000000057e+01,2.035340459662723228e-02
2.567999999999999972e+01,1.746591430262848035e-02
2.571999999999999886e+01,1.526249106591261520e-02
2.576000000000000156e+01,1.328698957658632808e-02
2.580000000000000071e+01,5.837595049672794634e-03
2.583999999999999986e+01,1.404903363794175394e-02
2.587999999999999901e+01,1.412573207714243329e-02
2.592000000000000171e+01,2.142457767792351267e-02
2.596000000000000085e+01,1.701554567466247170e-02
2.600000000000000000e+01,1.731986211208291424e-02
2.603999999999999915e+01,1.465908312764026278e-02
2.607999999999999829e+01,1.253032156657674957e-02
2.612000000000000099e+01,1.769973067165047168e-02
2.616000000000000014e+01,1.906777779221887487e-02
2.619999999999999929e+01,2.324856778045783154e-02
2.623999999999999844e+01,2.492040682784591940e-02
2.628000000000000114e+01,2.294293186687026628e-02
2.632000000000000028e+01,2.126940091451948872e-02
2.635999999999999943e+01,1.184124913179365399e-02
2.639999999999999858e+01,1.640139623379106501e-02
2.644000000000000128e+01,1.868066429007655266e-02
2.648000000000000043e+01,1.510591598382317151e-02
2.651999999999999957e+01,1.518017558826735385e-02
2.655999999999999872e+01,1.768705584060530425e-02
2.660000000000000142e+01,1.160304828548536400e-02
2.664000000000000057e+01,1.585817741223647173e-02
2.667999999999999972e+01,1.524760402449830930e-02
2.671999999999999886e+01,7.414577930100969654e-03
2.676000000000000156e+01,1.326575269594107952e-02
2.680000000000000071e+01,1.265471643173897952e-02
2.683999999999999986e+01,1.516051760602229841e-02
2.687999999999999901e+01,1.439712367619458422e-02
2.692000000000000171e+01,2.260442994597075192e-02
2.696000000000000085e+01,1.271782275358413795e-02
2.700000000000000000e+01,1.940433501361444810e-02
2.703999999999999915e+01,1.491513530667539812e-02
2.707999999999999829e+01,1.810422392680469464e-02
2.712000000000000099e+01,1.597146334108312526e-02
2.716000000000000014e+01,2.455795861777889874e-02
2.719999999999999929e+01,1.634295092337903488e-02
2.723999999999999844e+01,1.177694865303358096e-02
2.728000000000000114e+01,1.800622602595611590e-02
2.732000000000000028e+01,2.073823418927909709e-02
2.735999999999999943e+01,2.004899720014679046e-02
2.739999999999999858e+01,1.510224877221066214e-02
2.744000000000000128e+01,1.243606956235559016e-02
2.748000000000000043e+01,1.007383035486695937e-02
2.751999999999999957e+01,2.093964421107937651e-02
2.755999999999999872e+01,2.199817981965272035e-02
2.760000000000000142e+01,1.408570319064178164e-02
2.764000000000000057e+01,1.902115823443598780e-02
2.767999999999999972e+01,2.616115747213920359e-02
2.771999999999999886e+01,2.197339400379457949e-02
2.776000000000000156e+01,2.158668255417764414e-02
2.780000000000000071e+01,2.705367625800029346e-02
2.783999999999999986e+01,2.316953591890234462e-02
2.787999999999999901e+01,3.144910866610892836e-02
2.792000000000000171e+01,1.783355487107516138e-02
2.796000000000000085e+01,2.155135916584482308e-02
2.800000000000000000e+01,2.770177913522183649e-02
2.803999999999999915e+01,3.141926614243116533e-02
2.807999999999999829e+01,2.677393281662269683e-02
2.812000000000000099e+01,2.402904538394363271e-02
2.816000000000000014e+01,3.321979748466797472e-02
2.819999999999999929e+01,2.758567223819337680e-02
2.823999999999999844e+01,3.426730722528379541e-02
2.828000000000000114e+01,3.638733095317559646e-02
2.832000000000000028e+01,3.478200943192366612e-02
2.835999999999999943e+01,3.484906038904686532e-02
2.839999999999999858e+01,3.103871743015054058e-02
2.844000000000000128e+01,3.665521459302450991e-02
2.848000000000000043e+01,3.930660790707799640e-02
2.851999999999999957e+01,3.701626815659649072e-02
2.855999999999999872e+01,4.004746156772717031e-02
2.860000000000000142e+01,4.186210720729144352e-02
2.864000000000000057e+01,3.668236609502129042e-02
2.867999999999999972e+01,3.484752865235506147e-02
2.871999999999999886e+01,3.962663513866181847e-02
2.876000000000000156e+01,3.976810451271676344e-02
2.880000000000000071e+01,4.234218679844224675e-02
2.883999999999999986e+01,3.434874446291906469e-02
2.887999999999999901e+01,3.289322130849033771e-02
2.892000000000000171e+01,2.421523784932620021e-02
2.896000000000000085e+01,3.249048804983909605e-02
2.900000000000000000e+01,2.578880974963395842e-02
2.903999999999999915e+01,2.988240501423575571e-02
2.907999999999999829e+01,2.873016849908244935e-02
2.912000000000000099e+01,2.620933402587165284e-02
2.916000000000000014e+01,2.186375628471013896e-02
2.919999999999999929e+01,2.580465311116289517e-02
2.923999999999999844e+01,2.693249185458736900e-02
2.928000000000000114e+01,2.806016760260620496e-02
2.932000000000000028e+01,2.994792216998316825e-02
2.935999999999999943e+01,1.473006952517075079e-02
2.939999999999999858e+01,1.593327965338258226e-02
2.944000000000000128e+01,2.093753599815473959e-02
2.948000000000000043e+01,2.404102377451033251e-02
2.951999999999999957e+01,2.053024273625640370e-02
2.955999999999999872e+01,2.583810438933265702e-02
2.960000000000000142e+01,2.270711626452013090e-02
2.964000000000000057e+01,1.927186711981607181e-02
2.967999999999999972e+01,1.598850198882008702e-02
2.971999999999999886e+01,8.979786773540865061e-03
2.976000000000000156e+01,1.709972176801619753e-02
2.980000000000000071e+01,2.354695967477348981e-02
2.983999999999999986e+01,1.714594364787899727e-02
2.987999999999999901e+01,9.376327038137031999e-03
2.992000000000000171e+01,2.099271502186196917e-02
2.996000000000000085e+01,2.067313900098746715e-02
3.000000000000000000e+01,1.875688939695174112e-02
3.003999999999999915e+01,2.048963554669153836e-02
3.007999999999999829e+01,1.408762704194470305e-02
3.012000000000000099e+01,9.434009132403043535e-03
3.016000000000000014e+01,2.066928200405822313e-02
3.019999999999999929e+01,1.799196096466511990e-02
3.023999999999999844e+01,1.964785274593294079e-02
3.028000000000000114e+01,1.719827153240650885e-02
3.032000000000000028e+01,1.991816901144902868e-02
3.035999999999999943e+01,1.442728667368596389e-02
3.039999999999999858e+01,1.980769739902821236e-02
3.044000000000000128e+01,1.606503768777835586e-02
3.048000000000000043e+01,2.053282392815280674e-02
3.051999999999999957e+01,9.643555441774013040e-03
3.055999999999999872e+01,1.350281342575760518e-02
3.060000000000000142e+01,1.530925058263093823e-02
3.064000000000000057e+01,1.285816511080625259e-02
3.067999999999999972e+01,1.550053289293791721e-02
3.071999999999999886e+01,1.456959552769747368e-02
3.076000000000000156e+01,1.059752224397555662e-02
3.080000000000000071e+01,7.385522668178673249e-03
3.083999999999999986e+01,1.504481463587184140e-02
3.087999999999999901e+01,9.855849078095399798e-03
3.092000000000000171e+01,1.683058610746347369e-02
3.096000000000000085e+01,1.536646866195010008e-02
3.100000000000000000e+01,1.222964998431344194e-02
3.103999999999999915e+01,1.137338809154206723e-02
3.107999999999999829e+01,1.279768284548915211e-02
3.112000000000000099e+01,5.098904814347848292e-03
3.116000000000000014e+01,4.242134871095318976e-03
3.119999999999999929e+01,1.418063103272025442e-02
3.123999999999999844e+01,7.241586075127410746e-03
3.128000000000000114e+01,7.524669767438176698e-03
3.132000000000000028e+01,7.959631809436509137e-03
3.135999999999999943e+01,4.973334884295393249e-03
3.139999999999999858e+01,7.612658093504946419e-03
3.144000000000000128e+01,1.268458509669354722e-02
3.148000000000000043e+01,1.068609134433094569e-02
3.151999999999999957e+01,5.494410658114769197e-03
3.155999999999999872e+01,4.407865647840555033e-03
3.160000000000000142e+01,1.388851277510214088e-02
3.164000000000000057e+01,1.280162561083612698e-02
3.167999999999999972e+01,7.609260616636349256e-03
3.171999999999999886e+01,8.726732409232081447e-03
3.176000000000000156e+01,2.469685698084514783e-03
3.180000000000000071e+01,1.838257739819212011e-03
3.183999999999999986e+01,5.387988685759034432e-03
3.187999999999999901e+01,1.015393478140555299e-02
3.192000000000000171e+01,8.685724750087400747e-03
3.196000000000000085e+01,6.457100514614520607e-03
3.200000000000000000e+01,8.257586240177279893e-03
3.203999999999999915e+01,2.151383127931334998e-03
3.207999999999999829e+01,8.741047963609010346e-03
3.211999999999999744e+01,4.383055873541602185e-03
3.215999999999999659e+01,8.159479737640112917e-03
3.220000000000000284e+01,9.655004662881504912e-03
3.224000000000000199e+01,7.350416149747820071e-04
3.228000000000000114e+01,8.920349151139334715e-03
3.232000000000000028e+01,1.376041859993128690e-02
3.235999999999999943e+01,6.740539950604368044e-03
3.239999999999999858e+01,1.713002825207244825e-02
3.243999999999999773e+01,6.384616353617756680e-03
3.247999999999999687e+01,7.118683896961209082e-03
3.252000000000000313e+01,6.332093349183442153e-03
3.256000000000000227e+01,5.241231696794766692e-03
3.260000000000000142e+01,9.395865057896172004e-03
3.264000000000000057e+01,4.883565556075586921e-03
3.267999999999999972e+01,6.985196306690601674e-03
3.271999999999999886e+01,5.817611783755722091e-03
3.275999999999999801e+01,9.895521721723570668e-03
3.279999999999999716e+01,5.002401463017776100e-03
3.284000000000000341e+01,1.933686600823020458e-03
3.288000000000000256e+01,3.654320613344081651e-03
3.292000000000000171e+01,7.807553308411032886e-03
3.296000000000000085e+01,4.130118183582986817e-03
3.300000000000000000e+01,7.142636401306895651e-03
3.303999999999999915e+01,8.178349560254268014e-03
3.307999999999999829e+01,4.120265515344578335e-03
3.311999999999999744e+01,1.017322318664430451e-02
3.315999999999999659e+01,1.843070612573564221e-02
3.320000000000000284e+01,8.746302442339082966e-03
3.324000000000000199e+01,4.915585124411683306e-03
3.328000000000000114e+01,1.692884558722970419e-03
3.332000000000000028e+01,4.780015253956149818e-03
3.335999999999999943e+01,1.861057434811551076e-03
3.339999999999999858e+01,8.216874216646729082e-03
3.343999999999999773e+01,9.326844160721112567e-03
3.347999999999999687e+01,7.319644597037702413e-03
3.352000000000000313e+01,8.581307791899313309e-03
3.356000000000000227e+01,7.638091546202264472e-03
3.360000000000000142e+01,8.367229681644104342e-03
3.364000000000000057e+01,1.236523016119043909e-02
3.367999999999999972e+01,4.883398960227419879e-03
3.371999999999999886e+01,6.752365450360550692e-03
3.375999999999999801e+01,6.644524395074004504e-03
3.379999999999999716e+01,2.507222383362157046e-03
3.384000000000000341e+01,7.492645062432705741e-03
3.388000000000000256e+01,4.723420939521998270e-03
3.392000000000000171e+01,9.328364739405469591e-03
3.396000000000000085e+01,6.026613070431850565e-03
3.400000000000000000e+01,7.058061236316066564e-03
3.403999999999999915e+01,8.089329967320467787e-03
3.407999999999999829e+01,9.120419125298213914e-03
3.411999999999999744e+01,1.256497723047603644e-03
3.415999999999999659e+01,4.720001569845636534e-03
3.420000000000000284e+01,5.826575375153419251e-03
3.424000000000000199e+01,7.465138421884621490e-03
3.428000000000000114e+01,1.518545682814031322e-02
3.432000000000000028e+01,5.496054110833988905e-03
3.435999999999999943e+01,6.982027561259930917e-03
3.439999999999999858e+01,1.036842521576116123e-02
3.443999999999999773e+01,6.076198329516404283e-03
3.447999999999999687e+01,6.041145425076285304e-03
3.452000000000000313e+01,0.000000000000000000e+00
3.456000000000000227e+01,4.069891317846832147e-03
3.460000000000000142e+01,2.969955986965524750e-03
3.464000000000000057e+01,7.799726381704977403e-03
3.467999999999999972e+01,1.475799259936501524e-02
3.471999999999999886e+01,6.891358951890878826e-03
3.475999999999999801e+01,1.103636623888234677e-02
3.479999999999999716e+01,9.783473600538274487e-03
3.484000000000000341e+01,1.027895525607207608e-02
3.488000000000000256e+01,1.928896444824185902e-02
3.492000000000000171e+01,1.263780693634156474e-02
3.496000000000000085e+01,1.275262019308901797e-02
3.500000000000000000e+01,8.381823177259507471e-03
3.503999999999999915e+01,1.351386768426250488e-02
3.507999999999999829e+01,7.014027285034560126e-03
3.511999999999999744e+01,1.359016531102559544e-02
3.515999999999999659e+01,1.020695045089544360e-02
3.520000000000000284e+01,7.507769907246700583e-03
3.524000000000000199e+01,6.252865494843161051e-03
3.528000000000000114e+01,6.518261270829023291e-03
3.532000000000000028e+01,1.210516686161084571e-02
3.535999999999999943e+01,5.984162383842753057e-03
3.539999999999999858e+01,4.804546468121592522e-03
3.543999999999999773e+01,4.232939844709678739e-03
3.547999999999999687e+01,7.310310187102849258e-03
3.552000000000000313e+01,9.399181444399187096e-03
3.556000000000000227e+01,9.739311525541194392e-03
3.560000000000000142e+01,1.608516821207084391e-02
3.564000000000000057e+01,1.102721064418698584e-02
3.567999999999999972e+01,1.113871325719532381e-02
3.571999999999999886e+01,1.375882907776171220e-02
3.575999999999999801e+01,9.992727118684487445e-03
3.579999999999999716e+01,9.875601020237609676e-03
3.584000000000000341e+01,7.325515020988896710e-03
3.588000000000000256e+01,1.351802569057834053e-02
3.592000000000000171e+01,7.470454990524638510e-03
3.596000000000000085e+01,1.077367424534394352e-02
3.600000000000000000e+01,1.103573948444552810e-02
3.603999999999999915e+01,9.320989303757468841e-03
3.607999999999999829e+01,1.558859314826266732e-02
3.611999999999999744e+01,1.554600216509376652e-02
3.615999999999999659e+01,1.329852276182147061e-02
3.620000000000000284e+01,1.135495324490418817e-02
3.624000000000000199e+01,1.435276938895011824e-02
3.628000000000000114e+01,1.180063210564523055e-02
3.632000000000000028e+01,1.373373503526352166e-02
3.635999999999999943e+01,1.635086827510476640e-02
3.639999999999999858e+01,1.402624123548315387e-02
3.643999999999999773e+01,1.025696676164100478e-02
3.647999999999999687e+01,1.135305292458995904e-02
3.652000000000000313e+01,1.115653976760675598e-02
3.656000000000000227e+01,1.407683047942645885e-02
3.660000000000000142e+01,1.646476354793100644e-02
3.664000000000000057e+01,1.231442740697930027e-02
3.667999999999999972e+01,1.188908828271848656e-02
3.671999999999999886e+01,1.853381062980867175e-02
3.675999999999999801e+01,2.038881984469660680e-02
3.679999999999999716e+01,1.676989803161583331e-02
3.684000000000000341e+01,1.984091629899020770e-02
3.688000000000000256e+01,2.009885009728956326e-02
3.692000000000000171e+01,1.952032836593472348e-02
3.696000000000000085e+01,2.335102044186253278e-02
3.700000000000000000e+01,2.170778079908740679e-02
3.703999999999999915e+01,2.112869009449427904e-02
3.707999999999999829e+01,2.062543365115241528e-02
3.711999999999999744e+01,2.559572919658076318e-02
3.715999999999999659e+01,2.455992310368136644e-02
3.720000000000000284e+01,2.641284608336217504e-02
3.724000000000000199e+01,2.172749778138412594e-02
3.728000000000000114e+01,3.650415284914517583e-02
3.732000000000000028e+01,3.668397165810055593e-02
3.735999999999999943e+01,4.545433363387881009e-02
3.739999999999999858e+01,4.738232699424652777e-02
3.743999999999999773e+01,5.303531474651517613e-02
3.747999999999999687e+01,6.431390163481456868e-02
3.752000000000000313e+01,7.391976477305543802e-02
3.756000000000000227e+01,9.036761389569047953e-02
3.760000000000000142e+01,1.122890133493335413e-01
3.764000000000000057e+01,1.392278178240915210e-01
3.767999999999999972e+01,1.909503179574948417e-01
3.771999999999999886e+01,2.805326752014602465e-01
3.775999999999999801e+01,4.326827528874375717e-01
3.779999999999999716e+01,6.217803970641905265e-01
3.784000000000000341e+01,8.041877194964999198e-01
3.788000000000000256e+01,9.296527269588233944e-01
3.792000000000000171e+01,1.000000000000000000e+00
3.796000000000000085e+01,9.766092472740207642e-01
3.800000000000000000e+01,9.211360910237942345e-01
3.803999999999999915e+01,8.408028296638248023e-01
3.807999999999999829e+01,7.671595041017584826e-01
3.811999999999999744e+01,6.996739448324110766e-01
3.815999999999999659e+01,5.885503038019865851e-01
3.820000000000000284e+01,4.702041704167593816e-01
3.824000000000000199e+01,3.667585853682831520e-01
3.828000000000000114e+01,2.592074996956442723e-01
3.832000000000000028e+01,1.817618011416760049e-01
3.835999999999999943e+01,1.295559410696031921e-01
3.839999999999999858e+01,9.643195952270261495e-02
3.843999999999999773e+01,7.493948522430289583e-02
3.847999999999999687e+01,6.819551004319088228e-02
3.852000000000000313e+01,6.319989644644734283e-02
3.856000000000000227e+01,5.075371666570632767e-02
3.860000000000000142e+01,4.499747088695941338e-02
3.864000000000000057e+01,4.433465087094740076e-02
3.867999999999999972e+01,3.941428045872217428e-02
3.871999999999999886e+01,3.753468226007931896e-02
3.875999999999999801e+01,3.725139642634174575e-02
3.879999999999999716e+01,3.301465656311473873e-02
3.884000000000000341e+01,3.326314820955984797e-02
3.888000000000000256e+01,2.933011296434861331e-02
3.892000000000000171e+01,3.049050251484437118e-02
3.896000000000000085e+01,2.876177621733822659e-02
3.900000000000000000e+01,2.467610330072084537e-02
3.903999999999999915e+01,2.028613689970418937e-02
3.907999999999999829e+01,2.334634479583020533e-02
3.911999999999999744e+01,2.245309755729201287e-02
3.915999999999999659e+01,1.874675797530881566e-02
3.920000000000000284e+01,2.203444710428138081e-02
3.924000000000000199e+01,2.463772108166509961e-02
3.928000000000000114e+01,1.804186989671366370e-02
3.932000000000000028e+01,2.269740194457723140e-02
3.935999999999999943e+01,1.549296171862457258e-02
3.939999999999999858e+01,2.349316260432871353e-02
3.943999999999999773e+01,2.252231036098351069e-02
3.947999999999999687e+01,1.668571139615974627e-02
3.952000000000000313e+01,2.286073692632742752e-02
3.956000000000000227e+01,2.211736218586405484e-02
3.960000000000000142e+01,1.255498215434613062e-02
3.964000000000000057e+01,1.865338757735030342e-02
3.967999999999999972e+01,1.737724714353652833e-02
3.971999999999999886e+01,1.746934317323059482e-02
3.975999999999999801e+01,1.794136098950185540e-02
3.979999999999999716e+01,1.544823586139646918e-02
3.984000000000000341e+01,1.439937097764951157e-02
3.988000000000000256e+01,1.251404034138211413e-02
3.992000000000000171e+01,1.442971972720251059e-02
3.996000000000000085e+01,1.588905406066414353e-02
4.000000000000000000e+01,1.202649470499185524e-02
4.003999999999999915e+01,1.751471121321472937e-02
4.007999999999999829e+01,1.524825950669588502e-02
4.011999999999999744e+01,1.602257517861995634e-02
4.015999999999999659e+01,1.687271447448852879e-02
4.020000000000000284e+01,1.217288680461576025e-02
4.024000000000000199e+01,1.591154396441113797e-02
4.028000000000000114e+01,2.231084697360675648e-02
4.032000000000000028e+01,1.791451312753690808e-02
4.035999999999999943e+01,1.382207480055054442e-02
4.039999999999999858e+01,1.581137069662187991e-02
4.043999999999999773e+01,1.468347304738500982e-02
4.047999999999999687e+01,1.705248670501586031e-02
4.052000000000000313e+01,1.227502419061828574e-02
4.056000000000000227e+01,1.441556149489278162e-02
4.060000000000000142e+01,1.762023544228038044e-02
4.064000000000000057e+01,1.580711027134885233e-02
4.067999999999999972e+01,1.330956497554218985e-02
4.071999999999999886e+01,1.582941406354360439e-02
4.075999999999999801e+01,1.758881855508509159e-02
4.079999999999999716e+01,1.569885889095933712e-02
4.084000000000000341e+01,1.525315601752094338e-02
4.088000000000000256e+01,1.207037905561440805e-02
4.092000000000000171e+01,1.132017314688542678e-02
4.096000000000000085e+01,1.018964292741770389e-02
4.100000000000000000e+01,1.088348992250529751e-02
4.103999999999999915e+01,1.180520589288900149e-02
4.107999999999999829e+01,2.108937959656611433e-02
4.111999999999999744e+01,1.273573610584491020e-02
4.115999999999999659e+01,1.380888880619838416e-02
4.120000000000000284e+01,1.442569217164097091e-02
4.124000000000000199e+01,1.321771054878664343e-02
4.128000000000000114e+01,1.292181482996695129e-02
4.132000000000000028e+01,1.657897268867776497e-02
4.135999999999999943e+01,1.392591762247817611e-02
4.139999999999999858e+01,1.689844815391884636e-02
4.143999999999999773e+01,1.394088646061079385e-02
4.147999999999999687e+01,1.440420842520836672e-02
4.152000000000000313e+01,1.623576063670593983e-02
4.156000000000000227e+01,1.418987348187306097e-02
4.160000000000000142e+01,1.305607112590009833e-02
4.164000000000000057e+01,1.602736963286500310e-02
4.167999999999999972e+01,1.223230893799840367e-02
4.171999999999999886e+01,1.132596170511891709e-02
4.175999999999999801e+01,1.596917463126705169e-02
4.179999999999999716e+01,1.217349564473970032e-02
4.184000000000000341e+01,1.620810239967826125e-02
4.188000000000000256e+01,8.610800763422802456e-03
4.192000000000000171e+01,1.279704274747512326e-02
4.196000000000000085e+01,1.409415852251241427e-02
4.200000000000000000e+01,1.767179323018040760e-02
4.203999999999999915e+01,1.098595450930623350e-02
4.207999999999999829e+01,1.509534431736857425e-02
4.211999999999999744e+01,1.464307506742506398e-02
4.215999999999999659e+01,1.312625960471793668e-02
4.220000000000000284e+01,1.350984140745197307e-02
4.224000000000000199e+01,2.005117527378007941e-02
4.228000000000000114e+01,1.229975253225839421e-02
4.232000000000000028e+01,1.595175105312072322e-02
4.235999999999999943e+01,8.504008892064389771e-03
4.239999999999999858e+01,1.595680070048746332e-02
4.243999999999999773e+01,1.755552102578181867e-02
4.247999999999999687e+01,1.390836329212914897e-02
4.252000000000000313e+01,1.793944056086397773e-02
4.256000000000000227e+01,1.892934115779904350e-02
4.260000000000000142e+01,1.330492776610738871e-02
4.264000000000000057e+01,1.961610389866243545e-02
4.267999999999999972e+01,2.007320771920770991e-02
4.271999999999999886e+01,2.288685218103161945e-02
4.275999999999999801e+01,2.030256922629847596e-02
4.279999999999999716e+01,1.619759267670588948e-02
4.284000000000000341e+01,1.870651129025110992e-02
4.288000000000000256e+01,2.341992160190544542e-02
4.292000000000000171e+01,2.075877486684763601e-02
4.296000000000000085e+01,2.174657926413553488e-02
4.300000000000000000e+01,1.878091512651562656e-02
4.303999999999999915e+01,1.931215345436557498e-02
4.307999999999999829e+01,3.018247168573459996e-02
4.311999999999999744e+01,2.577171586938630660e-02
4.315999999999999659e+01,1.908002326194630643e-02
4.320000000000000284e+01,2.744091025163099273e-02
4.324000000000000199e+01,2.455000512958437076e-02
4.328000000000000114e+01,2.660046135465686870e-02
4.332000000000000028e+01,2.918287546181976347e-02
4.335999999999999943e+01,3.503411834340460634e-02
4.339999999999999858e+01,3.442309286400797863e-02
4.343999999999999773e+01,4.164234760020366771e-02
4.347999999999999687e+01,4.848126932240955783e-02
4.352000000000000313e+01,4.657719641046145775e-02
4.356000000000000227e+01,5.219930651850086811e-02
4.360000000000000142e+01,5.873349451805810750e-02
4.364000000000000057e+01,7.119735716019674754e-02
4.367999999999999972e+01,8.138028121533474879e-02
4.371999999999999886e+01,9.027058108410908333e-02
4.375999999999999801e+01,1.136052650536237968e-01
4.379999999999999716e+01,1.362555181228097267e-01
4.384000000000000341e+01,1.772273889762867594e-01
4.388000000000000256e+01,2.223803771517695593e-01
4.392000000000000171e+01,2.779484665249788988e-01
4.396000000000000085e+01,3.271303097984420982e-01
4.400000000000000000e+01,3.575339630015683112e-01
4.403999999999999915e+01,3.855806521790812180e-01
4.407999999999999829e+01,3.958374655487474358e-01
4.411999999999999744e+01,3.933980240569215359e-01
4.415999999999999659e+01,3.698996660834393824e-01
4.420000000000000284e+01,3.525590534043560598e-01
4.424000000000000199e+01,3.256391774562739094e-01
4.428000000000000114e+01,2.980348689501008397e-01
4.432000000000000028e+01,2.667811841313383892e-01
4.435999999999999943e+01,2.259482356291366290e-01
4.439999999999999858e+01,1.843548299591123152e-01
4.443999999999999773e+01,1.546209834014359297e-01
4.447999999999999687e+01,1.255711391101735075e-01
4.452000000000000313e+01,9.553276465077496782e-02
4.456000000000000227e+01,8.024286831034420364e-02
4.460000000000000142e+01,5.651407038695899915e-02
4.464000000000000057e+01,5.475604885889928664e-02
4.467999999999999972e+01,4.334273834693439659e-02
4.471999999999999886e+01,4.036789719219135292e-02
4.475999999999999801e+01,3.138692815122069019e-02
4.479999999999999716e+01,2.909587169948365734e-02
4.484000000000000341e+01,3.136605023068359671e-02
4.488000000000000256e+01,3.067106827285800280e-02
4.492000000000000171e+01,2.989984510892060646e-02
4.496000000000000085e+01,3.072491289712804899e-02
4.500000000000000000e+01,2.508770679848034216e-02
4.503999999999999915e+01,2.492402533552819793e-02
4.507999999999999829e+01,2.521627148091435192e-02
4.511999999999999744e+01,1.973046108262446058e-02
4.515999999999999659e+01,2.473577179480000374e-02
4.520000000000000284e+01,1.826121104017580307e-02
4.524000000000000199e+01,1.186245636484721012e-02
4.528000000000000114e+01,1.679108853374525548e-02
4.532000000000000028e+01,1.776624415521864744e-02
4.535999999999999943e+01,2.132600388615232129e-02
4.539999999999999858e+01,1.462227858420914357e-02
4.543999999999999773e+01,1.628099595755360188e-02
4.547999999999999687e+01,1.938395409655179966e-02
4.552000000000000313e+01,7.737999266059680109e-03
4.556000000000000227e+01,1.737859989589604984e-02
4.560000000000000142e+01,1.234631147523947495e-02
4.564000000000000057e+01,1.005067458759741073e-02
4.567999999999999972e+01,1.931049574858677287e-02
4.571999999999999886e+01,1.252899192940345498e-02
4.575999999999999801e+01,9.016308595831570502e-03
4.579999999999999716e+01,1.082509888258313159e-02
4.584000000000000341e+01,9.820773755367081040e-03
4.588000000000000256e+01,1.436599455805400057e-02
4.592000000000000171e+01,1.396942220232978184e-02
4.596000000000000085e+01,9.771419479413581688e-03
4.600000000000000000e+01,1.119898646725086579e-02
4.603999999999999915e+01,1.034560671742382892e-02
4.607999999999999829e+01,1.200080439512284970e-02
4.611999999999999744e+01,1.008264373891572772e-02
4.615999999999999659e+01,1.348595545971044592e-02
4.620000000000000284e+01,1.567265862432844561e-02
4.624000000000000199e+01,1.702287407107816106e-02
4.628000000000000114e+01,1.396346448313265029e-02
4.632000000000000028e+01,1.683372028193015277e-02
4.635999999999999943e+01,1.917158472958312848e-02
4.639999999999999858e+01,1.519921884582368411e-02
4.643999999999999773e+01,1.335530816981337320e-02
4.647999999999999687e+01,9.838642798852024335e-03
4.652000000000000313e+01,1.247971470977268793e-02
4.656000000000000227e+01,7.138023440290073782e-03
4.660000000000000142e+01,1.563251290079354164e-02
4.664000000000000057e+01,1.340736787412163608e-02
4.667999999999999972e+01,1.247441107811609121e-02
4.671999999999999886e+01,1.283364237463005715e-02
4.675999999999999801e+01,9.847585712761633414e-03
4.679999999999999716e+01,1.195492663167237526e-02
4.684000000000000341e+01,9.120471214794638459e-03
4.688000000000000256e+01,1.350809057055225686e-02
4.692000000000000171e+01,1.112933262724211288e-02
4.696000000000000085e+01,1.612469757085576577e-02
4.700000000000000000e+01,1.169283810392062958e-02
4.703999999999999915e+01,1.197425441242829479e-02
4.707999999999999829e+01,1.301568820309642605e-02
4.711999999999999744e+01,1.291653445550151186e-02
4.715999999999999659e+01,1.243703498440738853e-02
4.720000000000000284e+01,1.058887511288334610e-02
4.724000000000000199e+01,1.109724027204482891e-02
4.728000000000000114e+01,1.023694475448268248e-02
4.732000000000000028e+01,7.475819055012635807e-03
4.735999999999999943e+01,5.018564698928765222e-03
4.739999999999999858e+01,1.115181883481053231e-02
4.743999999999999773e+01,1.188712939095477872e-02
4.747999999999999687e+01,1.307835926662679130e-02
4.752000000000000313e+01,8.871645286267640720e-03
4.756000000000000227e+01,1.120278597242793488e-02
4.760000000000000142e+01,1.406586975896655274e-02
4.764000000000000057e+01,1.069474312683172876e-02
4.767999999999999972e+01,1.051640615396887656e-02
4.771999999999999886e+01,7.600971469527961419e-03
4.775999999999999801e+01,1.221170529965616772e-02
4.779999999999999716e+01,1.378124436074834938e-02
4.784000000000000341e+01,1.124524978058276045e-02
4.788000000000000256e+01,1.342252807477626458e-02
4.792000000000000171e+01,1.225451440432896721e-02
4.796000000000000085e+01,1.298687810617762776e-02
4.800000000000000000e+01,8.929489856561520153e-03
4.803999999999999915e+01,1.315851110739732835e-02
4.807999999999999829e+01,1.092524783407119483e-02
4.811999999999999744e+01,9.604046841669797857e-03
4.815999999999999659e+01,6.382012766276800100e-03
4.820000000000000284e+01,1.023000051409126906e-02
4.824000000000000199e+01,1.301342105082220653e-02
4.828000000000000114e+01,9.562628958530210166e-03
4.832000000000000028e+01,1.059703563510887812e-02
4.835999999999999943e+01,7.221810093356534691e-03
4.839999999999999858e+01,1.061250890291318659e-02
4.843999999999999773e+01,1.096201073308434963e-02
4.847999999999999687e+01,7.282000906939299981e-03
4.852000000000000313e+01,8.999479502423532798e-03
4.856000000000000227e+01,1.162901885921723000e-02
4.860000000000000142e+01,1.547471562033780890e-02
4.864000000000000057e+01,6.472093518791067340e-03
4.867999999999999972e+01,9.176967495444761022e-03
4.871999999999999886e+01,9.296788697431489570e-03
4.875999999999999801e+01,1.131698450877735920e-02
4.879999999999999716e+01,1.310887732318561857e-02
4.884000000000000341e+01,1.223969275319532722e-02
4.888000000000000256e+01,9.925817785316688388e-03
4.892000000000000171e+01,1.019653463182942400e-02
4.896000000000000085e+01,9.326657585324395205e-03
4.900000000000000000e+01,1.438643666972400439e-02
4.903999999999999915e+01,1.100729883686974581e-02
4.907999999999999829e+01,9.680582898782007228e-03
4.911999999999999744e+01,6.681103148051702710e-03
4.915999999999999659e+01,9.611278975638641933e-03
4.920000000000000284e+01,1.140086008132677915e-02
4.924000000000000199e+01,1.326623345162634623e-02
4.928000000000000114e+01,1.064594723092646654e-02
4.932000000000000028e+01,1.213073534897088877e-02
4.935999999999999943e+01,1.019420233379713346e-02
4.939999999999999858e+01,1.069021108467049785e-02
4.943999999999999773e+01,1.240237433878709460e-02
4.947999999999999687e+01,9.932974092334309266e-03
4.952000000000000313e+01,1.194876847034694912e-02
4.956000000000000227e+01,1.183565234435533971e-02
4.960000000000000142e+01,1.172230304436249794e-02
4.964000000000000057e+01,1.518185761090175973e-02
4.967999999999999972e+01,1.453587218142849552e-02
4.971999999999999886e+01,1.267326603885642750e-02
4.975999999999999801e+01,1.377536978604738428e-02
4.979999999999999716e+01,1.343277995797264104e-02
4.984000000000000341e+01,1.415429486109055779e-02
4.988000000000000256e+01,1.031412390571536351e-02
4.992000000000000171e+01,1.681300923074931924e-02
4.996000000000000085e+01,1.327646636003965153e-02
5.000000000000000000e+01,1.278065674550301657e-02
5.003999999999999915e+01,1.281678180438738414e-02
5.007999999999999829e+01,1.688195438193498127e-02
5.011999999999999744e+01,1.501700475686918931e-02
5.015999999999999659e+01,1.056699738385013208e-02
5.020000000000000284e+01,1.113435165383763747e-02
5.024000000000000199e+01,1.048508341481742268e-02
5.028000000000000114e+01,1.432100717547259150e-02
5.032000000000000028e+01,1.230283223807125681e-02
5.035999999999999943e+01,9.524179548968059184e-03
5.039999999999999858e+01,1.161083942155506296e-02
5.043999999999999773e+01,8.527617939264648186e-03
5.047999999999999687e+01,3.847652142630091348e-03
5.052000000000000313e+01,8.898546991873519316e-03
5.056000000000000227e+01,1.106028593053099210e-02
5.060000000000000142e+01,9.420578476962855261e-03
5.064000000000000057e+01,1.112569885038256282e-02
5.067999999999999972e+01,1.283058231983632419e-02
5.071999999999999886e+01,1.119016415437037830e-02
5.075999999999999801e+01,1.000565398039120375e-02
5.079999999999999716e+01,9.961269417371554011e-03
5.084000000000000341e+01,1.082893774129141048e-02
5.088000000000000256e+01,1.245661042342178018e-02
5.092000000000000171e+01,9.598617850532210893e-03
5.096000000000000085e+01,1.464690371691976419e-02
5.100000000000000000e+01,1.148433848273142099e-02
5.103999999999999915e+01,1.166659969406249990e-02
5.107999999999999829e+01,1.101235647175750204e-02
5.111999999999999744e+01,1.127016516936408912e-02
5.115999999999999659e+01,9.931227204130246497e-03
5.120000000000000284e+01,8.592050539021510100e-03
5.124000000000000199e+01,9.609385089914115885e-03
5.128000000000000114e+01,7.053343485958030006e-03
5.132000000000000028e+01,1.514045010843588154e-02
5.135999999999999943e+01,9.618986521350538638e-03
5.139999999999999858e+01,1.109150951043423594e-02
5.143999999999999773e+01,1.051113969790318757e-02
5.147999999999999687e+01,1.274342544423886191e-02
5.152000000000000313e+01,1.170643098800902906e-02
5.156000000000000227e+01,9.832930440381006110e-03
5.160000000000000142e+01,1.571365773109851399e-02
5.164000000000000057e+01,1.125485424274077703e-02
5.167999999999999972e+01,1.264967343415820608e-02
5.171999999999999886e+01,1.541268764503101601e-02
5.175999999999999801e+01,1.254967077043421704e-02
5.179999999999999716e+01,7.709784046192168054e-03
5.184000000000000341e+01,9.407737206757535789e-03
5.188000000000000256e+01,9.813037999003557110e-03
5.192000000000000171e+01,1.614798483743475760e-02
5.196000000000000085e+01,1.328376272098200778e-02
5.200000000000000000e+01,1.155966207108354363e-02
5.203999999999999915e+01,1.378857797536199234e-02
5.207999999999999829e+01,1.168387300894423164e-02
5.211999999999999744e+01,1.261989397691691377e-02
5.215999999999999659e+01,1.226326160954236896e-02
5.220000000000000284e+01,1.046192737809162505e-02
5.224000000000000199e+01,1.192939125246400729e-02
5.228000000000000114e+01,1.681770148509478813e-02
5.232000000000000028e+01,1.007406727020587929e-02
5.235999999999999943e+01,1.207297280765636319e-02
5.239999999999999858e+01,1.338741774320713167e-02
5.243999999999999773e+01,1.242089383759891093e-02
5.247999999999999687e+01,9.705570319722335582e-03
5.252000000000000313e+01,1.322398755699260089e-02
5.256000000000000227e+01,1.339709680458840528e-02
5.260000000000000142e+01,1.471032544653588098e-02
5.264000000000000057e+01,1.199402806489564127e-02
5.267999999999999972e+01,1.543544669052378249e-02
5.271999999999999886e+01,1.347890350103131234e-02
5.275999999999999801e+01,1.083789846631751964e-02
5.279999999999999716e+01,1.511485097734231210e-02
5.284000000000000341e+01,1.087684925187216815e-02
5.288000000000000256e+01,9.603546640711425886e-03
5.292000000000000171e+01,1.380374145031843316e-02
5.296000000000000085e+01,1.306211878767016103e-02
5.300000000000000000e+01,1.102783988859100568e-02
5.303999999999999915e+01,1.287054989472667665e-02
5.307999999999999829e+01,9.467345233002265326e-03
5.311999999999999744e+01,9.256911442579384211e-03
5.315999999999999659e+01,1.018659511245240297e-02
5.320000000000000284e+01,1.187627512801911131e-02
5.324000000000000199e+01,1.637860462399148842e-02
5.328000000000000114e+01,1.107356704390559735e-02
5.332000000000000028e+01,1.010166257375303203e-02
5.335999999999999943e+01,8.217221600303331597e-03
5.339999999999999858e+01,1.020976828874685383e-02
5.343999999999999773e+01,1.562315732919038712e-02
5.347999999999999687e+01,1.320580768040916647e-02
5.352000000000000313e+01,1.382917913087892275e-02
5.356000000000000227e+01,1.376808597319053966e-02
5.360000000000000142e+01,1.340264904565251387e-02
5.364000000000000057e+01,1.311298918657331086e-02
5.367999999999999972e+01,9.630065860290259322e-03
5.371999999999999886e+01,1.291304851178624521e-02
5.375999999999999801e+01,1.087408995163480913e-02
5.379999999999999716e+01,1.126765796137790994e-02
5.384000000000000341e+01,1.082471200535285380e-02
5.388000000000000256e+01,8.328864820755725595e-03
5.392000000000000171e+01,1.290301970436767698e-02
5.396000000000000085e+01,1.002655521744815273e-02
5.400000000000000000e+01,1.551250384239216164e-02
5.403999999999999915e+01,9.746623055957638962e-03
5.407999999999999829e+01,1.165893734747337936e-02
5.411999999999999744e+01,8.781478551057611548e-03
5.415999999999999659e+01,1.495065007153761720e-02
5.420000000000000284e+01,1.747041115715840948e-02
5.424000000000000199e+01,1.299569707696621862e-02
5.428000000000000114e+01,1.445062089229554730e-02
5.432000000000000028e+01,1.476493230293032810e-02
5.435999999999999943e+01,1.424272795188802170e-02
5.439999999999999858e+01,1.417641902096988815e-02
5.443999999999999773e+01,1.327359405208095727e-02
5.447999999999999687e+01,1.100208354003693635e-02
5.452000000000000313e+01,1.701696014865646672e-02
5.456000000000000227e+01,1.398470721342944846e-02
5.460000000000000142e+01,1.361305067103335542e-02
5.464000000000000057e+01,1.187270803289480932e-02
5.467999999999999972e+01,1.575790512764508461e-02
5.471999999999999886e+01,1.264862539882026515e-02
5.475999999999999801e+01,1.569705449362809521e-02
5.479999999999999716e+01,1.570426464370258679e-02
5.484000000000000341e+01,1.289832829677014896e-02
5.488000000000000256e+01,1.214479381331220846e-02
5.492000000000000171e+01,1.686474984327992338e-02
5.496000000000000085e+01,1.010480069861852646e-02
5.500000000000000000e+01,1.094701925923899193e-02
5.503999999999999915e+01,9.736332585028980441e-03
5.507999999999999829e+01,1.308684552816444420e-02
5.511999999999999744e+01,1.362421100726507114e-02
5.515999999999999659e+01,1.461746928169991265e-02
5.520000000000000284e+01,1.218938625347769020e-02
5.524000000000000199e+01,1.584298619583491760e-02
5.528000000000000114e+01,1.432668806754689231e-02
5.532000000000000028e+01,1.204989505734860820e-02
5.535999999999999943e+01,1.106526029995204101e-02
5.539999999999999858e+01,1.122073526662821508e-02
5.543999999999999773e+01,1.350463435801419095e-02
5.547999999999999687e+01,1.388767508553653829e-02
5.552000000000000313e+01,1.252190570163057293e-02
5.556000000000000227e+01,1.237226968450107038e-02
5.560000000000000142e+01,1.047382327964954847e-02
5.564000000000000057e+01,1.564537300269293330e-02
5.567999999999999972e+01,8.500748916262375679e-03
5.571999999999999886e+01,1.131504010249356242e-02
5.575999999999999801e+01,9.111479950899496749e-03
5.579999999999999716e+01,1.306562503112019408e-02
5.584000000000000341e+01,1.154577332547557060e-02
5.588000000000000256e+01,1.048181192852197172e-02
5.592000000000000171e+01,1.124217621735178370e-02
5.596000000000000085e+01,1.299059990561645707e-02
5.600000000000000000e+01,1.481479251167628491e-02
5.603999999999999915e+01,1.025269729764377753e-02
5.607999999999999829e+01,1.017577405199467447e-02
5.611999999999999744e+01,1.093486126261088674e-02
5.615999999999999659e+01,1.047730551848676320e-02
5.620000000000000284e+01,1.214817127428247795e-02
5.624000000000000199e+01,1.412287770486549479e-02
5.628000000000000114e+01,1.168792456404285640e-02
5.632000000000000028e+01,1.115331992282628422e-02
5.635999999999999943e+01,1.206291847132254409e-02
5.639999999999999858e+01,1.601322817249715633e-02
5.643999999999999773e+01,1.418544223443955754e-02
5.647999999999999687e+01,1.357378648578107250e-02
5.652000000000000313e+01,1.060512360969466730e-02
5.656000000000000227e+01,1.326199397359554243e-02
5.660000000000000142e+01,1.196534883266246740e-02
5.664000000000000057e+01,1.180880913325002730e-02
5.667999999999999972e+01,1.172803600313646923e-02
5.671999999999999886e+01,1.210315028063029333e-02
5.675999999999999801e+01,1.293415182758464975e-02
5.679999999999999716e+01,1.224441142828493895e-02
5.684000000000000341e+01,1.109826767865927134e-02
5.688000000000000256e+01,1.344897859569631378e-02
5.692000000000000171e+01,1.283448744150847941e-02
5.696000000000000085e+01,1.450046355303257622e-02
5.700000000000000000e+01,1.723051966746469432e-02
5.703999999999999915e+01,1.121753445411037380e-02
5.707999999999999829e+01,1.326285493414851996e-02
5.711999999999999744e+01,1.523189207328815714e-02
5.715999999999999659e+01,1.279126660179164508e-02
5.720000000000000284e+01,1.202291400479745843e-02
5.724000000000000199e+01,1.505551161230864188e-02
5.728000000000000114e+01,1.231001067950394760e-02
5.732000000000000028e+01,1.382160484665733227e-02
5.735999999999999943e+01,1.350835835233661110e-02
5.739999999999999858e+01,1.555160179940364568e-02
5.743999999999999773e+01,1.204481873944059957e-02
5.747999999999999687e+01,1.621621901494629467e-02
5.752000000000000313e+01,1.255686664839625842e-02
5.756000000000000227e+01,1.209026981884829717e-02
5.760000000000000142e+01,1.344799287291640645e-02
5.764000000000000057e+01,1.222063234557185969e-02
5.767999999999999972e+01,1.692289797126732276e-02
5.771999999999999886e+01,1.698742646639759407e-02
5.775999999999999801e+01,1.309843545043548781e-02
5.779999999999999716e+01,1.209810236143018733e-02
5.784000000000000341e+01,1.292208832715987729e-02
5.788000000000000256e+01,1.032472373439412283e-02
5.792000000000000171e+01,1.464529900457120330e-02
5.796000000000000085e+01,1.379596694826458990e-02
5.800000000000000000e+01,1.332649368357534565e-02
5.803999999999999915e+01,1.392109682997624484e-02
5.807999999999999829e+01,1.618796981164897716e-02
5.811999999999999744e+01,1.001589451673479125e-02
5.815999999999999659e+01,1.311850830990543906e-02
5.820000000000000284e+01,1.614483503221285712e-02
5.824000000000000199e+01,1.308896311751589492e-02
5.828000000000000114e+01,1.360596522963323368e-02
5.832000000000000028e+01,1.328643790353614858e-02
5.835999999999999943e+01,1.547544559388473566e-02
5.839999999999999858e+01,1.454719771099319096e-02
5.843999999999999773e+01,1.529121842005188962e-02
5.847999999999999687e+01,1.519870913830881180e-02
5.852000000000000313e+01,1.115267772068333912e-02
5.856000000000000227e+01,1.501289849443507469e-02
5.860000000000000142e+01,1.294296777844303886e-02
5.864000000000000057e+01,1.307747433070448675e-02
5.867999999999999972e+01,1.153918405322819710e-02
5.871999999999999886e+01,1.547437116522762737e-02
5.875999999999999801e+01,1.317530945373159360e-02
5.879999999999999716e+01,1.125610377091610347e-02
5.884000000000000341e+01,1.412615730551620465e-02
5.888000000000000256e+01,1.182630033625528543e-02
5.892000000000000171e+01,1.173087966821997202e-02
5.896000000000000085e+01,1.368784677268129746e-02
5.900000000000000000e+01,1.420008852810338354e-02
5.903999999999999915e+01,1.091085474231625121e-02
5.907999999999999829e+01,1.013015348633164101e-02
5.911999999999999744e+01,1.117376686438313442e-02
5.915999999999999659e+01,1.388964634774171245e-02
5.920000000000000284e+01,1.257597715143052991e-02
5.924000000000000199e+01,1.301059797942384112e-02
5.928000000000000114e+01,1.504146030299266003e-02
5.932000000000000028e+01,1.235855577483158801e-02
5.935999999999999943e+01,1.378069091055755986e-02
5.939999999999999858e+01,1.588677678392572470e-02
5.943999999999999773e+01,1.411536153932519549e-02
5.947999999999999687e+01,1.249572738903570110e-02
5.952000000000000313e+01,1.680571303703150277e-02
5.956000000000000227e+01,1.108023733404166558e-02
5.960000000000000142e+01,1.272884086357369861e-02
5.964000000000000057e+01,1.255259585726167283e-02
5.967999999999999972e+01,1.534102648029593216e-02
5.971999999999999886e+01,1.288351950309440247e-02
5.975999999999999801e+01,1.270647012132590341e-02
5.979999999999999716e+01,1.283324911927585452e-02
5.984000000000000341e+01,1.257963860117777485e-02
5.988000000000000256e+01,1.262985618650446819e-02
5.992000000000000171e+01,1.359209529943758432e-02
5.996000000000000085e+01,1.181719442785907764e-02
