2.003999999999999915e+01,5.095220375026416303e-03
2.007999999999999829e+01,9.757297400409740973e-02
2.012000000000000099e+01,7.664915960896440117e-02
2.016000000000000014e+01,8.433402833044829905e-02
2.019999999999999929e+01,8.629543077313905908e-02
2.023999999999999844e+01,7.056913265389128109e-02
2.028000000000000114e+01,7.460838656549298453e-02
2.032000000000000028e+01,6.824251569156086772e-02
2.035999999999999943e+01,1.112926877371456930e-01
2.039999999999999858e+01,7.943490878540729327e-02
2.044000000000000128e+01,6.474175902884551914e-02
2.048000000000000043e+01,7.397563078993218966e-02
2.051999999999999957e+01,7.124382245612440046e-02
2.055999999999999872e+01,1.480987301475447382e-01
2.060000000000000142e+01,5.849328701084764021e-02
2.064000000000000057e+01,3.859106128730181717e-02
2.067999999999999972e+01,6.394340095668542279e-02
2.071999999999999886e+01,8.617318666937841265e-02
2.076000000000000156e+01,1.016391293002876645e-01
2.080000000000000071e+01,1.155430689547504719e-01
2.083999999999999986e+01,1.127996669153531473e-01
2.087999999999999901e+01,4.659235604960990790e-02
2.092000000000000171e+01,6.673414858400443517e-02
2.096000000000000085e+01,2.393221512754113364e-02
2.100000000000000000e+01,8.464545822280615528e-02
2.103999999999999915e+01,7.929386965605333959e-02
2.107999999999999829e+01,7.914266672465425367e-02
2.112000000000000099e+01,1.003175550538886462e-01
2.116000000000000014e+01,4.606429656296169572e-02
2.119999999999999929e+01,2.146007325382901995e-02
2.123999999999999844e+01,7.800310767348980767e-02
2.128000000000000114e+01,8.772811739845533252e-02
2.132000000000000028e+01,1.682313710569676921e-02
2.135999999999999943e+01,6.868013847665306593e-02
2.139999999999999858e+01,1.337776090170524589e-02
2.144000000000000128e+01,3.922263796332405711e-02
2.148000000000000043e+01,4.321832271217692506e-02
2.151999999999999957e+01,7.478230140574874951e-02
2.155999999999999872e+01,4.548328112129724349e-02
2.160000000000000142e+01,7.184249345309927370e-02
2.164000000000000057e+01,1.153663164267204472e-01
2.167999999999999972e+01,1.396418643572399088e-01
2.171999999999999886e+01,8.432778423033908399e-02
2.176000000000000156e+01,6.126365098888978539e-02
2.180000000000000071e+01,6.576780736304392583e-02
2.183999999999999986e+01,8.431546685252136464e-02
2.187999999999999901e+01,1.267901262140640750e-01
2.192000000000000171e+01,1.224467509857878472e-01
2.196000000000000085e+01,6.140184317406111036e-02
2.200000000000000000e+01,9.919043980152783546e-02
2.203999999999999915e+01,5.686921935163325587e-02
2.207999999999999829e+01,8.633193034037417446e-02
2.212000000000000099e+01,8.614267803555158975e-02
2.216000000000000014e+01,1.031180283327598202e-01
2.219999999999999929e+01,3.050489939972380726e-03
2.223999999999999844e+01,1.136560278370247340e-01
2.228000000000000114e+01,1.379095360775063894e-01
2.232000000000000028e+01,1.137844513265821034e-01
2.235999999999999943e+01,1.297120652701038990e-01
2.239999999999999858e+01,1.695666710459028392e-01
2.244000000000000128e+01,1.443967916588568823e-01
2.248000000000000043e+01,7.969144603705390073e-02
2.251999999999999957e+01,1.075773879461171395e-01
2.255999999999999872e+01,5.743424102754410288e-02
2.260000000000000142e+01,8.427685823160037393e-02
2.264000000000000057e+01,1.157996528792677171e-01
2.267999999999999972e+01,6.669243648207166808e-02
2.271999999999999886e+01,1.034141115825990970e-01
2.276000000000000156e+01,4.442043630240439384e-02
2.280000000000000071e+01,1.648887843111226936e-01
2.283999999999999986e+01,8.664533437134029625e-02
2.287999999999999901e+01,7.758488313939712611e-02
2.292000000000000171e+01,8.568902275902524901e-02
2.296000000000000085e+01,1.010742552365933439e-01
2.300000000000000000e+01,6.235885941302626162e-02
2.303999999999999915e+01,1.531678122193908254e-01
2.307999999999999829e+01,1.264136786575864591e-01
2.312000000000000099e+01,1.428333364740380917e-01
2.316000000000000014e+01,1.306413830621061811e-01
2.319999999999999929e+01,1.090846284813398875e-01
2.323999999999999844e+01,1.312218474958724013e-01
2.328000000000000114e+01,1.289089260057111053e-01
2.332000000000000028e+01,1.526037184130992763e-01
2.335999999999999943e+01,1.284400858218825991e-01
2.339999999999999858e+01,8.606851973917564735e-02
2.344000000000000128e+01,0.000000000000000000e+00
2.348000000000000043e+01,9.859533375995029048e-02
2.351999999999999957e+01,1.347670860209252974e-01
2.355999999999999872e+01,1.350446438557689477e-01
2.360000000000000142e+01,1.836978263713084092e-01
2.364000000000000057e+01,9.241999874818145055e-02
2.367999999999999972e+01,8.541049556295736422e-02
2.371999999999999886e+01,9.556557086039958737e-02
2.376000000000000156e+01,1.410916665553011984e-01
2.380000000000000071e+01,1.033868135269814109e-01
2.383999999999999986e+01,8.024561676410173205e-02
2.387999999999999901e+01,1.002781996290190575e-01
2.392000000000000171e+01,8.077529399514950248e-02
2.396000000000000085e+01,1.252535296473162862e-01
2.400000000000000000e+01,1.432008773732613982e-01
2.403999999999999915e+01,1.231732869622197413e-01
2.407999999999999829e+01,9.742217028319574701e-02
2.412000000000000099e+01,1.372127446335605627e-01
2.416000000000000014e+01,1.208219364583646427e-01
2.419999999999999929e+01,1.418828781672434591e-01
2.423999999999999844e+01,1.395340326734991476e-01
2.428000000000000114e+01,8.932674795690984104e-02
2.432000000000000028e+01,1.410740362439590057e-01
2.435999999999999943e+01,8.930318832680282648e-02
2.439999999999999858e+01,9.943273860327139779e-02
2.444000000000000128e+01,1.340094332436873037e-01
2.448000000000000043e+01,1.337322873784878574e-01
2.451999999999999957e+01,1.209692155014914783e-01
2.455999999999999872e+01,1.222496046855416629e-01
2.460000000000000142e+01,1.235284843579822073e-01
2.464000000000000057e+01,1.409315601440923604e-01
2.467999999999999972e+01,1.463688915170022198e-01
2.471999999999999886e+01,1.382799256411326450e-01
2.476000000000000156e+01,1.535977310368918936e-01
2.480000000000000071e+01,1.397837157756343651e-01
2.483999999999999986e+01,1.613407042138140790e-01
2.487999999999999901e+01,1.111107768230719800e-01
2.492000000000000171e+01,1.649161494488028401e-01
2.496000000000000085e+01,1.349703713440221498e-01
2.500000000000000000e+01,1.481983555505712313e-01
2.503999999999999915e+01,1.390569083303492270e-01
2.507999999999999829e+01,1.481203867104117500e-01
2.512000000000000099e+01,1.051639403012534224e-01
2.516000000000000014e+01,1.230675121905037694e-01
2.519999999999999929e+01,1.727007937065369869e-01
2.523999999999999844e+01,1.385829201629417140e-01
2.528000000000000114e+01,1.091451832455713616e-01
2.532000000000000028e+01,1.150784426062956556e-01
2.535999999999999943e+01,1.324542302972706864e-01
2.539999999999999858e+01,1.347431580087624370e-01
2.544000000000000128e+01,6.368460901596448287e-02
2.548000000000000043e+01,1.580430719220357605e-01
2.551999999999999957e+01,1.197530726358093933e-01
2.555999999999999872e+01,1.828974431090405472e-01
2.560000000000000142e+01,1.430438422786417807e-01
2.564000000000000057e+01,1.843374311480596717e-01
2.567999999999999972e+01,1.756918228595362452e-01
2.571999999999999886e+01,1.327125389659730981e-01
2.576000000000000156e+01,1.942887261739103533e-01
2.580000000000000071e+01,1.835577992563068028e-01
2.583999999999999986e+01,1.202867523450902726e-01
2.587999999999999901e+01,1.558491498838780187e-01
2.592000000000000171e+01,1.326292173236235661e-01
2.596000000000000085e+01,1.364573259882880252e-01
2.600000000000000000e+01,1.397637194233801172e-01
2.603999999999999915e+01,8.428778090409441703e-02
2.607999999999999829e+01,1.640581688090621826e-01
2.612000000000000099e+01,1.184626622583489497e-01
2.616000000000000014e+01,1.430904718477206961e-01
2.619999999999999929e+01,1.552323294505953966e-01
2.623999999999999844e+01,1.117129564411347281e-01
2.628000000000000114e+01,1.925160412437592061e-01
2.632000000000000028e+01,1.448321240642065910e-01
2.635999999999999943e+01,1.819366739591035953e-01
2.639999999999999858e+01,1.888690103144169963e-01
2.644000000000000128e+01,1.749924458145104000e-01
2.648000000000000043e+01,1.642354471703362240e-01
2.651999999999999957e+01,1.935310829023033918e-01
2.655999999999999872e+01,2.155426018055482118e-01
2.660000000000000142e+01,1.631662579248345790e-01
2.664000000000000057e+01,1.139094774260727555e-01
2.667999999999999972e+01,1.608852086465188957e-01
2.671999999999999886e+01,1.173473689839464734e-01
2.676000000000000156e+01,1.372704432438635325e-01
2.680000000000000071e+01,1.587525261948165844e-01
2.683999999999999986e+01,1.911569305211687220e-01
2.687999999999999901e+01,1.684202784124397279e-01
2.692000000000000171e+01,1.051077232767747976e-01
2.696000000000000085e+01,1.130588400570468749e-01
2.700000000000000000e+01,1.090441765542951164e-01
2.703999999999999915e+01,1.809748403819935458e-01
2.707999999999999829e+01,1.816387384386599080e-01
2.712000000000000099e+01,1.781396154426400369e-01
2.716000000000000014e+01,1.735985752097578549e-01
2.719999999999999929e+01,1.914239003785881132e-01
2.723999999999999844e+01,1.374622732302270556e-01
2.728000000000000114e+01,1.937781184786079025e-01
2.732000000000000028e+01,1.725849853767461584e-01
2.735999999999999943e+01,1.586728771038475594e-01
2.739999999999999858e+01,1.900152303250775832e-01
2.744000000000000128e+01,1.298036333865170699e-01
2.748000000000000043e+01,2.017172367923578402e-01
2.751999999999999957e+01,1.992429631899993725e-01
2.755999999999999872e+01,1.853230847187613550e-01
2.760000000000000142e+01,2.041732469123479776e-01
2.764000000000000057e+01,1.658016046308813385e-01
2.767999999999999972e+01,2.116982249427927509e-01
2.771999999999999886e+01,2.383464768263706401e-01
2.776000000000000156e+01,1.770820621092440983e-01
2.780000000000000071e+01,2.567859720193862438e-01
2.783999999999999986e+01,2.569001592499854381e-01
2.787999999999999901e+01,2.481696570260342460e-01
2.792000000000000171e+01,2.498412754070818143e-01
2.796000000000000085e+01,2.868838492488381409e-01
2.800000000000000000e+01,2.630633245428857792e-01
2.803999999999999915e+01,2.413219734285453055e-01
2.807999999999999829e+01,2.627543370052509153e-01
2.812000000000000099e+01,3.008310269632678002e-01
2.816000000000000014e+01,3.227804461243226619e-01
2.819999999999999929e+01,2.880282362244687144e-01
2.823999999999999844e+01,3.214185740160347970e-01
2.828000000000000114e+01,2.955063611479105123e-01
2.832000000000000028e+01,3.694679231493872562e-01
2.835999999999999943e+01,3.399112871021340854e-01
2.839999999999999858e+01,3.233576846004280192e-01
2.844000000000000128e+01,3.759869948426722841e-01
2.848000000000000043e+01,3.667128309711083500e-01
2.851999999999999957e+01,3.522352562565184142e-01
2.855999999999999872e+01,3.632451303507718277e-01
2.860000000000000142e+01,4.215901836753084830e-01
2.864000000000000057e+01,3.899418205038328034e-01
2.867999999999999972e+01,3.473680192193893124e-01
2.871999999999999886e+01,4.192331406466843213e-01
2.876000000000000156e+01,3.532479090638343533e-01
2.880000000000000071e+01,3.262749084609902206e-01
2.883999999999999986e+01,2.878562831990191806e-01
2.887999999999999901e+01,3.331857179046903705e-01
2.892000000000000171e+01,3.384594027335415256e-01
2.896000000000000085e+01,3.655792416801365574e-01
2.900000000000000000e+01,2.808579275248259677e-01
2.903999999999999915e+01,3.105755311336925173e-01
2.907999999999999829e+01,2.997171983195796585e-01
2.912000000000000099e+01,3.044628082808903957e-01
2.916000000000000014e+01,2.811168983194090587e-01
2.919999999999999929e+01,2.452849899880370221e-01
2.923999999999999844e+01,2.406625447480996438e-01
2.928000000000000114e+01,2.724514027049341203e-01
2.932000000000000028e+01,2.569019275872010399e-01
2.935999999999999943e+01,2.236646109020138662e-01
2.939999999999999858e+01,2.185156504002112587e-01
2.944000000000000128e+01,2.123247374101671359e-01
2.948000000000000043e+01,2.461864130313161370e-01
2.951999999999999957e+01,2.290684639790239452e-01
2.955999999999999872e+01,1.958232224841861269e-01
2.960000000000000142e+01,2.333214280155207487e-01
2.964000000000000057e+01,2.240014795971042583e-01
2.967999999999999972e+01,1.860698191437290816e-01
2.971999999999999886e+01,1.855898232289842908e-01
2.976000000000000156e+01,2.152789142211296025e-01
2.980000000000000071e+01,1.872259832698000837e-01
2.983999999999999986e+01,2.039072920150604151e-01
2.987999999999999901e+01,1.862548608369753722e-01
2.992000000000000171e+01,2.024128025986470791e-01
2.996000000000000085e+01,1.681112969563579862e-01
3.000000000000000000e+01,1.473329841941843354e-01
3.003999999999999915e+01,1.806522213391823783e-01
3.007999999999999829e+01,1.801578995409871264e-01
3.012000000000000099e+01,1.333656004440756382e-01
3.016000000000000014e+01,1.495139786294300555e-01
3.019999999999999929e+01,1.859479395435906235e-01
3.023999999999999844e+01,1.537160061914359110e-01
3.028000000000000114e+01,1.511329676340049388e-01
3.032000000000000028e+01,1.386648337521073082e-01
3.035999999999999943e+01,1.235941809405931013e-01
3.039999999999999858e+01,1.647018087597561797e-01
3.044000000000000128e+01,1.199774648318962939e-01
3.048000000000000043e+01,1.189469825607460118e-01
3.051999999999999957e+01,1.236369240442495160e-01
3.055999999999999872e+01,1.252041594335321639e-01
3.060000000000000142e+01,1.324918173405780497e-01
3.064000000000000057e+01,1.090870120804663390e-01
3.067999999999999972e+01,1.340577220362423050e-01
3.071999999999999886e+01,1.657892207992021361e-01
3.076000000000000156e+01,1.585053093816171932e-01
3.080000000000000071e+01,1.506996085210309533e-01
3.083999999999999986e+01,1.376904609475937680e-01
3.087999999999999901e+01,1.241595226942646957e-01
3.092000000000000171e+01,9.554163911600821457e-02
3.096000000000000085e+01,7.264417248950796879e-02
3.100000000000000000e+01,7.991577359809519387e-02
3.103999999999999915e+01,1.074729444481383883e-01
3.107999999999999829e+01,9.497433202531842256e-02
3.112000000000000099e+01,9.911999960041639746e-02
3.116000000000000014e+01,1.001429518046146189e-01
3.119999999999999929e+01,6.163030295299203043e-02
3.123999999999999844e+01,1.011436527845820804e-01
3.128000000000000114e+01,1.006012162510827451e-01
3.132000000000000028e+01,1.094204796099800397e-01
3.135999999999999943e+01,8.338579609067940657e-02
3.139999999999999858e+01,8.543943783250129709e-02
3.144000000000000128e+01,8.697128023619746240e-02
3.148000000000000043e+01,1.025464767099133895e-01
3.151999999999999957e+01,9.211085306208059709e-02
3.155999999999999872e+01,1.050818955501848090e-01
3.160000000000000142e+01,7.435585821899004522e-02
3.164000000000000057e+01,7.379887872775882374e-02
3.167999999999999972e+01,8.208340949053873070e-02
3.171999999999999886e+01,7.059932590808237762e-02
3.176000000000000156e+01,5.755306989518214900e-02
3.180000000000000071e+01,5.855016300473971091e-02
3.183999999999999986e+01,1.131245941190543586e-01
3.187999999999999901e+01,9.955328968317710137e-02
3.192000000000000171e+01,6.569318373745891559e-02
3.196000000000000085e+01,1.036168564744001375e-01
3.200000000000000000e+01,8.691957768764732584e-02
3.203999999999999915e+01,1.014317187011621324e-01
3.207999999999999829e+01,7.068622025690028676e-02
3.211999999999999744e+01,7.947308553406708109e-02
3.215999999999999659e+01,8.929869255822878160e-02
3.220000000000000284e+01,9.444101591477950530e-02
3.224000000000000199e+01,7.617342837965834779e-02
3.228000000000000114e+01,1.156446446254223992e-01
3.232000000000000028e+01,9.009122295236600408e-02
3.235999999999999943e+01,8.118206210542487644e-02
3.239999999999999858e+01,7.279145522242909394e-02
3.243999999999999773e+01,9.092860530384433426e-02
3.247999999999999687e+01,8.617602485529400613e-02
3.252000000000000313e+01,3.876671850796065827e-02
3.256000000000000227e+01,9.279167369216677341e-02
3.260000000000000142e+01,4.798002192385126402e-02
3.264000000000000057e+01,8.951729235121612394e-02
3.267999999999999972e+01,1.060840928668764782e-01
3.271999999999999886e+01,5.554551298975123064e-02
3.275999999999999801e+01,8.407327643967538178e-02
3.279999999999999716e+01,9.335259291871987608e-02
3.284000000000000341e+01,6.777793963709258240e-02
3.288000000000000256e+01,4.948422583898431232e-02
3.292000000000000171e+01,7.332378375529109704e-02
3.296000000000000085e+01,2.069464426533225432e-02
3.300000000000000000e+01,9.915025162957426252e-02
3.303999999999999915e+01,1.245454436076802313e-01
3.307999999999999829e+01,9.844077179833984892e-02
3.311999999999999744e+01,1.222721296968615756e-01
3.315999999999999659e+01,7.327607560353903426e-02
3.320000000000000284e+01,9.710414916583014200e-02
3.324000000000000199e+01,8.867916714488791041e-02
3.328000000000000114e+01,6.412683516599231026e-02
3.332000000000000028e+01,5.829948546003911602e-02
3.335999999999999943e+01,1.003274254617633754e-01
3.339999999999999858e+01,8.097199935329302267e-02
3.343999999999999773e+01,5.849382262254419068e-02
3.347999999999999687e+01,3.705436723009684213e-02
3.352000000000000313e+01,1.821418477464065849e-02
3.356000000000000227e+01,5.919352259933499671e-02
3.360000000000000142e+01,9.236845067656547503e-02
3.364000000000000057e+01,5.167559119585278526e-02
3.367999999999999972e+01,4.063157394201769024e-02
3.371999999999999886e+01,8.732633820503925282e-02
3.375999999999999801e+01,5.078999975197367317e-02
3.379999999999999716e+01,7.615391415789998786e-02
3.384000000000000341e+01,4.533629637451627031e-02
3.388000000000000256e+01,6.861616912756060560e-02
3.392000000000000171e+01,8.617236347509212024e-02
3.396000000000000085e+01,7.407641146926727260e-02
3.400000000000000000e+01,5.937788425530829417e-02
3.403999999999999915e+01,2.543089089866698571e-02
3.407999999999999829e+01,7.679242932892091367e-02
3.411999999999999744e+01,2.931733730573376009e-02
3.415999999999999659e+01,3.541954741747969232e-02
3.420000000000000284e+01,7.793298465723222379e-02
3.424000000000000199e+01,6.686580388511338680e-02
3.428000000000000114e+01,8.856856049746297810e-02
3.432000000000000028e+01,6.033198636769816769e-02
3.435999999999999943e+01,8.359197499112741570e-02
3.439999999999999858e+01,1.141328795971564697e-01
3.443999999999999773e+01,8.589132237530568148e-02
3.447999999999999687e+01,8.781877908380598952e-02
3.452000000000000313e+01,6.789684186638975105e-02
3.456000000000000227e+01,6.045765888157458162e-02
3.460000000000000142e+01,1.196003730382504959e-01
3.464000000000000057e+01,6.794221503699802989e-02
3.467999999999999972e+01,4.905398823576136852e-02
3.471999999999999886e+01,4.108796097621030680e-02
3.475999999999999801e+01,5.912947073886764410e-02
3.479999999999999716e+01,8.081060179302490543e-02
3.484000000000000341e+01,4.266889669009335528e-02
3.488000000000000256e+01,3.105491082641290840e-02
3.492000000000000171e+01,4.076680285975593787e-02
3.496000000000000085e+01,1.181009546133393873e-01
3.500000000000000000e+01,8.827551714963462193e-02
3.503999999999999915e+01,7.197319464194444627e-02
3.507999999999999829e+01,6.867380239944541331e-02
3.511999999999999744e+01,7.993789202082686451e-02
3.515999999999999659e+01,9.744251772959194868e-02
3.520000000000000284e+01,4.472062026769652726e-02
3.524000000000000199e+01,5.806042597979011594e-02
3.528000000000000114e+01,6.723708447636692065e-02
3.532000000000000028e+01,4.051936672391041189e-02
3.535999999999999943e+01,5.281377852643955734e-02
3.539999999999999858e+01,9.267626967318783049e-02
3.543999999999999773e+01,8.051867647184218768e-02
3.547999999999999687e+01,4.443093821238124075e-02
3.552000000000000313e+01,8.636913246249147691e-02
3.556000000000000227e+01,7.316613607490277116e-02
3.560000000000000142e+01,5.736053974137005074e-02
3.564000000000000057e+01,7.120375533089805253e-02
3.567999999999999972e+01,1.094939415012593786e-01
3.571999999999999886e+01,6.663373094122945761e-02
3.575999999999999801e+01,1.002388969629647159e-01
3.579999999999999716e+01,9.118728637340663135e-02
3.584000000000000341e+01,9.097712171955406324e-02
3.588000000000000256e+01,7.880103948783312440e-02
3.592000000000000171e+01,1.045967100081075657e-01
3.596000000000000085e+01,5.288326859396687979e-02
3.600000000000000000e+01,3.706084240541859809e-02
3.603999999999999915e+01,6.701292819920330601e-02
3.607999999999999829e+01,8.291835703338037988e-02
3.611999999999999744e+01,7.281289462480544650e-02
3.615999999999999659e+01,4.241856515119364623e-02
3.620000000000000284e+01,1.035749435554176728e-01
3.624000000000000199e+01,6.589465872860264528e-02
3.628000000000000114e+01,2.665213158703099577e-02
3.632000000000000028e+01,9.716675300119748115e-02
3.635999999999999943e+01,6.208231638807201053e-02
3.639999999999999858e+01,8.369625171121540530e-02
3.643999999999999773e+01,8.866260414685274427e-02
3.647999999999999687e+01,9.414744746502023975e-02
3.652000000000000313e+01,8.766636331019508899e-02
3.656000000000000227e+01,1.134349972160812597e-01
3.660000000000000142e+01,7.730003146377496803e-02
3.664000000000000057e+01,7.549551882480223797e-02
3.667999999999999972e+01,8.565354356845442108e-02
3.671999999999999886e+01,9.424931919445231343e-02
3.675999999999999801e+01,1.220902079794795037e-01
3.679999999999999716e+01,7.242197184274139221e-02
3.684000000000000341e+01,8.517412563553478089e-02
3.688000000000000256e+01,7.711721715889856277e-02
3.692000000000000171e+01,8.674486715037615925e-02
3.696000000000000085e+01,1.031332094715797509e-01
3.700000000000000000e+01,8.622806993094055128e-02
3.703999999999999915e+01,6.047809931179008724e-02
3.707999999999999829e+01,5.085213246983761454e-02
3.711999999999999744e+01,5.891072100377269666e-02
3.715999999999999659e+01,1.059814112626571853e-01
3.720000000000000284e+01,5.005395086879108751e-02
3.724000000000000199e+01,8.619736634556257604e-02
3.728000000000000114e+01,7.136103717051507644e-02
3.732000000000000028e+01,1.002184638980403164e-01
3.735999999999999943e+01,1.004640598491196163e-01
3.739999999999999858e+01,6.897671997103844987e-02
3.743999999999999773e+01,1.222776758580736006e-01
3.747999999999999687e+01,1.225181477115508677e-01
3.752000000000000313e+01,1.321202235984116069e-01
3.756000000000000227e+01,1.672096091439354282e-01
3.760000000000000142e+01,1.716064239128290980e-01
3.764000000000000057e+01,1.728804231226932775e-01
3.767999999999999972e+01,2.147270682348532966e-01
3.771999999999999886e+01,2.680160505776836843e-01
3.775999999999999801e+01,2.937335641043720136e-01
3.779999999999999716e+01,4.489751980546967114e-01
3.784000000000000341e+01,6.832830967895250351e-01
3.788000000000000256e+01,8.780552911881768230e-01
3.792000000000000171e+01,1.000000000000000000e+00
3.796000000000000085e+01,9.955382631515929948e-01
3.800000000000000000e+01,9.614243174868596364e-01
3.803999999999999915e+01,7.905002434774408560e-01
3.807999999999999829e+01,6.091707700927996294e-01
3.811999999999999744e+01,4.762166968932298738e-01
3.815999999999999659e+01,3.380590638053293517e-01
3.820000000000000284e+01,2.961337643244066897e-01
3.824000000000000199e+01,2.209149638098386881e-01
3.828000000000000114e+01,1.945917450789395875e-01
3.832000000000000028e+01,2.187246597303988127e-01
3.835999999999999943e+01,1.450612465179771937e-01
3.839999999999999858e+01,1.660696116031723790e-01
3.843999999999999773e+01,1.376587663187711918e-01
3.847999999999999687e+01,1.487801864230046123e-01
3.852000000000000313e+01,1.250475489473412694e-01
3.856000000000000227e+01,9.767189761602969311e-02
3.860000000000000142e+01,1.202321912655812536e-01
3.864000000000000057e+01,8.140903778861111051e-02
3.867999999999999972e+01,1.122888228059863019e-01
3.871999999999999886e+01,9.895123384843057535e-02
3.875999999999999801e+01,1.006972545486161941e-01
3.879999999999999716e+01,1.123250435643157463e-01
3.884000000000000341e+01,8.701803376304370619e-02
3.888000000000000256e+01,1.428580089562117850e-01
3.892000000000000171e+01,1.009016476272656948e-01
3.896000000000000085e+01,7.194815657432178380e-02
3.900000000000000000e+01,8.304710694260256099e-02
3.903999999999999915e+01,7.749843422443626617e-02
3.907999999999999829e+01,8.911410250596236982e-02
3.911999999999999744e+01,8.304177831939442422e-02
3.915999999999999659e+01,6.136219733580015878e-02
3.920000000000000284e+01,7.193229359553102165e-02
3.924000000000000199e+01,8.146028584793528482e-02
3.928000000000000114e+01,5.925531320425275056e-02
3.932000000000000028e+01,7.762296110661089099e-02
3.935999999999999943e+01,1.131549456795447328e-01
3.939999999999999858e+01,7.585942178317610363e-02
3.943999999999999773e+01,7.861633250513437587e-02
3.947999999999999687e+01,6.836690184439567219e-02
3.952000000000000313e+01,1.085735860126578051e-01
3.956000000000000227e+01,8.011423181686228023e-02
3.960000000000000142e+01,8.494491682469582083e-02
3.964000000000000057e+01,1.111014067530140814e-01
3.967999999999999972e+01,6.963222460669542258e-02
3.971999999999999886e+01,8.798246749995937421e-02
3.975999999999999801e+01,6.887771327963319867e-02
3.979999999999999716e+01,7.369968186790171183e-02
3.984000000000000341e+01,1.081703974424800263e-01
3.988000000000000256e+01,9.426224852818974875e-02
3.992000000000000171e+01,1.068817409290495068e-01
3.996000000000000085e+01,1.075352526706256917e-01
4.000000000000000000e+01,8.529891761453026189e-02
4.003999999999999915e+01,6.045991396506873033e-02
4.007999999999999829e+01,8.243572797972704980e-02
4.011999999999999744e+01,9.296574293369910813e-02
4.015999999999999659e+01,1.144178733208030679e-01
4.020000000000000284e+01,1.114196016008744405e-01
4.024000000000000199e+01,6.472411647747405850e-02
4.028000000000000114e+01,6.692418221548006307e-02
4.032000000000000028e+01,1.060555645317481921e-01
4.035999999999999943e+01,1.020099156615869307e-01
4.039999999999999858e+01,7.247349344741048360e-02
4.043999999999999773e+01,5.750047084389678376e-02
4.047999999999999687e+01,9.402391637145461611e-02
4.052000000000000313e+01,8.216848751501960868e-02
4.056000000000000227e+01,1.051636352366624172e-01
4.060000000000000142e+01,8.550193213358270317e-02
4.064000000000000057e+01,1.001706202993118827e-01
4.067999999999999972e+01,8.726779450239618985e-02
4.071999999999999886e+01,6.343934444049374732e-02
4.075999999999999801e+01,8.434496523962919934e-02
4.079999999999999716e+01,5.479097103614222197e-02
4.084000000000000341e+01,9.441969785857917685e-02
4.088000000000000256e+01,1.142796687118182997e-01
4.092000000000000171e+01,9.876536080606798662e-02
4.096000000000000085e+01,8.533002673411492489e-02
4.100000000000000000e+01,8.489753139745652433e-02
4.103999999999999915e+01,8.342290422343551226e-02
4.107999999999999829e+01,1.074355322848961902e-01
4.111999999999999744e+01,8.046835632379421843e-02
4.115999999999999659e+01,9.251322024311722791e-02
4.120000000000000284e+01,1.066370542855661074e-01
4.124000000000000199e+01,8.746734091097611852e-02
4.128000000000000114e+01,7.869954158067314631e-02
4.132000000000000028e+01,1.021813867160971112e-01
4.135999999999999943e+01,6.948158339450485887e-02
4.139999999999999858e+01,1.044039402234683417e-01
4.143999999999999773e+01,8.470519957565980640e-02
4.147999999999999687e+01,1.154625434530351241e-01
4.152000000000000313e+01,4.530240617508600465e-02
4.156000000000000227e+01,8.906080901557338059e-02
4.160000000000000142e+01,7.923848005026434826e-02
4.164000000000000057e+01,8.554008435939526589e-02
4.167999999999999972e+01,9.027936286366150531e-02
4.171999999999999886e+01,8.097189720754051356e-02
4.175999999999999801e+01,5.709750270020863550e-02
4.179999999999999716e+01,7.067458596104310431e-02
4.184000000000000341e+01,7.176547542328913509e-02
4.188000000000000256e+01,1.295546520948052116e-01
4.192000000000000171e+01,9.110799807794842109e-02
4.196000000000000085e+01,6.670453609845697351e-02
4.200000000000000000e+01,9.171678245960449005e-02
4.203999999999999915e+01,6.418865835681436538e-02
4.207999999999999829e+01,1.131258131214406548e-01
4.211999999999999744e+01,1.090024121128602419e-01
4.215999999999999659e+01,1.053974141675849963e-01
4.220000000000000284e+01,9.814934608814407380e-02
4.224000000000000199e+01,8.673802318371380549e-02
4.228000000000000114e+01,7.896620592152245321e-02
4.232000000000000028e+01,9.720180879538820040e-02
4.235999999999999943e+01,5.665482738921555350e-02
4.239999999999999858e+01,8.268962252771092092e-02
4.243999999999999773e+01,1.102831845451512222e-01
4.247999999999999687e+01,9.261894630905113945e-02
4.252000000000000313e+01,1.373750101832577064e-01
4.256000000000000227e+01,8.433468125683275807e-02
4.260000000000000142e+01,7.706876288772074313e-02
4.264000000000000057e+01,1.041332048651555792e-01
4.267999999999999972e+01,1.067472063919526204e-01
4.271999999999999886e+01,9.323371200771839173e-02
4.275999999999999801e+01,6.879456181778978441e-02
4.279999999999999716e+01,1.150986545671024708e-01
4.284000000000000341e+01,9.793849896362999408e-02
4.288000000000000256e+01,1.047050185484681428e-01
4.292000000000000171e+01,9.638440727480533654e-02
4.296000000000000085e+01,1.229143354725054649e-01
4.300000000000000000e+01,9.794424650833832846e-02
4.303999999999999915e+01,7.037144256741156845e-02
4.307999999999999829e+01,8.597212140056374741e-02
4.311999999999999744e+01,9.012695478963612949e-02
4.315999999999999659e+01,1.161277227483897695e-01
4.320000000000000284e+01,9.947159968347975278e-02
4.324000000000000199e+01,1.031008577342257260e-01
4.328000000000000114e+01,1.129705263279704164e-01
4.332000000000000028e+01,1.280402367015123499e-01
4.335999999999999943e+01,1.514310926706754767e-01
4.339999999999999858e+01,1.202008208592494631e-01
4.343999999999999773e+01,1.222605288807088603e-01
4.347999999999999687e+01,1.139147540368379008e-01
4.352000000000000313e+01,1.341773011375577140e-01
4.356000000000000227e+01,1.585995181626465855e-01
4.360000000000000142e+01,1.101941617816825092e-01
4.364000000000000057e+01,1.366935079316353996e-01
4.367999999999999972e+01,1.657919699334872154e-01
4.371999999999999886e+01,1.563950054509128385e-01
4.375999999999999801e+01,1.693641503337192655e-01
4.379999999999999716e+01,2.161434535557820169e-01
4.384000000000000341e+01,2.207860399314355015e-01
4.388000000000000256e+01,2.581984152646982777e-01
4.392000000000000171e+01,2.571153610213089968e-01
4.396000000000000085e+01,3.033672485252288942e-01
4.400000000000000000e+01,2.767915564386430050e-01
4.403999999999999915e+01,3.219994562642526925e-01
4.407999999999999829e+01,3.235100833156466238e-01
4.411999999999999744e+01,3.395840530807407998e-01
4.415999999999999659e+01,3.395305046707747798e-01
4.420000000000000284e+01,3.556008499547532731e-01
4.424000000000000199e+01,2.759555127529126906e-01
4.428000000000000114e+01,2.686139478249742196e-01
4.432000000000000028e+01,2.446246781758163180e-01
4.435999999999999943e+01,2.024271509698591098e-01
4.439999999999999858e+01,1.461828381676830990e-01
4.443999999999999773e+01,1.965744439425908818e-01
4.447999999999999687e+01,1.746586467780284757e-01
4.452000000000000313e+01,1.600236091294184593e-01
4.456000000000000227e+01,1.240592063975137771e-01
4.460000000000000142e+01,1.343893673730378047e-01
4.464000000000000057e+01,1.213094257388635938e-01
4.467999999999999972e+01,9.470287825173220875e-02
4.471999999999999886e+01,1.128303403995590815e-01
4.475999999999999801e+01,8.309904668057567501e-02
4.479999999999999716e+01,1.105861790967373748e-01
4.484000000000000341e+01,1.042595243634102248e-01
4.488000000000000256e+01,1.275815386922922734e-01
4.492000000000000171e+01,1.004438743186915617e-01
4.496000000000000085e+01,9.931358926376175622e-02
4.500000000000000000e+01,1.007823996520375714e-01
4.503999999999999915e+01,9.860809599653527768e-02
4.507999999999999829e+01,8.758883695502725497e-02
4.511999999999999744e+01,8.020903964614549408e-02
4.515999999999999659e+01,7.854943974095789094e-02
4.520000000000000284e+01,1.117403446741994377e-01
4.524000000000000199e+01,8.146696414794099561e-02
4.528000000000000114e+01,1.479459918362298620e-01
4.532000000000000028e+01,1.015432459521967840e-01
4.535999999999999943e+01,8.530934578140809965e-02
4.539999999999999858e+01,7.947729595504594846e-02
4.543999999999999773e+01,8.248654363753034346e-02
4.547999999999999687e+01,9.745819264468563725e-02
4.552000000000000313e+01,7.601512362689155644e-02
4.556000000000000227e+01,8.318034501298088301e-02
4.560000000000000142e+01,9.034373220370618685e-02
4.564000000000000057e+01,1.287163289233154706e-01
4.567999999999999972e+01,8.125671826826318112e-02
4.571999999999999886e+01,1.055806735507059668e-01
4.575999999999999801e+01,9.036880266325851563e-02
4.579999999999999716e+01,9.336153702145869038e-02
4.584000000000000341e+01,8.230746351941110872e-02
4.588000000000000256e+01,1.040231480527109426e-01
4.592000000000000171e+01,1.049296305479555658e-01
4.596000000000000085e+01,1.084351936437200070e-01
4.600000000000000000e+01,8.644989681313496044e-02
4.603999999999999915e+01,8.527012187941690469e-02
4.607999999999999829e+01,8.824997790801770992e-02
4.611999999999999744e+01,1.026720412937870974e-01
4.615999999999999659e+01,9.836563522034276474e-02
4.620000000000000284e+01,1.226675096556579803e-01
4.624000000000000199e+01,9.078766018363697288e-02
4.628000000000000114e+01,7.763259260829877273e-02
4.632000000000000028e+01,1.024491169891923320e-01
4.635999999999999943e+01,8.304814927211301434e-02
4.639999999999999858e+01,1.042196926362660842e-01
4.643999999999999773e+01,9.365816040263325037e-02
4.647999999999999687e+01,7.945349186119342322e-02
4.652000000000000313e+01,7.252955191344388763e-02
4.656000000000000227e+01,8.589094175039498069e-02
4.660000000000000142e+01,1.091339793060371183e-01
4.664000000000000057e+01,1.016843063164234590e-01
4.667999999999999972e+01,9.059149392677663670e-02
4.671999999999999886e+01,9.094087961761966599e-02
4.675999999999999801e+01,7.360215471732678427e-02
4.679999999999999716e+01,1.197240338984557062e-01
4.684000000000000341e+01,6.752927003293361652e-02
4.688000000000000256e+01,9.023915860426379165e-02
4.692000000000000171e+01,9.734167040019001127e-02
4.696000000000000085e+01,1.096441676973958779e-01
4.700000000000000000e+01,1.042585506927944800e-01
4.703999999999999915e+01,8.482610727458815558e-02
4.707999999999999829e+01,1.018046918450192101e-01
4.711999999999999744e+01,1.104584735611152113e-01
4.715999999999999659e+01,9.622229777784066518e-02
4.720000000000000284e+01,7.470168604809708512e-02
4.724000000000000199e+01,8.543062725418416881e-02
4.728000000000000114e+01,1.242476481986307252e-01
4.732000000000000028e+01,1.110444011167453920e-01
4.735999999999999943e+01,7.443100937088498181e-02
4.739999999999999858e+01,6.434514329091385598e-02
4.743999999999999773e+01,8.390790669265606183e-02
4.747999999999999687e+01,1.190743290034541879e-01
4.752000000000000313e+01,1.105434253537457556e-01
4.756000000000000227e+01,9.940973684296496027e-02
4.760000000000000142e+01,1.043998894582826992e-01
4.764000000000000057e+01,1.203120418574714773e-01
4.767999999999999972e+01,8.992594546048143789e-02
4.771999999999999886e+01,1.058343645321912219e-01
4.775999999999999801e+01,9.052987166980007439e-02
4.779999999999999716e+01,6.221890878810079628e-02
4.784000000000000341e+01,7.396025065122689701e-02
4.788000000000000256e+01,8.986119564663552772e-02
4.792000000000000171e+01,9.587677320166961004e-02
4.796000000000000085e+01,9.824919156642243634e-02
4.800000000000000000e+01,8.813532089201911446e-02
4.803999999999999915e+01,1.009076774817335709e-01
4.807999999999999829e+01,9.859282343351004341e-02
4.811999999999999744e+01,5.934302708901817436e-02
4.815999999999999659e+01,8.407399787118774448e-02
4.820000000000000284e+01,7.395076140971139356e-02
4.824000000000000199e+01,8.775411726488302477e-02
4.828000000000000114e+01,1.176813037325839112e-01
4.832000000000000028e+01,1.101533607394119263e-01
4.835999999999999943e+01,1.140675904704747529e-01
4.839999999999999858e+01,8.676889837231284430e-02
4.843999999999999773e+01,8.911882029473315592e-02
4.847999999999999687e+01,8.990631127659688693e-02
4.852000000000000313e+01,9.277265920610654193e-02
4.856000000000000227e+01,1.076013608400030741e-01
4.860000000000000142e+01,1.089033960133081319e-01
4.864000000000000057e+01,1.081228136998975409e-01
4.867999999999999972e+01,1.099412699327299986e-01
4.871999999999999886e+01,1.081165552248216366e-01
4.875999999999999801e+01,8.080093791784186130e-02
4.879999999999999716e+01,1.200669982042908285e-01
4.884000000000000341e+01,5.425399158090963431e-02
4.888000000000000256e+01,6.646671090638762991e-02
4.892000000000000171e+01,1.010454598178097685e-01
4.896000000000000085e+01,8.152317905713196700e-02
4.900000000000000000e+01,1.088155780472842282e-01
4.903999999999999915e+01,1.022941249511967465e-01
4.907999999999999829e+01,7.652397317701443991e-02
4.911999999999999744e+01,7.780150454795405068e-02
4.915999999999999659e+01,8.896064405708883904e-02
4.920000000000000284e+01,8.399218746706250960e-02
4.924000000000000199e+01,1.029503077325530508e-01
4.928000000000000114e+01,7.456978631929848944e-02
4.932000000000000028e+01,9.924614857785077349e-02
4.935999999999999943e+01,1.181985937110253265e-01
4.939999999999999858e+01,1.095793900604915411e-01
4.943999999999999773e+01,8.691332288963807273e-02
4.947999999999999687e+01,1.162637687720539242e-01
4.952000000000000313e+01,9.619483297554047574e-02
4.956000000000000227e+01,1.146176231135721396e-01
4.960000000000000142e+01,1.007871047242650947e-01
4.964000000000000057e+01,8.123266488046385070e-02
4.967999999999999972e+01,1.027708694777629272e-01
4.971999999999999886e+01,8.841447518574022113e-02
4.975999999999999801e+01,1.026663063608501264e-01
4.979999999999999716e+01,1.059923728839023555e-01
4.984000000000000341e+01,8.590825639937442471e-02
4.988000000000000256e+01,8.298831393432240522e-02
4.992000000000000171e+01,1.019142015217051195e-01
4.996000000000000085e+01,1.343629733850258690e-01
5.000000000000000000e+01,1.002262817595926669e-01
5.003999999999999915e+01,1.113437015882786790e-01
5.007999999999999829e+01,9.801056655395645745e-02
5.011999999999999744e+01,9.820031332179121608e-02
5.015999999999999659e+01,8.382300136491351028e-02
5.020000000000000284e+01,1.094979576645916386e-01
5.024000000000000199e+01,8.887462558759541553e-02
5.028000000000000114e+01,6.876957102951938849e-02
5.032000000000000028e+01,7.831310142509906314e-02
5.035999999999999943e+01,1.018996939845424332e-01
5.039999999999999858e+01,1.176816170495187247e-01
5.043999999999999773e+01,1.017304026721846943e-01
5.047999999999999687e+01,7.433322905684551507e-02
5.052000000000000313e+01,1.025938409218469932e-01
5.056000000000000227e+01,1.074442586472537930e-01
5.060000000000000142e+01,7.744043202229972112e-02
5.064000000000000057e+01,1.046549412394853218e-01
5.067999999999999972e+01,7.932894640855983615e-02
5.071999999999999886e+01,1.054992613867231227e-01
5.075999999999999801e+01,1.035777224816614162e-01
5.079999999999999716e+01,9.593224418719306645e-02
5.084000000000000341e+01,9.712797991146349119e-02
5.088000000000000256e+01,9.728143166084068927e-02
5.092000000000000171e+01,9.067057402071922179e-02
5.096000000000000085e+01,1.168293958733988835e-01
5.100000000000000000e+01,8.212476357235397317e-02
5.103999999999999915e+01,9.475496355380998159e-02
5.107999999999999829e+01,1.006208516719862694e-01
5.111999999999999744e+01,9.504077065703357696e-02
5.115999999999999659e+01,7.801471989050677569e-02
5.120000000000000284e+01,1.072831307879432983e-01
5.124000000000000199e+01,8.088992454476609528e-02
5.128000000000000114e+01,9.871044243914903205e-02
5.132000000000000028e+01,1.030042518186638500e-01
5.135999999999999943e+01,9.429153613724357286e-02
5.139999999999999858e+01,1.183484931457265549e-01
5.143999999999999773e+01,9.922824765844696915e-02
5.147999999999999687e+01,9.102994258429503160e-02
5.152000000000000313e+01,1.103994676209282683e-01
5.156000000000000227e+01,8.086976351030285282e-02
5.160000000000000142e+01,1.142804051952915900e-01
5.164000000000000057e+01,7.382298102197625000e-02
5.167999999999999972e+01,1.072297669273271636e-01
5.171999999999999886e+01,8.497492827072157529e-02
5.175999999999999801e+01,6.115760796104923597e-02
5.179999999999999716e+01,8.311455596628346265e-02
5.184000000000000341e+01,5.305116606087300485e-02
5.188000000000000256e+01,7.916572468104270122e-02
5.192000000000000171e+01,1.005966947400956657e-01
5.196000000000000085e+01,7.885045426359775511e-02
5.200000000000000000e+01,9.403534977935040784e-02
5.203999999999999915e+01,9.829444601011158578e-02
5.207999999999999829e+01,8.954700604792324714e-02
5.211999999999999744e+01,9.900407361703375542e-02
5.215999999999999659e+01,1.115803100000290204e-01
5.220000000000000284e+01,1.173922172032777489e-01
5.224000000000000199e+01,9.667279985796224662e-02
5.228000000000000114e+01,8.479457426735638459e-02
5.232000000000000028e+01,9.788324605673974499e-02
5.235999999999999943e+01,1.010864817583263103e-01
5.239999999999999858e+01,8.400059930610635772e-02
5.243999999999999773e+01,9.500271681280916813e-02
5.247999999999999687e+01,9.872031673827053044e-02
5.252000000000000313e+01,1.065974480563661592e-01
5.256000000000000227e+01,1.129120853524901297e-01
5.260000000000000142e+01,1.030990739816070867e-01
5.264000000000000057e+01,8.079970183191936828e-02
5.267999999999999972e+01,7.254335597627106780e-02
5.271999999999999886e+01,9.081445353329417602e-02
5.275999999999999801e+01,9.659918845617691818e-02
5.279999999999999716e+01,1.003012415740386076e-01
5.284000000000000341e+01,9.099674674849092537e-02
5.288000000000000256e+01,5.308018118974217048e-02
5.292000000000000171e+01,9.683056762353041413e-02
5.296000000000000085e+01,9.116151919209815324e-02
5.300000000000000000e+01,1.141006461337334965e-01
5.303999999999999915e+01,9.854420249320065828e-02
5.307999999999999829e+01,1.110757489164666684e-01
5.311999999999999744e+01,8.615209166543028041e-02
5.315999999999999659e+01,9.763936839935410950e-02
5.320000000000000284e+01,1.013219323476437089e-01
5.324000000000000199e+01,1.154062254250917408e-01
5.328000000000000114e+01,9.723715307823868614e-02
5.332000000000000028e+01,1.139184600254301016e-01
5.335999999999999943e+01,7.181701262014034137e-02
5.339999999999999858e+01,1.040999327727495372e-01
5.343999999999999773e+01,8.020101769787847668e-02
5.347999999999999687e+01,9.115247944327067864e-02
5.352000000000000313e+01,1.161469544953522004e-01
5.356000000000000227e+01,5.843020477332829671e-02
5.360000000000000142e+01,9.642536648448414571e-02
5.364000000000000057e+01,1.011267890605752340e-01
5.367999999999999972e+01,6.733263115937400400e-02
5.371999999999999886e+01,1.292503828360170026e-01
5.375999999999999801e+01,8.973028004071217922e-02
5.379999999999999716e+01,9.962570314469899879e-02
5.384000000000000341e+01,9.287327433749803518e-02
5.388000000000000256e+01,8.871980367865818506e-02
5.392000000000000171e+01,8.352400204308660370e-02
5.396000000000000085e+01,8.352807768087693041e-02
5.400000000000000000e+01,9.133295033547472741e-02
5.403999999999999915e+01,6.220278916390776375e-02
5.407999999999999829e+01,8.716980621391981487e-02
5.411999999999999744e+01,9.496878295124913660e-02
5.415999999999999659e+01,9.496303206025843990e-02
5.420000000000000284e+01,7.154703075115560751e-02
5.424000000000000199e+01,8.818323523563906252e-02
5.428000000000000114e+01,1.022165509602486477e-01
5.432000000000000028e+01,8.347630110860262964e-02
5.435999999999999943e+01,8.814236487910387385e-02
5.439999999999999858e+01,9.280645839628672011e-02
5.443999999999999773e+01,1.167153917197004953e-01
5.447999999999999687e+01,9.328560296648723271e-02
5.452000000000000313e+01,1.026254386644482736e-01
5.456000000000000227e+01,9.843851575347625782e-02
5.460000000000000142e+01,9.528998764171632552e-02
5.464000000000000057e+01,1.290725547048206800e-01
5.467999999999999972e+01,1.092741877305330039e-01
5.471999999999999886e+01,8.479218890396132691e-02
5.475999999999999801e+01,1.008825719035657265e-01
5.479999999999999716e+01,9.668379964264861570e-02
5.484000000000000341e+01,9.404360254265037300e-02
5.488000000000000256e+01,6.123075157005416352e-02
5.492000000000000171e+01,9.135819506211652341e-02
5.496000000000000085e+01,1.027570330370112389e-01
5.500000000000000000e+01,1.006291056000752221e-01
5.503999999999999915e+01,9.329735729091506724e-02
5.507999999999999829e+01,9.376638930054077836e-02
5.511999999999999744e+01,7.082515666781379060e-02
5.515999999999999659e+01,6.920948899881632088e-02
5.520000000000000284e+01,8.007625644467308845e-02
5.524000000000000199e+01,1.065465628212082377e-01
5.528000000000000114e+01,7.163316479799938796e-02
5.532000000000000028e+01,1.059022639235354529e-01
5.535999999999999943e+01,9.595373180091841536e-02
5.539999999999999858e+01,8.288210952958273425e-02
5.543999999999999773e+01,8.645439124145577747e-02
5.547999999999999687e+01,9.210542229150181504e-02
5.552000000000000313e+01,7.122507808047337519e-02
5.556000000000000227e+01,1.044418892085501177e-01
5.560000000000000142e+01,7.003278212078199727e-02
5.564000000000000057e+01,9.596303800376713988e-02
5.567999999999999972e+01,1.125279905403783337e-01
5.571999999999999886e+01,9.059733105898959415e-02
5.575999999999999801e+01,9.831517242270311485e-02
5.579999999999999716e+01,8.002181826860356451e-02
5.584000000000000341e+01,1.049017496045497877e-01
5.588000000000000256e+01,1.084521408371963563e-01
5.592000000000000171e+01,8.859225505858547844e-02
5.596000000000000085e+01,8.589644929577328059e-02
5.600000000000000000e+01,8.996104148274994272e-02
5.603999999999999915e+01,1.049475035800960521e-01
5.607999999999999829e+01,1.053668154228335346e-01
5.611999999999999744e+01,8.705750381349108835e-02
5.615999999999999659e+01,8.227098062107350562e-02
5.620000000000000284e+01,1.024512948194566536e-01
5.624000000000000199e+01,7.425249158486525725e-02
5.628000000000000114e+01,8.246457409650491399e-02
5.632000000000000028e+01,8.547281594567233964e-02
5.635999999999999943e+01,9.680200239575624532e-02
5.639999999999999858e+01,8.524108848561776086e-02
5.643999999999999773e+01,9.604608789371714417e-02
5.647999999999999687e+01,8.864264235610794240e-02
5.652000000000000313e+01,8.071700971520422152e-02
5.656000000000000227e+01,8.787471152390752271e-02
5.660000000000000142e+01,1.101157471637728147e-01
5.664000000000000057e+01,1.276731212659819592e-01
5.667999999999999972e+01,7.916511267145968922e-02
5.671999999999999886e+01,8.683497777064304313e-02
5.675999999999999801e+01,8.670007504256554975e-02
5.679999999999999716e+01,9.696684640201949645e-02
5.684000000000000341e+01,7.862148580219291416e-02
5.688000000000000256e+01,1.242567575079646380e-01
5.692000000000000171e+01,7.157523031888329834e-02
5.696000000000000085e+01,6.570825981002825777e-02
5.700000000000000000e+01,8.272737803355600938e-02
5.703999999999999915e+01,9.194172410070589052e-02
5.707999999999999829e+01,9.699258589968036415e-02
5.711999999999999744e+01,8.071388842355284310e-02
5.715999999999999659e+01,1.117699286078037701e-01
5.720000000000000284e+01,9.288628429925960273e-02
5.724000000000000199e+01,8.856577985437510958e-02
5.728000000000000114e+01,8.840473320714066496e-02
5.732000000000000028e+01,7.211596491636008965e-02
5.735999999999999943e+01,9.171788160141061685e-02
5.739999999999999858e+01,8.322784174132555335e-02
5.743999999999999773e+01,1.054266448963988023e-01
5.747999999999999687e+01,7.716557515718221183e-02
5.752000000000000313e+01,9.727960565709324603e-02
5.756000000000000227e+01,9.970535858565200693e-02
5.760000000000000142e+01,8.964467404819558005e-02
5.764000000000000057e+01,1.035104364927544873e-01
5.767999999999999972e+01,8.200166104976580606e-02
5.771999999999999886e+01,9.170190836519698241e-02
5.775999999999999801e+01,9.203682017510127211e-02
5.779999999999999716e+01,7.520363477536029517e-02
5.784000000000000341e+01,9.061983842345980311e-02
5.788000000000000256e+01,1.127964109544216109e-01
5.792000000000000171e+01,8.503328786057431921e-02
5.796000000000000085e+01,9.264065639350105297e-02
5.800000000000000000e+01,8.776158127596020431e-02
5.803999999999999915e+01,9.016305663987890517e-02
5.807999999999999829e+01,6.967440566887529718e-02
5.811999999999999744e+01,1.084847111802629133e-01
5.815999999999999659e+01,9.787550142854807567e-02
5.820000000000000284e+01,1.039101529873199536e-01
5.824000000000000199e+01,9.121614831641393362e-02
5.828000000000000114e+01,9.100453114007829580e-02
5.832000000000000028e+01,1.157597185769453085e-01
5.835999999999999943e+01,8.069170621091896478e-02
5.839999999999999858e+01,1.012813574915197856e-01
5.843999999999999773e+01,8.389553877222238887e-02
5.847999999999999687e+01,9.563799477137234495e-02
5.852000000000000313e+01,8.709123799459304871e-02
5.856000000000000227e+01,1.040314661927229378e-01
5.860000000000000142e+01,9.079898300284711121e-02
5.864000000000000057e+01,8.380667287299557733e-02
5.867999999999999972e+01,8.773619183612738071e-02
5.871999999999999886e+01,1.249554543860608435e-01
5.875999999999999801e+01,7.790285954687199699e-02
5.879999999999999716e+01,9.431068325553126908e-02
5.884000000000000341e+01,8.938892109594294422e-02
5.888000000000000256e+01,8.862659199619489503e-02
5.892000000000000171e+01,8.370075017978992338e-02
5.896000000000000085e+01,7.149029059401380837e-02
5.900000000000000000e+01,1.024530676411088415e-01
5.903999999999999915e+01,8.451649989168409649e-02
5.907999999999999829e+01,7.229991432700792753e-02
5.911999999999999744e+01,6.320238996674412690e-02
5.915999999999999659e+01,7.334963243617206863e-02
5.920000000000000284e+01,7.153059677415316009e-02
5.924000000000000199e+01,7.907282932974953049e-02
5.928000000000000114e+01,1.042992746425671635e-01
5.932000000000000028e+01,6.814195309267113976e-02
5.935999999999999943e+01,9.440467328763331445e-02
5.939999999999999858e+01,8.061117235049845842e-02
5.943999999999999773e+01,9.542574721674670912e-02
5.947999999999999687e+01,8.735017410248877012e-02
5.952000000000000313e+01,8.603494451483827132e-02
5.956000000000000227e+01,9.512134634199725935e-02
5.960000000000000142e+01,8.183778240569253293e-02
5.964000000000000057e+01,9.352100267389737431e-02
5.967999999999999972e+01,8.335444001412600779e-02
5.971999999999999886e+01,7.370600892019713024e-02
5.975999999999999801e+01,8.642343981355070370e-02
5.979999999999999716e+01,1.111030506281772690e-01
5.984000000000000341e+01,8.688330427737905870e-02
5.988000000000000256e+01,7.722665697285459319e-02
5.992000000000000171e+01,8.005237180664527552e-02
5.996000000000000085e+01,6.987142861377293457e-02
