2.003999999999999915e+01,3.503413921304491391e-02
2.007999999999999829e+01,2.248581635649387830e-02
2.012000000000000099e+01,2.381822277880232819e-02
2.016000000000000014e+01,3.862900208695916465e-02
2.019999999999999929e+01,2.165307607383265207e-02
2.023999999999999844e+01,1.151664454344019338e-02
2.028000000000000114e+01,1.244444797148723698e-02
2.032000000000000028e+01,2.765533621004374540e-02
2.035999999999999943e+01,4.447508725774878408e-02
2.039999999999999858e+01,2.729517289436619865e-02
2.044000000000000128e+01,2.842190540534825574e-02
2.048000000000000043e+01,2.471980030353113436e-02
2.051999999999999957e+01,3.409371054605443707e-02
2.055999999999999872e+01,1.650918916868829647e-02
2.060000000000000142e+01,1.501835471944427958e-02
2.064000000000000057e+01,1.815405394532326050e-02
2.067999999999999972e+01,2.149036795877048989e-02
2.071999999999999886e+01,8.530690388611910507e-03
2.076000000000000156e+01,2.534481165376420431e-02
2.080000000000000071e+01,2.546058479873408026e-02
2.083999999999999986e+01,2.798993152902286285e-02
2.087999999999999901e+01,3.071989232907238951e-02
2.092000000000000171e+01,3.425400142950213445e-02
2.096000000000000085e+01,2.068740558604971469e-02
2.100000000000000000e+01,3.246868897254582415e-02
2.103999999999999915e+01,2.191863588513527986e-02
2.107999999999999829e+01,1.659864926785281636e-02
2.112000000000000099e+01,1.670990710186354838e-02
2.116000000000000014e+01,4.518671546248155535e-02
2.119999999999999929e+01,1.974722119281210886e-02
2.123999999999999844e+01,2.649566153243928038e-02
2.128000000000000114e+01,1.352808015824219848e-02
2.132000000000000028e+01,8.003523764800707374e-03
2.135999999999999943e+01,2.641859843616581327e-02
2.139999999999999858e+01,4.080954469172616561e-02
2.144000000000000128e+01,2.663263117122901050e-02
2.148000000000000043e+01,2.854940142050215249e-02
2.151999999999999957e+01,2.080905533093057452e-02
2.155999999999999872e+01,3.137535209600301328e-02
2.160000000000000142e+01,2.584683224384486458e-02
2.164000000000000057e+01,4.506265495047066111e-02
2.167999999999999972e+01,1.881165454260436132e-02
2.171999999999999886e+01,3.138746513728771920e-02
2.176000000000000156e+01,3.289791165866904482e-02
2.180000000000000071e+01,3.762664081880213313e-02
2.183999999999999986e+01,1.921931813489162130e-02
2.187999999999999901e+01,2.032570590549525463e-02
2.192000000000000171e+01,2.062681338962666505e-02
2.196000000000000085e+01,4.144752166478411770e-02
2.200000000000000000e+01,2.947562753475743008e-02
2.203999999999999915e+01,2.313615267883723653e-02
2.207999999999999829e+01,3.429860631235413793e-02
2.212000000000000099e+01,2.675092584089077893e-02
2.216000000000000014e+01,3.750988607064927732e-02
2.219999999999999929e+01,2.352336816649528914e-02
2.223999999999999844e+01,1.537044694336769241e-02
2.228000000000000114e+01,2.351238474350796082e-02
2.232000000000000028e+01,3.205610956992344107e-02
2.235999999999999943e+01,2.812622129652596684e-02
2.239999999999999858e+01,3.405349162444883809e-02
2.244000000000000128e+01,3.635898605342285234e-02
2.248000000000000043e+01,4.329100755369272302e-02
2.251999999999999957e+01,4.358358099698635829e-02
2.255999999999999872e+01,3.763906248919610120e-02
2.260000000000000142e+01,3.269986437693181425e-02
2.264000000000000057e+01,2.635184901990827652e-02
2.267999999999999972e+01,3.408573187854110897e-02
2.271999999999999886e+01,2.592597222494941178e-02
2.276000000000000156e+01,4.633293548023352526e-02
2.280000000000000071e+01,3.716614345473582409e-02
2.283999999999999986e+01,2.196343659795116018e-02
2.287999999999999901e+01,3.371802722154204623e-02
2.292000000000000171e+01,5.030032146197978282e-02
2.296000000000000085e+01,2.845702235940280461e-02
2.300000000000000000e+01,3.196159530870119891e-02
2.303999999999999915e+01,3.043614333254025806e-02
2.307999999999999829e+01,5.244795999858904018e-02
2.312000000000000099e+01,4.267306086336757065e-02
2.316000000000000014e+01,4.416356447488739567e-02
2.319999999999999929e+01,5.168883944668550834e-02
2.323999999999999844e+01,2.400737006617042341e-02
2.328000000000000114e+01,3.193385609367643124e-02
2.332000000000000028e+01,4.146919430678291940e-02
2.335999999999999943e+01,3.692149083322437964e-02
2.339999999999999858e+01,2.915436426469601369e-02
2.344000000000000128e+01,2.802554256925825910e-02
2.348000000000000043e+01,4.580689121169510131e-02
2.351999999999999957e+01,2.375439762816814251e-02
2.355999999999999872e+01,2.664741783720215446e-02
2.360000000000000142e+01,1.948095799274194434e-02
2.364000000000000057e+01,3.886943665153564514e-02
2.367999999999999972e+01,3.753599435918232585e-02
2.371999999999999886e+01,3.620197781899921197e-02
2.376000000000000156e+01,3.547092126160577424e-02
2.380000000000000071e+01,2.206506831145985115e-02
2.383999999999999986e+01,4.426716875947470098e-02
2.387999999999999901e+01,1.878947882512029682e-02
2.392000000000000171e+01,3.636333261670163935e-02
2.396000000000000085e+01,2.717992071039668570e-02
2.400000000000000000e+01,2.564070229095662817e-02
2.403999999999999915e+01,1.846792098283974587e-02
2.407999999999999829e+01,3.885596722243567225e-02
2.412000000000000099e+01,3.832091280698159130e-02
2.416000000000000014e+01,2.973815757544242752e-02
2.419999999999999929e+01,3.040902011077691036e-02
2.423999999999999844e+01,2.645220966326201559e-02
2.428000000000000114e+01,3.195019482022475737e-02
2.432000000000000028e+01,2.235924422141255530e-02
2.435999999999999943e+01,2.886196705594522641e-02
2.439999999999999858e+01,4.139945694391250486e-02
2.444000000000000128e+01,3.925036689487429453e-02
2.448000000000000043e+01,1.597699677400612681e-02
2.451999999999999957e+01,3.052453698275038249e-02
2.455999999999999872e+01,3.762790931397604066e-02
2.460000000000000142e+01,3.648240112521361489e-02
2.464000000000000057e+01,3.855516538233944718e-02
2.467999999999999972e+01,2.755077383890689249e-02
2.471999999999999886e+01,5.054490753746693904e-02
2.476000000000000156e+01,4.074642892510214193e-02
2.480000000000000071e+01,4.060392217564284117e-02
2.483999999999999986e+01,3.422431529209672696e-02
2.487999999999999901e+01,4.615133934759306500e-02
2.492000000000000171e+01,4.138000049607685332e-02
2.496000000000000085e+01,3.680926107105236128e-02
2.500000000000000000e+01,3.545679279986305166e-02
2.503999999999999915e+01,2.585544242950962510e-02
2.507999999999999829e+01,3.315247540730282411e-02
2.512000000000000099e+01,4.427131348242753506e-02
2.516000000000000014e+01,3.808825341498991990e-02
2.519999999999999929e+01,6.530018249262653507e-02
2.523999999999999844e+01,4.040639756281082934e-02
2.528000000000000114e+01,2.154737652807765108e-02
2.532000000000000028e+01,3.045035671537907329e-02
2.535999999999999943e+01,4.176689426555452167e-02
2.539999999999999858e+01,3.698860156016056666e-02
2.544000000000000128e+01,2.999676906179726821e-02
2.548000000000000043e+01,2.964323411489020940e-02
2.551999999999999957e+01,5.141871217985490017e-02
2.555999999999999872e+01,3.999921881321154282e-02
2.560000000000000142e+01,6.076764440766602854e-02
2.564000000000000057e+01,5.457762014992560695e-02
2.567999999999999972e+01,5.120350835602160977e-02
2.571999999999999886e+01,4.782881513621475150e-02
2.576000000000000156e+01,4.928181534039097894e-02
2.580000000000000071e+01,2.558696824066932288e-02
2.583999999999999986e+01,4.454130172647956937e-02
2.587999999999999901e+01,3.875014387072296673e-02
2.592000000000000171e+01,3.597607574216084292e-02
2.596000000000000085e+01,3.340260345105426631e-02
2.600000000000000000e+01,3.565682372256188254e-02
2.603999999999999915e+01,3.127158330368492306e-02
2.607999999999999829e+01,4.821064138791140985e-02
2.612000000000000099e+01,3.879478227138651036e-02
2.616000000000000014e+01,5.673856511265151781e-02
2.619999999999999929e+01,3.122728986424936140e-02
2.623999999999999844e+01,4.232985002395503460e-02
2.628000000000000114e+01,2.385864241303184766e-02
2.632000000000000028e+01,1.222690746350116320e-02
2.635999999999999943e+01,3.177719812376564312e-02
2.639999999999999858e+01,1.873604871181232603e-02
2.644000000000000128e+01,5.196528397705447305e-02
2.648000000000000043e+01,3.791707577788649974e-02
2.651999999999999957e+01,4.700376762518887475e-02
2.655999999999999872e+01,3.255203443874145341e-02
2.660000000000000142e+01,2.856097915384194635e-02
2.664000000000000057e+01,2.477051726585295655e-02
2.667999999999999972e+01,3.305015799010473793e-02
2.671999999999999886e+01,3.006323871470642506e-02
2.676000000000000156e+01,3.693346239242915191e-02
2.680000000000000071e+01,2.911709766302041438e-02
2.683999999999999986e+01,3.960735683814281538e-02
2.687999999999999901e+01,4.104401481136613072e-02
2.692000000000000171e+01,4.308362142602367717e-02
2.696000000000000085e+01,3.506373592802440597e-02
2.700000000000000000e+01,4.897168000539604826e-02
2.703999999999999915e+01,3.753059420373750649e-02
2.707999999999999829e+01,5.747270955249492858e-02
2.712000000000000099e+01,4.683516349219794123e-02
2.716000000000000014e+01,5.229128081594382194e-02
2.719999999999999929e+01,3.581839580677224910e-02
2.723999999999999844e+01,3.161678952470799858e-02
2.728000000000000114e+01,5.276303993344313298e-02
2.732000000000000028e+01,4.916379383239883466e-02
2.735999999999999943e+01,3.449916355944811219e-02
2.739999999999999858e+01,5.242480203678349243e-02
2.744000000000000128e+01,4.661083419729011162e-02
2.748000000000000043e+01,5.487874734607801203e-02
2.751999999999999957e+01,6.757199135269073564e-02
2.755999999999999872e+01,5.491620361397454853e-02
2.760000000000000142e+01,4.165629332778599675e-02
2.764000000000000057e+01,6.259607592833055234e-02
2.767999999999999972e+01,5.778447010340772433e-02
2.771999999999999886e+01,5.156402880142028911e-02
2.776000000000000156e+01,7.270322371476438394e-02
2.780000000000000071e+01,7.030398914395342980e-02
2.783999999999999986e+01,8.399841551664043171e-02
2.787999999999999901e+01,6.127901213552300330e-02
2.792000000000000171e+01,9.066415373690946133e-02
2.796000000000000085e+01,9.007316528863175409e-02
2.800000000000000000e+01,7.499676225110578354e-02
2.803999999999999915e+01,9.049884441961264514e-02
2.807999999999999829e+01,7.139769923905067706e-02
2.812000000000000099e+01,9.172687646538563166e-02
2.816000000000000014e+01,9.576003540568366057e-02
2.819999999999999929e+01,9.255019152909724212e-02
2.823999999999999844e+01,9.316214155204854963e-02
2.828000000000000114e+01,8.371459472481472541e-02
2.832000000000000028e+01,8.311829462817027503e-02
2.835999999999999943e+01,1.010297911054483661e-01
2.839999999999999858e+01,8.916633407861340732e-02
2.844000000000000128e+01,9.198828896876552752e-02
2.848000000000000043e+01,8.877430878546489768e-02
2.851999999999999957e+01,1.125176058403740964e-01
2.855999999999999872e+01,8.576460197004576180e-02
2.860000000000000142e+01,1.018619469042354592e-01
2.864000000000000057e+01,1.060891905736440904e-01
2.867999999999999972e+01,9.361805784126291108e-02
2.871999999999999886e+01,9.945354226602420855e-02
2.876000000000000156e+01,8.718240312878400289e-02
2.880000000000000071e+01,9.060256524011259249e-02
2.883999999999999986e+01,9.040092848265902925e-02
2.887999999999999901e+01,1.032752770652006491e-01
2.892000000000000171e+01,9.220883589441258854e-02
2.896000000000000085e+01,7.913002042197371522e-02
2.900000000000000000e+01,9.240494609082616773e-02
2.903999999999999915e+01,7.349077846185847473e-02
2.907999999999999829e+01,6.785377357980568180e-02
2.912000000000000099e+01,7.287861567965576992e-02
2.916000000000000014e+01,6.764277964624169914e-02
2.919999999999999929e+01,6.140045907344293674e-02
2.923999999999999844e+01,7.507417878930358612e-02
2.928000000000000114e+01,6.480710745978125742e-02
2.932000000000000028e+01,7.063369176198290578e-02
2.935999999999999943e+01,5.553715660258329301e-02
2.939999999999999858e+01,7.785915800884418703e-02
2.944000000000000128e+01,7.483212092238752944e-02
2.948000000000000043e+01,4.927253894582941940e-02
2.951999999999999957e+01,5.227965561626044672e-02
2.955999999999999872e+01,5.226850520798394240e-02
2.960000000000000142e+01,4.300256571090204510e-02
2.964000000000000057e+01,4.480082757887797473e-02
2.967999999999999972e+01,4.297728756328098032e-02
2.971999999999999886e+01,5.040734550307617023e-02
2.976000000000000156e+01,6.367097313434338934e-02
2.980000000000000071e+01,4.494668286484968661e-02
2.983999999999999986e+01,4.633960885532041607e-02
2.987999999999999901e+01,5.537670722912162863e-02
2.992000000000000171e+01,5.033074037217836333e-02
2.996000000000000085e+01,5.313012373616961964e-02
3.000000000000000000e+01,4.546764782737910265e-02
3.003999999999999915e+01,5.410000309093324078e-02
3.007999999999999829e+01,4.703986755168130390e-02
3.012000000000000099e+01,2.207428169406498372e-02
3.016000000000000014e+01,4.579320465915218130e-02
3.019999999999999929e+01,3.490889266641312993e-02
3.023999999999999844e+01,3.428406738640206453e-02
3.028000000000000114e+01,4.150459117883388560e-02
3.032000000000000028e+01,4.228681704453173679e-02
3.035999999999999943e+01,3.924606046138490179e-02
3.039999999999999858e+01,3.358939003419375569e-02
3.044000000000000128e+01,3.618042435465359391e-02
3.048000000000000043e+01,5.003683515010756699e-02
3.051999999999999957e+01,3.894655982613848960e-02
3.055999999999999872e+01,3.187924819986951569e-02
3.060000000000000142e+01,4.050323136190379231e-02
3.064000000000000057e+01,2.800291234364315346e-02
3.067999999999999972e+01,3.159624407601684809e-02
3.071999999999999886e+01,2.492889207622938849e-02
3.076000000000000156e+01,4.159760303012455251e-02
3.080000000000000071e+01,4.217146434765334240e-02
3.083999999999999986e+01,3.208228525288270988e-02
3.087999999999999901e+01,2.239486246223496360e-02
3.092000000000000171e+01,2.960580205976060322e-02
3.096000000000000085e+01,4.043734766991773782e-02
3.100000000000000000e+01,2.672456168736834017e-02
3.103999999999999915e+01,2.005240955068609415e-02
3.107999999999999829e+01,3.027861922793148586e-02
3.112000000000000099e+01,3.426770623194069776e-02
3.116000000000000014e+01,2.699021730097789923e-02
3.119999999999999929e+01,6.434371044211887117e-03
3.123999999999999844e+01,3.416067348453588615e-02
3.128000000000000114e+01,3.110612146068685371e-02
3.132000000000000028e+01,1.618145855343906120e-02
3.135999999999999943e+01,2.338578769808991389e-02
3.139999999999999858e+01,4.145313376636747260e-02
3.144000000000000128e+01,1.868071855987727195e-02
3.148000000000000043e+01,3.533861370112144351e-02
3.151999999999999957e+01,2.523921601136321427e-02
3.155999999999999872e+01,3.143464403861418593e-02
3.160000000000000142e+01,2.334582268081248149e-02
3.164000000000000057e+01,2.129174239182109185e-02
3.167999999999999972e+01,2.808889677425648046e-02
3.171999999999999886e+01,2.422300758604027313e-02
3.176000000000000156e+01,1.995415904468690951e-02
3.180000000000000071e+01,2.956599786225021925e-02
3.183999999999999986e+01,1.966295519049064688e-02
3.187999999999999901e+01,4.355723393849553898e-02
3.192000000000000171e+01,4.270599966715323687e-02
3.196000000000000085e+01,2.716815846925113576e-02
3.200000000000000000e+01,1.947566017064912905e-02
3.203999999999999915e+01,2.405442337177917875e-02
3.207999999999999829e+01,4.130680417853393321e-02
3.211999999999999744e+01,2.234651813869647369e-02
3.215999999999999659e+01,2.209519315917005816e-02
3.220000000000000284e+01,2.566564786659687736e-02
3.224000000000000199e+01,2.460840087888248318e-02
3.228000000000000114e+01,2.817764578990636024e-02
3.232000000000000028e+01,2.933214809066286149e-02
3.235999999999999943e+01,2.123185139687330455e-02
3.239999999999999858e+01,1.956864929368042419e-02
3.243999999999999773e+01,1.669777289789767249e-02
3.247999999999999687e+01,1.503335956268719506e-02
3.252000000000000313e+01,2.483549350556347665e-02
3.256000000000000227e+01,1.773805899646125825e-02
3.260000000000000142e+01,2.371659647613864538e-02
3.264000000000000057e+01,1.219203084253375237e-02
3.267999999999999972e+01,1.615757440730921507e-02
3.271999999999999886e+01,1.408716768111716554e-02
3.275999999999999801e+01,1.241851051165933015e-02
3.279999999999999716e+01,2.342346836371981753e-02
3.284000000000000341e+01,1.571825363632888689e-02
3.288000000000000256e+01,2.390550363896498318e-02
3.292000000000000171e+01,3.008036512736573381e-02
3.296000000000000085e+01,1.834976610453856183e-02
3.300000000000000000e+01,3.659410011194242501e-02
3.303999999999999915e+01,7.209108701397059019e-04
3.307999999999999829e+01,1.453811059468871660e-02
3.311999999999999744e+01,3.760889607190583128e-02
3.315999999999999659e+01,3.030117658701515782e-02
3.320000000000000284e+01,2.158460195713987964e-02
3.324000000000000199e+01,1.608626890743901014e-02
3.328000000000000114e+01,2.004269916088730757e-02
3.332000000000000028e+01,3.345389257392338694e-02
3.335999999999999943e+01,2.553959591975827476e-02
3.339999999999999858e+01,3.210951525623245706e-02
3.343999999999999773e+01,7.093859877306831450e-03
3.347999999999999687e+01,1.225431393060157775e-02
3.352000000000000313e+01,1.479884294205826949e-02
3.356000000000000227e+01,1.331919989502647859e-02
3.360000000000000142e+01,2.672612837028056840e-02
3.364000000000000057e+01,2.403819701630474301e-02
3.367999999999999972e+01,2.336143691496537361e-02
3.371999999999999886e+01,2.147699792706939462e-02
3.375999999999999801e+01,1.456249553924278926e-02
3.379999999999999716e+01,1.851100146135520666e-02
3.384000000000000341e+01,2.809188430694386368e-02
3.388000000000000256e+01,3.686744394118406792e-02
3.392000000000000171e+01,2.089748337800409125e-02
3.396000000000000085e+01,3.369538365121819284e-02
3.400000000000000000e+01,2.235129781407024091e-02
3.403999999999999915e+01,2.770438504257484794e-02
3.407999999999999829e+01,2.480855772702556319e-02
3.411999999999999744e+01,2.291800946130178457e-02
3.415999999999999659e+01,1.358325886330910039e-02
3.420000000000000284e+01,2.034214638254227062e-02
3.424000000000000199e+01,3.112398439182125984e-02
3.428000000000000114e+01,3.184630401669617805e-02
3.432000000000000028e+01,9.834883255806165306e-03
3.435999999999999943e+01,1.960899376660029877e-02
3.439999999999999858e+01,9.264679225957257735e-03
3.443999999999999773e+01,1.762931756262198224e-02
3.447999999999999687e+01,1.814739616907212055e-02
3.452000000000000313e+01,1.886603989082534169e-02
3.456000000000000227e+01,3.648303293665915853e-02
3.460000000000000142e+01,1.768617211036338857e-02
3.464000000000000057e+01,2.101829156392668457e-02
3.467999999999999972e+01,1.509560369637929708e-02
3.471999999999999886e+01,2.989364894847924142e-02
3.475999999999999801e+01,2.396973348290793587e-02
3.479999999999999716e+01,2.126405399861409570e-02
3.484000000000000341e+01,2.479428222294086451e-02
3.488000000000000256e+01,3.093921176724127170e-02
3.492000000000000171e+01,2.843286750324318379e-02
3.496000000000000085e+01,1.989056490883574918e-02
3.500000000000000000e+01,1.939477257134598204e-02
3.503999999999999915e+01,3.660204033410718871e-02
3.507999999999999829e+01,1.659074000309337937e-02
3.511999999999999744e+01,8.448333868125322207e-03
3.515999999999999659e+01,3.893151237432949247e-02
3.520000000000000284e+01,2.978198485935052570e-02
3.524000000000000199e+01,2.807543236573950898e-02
3.528000000000000114e+01,1.630935789868792965e-02
3.532000000000000028e+01,1.621099878514791620e-02
3.535999999999999943e+01,1.530731114848533914e-02
3.539999999999999858e+01,2.908901044911603104e-02
3.543999999999999773e+01,1.168748410572788624e-02
3.547999999999999687e+01,9.373700661963951103e-03
3.552000000000000313e+01,2.315355059789774017e-02
3.556000000000000227e+01,3.391511192090496812e-02
3.560000000000000142e+01,2.958769700380564291e-02
3.564000000000000057e+01,2.566202130701541670e-02
3.567999999999999972e+01,2.422628463729233420e-03
3.571999999999999886e+01,2.464887449247198797e-02
3.575999999999999801e+01,0.000000000000000000e+00
3.579999999999999716e+01,1.920733909461826150e-02
3.584000000000000341e+01,7.030272984876125703e-03
3.588000000000000256e+01,1.839042957767661468e-02
3.592000000000000171e+01,1.808163690223749120e-02
3.596000000000000085e+01,2.501463853933298676e-02
3.600000000000000000e+01,1.907162187270408996e-02
3.603999999999999915e+01,2.539985234966128311e-02
3.607999999999999829e+01,2.770390172375813975e-02
3.611999999999999744e+01,3.201911359324242229e-02
3.615999999999999659e+01,2.003827846439784621e-02
3.620000000000000284e+01,4.265946174958794995e-02
3.624000000000000199e+01,2.383733215845421430e-02
3.628000000000000114e+01,2.613828633752482422e-02
3.632000000000000028e+01,1.837971481055707471e-02
3.635999999999999943e+01,1.625351116269348195e-02
3.639999999999999858e+01,2.961740336199457369e-02
3.643999999999999773e+01,2.970291942894123099e-02
3.647999999999999687e+01,2.878192482831748097e-02
3.652000000000000313e+01,3.047562566164759706e-02
3.656000000000000227e+01,1.848859368248492036e-02
3.660000000000000142e+01,2.923406932285067469e-02
3.664000000000000057e+01,2.026346812179150719e-02
3.667999999999999972e+01,2.718531801242073109e-02
3.671999999999999886e+01,3.672186261919636180e-02
3.675999999999999801e+01,2.392701433241199369e-02
3.679999999999999716e+01,1.072918860374648224e-02
3.684000000000000341e+01,2.066622588269472621e-02
3.688000000000000256e+01,3.160853230572772260e-02
3.692000000000000171e+01,2.142651400931673208e-02
3.696000000000000085e+01,3.960998953273644346e-02
3.700000000000000000e+01,3.304793380450362500e-02
3.703999999999999915e+01,3.453238101155396700e-02
3.707999999999999829e+01,3.521149352233901575e-02
3.711999999999999744e+01,3.287231182130064683e-02
3.715999999999999659e+01,2.530187639288062826e-02
3.720000000000000284e+01,2.577794332549787626e-02
3.724000000000000199e+01,1.820626249743291861e-02
3.728000000000000114e+01,3.075177122690095355e-02
3.732000000000000028e+01,3.585306628274471941e-02
3.735999999999999943e+01,2.687126940541262679e-02
3.739999999999999858e+01,4.363964914728442335e-02
3.743999999999999773e+01,1.514232733617603029e-02
3.747999999999999687e+01,3.573184432547798356e-02
3.752000000000000313e+01,3.680645943972979395e-02
3.756000000000000227e+01,2.802272252226490484e-02
3.760000000000000142e+01,4.579387400510452621e-02
3.764000000000000057e+01,3.841713568985434535e-02
3.767999999999999972e+01,4.150103550962767895e-02
3.771999999999999886e+01,4.015839209106689817e-02
3.775999999999999801e+01,3.740687716151506331e-02
3.779999999999999716e+01,3.385002495159164515e-02
3.784000000000000341e+01,3.894320717990321090e-02
3.788000000000000256e+01,6.314768618869093242e-02
3.792000000000000171e+01,6.924550875990281851e-02
3.796000000000000085e+01,5.623078412634246320e-02
3.800000000000000000e+01,6.956976833274507166e-02
3.803999999999999915e+01,7.546453628141724934e-02
3.807999999999999829e+01,1.026835596647549809e-01
3.811999999999999744e+01,1.039499790283575226e-01
3.815999999999999659e+01,1.303630379093153324e-01
3.820000000000000284e+01,1.561719361990139832e-01
3.824000000000000199e+01,2.041098018480403675e-01
3.828000000000000114e+01,2.295150910234442787e-01
3.832000000000000028e+01,2.923388847503032295e-01
3.835999999999999943e+01,3.678362735436375153e-01
3.839999999999999858e+01,3.940443948439771860e-01
3.843999999999999773e+01,4.767829421141501212e-01
3.847999999999999687e+01,5.261252934576367002e-01
3.852000000000000313e+01,5.710410986915599452e-01
3.856000000000000227e+01,6.563930794864738516e-01
3.860000000000000142e+01,6.878286952018652922e-01
3.864000000000000057e+01,7.818300799110922128e-01
3.867999999999999972e+01,8.679848898161515169e-01
3.871999999999999886e+01,8.957974154670103051e-01
3.875999999999999801e+01,9.334670410025519560e-01
3.879999999999999716e+01,9.872302881457519774e-01
3.884000000000000341e+01,9.838583193524289561e-01
3.888000000000000256e+01,1.000000000000000000e+00
3.892000000000000171e+01,9.463322425661252479e-01
3.896000000000000085e+01,9.087581061656627712e-01
3.900000000000000000e+01,8.486513907074715313e-01
3.903999999999999915e+01,7.961888147570366225e-01
3.907999999999999829e+01,7.427197188075365109e-01
3.911999999999999744e+01,6.363401465358495823e-01
3.915999999999999659e+01,5.657696508030114479e-01
3.920000000000000284e+01,5.046538971262264361e-01
3.924000000000000199e+01,4.431351572503113290e-01
3.928000000000000114e+01,3.828228560295203753e-01
3.932000000000000028e+01,3.249240620686540959e-01
3.935999999999999943e+01,2.881483408237597854e-01
3.939999999999999858e+01,2.491590296829467865e-01
3.943999999999999773e+01,2.270680503517162607e-01
3.947999999999999687e+01,2.063846870825296609e-01
3.952000000000000313e+01,1.788606366180194862e-01
3.956000000000000227e+01,1.617972175411442337e-01
3.960000000000000142e+01,1.471473047192633499e-01
3.964000000000000057e+01,1.359167886324503804e-01
3.967999999999999972e+01,1.206620785222456277e-01
3.971999999999999886e+01,1.176786023479727272e-01
3.975999999999999801e+01,1.090615068653693481e-01
3.979999999999999716e+01,1.139227137799368184e-01
3.984000000000000341e+01,1.147597260968666877e-01
3.988000000000000256e+01,1.065430905544230977e-01
3.992000000000000171e+01,1.031540976152059280e-01
3.996000000000000085e+01,9.211970340258128498e-02
4.000000000000000000e+01,1.046225171056689301e-01
4.003999999999999915e+01,1.153140948653084419e-01
4.007999999999999829e+01,9.723656782452344549e-02
4.011999999999999744e+01,1.010868232709507264e-01
4.015999999999999659e+01,9.608460797780118967e-02
4.020000000000000284e+01,7.941342805533584126e-02
4.024000000000000199e+01,6.636282083924345543e-02
4.028000000000000114e+01,6.980818616848900870e-02
4.032000000000000028e+01,7.486234266971479590e-02
4.035999999999999943e+01,4.470969337432267876e-02
4.039999999999999858e+01,4.332488180192964333e-02
4.043999999999999773e+01,5.803368595117480017e-02
4.047999999999999687e+01,3.753568387311769644e-02
4.052000000000000313e+01,4.399491596483254968e-02
4.056000000000000227e+01,4.099814150717508848e-02
4.060000000000000142e+01,4.826081657982772555e-02
4.064000000000000057e+01,4.184274419671868417e-02
4.067999999999999972e+01,4.246527106116514128e-02
4.071999999999999886e+01,2.840115955909209774e-02
4.075999999999999801e+01,3.465540324943200412e-02
4.079999999999999716e+01,2.260180204104408550e-02
4.084000000000000341e+01,1.939940262850850181e-02
4.088000000000000256e+01,2.524938299299081534e-02
4.092000000000000171e+01,3.693289299529800562e-02
4.096000000000000085e+01,2.910148877626953998e-02
4.100000000000000000e+01,2.831068265630488912e-02
4.103999999999999915e+01,2.892748699948722441e-02
4.107999999999999829e+01,1.948474855281746854e-02
4.111999999999999744e+01,3.699924212249769417e-02
4.115999999999999659e+01,2.312931139414342932e-02
4.120000000000000284e+01,2.635888428339448752e-02
4.124000000000000199e+01,2.858192942126144137e-02
4.128000000000000114e+01,1.249712793766295967e-02
4.132000000000000028e+01,3.202021711586729158e-02
4.135999999999999943e+01,2.679775939421995962e-02
4.139999999999999858e+01,2.740882958765993721e-02
4.143999999999999773e+01,3.224400255481001815e-02
4.147999999999999687e+01,2.762316567067430242e-02
4.152000000000000313e+01,2.863467814621453722e-02
4.156000000000000227e+01,3.226086796696465281e-02
4.160000000000000142e+01,3.367345999591573463e-02
4.164000000000000057e+01,2.643475409824312672e-02
4.167999999999999972e+01,1.456831262492479760e-02
4.171999999999999886e+01,3.509091038216304720e-02
4.175999999999999801e+01,3.287974105120484991e-02
4.179999999999999716e+01,2.724790446227847232e-02
4.184000000000000341e+01,2.805312858344426521e-02
4.188000000000000256e+01,2.785182265624267656e-02
4.192000000000000171e+01,2.764987716074717577e-02
4.196000000000000085e+01,3.187321069738972140e-02
4.200000000000000000e+01,2.885349188844422638e-02
4.203999999999999915e+01,3.066140807396781215e-02
4.207999999999999829e+01,3.427928723949440898e-02
4.211999999999999744e+01,2.683172925893603095e-02
4.215999999999999659e+01,3.366717770433029500e-02
4.220000000000000284e+01,2.279831060052641203e-02
4.224000000000000199e+01,2.299359963992062342e-02
4.228000000000000114e+01,1.856115095024726824e-02
4.232000000000000028e+01,2.338225499410627808e-02
4.235999999999999943e+01,3.363452725812367955e-02
4.239999999999999858e+01,3.181547074749094955e-02
4.243999999999999773e+01,3.582993841934764556e-02
4.247999999999999687e+01,2.314598016071094111e-02
4.252000000000000313e+01,1.710025829634851183e-02
4.256000000000000227e+01,2.312458205032744130e-02
4.260000000000000142e+01,3.639067628563871781e-02
4.264000000000000057e+01,2.772771277330932441e-02
4.267999999999999972e+01,1.423583197157080385e-02
4.271999999999999886e+01,1.864816183101001071e-02
4.275999999999999801e+01,2.788812410081209503e-02
4.279999999999999716e+01,3.491448427197137161e-02
4.284000000000000341e+01,1.820118285513987536e-02
4.288000000000000256e+01,1.858737902633236100e-02
4.292000000000000171e+01,3.587189451726047890e-02
4.296000000000000085e+01,1.352367613608227055e-02
4.300000000000000000e+01,2.517391738930972039e-02
4.303999999999999915e+01,2.595989631926564484e-02
4.307999999999999829e+01,2.332520339728669928e-02
4.311999999999999744e+01,3.074877283651881316e-02
4.315999999999999659e+01,2.489394202507125634e-02
4.320000000000000284e+01,1.923964517609004499e-02
4.324000000000000199e+01,3.631783211543499618e-02
4.328000000000000114e+01,3.347874025742571258e-02
4.332000000000000028e+01,2.782251006029370227e-02
4.335999999999999943e+01,2.940804761682640212e-02
4.339999999999999858e+01,4.246009340272877131e-02
4.343999999999999773e+01,3.861253168793564450e-02
4.347999999999999687e+01,2.410188419542199853e-02
4.352000000000000313e+01,2.689191011867582762e-02
4.356000000000000227e+01,4.134962182178063966e-02
4.360000000000000142e+01,2.663585984159852135e-02
4.364000000000000057e+01,3.324633334103918592e-02
4.367999999999999972e+01,3.663731095985008762e-02
4.371999999999999886e+01,4.083235504900924184e-02
4.375999999999999801e+01,4.804442483695192667e-02
4.379999999999999716e+01,3.252272021506373567e-02
4.384000000000000341e+01,3.550875660881332857e-02
4.388000000000000256e+01,2.421049954414217567e-02
4.392000000000000171e+01,3.383412070470955685e-02
4.396000000000000085e+01,4.265238247644070196e-02
4.400000000000000000e+01,4.322169410087594449e-02
4.403999999999999915e+01,3.936443980426633515e-02
4.407999999999999829e+01,5.944673502955420685e-02
4.411999999999999744e+01,4.613281408598973732e-02
4.415999999999999659e+01,5.856904549974257385e-02
4.420000000000000284e+01,5.792805105494474444e-02
4.424000000000000199e+01,6.070643683564691528e-02
4.428000000000000114e+01,6.851362769610348791e-02
4.432000000000000028e+01,7.692370474875941111e-02
4.435999999999999943e+01,9.136847721768159847e-02
4.439999999999999858e+01,8.448771999643987785e-02
4.443999999999999773e+01,9.691941413632193525e-02
4.447999999999999687e+01,1.238352845003189845e-01
4.452000000000000313e+01,1.145384435136714008e-01
4.456000000000000227e+01,1.436659753065260836e-01
4.460000000000000142e+01,1.508644423172285365e-01
4.464000000000000057e+01,1.673164537348986458e-01
4.467999999999999972e+01,1.889984469214355811e-01
4.471999999999999886e+01,2.096738998667414533e-01
4.475999999999999801e+01,1.969531343462116724e-01
4.479999999999999716e+01,2.347274282274338930e-01
4.484000000000000341e+01,2.539926845854937887e-01
4.488000000000000256e+01,2.746655376248006153e-01
4.492000000000000171e+01,2.874917934643517747e-01
4.496000000000000085e+01,2.950867675820367797e-01
4.500000000000000000e+01,3.034858035761033301e-01
4.503999999999999915e+01,3.144995044255327610e-01
4.507999999999999829e+01,3.401985574703823567e-01
4.511999999999999744e+01,3.361225970024284693e-01
4.515999999999999659e+01,3.517614415609462419e-01
4.520000000000000284e+01,3.362170254464488806e-01
4.524000000000000199e+01,3.480321828109253501e-01
4.528000000000000114e+01,3.216228448498196779e-01
4.532000000000000028e+01,3.231766144547457698e-01
4.535999999999999943e+01,2.901270946920524452e-01
4.539999999999999858e+01,2.900701353264421578e-01
4.543999999999999773e+01,2.519898581857310527e-01
4.547999999999999687e+01,2.507245255247927407e-01
4.552000000000000313e+01,2.253171654077919528e-01
4.556000000000000227e+01,2.097668807700261706e-01
4.560000000000000142e+01,2.016595339712103641e-01
4.564000000000000057e+01,1.750431467780030059e-01
4.567999999999999972e+01,1.554673408871686535e-01
4.571999999999999886e+01,1.318673192951621831e-01
4.575999999999999801e+01,1.223491130838498947e-01
4.579999999999999716e+01,1.088066908842426211e-01
4.584000000000000341e+01,1.171920306425587727e-01
4.588000000000000256e+01,1.020388760269402284e-01
4.592000000000000171e+01,1.005651799683161401e-01
4.596000000000000085e+01,8.923310173006886170e-02
4.600000000000000000e+01,8.011332865225545552e-02
4.603999999999999915e+01,8.246005432875541663e-02
4.607999999999999829e+01,7.233308177349717649e-02
4.611999999999999744e+01,7.045375768979766917e-02
4.615999999999999659e+01,7.400558818791785898e-02
4.620000000000000284e+01,5.361656691415773307e-02
4.624000000000000199e+01,6.340360927651246536e-02
4.628000000000000114e+01,5.850399331730489483e-02
4.632000000000000028e+01,6.044377823875999450e-02
4.635999999999999943e+01,6.882060764786238072e-02
4.639999999999999858e+01,6.693669704871155202e-02
4.643999999999999773e+01,5.378615567411108855e-02
4.647999999999999687e+01,5.833863334118429000e-02
4.652000000000000313e+01,5.504450806604356539e-02
4.656000000000000227e+01,5.456622031565722120e-02
4.660000000000000142e+01,5.006371370574666524e-02
4.664000000000000057e+01,6.829367868143820797e-02
4.667999999999999972e+01,5.312741830034405782e-02
4.671999999999999886e+01,5.164061360501519954e-02
4.675999999999999801e+01,4.110013635774180385e-02
4.679999999999999716e+01,5.067681450037404139e-02
4.684000000000000341e+01,4.073855731813609549e-02
4.688000000000000256e+01,4.246797400014781787e-02
4.692000000000000171e+01,3.574725193015015900e-02
4.696000000000000085e+01,3.083647532565737120e-02
4.700000000000000000e+01,3.397216590964435845e-02
4.703999999999999915e+01,2.644475793894078552e-02
4.707999999999999829e+01,4.004039497684753340e-02
4.711999999999999744e+01,3.170695818823012629e-02
4.715999999999999659e+01,3.725415363092891841e-02
4.720000000000000284e+01,3.233942806941830783e-02
4.724000000000000199e+01,3.466645633611082494e-02
4.728000000000000114e+01,4.383288203799094035e-02
4.732000000000000028e+01,2.644313632681919921e-02
4.735999999999999943e+01,3.540706586222888697e-02
4.739999999999999858e+01,2.002778306946053841e-02
4.743999999999999773e+01,3.361749085760142031e-02
4.747999999999999687e+01,3.754998913551056694e-02
4.752000000000000313e+01,2.760053714036004441e-02
4.756000000000000227e+01,2.931875656891441001e-02
4.760000000000000142e+01,2.942689104563176589e-02
4.764000000000000057e+01,3.637442166548362360e-02
4.767999999999999972e+01,3.386592018202344567e-02
4.771999999999999886e+01,3.437443018476233486e-02
4.775999999999999801e+01,3.407756716032624839e-02
4.779999999999999716e+01,2.955530284479516295e-02
4.784000000000000341e+01,3.831013394585455062e-02
4.788000000000000256e+01,3.579832910325182055e-02
4.792000000000000171e+01,2.865876628941572968e-02
4.796000000000000085e+01,3.016920159276524280e-02
4.800000000000000000e+01,3.248368800538690981e-02
4.803999999999999915e+01,3.479751288481131022e-02
4.807999999999999829e+01,3.791538858638485165e-02
4.811999999999999744e+01,2.976662748292749350e-02
4.815999999999999659e+01,2.906079503048662402e-02
4.820000000000000284e+01,3.056725984259941672e-02
4.824000000000000199e+01,3.730369364660903603e-02
4.828000000000000114e+01,3.136524319825308160e-02
4.832000000000000028e+01,3.327207707612174492e-02
4.835999999999999943e+01,2.471698578649866168e-02
4.839999999999999858e+01,3.466961914650704135e-02
4.843999999999999773e+01,3.355679267771981278e-02
4.847999999999999687e+01,1.695258749258207742e-02
4.852000000000000313e+01,2.187377839729605367e-02
4.856000000000000227e+01,2.780019652614866207e-02
4.860000000000000142e+01,2.930003236795007335e-02
4.864000000000000057e+01,3.260980764567510126e-02
4.867999999999999972e+01,1.378932537325207493e-02
4.871999999999999886e+01,2.454136346195253879e-02
4.875999999999999801e+01,1.919848745519136743e-02
4.879999999999999716e+01,2.833977216790745102e-02
4.884000000000000341e+01,2.983562373657199646e-02
4.888000000000000256e+01,3.193434513142951597e-02
4.892000000000000171e+01,3.242297683692185045e-02
4.896000000000000085e+01,2.647324371604012003e-02
4.900000000000000000e+01,1.468867999940375209e-02
4.903999999999999915e+01,3.247663549539919065e-02
4.907999999999999829e+01,2.753079763145101916e-02
4.911999999999999744e+01,2.801610372577457986e-02
4.915999999999999659e+01,3.051252551444975231e-02
4.920000000000000284e+01,2.918589723683277098e-02
4.924000000000000199e+01,1.961030000536869225e-02
4.928000000000000114e+01,2.974949301354580522e-02
4.932000000000000028e+01,2.057491992076916285e-02
4.935999999999999943e+01,2.367154616561267799e-02
4.939999999999999858e+01,4.084997472705763355e-02
4.943999999999999773e+01,3.308164926450917614e-02
4.947999999999999687e+01,2.672090397363971123e-02
4.952000000000000313e+01,2.217009496034180391e-02
4.956000000000000227e+01,3.149990956467251663e-02
4.960000000000000142e+01,3.600078204346159050e-02
4.964000000000000057e+01,3.104561538442714153e-02
4.967999999999999972e+01,3.373455004580064309e-02
4.971999999999999886e+01,2.656508903277374906e-02
4.975999999999999801e+01,3.086211342284449904e-02
4.979999999999999716e+01,3.033019496956628619e-02
4.984000000000000341e+01,3.080349914646003662e-02
4.988000000000000256e+01,2.503961331979304150e-02
4.992000000000000171e+01,2.390215608126071076e-02
4.996000000000000085e+01,3.825474602255823225e-02
5.000000000000000000e+01,2.363701743546229445e-02
5.003999999999999915e+01,2.933761073452077414e-02
5.007999999999999829e+01,2.095506644785916084e-02
5.011999999999999744e+01,2.826374689150857808e-02
5.015999999999999659e+01,2.450696133321963316e-02
5.020000000000000284e+01,2.758956273013182803e-02
5.024000000000000199e+01,3.529859156668693765e-02
5.028000000000000114e+01,1.946911023754675438e-02
5.032000000000000028e+01,2.375677166490378772e-02
5.035999999999999943e+01,3.126261322813051607e-02
5.039999999999999858e+01,2.790416605277711362e-02
5.043999999999999773e+01,2.836743310035141907e-02
5.047999999999999687e+01,2.862885173275245970e-02
5.052000000000000313e+01,3.412023117404714562e-02
5.056000000000000227e+01,3.759915879050280962e-02
5.060000000000000142e+01,3.423735944511057533e-02
5.064000000000000057e+01,2.604661424157876659e-02
5.067999999999999972e+01,3.857654487667196153e-02
5.071999999999999886e+01,2.897621063998268021e-02
5.075999999999999801e+01,3.144589259153546257e-02
5.079999999999999716e+01,2.184421562053164706e-02
5.084000000000000341e+01,2.652551392264376404e-02
5.088000000000000256e+01,3.060260612451401116e-02
5.092000000000000171e+01,3.146017646113030003e-02
5.096000000000000085e+01,3.271943103401674796e-02
5.100000000000000000e+01,3.277094470179602037e-02
5.103999999999999915e+01,3.000529232309087982e-02
5.107999999999999829e+01,3.488373624014268204e-02
5.111999999999999744e+01,2.909906695923503844e-02
5.115999999999999659e+01,2.955024681387257574e-02
5.120000000000000284e+01,2.557483504996403006e-02
5.124000000000000199e+01,1.596576277558614185e-02
5.128000000000000114e+01,4.639046416020108088e-02
5.132000000000000028e+01,2.591642668365392796e-02
5.135999999999999943e+01,2.555952823100611157e-02
5.139999999999999858e+01,2.339135306345559856e-02
5.143999999999999773e+01,3.812146663704973210e-02
5.147999999999999687e+01,4.138375322172349602e-02
5.152000000000000313e+01,3.679941891900085499e-02
5.156000000000000227e+01,3.543326044530412111e-02
5.160000000000000142e+01,2.622048079708818105e-02
5.164000000000000057e+01,2.907771417876217276e-02
5.167999999999999972e+01,3.776843858022840145e-02
5.171999999999999886e+01,3.539369138085940447e-02
5.175999999999999801e+01,3.482887241962012020e-02
5.179999999999999716e+01,3.104452843477478741e-02
5.184000000000000341e+01,2.263241240967309512e-02
5.188000000000000256e+01,2.126085543491813140e-02
5.192000000000000171e+01,2.431454174549780786e-02
5.196000000000000085e+01,4.185237743419945033e-02
5.200000000000000000e+01,3.283402491315850352e-02
5.203999999999999915e+01,2.280910587913939983e-02
5.207999999999999829e+01,2.746951391728492606e-02
5.211999999999999744e+01,3.675634264768474352e-02
5.215999999999999659e+01,3.115531382826067924e-02
5.220000000000000284e+01,3.118659603760291429e-02
5.224000000000000199e+01,3.061366726561373652e-02
5.228000000000000114e+01,2.299882737746836506e-02
5.232000000000000028e+01,3.409287619465832531e-02
5.235999999999999943e+01,2.889081987112830652e-02
5.239999999999999858e+01,2.348690824147499009e-02
5.243999999999999773e+01,2.693415677485078499e-02
5.247999999999999687e+01,2.454656222262494719e-02
5.252000000000000313e+01,2.417007130558818800e-02
5.256000000000000227e+01,3.586359011652776735e-02
5.260000000000000142e+01,3.206571542428649640e-02
5.264000000000000057e+01,2.706009394091833664e-02
5.267999999999999972e+01,3.130798800866441828e-02
5.271999999999999886e+01,1.765035064582157198e-02
5.275999999999999801e+01,3.014519102403617062e-02
5.279999999999999716e+01,2.916041842853244609e-02
5.284000000000000341e+01,2.656554207464042333e-02
5.288000000000000256e+01,3.946070242059170757e-02
5.292000000000000171e+01,3.646211186541656324e-02
5.296000000000000085e+01,2.239804525900089202e-02
5.300000000000000000e+01,3.569352428063573418e-02
5.303999999999999915e+01,2.705990822865049841e-02
5.307999999999999829e+01,2.425977817180633919e-02
5.311999999999999744e+01,2.970727146326560333e-02
5.315999999999999659e+01,3.173405672530218991e-02
5.320000000000000284e+01,3.436369630889411775e-02
5.324000000000000199e+01,3.296909320175952368e-02
5.328000000000000114e+01,2.815378163451786112e-02
5.332000000000000028e+01,2.313661145923927992e-02
5.335999999999999943e+01,3.119533876434277958e-02
5.339999999999999858e+01,3.040154781102644491e-02
5.343999999999999773e+01,2.437644470081444178e-02
5.347999999999999687e+01,3.182959488975406481e-02
5.352000000000000313e+01,3.103376076377041895e-02
5.356000000000000227e+01,3.989379528000299574e-02
5.360000000000000142e+01,3.386596707819911067e-02
5.364000000000000057e+01,2.904452599295551107e-02
5.367999999999999972e+01,1.818705939053949852e-02
5.371999999999999886e+01,2.664201084298876282e-02
5.375999999999999801e+01,4.052808960058038729e-02
5.379999999999999716e+01,2.463912369253204795e-02
5.384000000000000341e+01,3.329320665156593195e-02
5.388000000000000256e+01,3.168652275635363419e-02
5.392000000000000171e+01,3.390154059422204741e-02
5.396000000000000085e+01,2.806875066271815114e-02
5.400000000000000000e+01,3.430596529097810349e-02
5.403999999999999915e+01,2.203410937693995458e-02
5.407999999999999829e+01,1.841222961518415233e-02
5.411999999999999744e+01,2.766506648141576694e-02
5.415999999999999659e+01,3.027834173355654218e-02
5.420000000000000284e+01,2.363673960659434109e-02
5.424000000000000199e+01,2.484040055876078276e-02
5.428000000000000114e+01,2.242217133705665111e-02
5.432000000000000028e+01,2.825156115681210639e-02
5.435999999999999943e+01,2.623431989630764516e-02
5.439999999999999858e+01,2.542346302469564515e-02
5.443999999999999773e+01,3.628025288421749678e-02
5.447999999999999687e+01,4.512457684987731393e-02
5.452000000000000313e+01,3.626454104940953632e-02
5.456000000000000227e+01,3.082384843558514179e-02
5.460000000000000142e+01,1.612827700704318884e-02
5.464000000000000057e+01,2.818871094635103450e-02
5.467999999999999972e+01,3.079308765909139975e-02
5.471999999999999886e+01,3.460384761223263272e-02
5.475999999999999801e+01,2.936090630113746131e-02
5.479999999999999716e+01,3.337147293239923346e-02
5.484000000000000341e+01,3.456485987883791550e-02
5.488000000000000256e+01,3.213635449798422916e-02
5.492000000000000171e+01,2.930480664190822024e-02
5.496000000000000085e+01,2.868553178849917937e-02
5.500000000000000000e+01,3.269266729091938051e-02
5.503999999999999915e+01,3.549204738852507202e-02
5.507999999999999829e+01,3.064597194649144180e-02
5.511999999999999744e+01,2.942041580596779088e-02
5.515999999999999659e+01,3.865543506410989288e-02
5.520000000000000284e+01,2.374839212431623103e-02
5.524000000000000199e+01,3.378674927640769321e-02
5.528000000000000114e+01,3.215608767651306765e-02
5.532000000000000028e+01,3.796832903013363375e-02
5.535999999999999943e+01,2.386324823083914651e-02
5.539999999999999858e+01,2.444348258810811331e-02
5.543999999999999773e+01,2.120064448349730582e-02
5.547999999999999687e+01,2.097479001416233807e-02
5.552000000000000313e+01,2.597887840853851243e-02
5.556000000000000227e+01,2.756225015980450985e-02
5.560000000000000142e+01,2.592608324912571219e-02
5.564000000000000057e+01,2.529511815220718968e-02
5.567999999999999972e+01,2.607171097494154557e-02
5.571999999999999886e+01,2.483583345340853801e-02
5.575999999999999801e+01,3.848644792111285962e-02
5.579999999999999716e+01,3.644447927599255010e-02
5.584000000000000341e+01,1.770403675085140474e-02
5.588000000000000256e+01,4.241737949549372749e-02
5.592000000000000171e+01,3.554506684319595766e-02
5.596000000000000085e+01,1.961904861981805803e-02
5.600000000000000000e+01,2.723018088756860161e-02
5.603999999999999915e+01,4.630777601926764492e-02
5.607999999999999829e+01,3.681738705068540035e-02
5.611999999999999744e+01,2.913691067203383681e-02
5.615999999999999659e+01,3.513585609864308679e-02
5.620000000000000284e+01,3.228227321753043833e-02
5.624000000000000199e+01,2.962917749784821364e-02
5.628000000000000114e+01,3.602840628402199930e-02
5.632000000000000028e+01,2.874683133834196255e-02
5.635999999999999943e+01,2.206809937286207182e-02
5.639999999999999858e+01,2.725818522873137140e-02
5.643999999999999773e+01,3.305111377767785269e-02
5.647999999999999687e+01,3.823981612777823530e-02
5.652000000000000313e+01,3.517952339584581867e-02
5.656000000000000227e+01,3.553856667248384005e-02
5.660000000000000142e+01,2.563683333269653475e-02
5.664000000000000057e+01,2.941452007543244804e-02
5.667999999999999972e+01,3.761743301968937386e-02
5.671999999999999886e+01,2.992658142448113151e-02
5.675999999999999801e+01,3.470808073275000183e-02
5.679999999999999716e+01,4.471951831076329681e-02
5.684000000000000341e+01,4.004425966698896971e-02
5.688000000000000256e+01,3.838597963383949541e-02
5.692000000000000171e+01,2.686927808522681857e-02
5.696000000000000085e+01,3.466498296300112025e-02
5.700000000000000000e+01,3.461404728545919296e-02
5.703999999999999915e+01,3.939069276683898613e-02
5.707999999999999829e+01,3.169360053705908009e-02
5.711999999999999744e+01,3.687121416815709873e-02
5.715999999999999659e+01,3.098333667406144923e-02
5.720000000000000284e+01,3.032539601409558333e-02
5.724000000000000199e+01,2.463730768362235729e-02
5.728000000000000114e+01,3.182392463978118979e-02
5.732000000000000028e+01,2.372030927723394259e-02
5.735999999999999943e+01,2.969846766255766768e-02
5.739999999999999858e+01,2.984176530422030793e-02
5.743999999999999773e+01,2.696669580483803536e-02
5.747999999999999687e+01,3.072980900774417712e-02
5.752000000000000313e+01,2.785334853739704006e-02
5.756000000000000227e+01,3.302331735530420614e-02
5.760000000000000142e+01,2.411012159793694820e-02
5.764000000000000057e+01,3.953878294458629261e-02
5.767999999999999972e+01,3.444657943757503671e-02
5.771999999999999886e+01,3.156663902748999689e-02
5.775999999999999801e+01,2.707657720095721018e-02
5.779999999999999716e+01,2.982823130240219722e-02
5.784000000000000341e+01,2.272146058647043707e-02
5.788000000000000256e+01,3.633533986810091182e-02
5.792000000000000171e+01,3.224484718087974877e-02
5.796000000000000085e+01,2.996426047976207332e-02
5.800000000000000000e+01,2.808533274809768207e-02
5.803999999999999915e+01,2.861984508959479478e-02
5.807999999999999829e+01,3.116544111123810759e-02
5.811999999999999744e+01,3.330798317274239612e-02
5.815999999999999659e+01,3.665689612836196820e-02
5.820000000000000284e+01,3.698743921526895934e-02
5.824000000000000199e+01,2.343599355464504735e-02
5.828000000000000114e+01,3.000166208178788388e-02
5.832000000000000028e+01,2.711126031827046368e-02
5.835999999999999943e+01,3.548613496740985612e-02
5.839999999999999858e+01,2.997902029477259034e-02
5.843999999999999773e+01,2.507474113713947794e-02
5.847999999999999687e+01,2.861924421530123025e-02
5.852000000000000313e+01,2.974891065043949734e-02
5.856000000000000227e+01,3.067669967098969261e-02
5.860000000000000142e+01,2.758022676357782879e-02
5.864000000000000057e+01,2.528776677808974166e-02
5.867999999999999972e+01,3.345586955785892491e-02
5.871999999999999886e+01,3.196672248662633248e-02
5.875999999999999801e+01,3.490279415171870098e-02
5.879999999999999716e+01,2.958986255177516872e-02
5.884000000000000341e+01,3.312806814502722991e-02
5.888000000000000256e+01,3.183729830647911291e-02
5.892000000000000171e+01,2.752815601511200000e-02
5.896000000000000085e+01,2.181006612518035168e-02
5.900000000000000000e+01,2.916785347346502466e-02
5.903999999999999915e+01,3.773200855751282501e-02
5.907999999999999829e+01,2.637882813742990773e-02
5.911999999999999744e+01,2.950977139796776699e-02
5.915999999999999659e+01,3.927889133121274107e-02
5.920000000000000284e+01,2.892949720491563501e-02
5.924000000000000199e+01,2.783359508565350776e-02
5.928000000000000114e+01,3.418058170732204276e-02
5.932000000000000028e+01,2.664557570530032976e-02
5.935999999999999943e+01,2.574874565817853941e-02
5.939999999999999858e+01,3.249598204603011686e-02
5.943999999999999773e+01,3.119539099658934223e-02
5.947999999999999687e+01,2.546817861138037098e-02
5.952000000000000313e+01,2.436736035955571963e-02
5.956000000000000227e+01,3.091060796845854913e-02
5.960000000000000142e+01,2.840013694218836149e-02
5.964000000000000057e+01,2.126186588117718462e-02
5.967999999999999972e+01,2.035941337712023069e-02
5.971999999999999886e+01,4.500587926024580965e-02
5.975999999999999801e+01,3.384193534526471620e-02
5.979999999999999716e+01,2.951734393073445276e-02
5.984000000000000341e+01,3.062385800000463898e-02
5.988000000000000256e+01,3.112613366770471818e-02
5.992000000000000171e+01,3.384066453645071665e-02
5.996000000000000085e+01,2.508733798124677603e-02
