2.003999999999999915e+01,3.267328512871706808e-02
2.007999999999999829e+01,3.221139441488494320e-02
2.012000000000000099e+01,2.525932687569503593e-02
2.016000000000000014e+01,2.069791118404007771e-02
2.019999999999999929e+01,3.321467176332083132e-02
2.023999999999999844e+01,2.557844162059908985e-02
2.028000000000000114e+01,2.067443329764597285e-02
2.032000000000000028e+01,3.797215595357800871e-02
2.035999999999999943e+01,2.965176210923023067e-02
2.039999999999999858e+01,3.038264097652941184e-02
2.044000000000000128e+01,1.967057213754181549e-02
2.048000000000000043e+01,1.561878339832240697e-02
2.051999999999999957e+01,4.350347966849992670e-02
2.055999999999999872e+01,3.688923003344557472e-02
2.060000000000000142e+01,4.205881520610923324e-02
2.064000000000000057e+01,3.612702240069941284e-02
2.067999999999999972e+01,2.199719937046152457e-02
2.071999999999999886e+01,2.067592179670655825e-02
2.076000000000000156e+01,5.094955816202056953e-02
2.080000000000000071e+01,3.135358266809781108e-02
2.083999999999999986e+01,3.105598869166921808e-02
2.087999999999999901e+01,3.912652528623190851e-02
2.092000000000000171e+01,3.916981609303683137e-02
2.096000000000000085e+01,2.076796567297915785e-02
2.100000000000000000e+01,6.367764788901693340e-02
2.103999999999999915e+01,2.426853537854346127e-02
2.107999999999999829e+01,1.286784727926924658e-02
2.112000000000000099e+01,4.313839699979945402e-02
2.116000000000000014e+01,3.720214729361469297e-02
2.119999999999999929e+01,4.100030853539965436e-02
2.123999999999999844e+01,3.113531243196463946e-02
2.128000000000000114e+01,5.218208800493255584e-02
2.132000000000000028e+01,2.779966452997854540e-02
2.135999999999999943e+01,6.780290563741488141e-02
2.139999999999999858e+01,4.444450469397547704e-02
2.144000000000000128e+01,2.774638092205479814e-02
2.148000000000000043e+01,1.343890497132508959e-02
2.151999999999999957e+01,3.755774740677452622e-02
2.155999999999999872e+01,3.742475103469372621e-02
2.160000000000000142e+01,4.070711313256888952e-02
2.164000000000000057e+01,1.393094042838122562e-02
2.167999999999999972e+01,3.429112924809864932e-02
2.171999999999999886e+01,2.527592369826334520e-02
2.176000000000000156e+01,5.895666503086224863e-02
2.180000000000000071e+01,2.039493429758106741e-02
2.183999999999999986e+01,1.411125488561895160e-02
2.187999999999999901e+01,2.780909449541138501e-02
2.192000000000000171e+01,3.399204077458392592e-02
2.196000000000000085e+01,6.288906853761330740e-02
2.200000000000000000e+01,4.362433247242069462e-02
2.203999999999999915e+01,2.640867218200797575e-02
2.207999999999999829e+01,4.300812900304618741e-02
2.212000000000000099e+01,4.679835164029895467e-02
2.216000000000000014e+01,3.504677726563292656e-02
2.219999999999999929e+01,3.388353663433983642e-02
2.223999999999999844e+01,5.423888044890209231e-02
2.228000000000000114e+01,3.855820658959068642e-02
2.232000000000000028e+01,3.124565890889627329e-02
2.235999999999999943e+01,3.930342921924866173e-02
2.239999999999999858e+01,4.018787507312193003e-02
2.244000000000000128e+01,2.604287856840160204e-02
2.248000000000000043e+01,4.656692380069139131e-02
2.251999999999999957e+01,4.232677178980328442e-02
2.255999999999999872e+01,5.226144097598118404e-02
2.260000000000000142e+01,3.162521692444860560e-02
2.264000000000000057e+01,4.514567861448673392e-02
2.267999999999999972e+01,3.595136460289748842e-02
2.271999999999999886e+01,5.596096618400980827e-02
2.276000000000000156e+01,1.602462494854647868e-02
2.280000000000000071e+01,5.533225361764371186e-02
2.283999999999999986e+01,2.564232526211161420e-02
2.287999999999999901e+01,4.616288781456109880e-02
2.292000000000000171e+01,4.226082224199383813e-02
2.296000000000000085e+01,2.725737161474980214e-02
2.300000000000000000e+01,6.827110727996756057e-02
2.303999999999999915e+01,6.334328314341797217e-02
2.307999999999999829e+01,4.697250324789493947e-02
2.312000000000000099e+01,4.050691361297497489e-02
2.316000000000000014e+01,4.889928402149575776e-02
2.319999999999999929e+01,3.594315849531561080e-02
2.323999999999999844e+01,3.323379320197273473e-02
2.328000000000000114e+01,6.621817822022808830e-02
2.332000000000000028e+01,5.940926867142035106e-02
2.335999999999999943e+01,5.174608299579342569e-02
2.339999999999999858e+01,3.349386643077331693e-02
2.344000000000000128e+01,4.188378572527708121e-02
2.348000000000000043e+01,5.215199123305377937e-02
2.351999999999999957e+01,9.008704337112964644e-02
2.355999999999999872e+01,7.149185363507573610e-02
2.360000000000000142e+01,4.521098027483246712e-02
2.364000000000000057e+01,7.528886159315008320e-02
2.367999999999999972e+01,4.029724221467205492e-02
2.371999999999999886e+01,8.284173824318820378e-02
2.376000000000000156e+01,8.900864174518058336e-02
2.380000000000000071e+01,6.750799622440623038e-02
2.383999999999999986e+01,6.308551587162090912e-02
2.387999999999999901e+01,7.727826708700842595e-02
2.392000000000000171e+01,7.746628244421358001e-02
2.396000000000000085e+01,7.031018341740127853e-02
2.400000000000000000e+01,1.063623799478385507e-01
2.403999999999999915e+01,8.605511830915398008e-02
2.407999999999999829e+01,9.956296768140017461e-02
2.412000000000000099e+01,1.070929835346486475e-01
2.416000000000000014e+01,1.083035954086236652e-01
2.419999999999999929e+01,7.177033206089893091e-02
2.423999999999999844e+01,7.041846058912491768e-02
2.428000000000000114e+01,7.777627965572332658e-02
2.432000000000000028e+01,6.071146632694102152e-02
2.435999999999999943e+01,5.508890599863356524e-02
2.439999999999999858e+01,5.288169559955389898e-02
2.444000000000000128e+01,5.118648713243575260e-02
2.448000000000000043e+01,3.531575592985691792e-02
2.451999999999999957e+01,6.641059241931186741e-02
2.455999999999999872e+01,5.412564200759461402e-02
2.460000000000000142e+01,4.542682608418568274e-02
2.464000000000000057e+01,3.433666360743049123e-02
2.467999999999999972e+01,3.929995272164973907e-02
2.471999999999999886e+01,4.716623528161544704e-02
2.476000000000000156e+01,4.017385357551687269e-02
2.480000000000000071e+01,4.786864174129987215e-02
2.483999999999999986e+01,5.453836409674618635e-02
2.487999999999999901e+01,3.541917099560457083e-02
2.492000000000000171e+01,3.781855416562111827e-02
2.496000000000000085e+01,3.048282753350228108e-02
2.500000000000000000e+01,4.295782523719385293e-02
2.503999999999999915e+01,1.939679684829433842e-02
2.507999999999999829e+01,4.604625265680409307e-02
2.512000000000000099e+01,4.195402237181525967e-02
2.516000000000000014e+01,4.742540578663374806e-02
2.519999999999999929e+01,3.769655325500809173e-02
2.523999999999999844e+01,4.521664679014002902e-02
2.528000000000000114e+01,2.848489017077422344e-02
2.532000000000000028e+01,2.968522005067610742e-02
2.535999999999999943e+01,4.301094055732354593e-02
2.539999999999999858e+01,3.601286943349395198e-02
2.544000000000000128e+01,4.694688444290082835e-02
2.548000000000000043e+01,4.250987748265805388e-02
2.551999999999999957e+01,3.943879500575948882e-02
2.555999999999999872e+01,4.780996186902378847e-02
2.560000000000000142e+01,3.876068436701479714e-02
2.564000000000000057e+01,3.005261996752258205e-02
2.567999999999999972e+01,1.020763083480819098e-03
2.571999999999999886e+01,3.108021723958191360e-02
2.576000000000000156e+01,6.131009896303604018e-02
2.580000000000000071e+01,2.971539173666421993e-02
2.583999999999999986e+01,2.373810203439615310e-02
2.587999999999999901e+01,2.203008359263435717e-02
2.592000000000000171e+01,2.834861001028777736e-02
2.596000000000000085e+01,4.832959174672503411e-02
2.600000000000000000e+01,2.612627837354431978e-02
2.603999999999999915e+01,2.424604167130173238e-02
2.607999999999999829e+01,4.303045185625216373e-02
2.612000000000000099e+01,4.661462328851927878e-02
2.616000000000000014e+01,2.663008255859065920e-02
2.619999999999999929e+01,3.533709129906052737e-02
2.623999999999999844e+01,2.884386092081593286e-02
2.628000000000000114e+01,4.608940986410085122e-02
2.632000000000000028e+01,6.043125162220444602e-02
2.635999999999999943e+01,4.625161070321225087e-02
2.639999999999999858e+01,6.127587415196458775e-02
2.644000000000000128e+01,4.641237332653858072e-02
2.648000000000000043e+01,4.145405251284187825e-02
2.651999999999999957e+01,4.110657134575045751e-02
2.655999999999999872e+01,3.495203438615954866e-02
2.660000000000000142e+01,3.614089953527627880e-02
2.664000000000000057e+01,2.605758323562643725e-02
2.667999999999999972e+01,3.031986073510387417e-02
2.671999999999999886e+01,3.355706668975568657e-02
2.676000000000000156e+01,2.415580947654821439e-02
2.680000000000000071e+01,4.054275202832732794e-02
2.683999999999999986e+01,1.047576767995278026e-02
2.687999999999999901e+01,1.405310063264807001e-02
2.692000000000000171e+01,3.624565588072563294e-02
2.696000000000000085e+01,3.042908212894925024e-02
2.700000000000000000e+01,3.434690163363430387e-02
2.703999999999999915e+01,4.441262572098353401e-02
2.707999999999999829e+01,4.201067083352294507e-02
2.712000000000000099e+01,4.387798342424632791e-02
2.716000000000000014e+01,2.952034307521980011e-02
2.719999999999999929e+01,4.300032330066815012e-02
2.723999999999999844e+01,4.145084652627471083e-02
2.728000000000000114e+01,4.861105113947351841e-02
2.732000000000000028e+01,4.108336884707513431e-02
2.735999999999999943e+01,4.755970794136172436e-02
2.739999999999999858e+01,3.166282727505900785e-02
2.744000000000000128e+01,4.223728509810732029e-02
2.748000000000000043e+01,4.785861016808043433e-02
2.751999999999999957e+01,3.161907061883089537e-02
2.755999999999999872e+01,5.021934248040327980e-02
2.760000000000000142e+01,5.754742996495946367e-02
2.764000000000000057e+01,6.846164266503357299e-02
2.767999999999999972e+01,4.094882885197208278e-02
2.771999999999999886e+01,5.322859586653905239e-02
2.776000000000000156e+01,4.757555641987309264e-02
2.780000000000000071e+01,7.112641707058768581e-02
2.783999999999999986e+01,3.985487448338627392e-02
2.787999999999999901e+01,4.940062325056799458e-02
2.792000000000000171e+01,6.150778536439852756e-02
2.796000000000000085e+01,5.141251117862678105e-02
2.800000000000000000e+01,5.668753778043524039e-02
2.803999999999999915e+01,5.393529687663421723e-02
2.807999999999999829e+01,5.237818747837899580e-02
2.812000000000000099e+01,4.347695100702423515e-02
2.816000000000000014e+01,8.564011518394142042e-02
2.819999999999999929e+01,6.410004622994885937e-02
2.823999999999999844e+01,7.620429042867261915e-02
2.828000000000000114e+01,6.918023039609920433e-02
2.832000000000000028e+01,6.164344944568223017e-02
2.835999999999999943e+01,7.869936731791744855e-02
2.839999999999999858e+01,9.780434156527856304e-02
2.844000000000000128e+01,6.191612557543502843e-02
2.848000000000000043e+01,7.931251645650518045e-02
2.851999999999999957e+01,7.980080957294097277e-02
2.855999999999999872e+01,6.372257514099735620e-02
2.860000000000000142e+01,7.206625363051083477e-02
2.864000000000000057e+01,5.615807171665272712e-02
2.867999999999999972e+01,8.140874905523494409e-02
2.871999999999999886e+01,7.677165516504590170e-02
2.876000000000000156e+01,6.974320215443920168e-02
2.880000000000000071e+01,5.622454584221962121e-02
2.883999999999999986e+01,3.860667847423471244e-02
2.887999999999999901e+01,3.840853123919333451e-02
2.892000000000000171e+01,4.179650531533703889e-02
2.896000000000000085e+01,3.459543154264158038e-02
2.900000000000000000e+01,3.507932289629506206e-02
2.903999999999999915e+01,5.229979321831976224e-02
2.907999999999999829e+01,6.661654793644548878e-02
2.912000000000000099e+01,7.153975050161941185e-02
2.916000000000000014e+01,3.906063305406898278e-02
2.919999999999999929e+01,5.047293597894680905e-02
2.923999999999999844e+01,6.325115204020141657e-02
2.928000000000000114e+01,4.340903245841598590e-02
2.932000000000000028e+01,9.034354554680879001e-02
2.935999999999999943e+01,6.435242283282463505e-02
2.939999999999999858e+01,2.999245812661207461e-02
2.944000000000000128e+01,4.925866770132892453e-02
2.948000000000000043e+01,4.188202194259810218e-02
2.951999999999999957e+01,4.133641387841741066e-02
2.955999999999999872e+01,3.908258493014182128e-02
2.960000000000000142e+01,2.999697990177990770e-02
2.964000000000000057e+01,3.696481133510240435e-02
2.967999999999999972e+01,5.588723504891447702e-02
2.971999999999999886e+01,5.329035777119724843e-02
2.976000000000000156e+01,4.403248909448484461e-02
2.980000000000000071e+01,3.887309455212670239e-02
2.983999999999999986e+01,4.037395155910280392e-02
2.987999999999999901e+01,3.453067612452172253e-02
2.992000000000000171e+01,3.568922233351947554e-02
2.996000000000000085e+01,5.119335233679159908e-02
3.000000000000000000e+01,4.142090677354234168e-02
3.003999999999999915e+01,3.984577867176958277e-02
3.007999999999999829e+01,3.348829505537810614e-02
3.012000000000000099e+01,5.121114938578295861e-02
3.016000000000000014e+01,4.587763486034985433e-02
3.019999999999999929e+01,6.001325847110959566e-02
3.023999999999999844e+01,4.187011384884503640e-02
3.028000000000000114e+01,5.480949861977572196e-02
3.032000000000000028e+01,4.708350641468453390e-02
3.035999999999999943e+01,3.679536503962697186e-02
3.039999999999999858e+01,3.521689553535031075e-02
3.044000000000000128e+01,5.737719266352130781e-02
3.048000000000000043e+01,3.564532932558246714e-02
3.051999999999999957e+01,1.271759768269698464e-02
3.055999999999999872e+01,5.263843603761522716e-02
3.060000000000000142e+01,3.449194452237869940e-02
3.064000000000000057e+01,4.025500419867052149e-02
3.067999999999999972e+01,4.294355822151453561e-02
3.071999999999999886e+01,3.418913318139824714e-02
3.076000000000000156e+01,4.746562210631950079e-02
3.080000000000000071e+01,5.254404993778094557e-02
3.083999999999999986e+01,4.378850597239317133e-02
3.087999999999999901e+01,2.751804134605545515e-02
3.092000000000000171e+01,3.242456435105021961e-02
3.096000000000000085e+01,6.141142274062282719e-02
3.100000000000000000e+01,5.811951057897361828e-02
3.103999999999999915e+01,4.389697388567895264e-02
3.107999999999999829e+01,4.282452138643851047e-02
3.112000000000000099e+01,5.353587160618025753e-02
3.116000000000000014e+01,4.324027194941637564e-02
3.119999999999999929e+01,5.104752602552366930e-02
3.123999999999999844e+01,3.511526727498137657e-02
3.128000000000000114e+01,5.590144544875324389e-02
3.132000000000000028e+01,3.245389025593130305e-02
3.135999999999999943e+01,3.974729082375829531e-02
3.139999999999999858e+01,4.123362083582714221e-02
3.144000000000000128e+01,4.630606447242564816e-02
3.148000000000000043e+01,4.232651909572394261e-02
3.151999999999999957e+01,4.466564980565421866e-02
3.155999999999999872e+01,4.410105734704050651e-02
3.160000000000000142e+01,4.729336319404752603e-02
3.164000000000000057e+01,5.646277442338994146e-02
3.167999999999999972e+01,7.246321675872072210e-02
3.171999999999999886e+01,7.240947741424852424e-02
3.176000000000000156e+01,6.210825201847437055e-02
3.180000000000000071e+01,8.408504756342899400e-02
3.183999999999999986e+01,8.573803183423200913e-02
3.187999999999999901e+01,9.490518727750218986e-02
3.192000000000000171e+01,7.862497612861898966e-02
3.196000000000000085e+01,6.712637320205912250e-02
3.200000000000000000e+01,6.672842963372187242e-02
3.203999999999999915e+01,6.718403515363506606e-02
3.207999999999999829e+01,3.758107402677057091e-02
3.211999999999999744e+01,5.323580571863644612e-02
3.215999999999999659e+01,3.080506757046717198e-02
3.220000000000000284e+01,5.124102962914973275e-02
3.224000000000000199e+01,4.622962411959574691e-02
3.228000000000000114e+01,5.044024025373190084e-02
3.232000000000000028e+01,5.635833046770918203e-02
3.235999999999999943e+01,3.699983791655141185e-02
3.239999999999999858e+01,3.540262509968731403e-02
3.243999999999999773e+01,3.756230802622550352e-02
3.247999999999999687e+01,5.475070773691348425e-02
3.252000000000000313e+01,2.719301491329747730e-02
3.256000000000000227e+01,4.284359153670514592e-02
3.260000000000000142e+01,2.877717026546524476e-02
3.264000000000000057e+01,4.767190804926653425e-02
3.267999999999999972e+01,3.258001846608202245e-02
3.271999999999999886e+01,4.600887329646778656e-02
3.275999999999999801e+01,3.108701109722589867e-02
3.279999999999999716e+01,3.956233799355263897e-02
3.284000000000000341e+01,3.625310902210240882e-02
3.288000000000000256e+01,4.301982570984974608e-02
3.292000000000000171e+01,4.944459261768983926e-02
3.296000000000000085e+01,5.142856556442761129e-02
3.300000000000000000e+01,3.360107920611016263e-02
3.303999999999999915e+01,4.446512145441243458e-02
3.307999999999999829e+01,4.029968888935406279e-02
3.311999999999999744e+01,4.057429067005196427e-02
3.315999999999999659e+01,4.341028981403600995e-02
3.320000000000000284e+01,3.497408749954753621e-02
3.324000000000000199e+01,4.805643607805362705e-02
3.328000000000000114e+01,5.499013802804712803e-02
3.332000000000000028e+01,3.579332843899253602e-02
3.335999999999999943e+01,4.323862445088207107e-02
3.339999999999999858e+01,3.462973365853158625e-02
3.343999999999999773e+01,4.429447493560245697e-02
3.347999999999999687e+01,4.097916220880102461e-02
3.352000000000000313e+01,3.441854999668051557e-02
3.356000000000000227e+01,2.905305257468061841e-02
3.360000000000000142e+01,3.325114310829292014e-02
3.364000000000000057e+01,3.010508973137031655e-02
3.367999999999999972e+01,1.192955971093104077e-02
3.371999999999999886e+01,2.859382231171167174e-02
3.375999999999999801e+01,2.630054913490285570e-02
3.379999999999999716e+01,2.024962011130407302e-02
3.384000000000000341e+01,1.539380502375311405e-02
3.388000000000000256e+01,2.249256940559926296e-02
3.392000000000000171e+01,2.583367757462421907e-02
3.396000000000000085e+01,2.780812177667532983e-02
3.400000000000000000e+01,2.687883536754794370e-02
3.403999999999999915e+01,4.627260122727817893e-02
3.407999999999999829e+01,2.211576597822765763e-02
3.411999999999999744e+01,4.236269160172396325e-02
3.415999999999999659e+01,2.418257094639956681e-02
3.420000000000000284e+01,2.598393173362579731e-02
3.424000000000000199e+01,2.163664296408985763e-02
3.428000000000000114e+01,8.749712147923669608e-03
3.432000000000000028e+01,4.735971863343611072e-04
3.435999999999999943e+01,2.413392501854266792e-02
3.439999999999999858e+01,2.063902700262574413e-02
3.443999999999999773e+01,2.158415930612184175e-02
3.447999999999999687e+01,2.218733707130496335e-02
3.452000000000000313e+01,3.525744786111687651e-02
3.456000000000000227e+01,1.417014038032147691e-02
3.460000000000000142e+01,1.460137964416689804e-02
3.464000000000000057e+01,1.844793760257714549e-02
3.467999999999999972e+01,3.151650988405335641e-02
3.471999999999999886e+01,2.289498075356737744e-02
3.475999999999999801e+01,3.562121271054786292e-02
3.479999999999999716e+01,2.375399513628959763e-02
3.484000000000000341e+01,3.255139772894628802e-02
3.488000000000000256e+01,2.683167552517231116e-02
3.492000000000000171e+01,6.082472895559249380e-03
3.496000000000000085e+01,3.777682868104906191e-03
3.500000000000000000e+01,4.177780696978380948e-02
3.503999999999999915e+01,4.425422998366897870e-02
3.507999999999999829e+01,3.887414918724666629e-02
3.511999999999999744e+01,2.273421658325057090e-02
3.515999999999999659e+01,1.940278538998224667e-02
3.520000000000000284e+01,7.531709343844394076e-03
3.524000000000000199e+01,3.169591746646005515e-02
3.528000000000000114e+01,2.136113478401572077e-02
3.532000000000000028e+01,2.366406785512483596e-02
3.535999999999999943e+01,2.118462930624215312e-02
3.539999999999999858e+01,3.749117235566914313e-02
3.543999999999999773e+01,0.000000000000000000e+00
3.547999999999999687e+01,1.715969451648564556e-02
3.552000000000000313e+01,3.483135716805145499e-02
3.556000000000000227e+01,2.176130188140373151e-02
3.560000000000000142e+01,2.884350893607530442e-02
3.564000000000000057e+01,2.328722573657815431e-02
3.567999999999999972e+01,1.977997670631384541e-02
3.571999999999999886e+01,2.686102017990655774e-02
3.575999999999999801e+01,2.335299506289182855e-02
3.579999999999999716e+01,1.437945630724004643e-02
3.584000000000000341e+01,2.692446051390663675e-02
3.588000000000000256e+01,1.214344918893039450e-02
3.592000000000000171e+01,3.168986826720383843e-02
3.596000000000000085e+01,3.586836443022978476e-03
3.600000000000000000e+01,3.098859575052524684e-02
3.603999999999999915e+01,2.986884285441415016e-02
3.607999999999999829e+01,2.311279029646054473e-02
3.611999999999999744e+01,3.241015443450623312e-02
3.615999999999999659e+01,3.026452291617693843e-02
3.620000000000000284e+01,1.940845832558539541e-02
3.624000000000000199e+01,4.441688968435453244e-02
3.628000000000000114e+01,5.268798477760396060e-02
3.632000000000000028e+01,3.158364096750386485e-02
3.635999999999999943e+01,2.772820930526942798e-02
3.639999999999999858e+01,3.224086087399027911e-02
3.643999999999999773e+01,2.701836762359026423e-02
3.647999999999999687e+01,2.623589847007268966e-02
3.652000000000000313e+01,1.998791348173080754e-02
3.656000000000000227e+01,2.962255867814115803e-02
3.660000000000000142e+01,4.028152422274881850e-02
3.664000000000000057e+01,2.788410114583337110e-02
3.667999999999999972e+01,2.112219773967725575e-02
3.671999999999999886e+01,1.675089566874879421e-02
3.675999999999999801e+01,1.528255031843566390e-02
3.679999999999999716e+01,2.611034586902574381e-02
3.684000000000000341e+01,1.900530726202158058e-02
3.688000000000000256e+01,2.060992076011320534e-02
3.692000000000000171e+01,1.931079474026696149e-02
3.696000000000000085e+01,1.579106975700321491e-02
3.700000000000000000e+01,1.227095288703659338e-02
3.703999999999999915e+01,1.763127280325683596e-02
3.707999999999999829e+01,2.931025184666314481e-02
3.711999999999999744e+01,4.081805346820265024e-02
3.715999999999999659e+01,2.722004285249150432e-02
3.720000000000000284e+01,1.994069099793520719e-02
3.724000000000000199e+01,4.681798035115267154e-02
3.728000000000000114e+01,2.792445163603212918e-02
3.732000000000000028e+01,3.225731306017201594e-02
3.735999999999999943e+01,2.548874550589023957e-02
3.739999999999999858e+01,3.135788736062102705e-02
3.743999999999999773e+01,2.510088897811320677e-02
3.747999999999999687e+01,2.669961502488161359e-02
3.752000000000000313e+01,4.486410900468332935e-02
3.756000000000000227e+01,3.040824208529184156e-02
3.760000000000000142e+01,4.020347546588409066e-02
3.764000000000000057e+01,1.908619939458923789e-02
3.767999999999999972e+01,4.373895468997699570e-02
3.771999999999999886e+01,2.825680115629127312e-02
3.775999999999999801e+01,3.190219236056687085e-02
3.779999999999999716e+01,4.972235827594525398e-02
3.784000000000000341e+01,3.014017770234210872e-02
3.788000000000000256e+01,3.754165928077306952e-02
3.792000000000000171e+01,4.289332413666953336e-02
3.796000000000000085e+01,4.277946876536726367e-02
3.800000000000000000e+01,5.137526208286951473e-02
3.803999999999999915e+01,3.384052946409608909e-02
3.807999999999999829e+01,4.038611051204890612e-02
3.811999999999999744e+01,4.795600727180380357e-02
3.815999999999999659e+01,4.852331667211366023e-02
3.820000000000000284e+01,4.926101569454125612e-02
3.824000000000000199e+01,4.453319363569728517e-02
3.828000000000000114e+01,6.764295835444686378e-02
3.832000000000000028e+01,7.623558778387118373e-02
3.835999999999999943e+01,8.568174702390245201e-02
3.839999999999999858e+01,9.649379145992832696e-02
3.843999999999999773e+01,1.032065955576922101e-01
3.847999999999999687e+01,1.271683053367704819e-01
3.852000000000000313e+01,1.246579173771829169e-01
3.856000000000000227e+01,1.368346573178984837e-01
3.860000000000000142e+01,1.411548827113912052e-01
3.864000000000000057e+01,1.540139696723892559e-01
3.867999999999999972e+01,1.899286574551614648e-01
3.871999999999999886e+01,2.053487278088600154e-01
3.875999999999999801e+01,2.313570813936250969e-01
3.879999999999999716e+01,2.573650376012192043e-01
3.884000000000000341e+01,2.633907315211066469e-01
3.888000000000000256e+01,2.779552862764370635e-01
3.892000000000000171e+01,3.189911445041329618e-01
3.896000000000000085e+01,3.728354925515683926e-01
3.900000000000000000e+01,3.539249605612528327e-01
3.903999999999999915e+01,4.263840959476957737e-01
3.907999999999999829e+01,4.371893870459919729e-01
3.911999999999999744e+01,4.855670170002268637e-01
3.915999999999999659e+01,5.499980543776703534e-01
3.920000000000000284e+01,5.447483441516995928e-01
3.924000000000000199e+01,5.975651927115596118e-01
3.928000000000000114e+01,6.604579674089527952e-01
3.932000000000000028e+01,6.886809538091026583e-01
3.935999999999999943e+01,7.133170525721492794e-01
3.939999999999999858e+01,7.873096660072179676e-01
3.943999999999999773e+01,8.134820327557945596e-01
3.947999999999999687e+01,8.610021461946102406e-01
3.952000000000000313e+01,9.155240519945080369e-01
3.956000000000000227e+01,9.516007598327060890e-01
3.960000000000000142e+01,9.805040907499521508e-01
3.964000000000000057e+01,9.947194971823969389e-01
3.967999999999999972e+01,9.617977968728181892e-01
3.971999999999999886e+01,9.862595132084145400e-01
3.975999999999999801e+01,9.958625195240459194e-01
3.979999999999999716e+01,1.000000000000000000e+00
3.984000000000000341e+01,9.783485193874758012e-01
3.988000000000000256e+01,9.116093534524679631e-01
3.992000000000000171e+01,9.109636471783513212e-01
3.996000000000000085e+01,8.662549663525263011e-01
4.000000000000000000e+01,8.034426565611526572e-01
4.003999999999999915e+01,7.776903273120807647e-01
4.007999999999999829e+01,7.208546959993542558e-01
4.011999999999999744e+01,7.287462423844047743e-01
4.015999999999999659e+01,7.006017165569321525e-01
4.020000000000000284e+01,6.456435175280913485e-01
4.024000000000000199e+01,6.285992242771633043e-01
4.028000000000000114e+01,5.702245182045672101e-01
4.032000000000000028e+01,5.239751571268264074e-01
4.035999999999999943e+01,4.526199740510025715e-01
4.039999999999999858e+01,4.263516733686231186e-01
4.043999999999999773e+01,3.572158928543398004e-01
4.047999999999999687e+01,2.780033848596196733e-01
4.052000000000000313e+01,2.684708232474208311e-01
4.056000000000000227e+01,2.068483823041212810e-01
4.060000000000000142e+01,1.843353422245698758e-01
4.064000000000000057e+01,1.339839165867396931e-01
4.067999999999999972e+01,1.090790780380211239e-01
4.071999999999999886e+01,1.014231383380345408e-01
4.075999999999999801e+01,9.530386180456150436e-02
4.079999999999999716e+01,1.067750542140649961e-01
4.084000000000000341e+01,7.828211344681634820e-02
4.088000000000000256e+01,7.113691509944267133e-02
4.092000000000000171e+01,6.450366841574477206e-02
4.096000000000000085e+01,5.906551395024307177e-02
4.100000000000000000e+01,6.968076129547155773e-02
4.103999999999999915e+01,6.594965022380022690e-02
4.107999999999999829e+01,4.804296578235120463e-02
4.111999999999999744e+01,3.935827602029350059e-02
4.115999999999999659e+01,5.902351975847842935e-02
4.120000000000000284e+01,4.453132497232926285e-02
4.124000000000000199e+01,4.762959778704214941e-02
4.128000000000000114e+01,6.182850165356429395e-02
4.132000000000000028e+01,4.579802551977312647e-02
4.135999999999999943e+01,3.984346917897420293e-02
4.139999999999999858e+01,3.781656642038015714e-02
4.143999999999999773e+01,2.998256248141696265e-02
4.147999999999999687e+01,2.812563391023018694e-02
4.152000000000000313e+01,3.617383947486137868e-02
4.156000000000000227e+01,4.507556508926733457e-02
4.160000000000000142e+01,3.262873864418725650e-02
4.164000000000000057e+01,3.299039384414976378e-02
4.167999999999999972e+01,3.967069414010205436e-02
4.171999999999999886e+01,4.378881061513355960e-02
4.175999999999999801e+01,3.885490672019151909e-02
4.179999999999999716e+01,4.263063992306577454e-02
4.184000000000000341e+01,3.171844193056667927e-02
4.188000000000000256e+01,3.156530282145546262e-02
4.192000000000000171e+01,2.458035005305404114e-02
4.196000000000000085e+01,3.313644065973515157e-02
4.200000000000000000e+01,3.417757668657451370e-02
4.203999999999999915e+01,3.436437960773683353e-02
4.207999999999999829e+01,3.523391582340600764e-02
4.211999999999999744e+01,3.371205216718306530e-02
4.215999999999999659e+01,3.218978088491535050e-02
4.220000000000000284e+01,2.417726542755007160e-02
4.224000000000000199e+01,1.377334973226148826e-02
4.228000000000000114e+01,2.574188320127996504e-02
4.232000000000000028e+01,3.993021575493709008e-02
4.235999999999999943e+01,3.516098629876835552e-02
4.239999999999999858e+01,5.344734631740619829e-02
4.243999999999999773e+01,4.252903393423562717e-02
4.247999999999999687e+01,3.434287565506020934e-02
4.252000000000000313e+01,2.957201203440025516e-02
4.256000000000000227e+01,2.155582135407037303e-02
4.260000000000000142e+01,2.464025769920646577e-02
4.264000000000000057e+01,3.438490655034803084e-02
4.267999999999999972e+01,2.995397715129591298e-02
4.271999999999999886e+01,3.491582272035167328e-02
4.275999999999999801e+01,4.329296221586049348e-02
4.279999999999999716e+01,3.476196038902132357e-02
4.284000000000000341e+01,3.084174842854330717e-02
4.288000000000000256e+01,3.204468171981415814e-02
4.292000000000000171e+01,2.709893897806553778e-02
4.296000000000000085e+01,3.547402936241431798e-02
4.300000000000000000e+01,4.521499091156145483e-02
4.303999999999999915e+01,2.814227059660187255e-02
4.307999999999999829e+01,4.129811478584527462e-02
4.311999999999999744e+01,3.566717981619785260e-02
4.315999999999999659e+01,4.096608499473803483e-02
4.320000000000000284e+01,4.387358700710528719e-02
4.324000000000000199e+01,3.294707939939856001e-02
4.328000000000000114e+01,3.892789249349264818e-02
4.332000000000000028e+01,2.338936311252072520e-02
4.335999999999999943e+01,3.585919018295393584e-02
4.339999999999999858e+01,3.381186646874086155e-02
4.343999999999999773e+01,3.415512359200788273e-02
4.347999999999999687e+01,3.825524278380613985e-02
4.352000000000000313e+01,2.715507014839606270e-02
4.356000000000000227e+01,2.920494363979471777e-02
4.360000000000000142e+01,3.176676062017216168e-02
4.364000000000000057e+01,4.286742391675473635e-02
4.367999999999999972e+01,3.535209151543347583e-02
4.371999999999999886e+01,2.783634672966179072e-02
4.375999999999999801e+01,2.339432248181773713e-02
4.379999999999999716e+01,3.842139488662962843e-02
4.384000000000000341e+01,3.192912323024032356e-02
4.388000000000000256e+01,2.714429039268589569e-02
4.392000000000000171e+01,3.568028775297921174e-02
4.396000000000000085e+01,2.594185889956128824e-02
4.400000000000000000e+01,4.455335488364747798e-02
4.403999999999999915e+01,3.652195112249951442e-02
4.407999999999999829e+01,2.968563006273641433e-02
4.411999999999999744e+01,4.983295212138461050e-02
4.415999999999999659e+01,4.504522576009444695e-02
4.420000000000000284e+01,6.911977913365448256e-02
4.424000000000000199e+01,3.563931653891060092e-02
4.428000000000000114e+01,4.878279102479637225e-02
4.432000000000000028e+01,4.535968989020423142e-02
4.435999999999999943e+01,5.952704683966275612e-02
4.439999999999999858e+01,5.644468724809183213e-02
4.443999999999999773e+01,5.165406138455626989e-02
4.447999999999999687e+01,5.181579072322074764e-02
4.452000000000000313e+01,7.298368104054819838e-02
4.456000000000000227e+01,6.938730688696595483e-02
4.460000000000000142e+01,5.981303674506008999e-02
4.464000000000000057e+01,7.192806789231681597e-02
4.467999999999999972e+01,7.157536638018668906e-02
4.471999999999999886e+01,8.181092991957308880e-02
4.475999999999999801e+01,9.614492196142332414e-02
4.479999999999999716e+01,8.229894541764751215e-02
4.484000000000000341e+01,9.731524665655544304e-02
4.488000000000000256e+01,1.061828658839342465e-01
4.492000000000000171e+01,1.106096546691004434e-01
4.496000000000000085e+01,1.201595823614745734e-01
4.500000000000000000e+01,1.548145136275715372e-01
4.503999999999999915e+01,1.505300099206202946e-01
4.507999999999999829e+01,1.580292663510209084e-01
4.511999999999999744e+01,1.930245183569708478e-01
4.515999999999999659e+01,2.076959184593051566e-01
4.520000000000000284e+01,2.192927686184156510e-01
4.524000000000000199e+01,2.361835419997939389e-01
4.528000000000000114e+01,2.368493071707099551e-01
4.532000000000000028e+01,2.933614053831508084e-01
4.535999999999999943e+01,3.380889095385586907e-01
4.539999999999999858e+01,3.645419830878808831e-01
4.543999999999999773e+01,3.790396771670166420e-01
4.547999999999999687e+01,4.218872915692717385e-01
4.552000000000000313e+01,4.510716745659924531e-01
4.556000000000000227e+01,4.683006777264956955e-01
4.560000000000000142e+01,4.727203750831074358e-01
4.564000000000000057e+01,5.019035037230101803e-01
4.567999999999999972e+01,5.041021572769869286e-01
4.571999999999999886e+01,4.646288110776155555e-01
4.575999999999999801e+01,4.354021564192249172e-01
4.579999999999999716e+01,4.575814189407840238e-01
4.584000000000000341e+01,4.128124763113248941e-01
4.588000000000000256e+01,4.136427548672833576e-01
4.592000000000000171e+01,3.987603787680111811e-01
4.596000000000000085e+01,3.592845190965978097e-01
4.600000000000000000e+01,3.297137798958374999e-01
4.603999999999999915e+01,3.045830356314734311e-01
4.607999999999999829e+01,2.833799306740970581e-01
4.611999999999999744e+01,2.485135924810306374e-01
4.615999999999999659e+01,2.329455585728736899e-01
4.620000000000000284e+01,2.204512377600099660e-01
4.624000000000000199e+01,1.867791359035861354e-01
4.628000000000000114e+01,1.611335168032827503e-01
4.632000000000000028e+01,1.546154163307147111e-01
4.635999999999999943e+01,1.404115628100383040e-01
4.639999999999999858e+01,1.371375395547070053e-01
4.643999999999999773e+01,1.304473922355639803e-01
4.647999999999999687e+01,1.029210334790639503e-01
4.652000000000000313e+01,9.042334868106247092e-02
4.656000000000000227e+01,8.526900510857783611e-02
4.660000000000000142e+01,8.352994374954773871e-02
4.664000000000000057e+01,7.888711322405193849e-02
4.667999999999999972e+01,7.082815790268205680e-02
4.671999999999999886e+01,7.438217254710477455e-02
4.675999999999999801e+01,6.973807741591711573e-02
4.679999999999999716e+01,6.287335330675296319e-02
4.684000000000000341e+01,7.069573184173878755e-02
4.688000000000000256e+01,6.178074177844823656e-02
4.692000000000000171e+01,5.884281048951939264e-02
4.696000000000000085e+01,6.341900437513604827e-02
4.700000000000000000e+01,4.972076277425097057e-02
4.703999999999999915e+01,5.856574098756773400e-02
4.707999999999999829e+01,7.065521478108145736e-02
4.711999999999999744e+01,4.875801716185419049e-02
4.715999999999999659e+01,4.274341739462256956e-02
4.720000000000000284e+01,4.133959419461821772e-02
4.724000000000000199e+01,3.566571864493063571e-02
4.728000000000000114e+01,5.851254309702685202e-02
4.732000000000000028e+01,4.822662137199361376e-02
4.735999999999999943e+01,4.904131215318845854e-02
4.739999999999999858e+01,4.866008314104698640e-02
4.743999999999999773e+01,6.125810325157242386e-02
4.747999999999999687e+01,5.524011607320583606e-02
4.752000000000000313e+01,5.417447482424877364e-02
4.756000000000000227e+01,4.183658831508475784e-02
4.760000000000000142e+01,4.965092754411924714e-02
4.764000000000000057e+01,3.731219247402588896e-02
4.767999999999999972e+01,4.666274942030446821e-02
4.771999999999999886e+01,4.149614240481329375e-02
4.775999999999999801e+01,5.545704962468289007e-02
4.779999999999999716e+01,3.987169775508470765e-02
4.784000000000000341e+01,5.349018485565555647e-02
4.788000000000000256e+01,4.473538972631101868e-02
4.792000000000000171e+01,5.442496766775484912e-02
4.796000000000000085e+01,3.593456738475090534e-02
4.800000000000000000e+01,4.869742761346664006e-02
4.803999999999999915e+01,3.959936063162355219e-02
4.807999999999999829e+01,4.826252555599638144e-02
4.811999999999999744e+01,3.386926684186069431e-02
4.815999999999999659e+01,4.441021689349335805e-02
4.820000000000000284e+01,4.743619345367194873e-02
4.824000000000000199e+01,4.414269258431489235e-02
4.828000000000000114e+01,5.536550479760059956e-02
4.832000000000000028e+01,4.062854488706996864e-02
4.835999999999999943e+01,5.116736347052101841e-02
4.839999999999999858e+01,5.709455582772186150e-02
4.843999999999999773e+01,4.628437482824059035e-02
4.847999999999999687e+01,5.186914316180974566e-02
4.852000000000000313e+01,5.130521838090314202e-02
4.856000000000000227e+01,4.493417070177578576e-02
4.860000000000000142e+01,4.932216140828867001e-02
4.864000000000000057e+01,4.807381414169265704e-02
4.867999999999999972e+01,4.955760206747947261e-02
4.871999999999999886e+01,4.472191109960578503e-02
4.875999999999999801e+01,4.415542160228836527e-02
4.879999999999999716e+01,4.239300804127047601e-02
4.884000000000000341e+01,4.746157324377849041e-02
4.888000000000000256e+01,5.167578447683065374e-02
4.892000000000000171e+01,4.444696113218949557e-02
4.896000000000000085e+01,5.549172251693355873e-02
4.900000000000000000e+01,3.955199868888823606e-02
4.903999999999999915e+01,3.847015596355343042e-02
4.907999999999999829e+01,4.507321711534552355e-02
4.911999999999999744e+01,5.679940448526372976e-02
4.915999999999999659e+01,5.127586079491455034e-02
4.920000000000000284e+01,4.985073206387446998e-02
4.924000000000000199e+01,4.278926352956949342e-02
4.928000000000000114e+01,5.178117154984147874e-02
4.932000000000000028e+01,6.026029459680860151e-02
4.935999999999999943e+01,4.790319742166974232e-02
4.939999999999999858e+01,4.442649933150342317e-02
4.943999999999999773e+01,4.760999300557423874e-02
4.947999999999999687e+01,6.257723339585261058e-02
4.952000000000000313e+01,4.202072853057166324e-02
4.956000000000000227e+01,3.802995487319295320e-02
4.960000000000000142e+01,3.113540302057878767e-02
4.964000000000000057e+01,3.773244908745756326e-02
4.967999999999999972e+01,3.801001333242621377e-02
4.971999999999999886e+01,3.026024394214739746e-02
4.975999999999999801e+01,3.566050176706490882e-02
4.979999999999999716e+01,4.464681721373737339e-02
4.984000000000000341e+01,3.894517706295608922e-02
4.988000000000000256e+01,3.375546124552046556e-02
4.992000000000000171e+01,3.932477978738183055e-02
4.996000000000000085e+01,2.593651313744083087e-02
5.000000000000000000e+01,2.996790219895108937e-02
5.003999999999999915e+01,4.031791085627706855e-02
5.007999999999999829e+01,2.436657168306355370e-02
5.011999999999999744e+01,1.610013321470653291e-02
5.015999999999999659e+01,3.652517113251703418e-02
5.020000000000000284e+01,3.935890447952432314e-02
5.024000000000000199e+01,3.553158395821046089e-02
5.028000000000000114e+01,3.170383104274016733e-02
5.032000000000000028e+01,3.402391169988008834e-02
5.035999999999999943e+01,4.095475928542550298e-02
5.039999999999999858e+01,3.063587202838107329e-02
5.043999999999999773e+01,3.807820947893891805e-02
5.047999999999999687e+01,2.383039744543605926e-02
5.052000000000000313e+01,4.015269756046672273e-02
5.056000000000000227e+01,2.675794499817922209e-02
5.060000000000000142e+01,2.412222472101185899e-02
5.064000000000000057e+01,3.719830651180237174e-02
5.067999999999999972e+01,3.541564497378795612e-02
5.071999999999999886e+01,2.697192810332763035e-02
5.075999999999999801e+01,3.611864979525358094e-02
5.079999999999999716e+01,3.433468668239537946e-02
5.084000000000000341e+01,2.998851193024472048e-02
5.088000000000000256e+01,3.366880590301822573e-02
5.092000000000000171e+01,3.017568842589569283e-02
5.096000000000000085e+01,3.317197290748230554e-02
5.100000000000000000e+01,2.694542366555970417e-02
5.103999999999999915e+01,3.677224560975634465e-02
5.107999999999999829e+01,2.559205691626706067e-02
5.111999999999999744e+01,2.773267645875307150e-02
5.115999999999999659e+01,2.748186855499607645e-02
5.120000000000000284e+01,2.381492206818948409e-02
5.124000000000000199e+01,2.253853262683451139e-02
5.128000000000000114e+01,1.767521918927649968e-02
5.132000000000000028e+01,3.808767521693044028e-02
5.135999999999999943e+01,2.502580240613888618e-02
5.139999999999999858e+01,3.655655814000766113e-02
5.143999999999999773e+01,4.637902625009142354e-02
5.147999999999999687e+01,4.390452612815267525e-02
5.152000000000000313e+01,2.998698349784438208e-02
5.156000000000000227e+01,3.468458800451056784e-02
5.160000000000000142e+01,3.033014212664425849e-02
5.164000000000000057e+01,3.468530333203520555e-02
5.167999999999999972e+01,3.511196898285369461e-02
5.171999999999999886e+01,3.502584233974319339e-02
5.175999999999999801e+01,3.118200506717205139e-02
5.179999999999999716e+01,4.031740361813405255e-02
5.184000000000000341e+01,3.886368453030682873e-02
5.188000000000000256e+01,3.843423918270322259e-02
5.192000000000000171e+01,5.217952547653040979e-02
5.196000000000000085e+01,4.884585733849472478e-02
5.200000000000000000e+01,5.046452146470350314e-02
5.203999999999999915e+01,5.823101391707510149e-02
5.207999999999999829e+01,7.112062355880308107e-02
5.211999999999999744e+01,5.958751600792072667e-02
5.215999999999999659e+01,5.659322878502776044e-02
5.220000000000000284e+01,6.948152404081969769e-02
5.224000000000000199e+01,5.675160555404124008e-02
5.228000000000000114e+01,4.931558881569978597e-02
5.232000000000000028e+01,5.041839191730611291e-02
5.235999999999999943e+01,5.818137787639020980e-02
5.239999999999999858e+01,5.125640042935477453e-02
5.243999999999999773e+01,5.696908651542058333e-02
5.247999999999999687e+01,4.748145344394800321e-02
5.252000000000000313e+01,4.909441713936165547e-02
5.256000000000000227e+01,5.258557834648555640e-02
5.260000000000000142e+01,4.514604925835721816e-02
5.264000000000000057e+01,5.000261275501278330e-02
5.267999999999999972e+01,5.058910730857036492e-02
5.271999999999999886e+01,4.502689593655993111e-02
5.275999999999999801e+01,3.707325223789045138e-02
5.279999999999999716e+01,3.304722734846116811e-02
5.284000000000000341e+01,3.841394655850791096e-02
5.288000000000000256e+01,3.558253732535271441e-02
5.292000000000000171e+01,3.992366474892775768e-02
5.296000000000000085e+01,4.136100372839353334e-02
5.300000000000000000e+01,3.255079186903384048e-02
5.303999999999999915e+01,4.286807813966181380e-02
5.307999999999999829e+01,3.678954723866647430e-02
5.311999999999999744e+01,2.780722740552029476e-02
5.315999999999999659e+01,2.565587315877654317e-02
5.320000000000000284e+01,3.426354326647677168e-02
5.324000000000000199e+01,2.972031392803326649e-02
5.328000000000000114e+01,2.859234642730708320e-02
5.332000000000000028e+01,2.438980421524538506e-02
5.335999999999999943e+01,3.350806340657647153e-02
5.339999999999999858e+01,2.008223836142398327e-02
5.343999999999999773e+01,1.604915558559154645e-02
5.347999999999999687e+01,2.789865138411109710e-02
5.352000000000000313e+01,4.470047481047979832e-02
5.356000000000000227e+01,3.110209573221937168e-02
5.360000000000000142e+01,3.270315418574894911e-02
5.364000000000000057e+01,3.891496956283108100e-02
5.367999999999999972e+01,3.846572057869745986e-02
5.371999999999999886e+01,3.647896218531859747e-02
5.375999999999999801e+01,4.627593745303423822e-02
5.379999999999999716e+01,2.242779127053711255e-02
5.384000000000000341e+01,3.034524329363903414e-02
5.388000000000000256e+01,3.894539261817908660e-02
5.392000000000000171e+01,3.268678873107163513e-02
5.396000000000000085e+01,3.240522214449510080e-02
5.400000000000000000e+01,3.997932959689862870e-02
5.403999999999999915e+01,3.525646100861388327e-02
5.407999999999999829e+01,3.975554756835002201e-02
5.411999999999999744e+01,3.212844301250977058e-02
5.415999999999999659e+01,2.706267176449449197e-02
5.420000000000000284e+01,2.438744853316106298e-02
5.424000000000000199e+01,2.495669904216263682e-02
5.428000000000000114e+01,4.021302950137925492e-02
5.432000000000000028e+01,2.387365895384023842e-02
5.435999999999999943e+01,2.785727869387448138e-02
5.439999999999999858e+01,2.825396492089423880e-02
5.443999999999999773e+01,4.453322679401636175e-02
5.447999999999999687e+01,1.914046219351222752e-02
5.452000000000000313e+01,2.380544203310337725e-02
5.456000000000000227e+01,3.273960565174235948e-02
5.460000000000000142e+01,2.988914702894551745e-02
5.464000000000000057e+01,2.208547280801028204e-02
5.467999999999999972e+01,2.862730697892072740e-02
5.471999999999999886e+01,3.448555453598928233e-02
5.475999999999999801e+01,3.607372680541901661e-02
5.479999999999999716e+01,4.158951178356880968e-02
5.484000000000000341e+01,2.234100093413549787e-02
5.488000000000000256e+01,3.639515164022507493e-02
5.492000000000000171e+01,3.012542067216079922e-02
5.496000000000000085e+01,2.624623540258076010e-02
5.500000000000000000e+01,3.124743213651695259e-02
5.503999999999999915e+01,3.812681881751852492e-02
5.507999999999999829e+01,3.919906271260371888e-02
5.511999999999999744e+01,3.190238616277176614e-02
5.515999999999999659e+01,3.058274325315862158e-02
5.520000000000000284e+01,3.233678598649809832e-02
5.524000000000000199e+01,2.418484138669487610e-02
5.528000000000000114e+01,3.157389953251026060e-02
5.532000000000000028e+01,3.315581416034683176e-02
5.535999999999999943e+01,3.729905843569629453e-02
5.539999999999999858e+01,2.555883397021721515e-02
5.543999999999999773e+01,3.072589311537664639e-02
5.547999999999999687e+01,3.384308197543496599e-02
5.552000000000000313e+01,4.157102202455689038e-02
5.556000000000000227e+01,3.648962588919720668e-02
5.560000000000000142e+01,2.901678876443982563e-02
5.564000000000000057e+01,3.196139821322651481e-02
5.567999999999999972e+01,2.653708550895043927e-02
5.571999999999999886e+01,3.204257464159564195e-02
5.575999999999999801e+01,3.276562992894383602e-02
5.579999999999999716e+01,4.544319782398872215e-02
5.584000000000000341e+01,3.591824437818096766e-02
5.588000000000000256e+01,2.570970078022961208e-02
5.592000000000000171e+01,2.591860290174950385e-02
5.596000000000000085e+01,3.859437265032261699e-02
5.600000000000000000e+01,3.197096844525719461e-02
5.603999999999999915e+01,2.056512954082194075e-02
5.607999999999999829e+01,4.673157775991488433e-02
5.611999999999999744e+01,2.217438053892214697e-02
5.615999999999999659e+01,2.272215285075005614e-02
5.620000000000000284e+01,3.266265901318027298e-02
5.624000000000000199e+01,4.106564807970976283e-02
5.628000000000000114e+01,1.906842634490280020e-02
5.632000000000000028e+01,4.147489776686933555e-02
5.635999999999999943e+01,3.706764669526525086e-02
5.639999999999999858e+01,4.376098055553828692e-02
5.643999999999999773e+01,3.132592428919108579e-02
5.647999999999999687e+01,2.708810483544451392e-02
5.652000000000000313e+01,3.702500299193239169e-02
5.656000000000000227e+01,3.825140597286323663e-02
5.660000000000000142e+01,3.435380220801325518e-02
5.664000000000000057e+01,2.840632461976048614e-02
5.667999999999999972e+01,3.697513449196605101e-02
5.671999999999999886e+01,3.119753811919397796e-02
5.675999999999999801e+01,3.464188871974588357e-02
5.679999999999999716e+01,3.330380230273028569e-02
5.684000000000000341e+01,3.691803338670043844e-02
5.688000000000000256e+01,3.130941281163224926e-02
5.692000000000000171e+01,3.577666456750983742e-02
5.696000000000000085e+01,3.887718220043227813e-02
5.700000000000000000e+01,5.085807573635081624e-02
5.703999999999999915e+01,4.729706586727968481e-02
5.707999999999999829e+01,3.160985585386238972e-02
5.711999999999999744e+01,4.956687090165078080e-02
5.715999999999999659e+01,2.243614791846210155e-02
5.720000000000000284e+01,3.270692347337756517e-02
5.724000000000000199e+01,5.151650386096131434e-02
5.728000000000000114e+01,3.770566319822354906e-02
5.732000000000000028e+01,3.038420509454088994e-02
5.735999999999999943e+01,3.501725484014927420e-02
5.739999999999999858e+01,3.913749496635156311e-02
5.743999999999999773e+01,3.283938554144094635e-02
5.747999999999999687e+01,3.593400606279972820e-02
5.752000000000000313e+01,4.210230515050782107e-02
5.756000000000000227e+01,3.477812127668329645e-02
5.760000000000000142e+01,3.103997123258532900e-02
5.764000000000000057e+01,2.781372185181498966e-02
5.767999999999999972e+01,4.508123780088722776e-02
5.771999999999999886e+01,3.587659744630040948e-02
5.775999999999999801e+01,3.879724889003332428e-02
5.779999999999999716e+01,4.718257041390040707e-02
5.784000000000000341e+01,3.319457932726196936e-02
5.788000000000000256e+01,3.884642711475057297e-02
5.792000000000000171e+01,4.176525649797283718e-02
5.796000000000000085e+01,4.229263769318365035e-02
5.800000000000000000e+01,3.684208202658604409e-02
5.803999999999999915e+01,2.746301140576197508e-02
5.807999999999999829e+01,4.045634175513612013e-02
5.811999999999999744e+01,4.149425395702633496e-02
5.815999999999999659e+01,3.672501397819917524e-02
5.820000000000000284e+01,3.622494667547334485e-02
5.824000000000000199e+01,3.469971168372482789e-02
5.828000000000000114e+01,5.144803299293778526e-02
5.832000000000000028e+01,3.642985592522222926e-02
5.835999999999999943e+01,4.156387177490693946e-02
5.839999999999999858e+01,4.242780123400616277e-02
5.843999999999999773e+01,4.277891790142879236e-02
5.847999999999999687e+01,3.749366658118361006e-02
5.852000000000000313e+01,3.169560222524100274e-02
5.856000000000000227e+01,3.751047172001197028e-02
5.860000000000000142e+01,4.298331310419750001e-02
5.864000000000000057e+01,4.299057118180620030e-02
5.867999999999999972e+01,4.607150428746250442e-02
5.871999999999999886e+01,4.249135765859239633e-02
5.875999999999999801e+01,5.052414427038381256e-02
5.879999999999999716e+01,5.001721404316836900e-02
5.884000000000000341e+01,2.542911646386038574e-02
5.888000000000000256e+01,4.985590379924297738e-02
5.892000000000000171e+01,4.610267947932750882e-02
5.896000000000000085e+01,4.200742595073293784e-02
5.900000000000000000e+01,4.371840918022591727e-02
5.903999999999999915e+01,4.355029643482465074e-02
5.907999999999999829e+01,5.140862740221512767e-02
5.911999999999999744e+01,4.970252953971938947e-02
5.915999999999999659e+01,3.604101035746920534e-02
5.920000000000000284e+01,2.921043833805068296e-02
5.924000000000000199e+01,4.509383408879406863e-02
5.928000000000000114e+01,4.475217892543442710e-02
5.932000000000000028e+01,4.492241930096555619e-02
5.935999999999999943e+01,4.799554746123472354e-02
5.939999999999999858e+01,3.808854255489093482e-02
5.943999999999999773e+01,4.799215693340118383e-02
5.947999999999999687e+01,4.013365326556220941e-02
5.952000000000000313e+01,3.671510341661396448e-02
5.956000000000000227e+01,3.944435895587292823e-02
5.960000000000000142e+01,3.961137613556132975e-02
5.964000000000000057e+01,4.336442092244576635e-02
5.967999999999999972e+01,4.728778981186189390e-02
5.971999999999999886e+01,4.352536490169534728e-02
5.975999999999999801e+01,4.078718969570321873e-02
5.979999999999999716e+01,4.265975262366169390e-02
5.984000000000000341e+01,4.436106882784485866e-02
5.988000000000000256e+01,6.604378814390041152e-02
5.992000000000000171e+01,5.578921903347856814e-02
5.996000000000000085e+01,4.160612911233094874e-02
