2.003999999999999915e+01,1.580863566312291565e-02
2.007999999999999829e+01,7.229182957491925819e-03
2.012000000000000099e+01,5.507719555939974074e-03
2.016000000000000014e+01,1.949452971811996976e-02
2.019999999999999929e+01,9.142083859738419846e-03
2.023999999999999844e+01,1.294911445350670903e-02
2.028000000000000114e+01,8.126143860052479490e-03
2.032000000000000028e+01,2.122402243637386970e-02
2.035999999999999943e+01,2.126676072307265297e-02
2.039999999999999858e+01,5.378017940298304191e-03
2.044000000000000128e+01,1.227778363697899777e-02
2.048000000000000043e+01,6.343669753161488602e-03
2.051999999999999957e+01,8.373842664204420028e-03
2.055999999999999872e+01,1.018179176105134427e-02
2.060000000000000142e+01,1.221003240710510918e-02
2.064000000000000057e+01,1.401605166090106463e-02
2.067999999999999972e+01,6.749567684732063304e-03
2.071999999999999886e+01,1.430634592099328146e-02
2.076000000000000156e+01,1.743702194978290904e-02
2.080000000000000071e+01,2.123050973505905686e-02
2.083999999999999986e+01,2.922692370726119940e-02
2.087999999999999901e+01,2.416821313243968164e-02
2.092000000000000171e+01,2.818008684325455995e-02
2.096000000000000085e+01,1.161409783760920626e-02
2.100000000000000000e+01,1.562406350281772723e-02
2.103999999999999915e+01,1.919056280924303498e-02
2.107999999999999829e+01,1.058697192835798481e-02
2.112000000000000099e+01,1.260277092147338469e-02
2.116000000000000014e+01,2.014904824656951407e-02
2.119999999999999929e+01,3.123449142866334405e-02
2.123999999999999844e+01,2.351213698081603201e-02
2.128000000000000114e+01,2.574540602219505328e-02
2.132000000000000028e+01,1.027716523665595308e-02
2.135999999999999943e+01,1.626991832556066650e-02
2.139999999999999858e+01,1.872161688736764806e-02
2.144000000000000128e+01,2.006608997143204121e-02
2.148000000000000043e+01,1.300185527356499497e-02
2.151999999999999957e+01,1.478696594965455031e-02
2.155999999999999872e+01,1.391605524739055084e-02
2.160000000000000142e+01,2.587711971292594101e-02
2.164000000000000057e+01,1.792411327712707669e-02
2.167999999999999972e+01,1.970548536402901701e-02
2.171999999999999886e+01,3.011495180351644527e-02
2.176000000000000156e+01,1.485766699293744088e-02
2.180000000000000071e+01,2.172516060611358324e-02
2.183999999999999986e+01,1.996270025986365826e-02
2.187999999999999901e+01,1.488045699436263240e-02
2.192000000000000171e+01,1.311614430708688342e-02
2.196000000000000085e+01,1.577604879009013306e-02
2.200000000000000000e+01,2.109011504460624881e-02
2.203999999999999915e+01,2.286314614753087726e-02
2.207999999999999829e+01,1.998885792874868783e-02
2.212000000000000099e+01,1.180348037057805596e-02
2.216000000000000014e+01,2.397283552514955368e-02
2.219999999999999929e+01,1.755567918925634782e-02
2.223999999999999844e+01,1.268640650960627635e-02
2.228000000000000114e+01,2.308295742261691486e-02
2.232000000000000028e+01,1.201665848725042528e-02
2.235999999999999943e+01,2.373892615785777940e-02
2.239999999999999858e+01,2.594622851773945027e-02
2.244000000000000128e+01,2.217867999733508233e-02
2.248000000000000043e+01,1.818896578925341748e-02
2.251999999999999957e+01,1.729594324771731653e-02
2.255999999999999872e+01,2.281846972694948766e-02
2.260000000000000142e+01,2.369369262707362103e-02
2.264000000000000057e+01,1.549647163472077545e-02
2.267999999999999972e+01,1.813994482038178493e-02
2.271999999999999886e+01,1.502983267875762814e-02
2.276000000000000156e+01,2.386670251817024288e-02
2.280000000000000071e+01,2.340987623276546276e-02
2.283999999999999986e+01,1.454438333838004721e-02
2.287999999999999901e+01,1.497079114333586293e-02
2.292000000000000171e+01,2.269778717264997123e-02
2.296000000000000085e+01,2.245863437832461285e-02
2.300000000000000000e+01,1.956350380053487395e-02
2.303999999999999915e+01,1.379113957403299735e-02
2.307999999999999829e+01,1.067296981521073836e-02
2.312000000000000099e+01,1.618293679289387055e-02
2.316000000000000014e+01,2.124950159315823484e-02
2.319999999999999929e+01,2.056249559776721081e-02
2.323999999999999844e+01,1.633449077985898307e-02
2.328000000000000114e+01,1.387565817960850073e-02
2.332000000000000028e+01,1.672611222745546203e-02
2.335999999999999943e+01,1.647808523812648376e-02
2.339999999999999858e+01,9.591465203120094069e-03
2.344000000000000128e+01,2.106830294591628683e-02
2.348000000000000043e+01,1.506495333034480778e-02
2.351999999999999957e+01,9.945754893378323802e-03
2.355999999999999872e+01,7.259508379504301702e-03
2.360000000000000142e+01,2.780438016408140478e-02
2.364000000000000057e+01,1.692987363250214941e-02
2.367999999999999972e+01,2.508260337319096270e-02
2.371999999999999886e+01,1.553389594511013667e-02
2.376000000000000156e+01,1.129448848578728029e-02
2.380000000000000071e+01,1.413443881592686517e-02
2.383999999999999986e+01,1.476095094538787574e-02
2.387999999999999901e+01,1.671413930460988531e-02
2.392000000000000171e+01,1.180749328453649556e-02
2.396000000000000085e+01,1.287392451671759246e-02
2.400000000000000000e+01,1.880714883103767887e-02
2.403999999999999915e+01,2.319071222817561256e-02
2.407999999999999829e+01,9.872849355266107713e-03
2.412000000000000099e+01,1.204212285581475819e-02
2.416000000000000014e+01,1.266173907208864406e-02
2.419999999999999929e+01,1.195295629127380264e-02
2.423999999999999844e+01,1.765977339193125148e-02
2.428000000000000114e+01,1.053282595415898706e-02
2.432000000000000028e+01,2.486696200254709041e-02
2.435999999999999943e+01,2.238470856253940711e-02
2.439999999999999858e+01,8.396236674310907089e-03
2.444000000000000128e+01,7.682340085124576834e-03
2.448000000000000043e+01,3.648739289681320400e-03
2.451999999999999957e+01,1.156217375791707483e-02
2.455999999999999872e+01,1.659842059426804017e-02
2.460000000000000142e+01,2.251885130539079891e-02
2.464000000000000057e+01,1.914564159627674816e-02
2.467999999999999972e+01,8.027592211413225529e-03
2.471999999999999886e+01,1.040538367859281631e-02
2.476000000000000156e+01,2.495147475148316515e-02
2.480000000000000071e+01,1.537970614148025279e-02
2.483999999999999986e+01,1.841875371156020957e-02
2.487999999999999901e+01,1.393422473695337185e-02
2.492000000000000171e+01,7.678804410268647192e-03
2.496000000000000085e+01,1.735306003982777998e-02
2.500000000000000000e+01,1.662740076678776227e-02
2.503999999999999915e+01,1.590091038431253045e-02
2.507999999999999829e+01,1.362479056985276341e-02
2.512000000000000099e+01,1.887058265927091943e-02
2.516000000000000014e+01,1.283143638509890404e-02
2.519999999999999929e+01,1.210163367457396319e-02
2.523999999999999844e+01,7.830892689988948677e-03
2.528000000000000114e+01,1.749852366344876661e-02
2.532000000000000028e+01,1.632373526962877658e-02
2.535999999999999943e+01,1.824572452116335688e-02
2.539999999999999858e+01,2.038815063820188789e-02
2.544000000000000128e+01,2.407855728901495129e-02
2.548000000000000043e+01,9.403808825049831885e-03
2.551999999999999957e+01,1.132252449954729290e-02
2.555999999999999872e+01,2.098442247480018785e-02
2.560000000000000142e+01,1.338745434926686545e-02
2.564000000000000057e+01,1.840132662319922743e-02
2.567999999999999972e+01,4.607535684765352337e-03
2.571999999999999886e+01,1.935509705535287325e-02
2.576000000000000156e+01,1.020608488252349420e-02
2.580000000000000071e+01,1.079157596221654546e-02
2.583999999999999986e+01,2.199659981026880901e-02
2.587999999999999901e+01,1.527899480566811789e-02
2.592000000000000171e+01,9.003099485387109496e-03
2.596000000000000085e+01,4.496457517696412359e-03
2.600000000000000000e+01,1.083061023845833387e-02
2.603999999999999915e+01,8.977450303987947328e-03
2.607999999999999829e+01,1.420371718422103885e-02
2.612000000000000099e+01,1.765912904145041512e-02
2.616000000000000014e+01,1.005088988553507964e-02
2.619999999999999929e+01,8.415795796146097185e-03
2.623999999999999844e+01,1.098379137451741677e-02
2.628000000000000114e+01,1.841864906026883728e-02
2.632000000000000028e+01,1.611740303405352279e-02
2.635999999999999943e+01,1.514290831768610665e-02
2.639999999999999858e+01,1.461013781726805232e-02
2.644000000000000128e+01,9.651437066996526939e-03
2.648000000000000043e+01,1.309971769842139221e-02
2.651999999999999957e+01,1.278584173058176267e-02
2.655999999999999872e+01,1.136489528904967121e-02
2.660000000000000142e+01,1.149196449939725133e-02
2.664000000000000057e+01,1.272453642015980782e-02
2.667999999999999972e+01,1.417758395743880240e-02
2.671999999999999886e+01,2.575683749188826480e-03
2.676000000000000156e+01,1.154991259134928623e-02
2.680000000000000071e+01,5.920396576400659486e-03
2.683999999999999986e+01,1.555684220459491694e-02
2.687999999999999901e+01,9.262002940316973673e-03
2.692000000000000171e+01,1.823312774112016352e-02
2.696000000000000085e+01,1.171548422382322034e-02
2.700000000000000000e+01,6.745868468097377182e-03
2.703999999999999915e+01,3.988052913562438982e-03
2.707999999999999829e+01,4.769581228488982243e-03
2.712000000000000099e+01,6.877883861677089490e-03
2.716000000000000014e+01,1.363181816734959466e-02
2.719999999999999929e+01,8.215847563990442970e-03
2.723999999999999844e+01,4.569169064234116819e-03
2.728000000000000114e+01,1.132080985150922536e-02
2.732000000000000028e+01,1.541660363998719439e-02
2.735999999999999943e+01,1.265266719251597130e-02
2.739999999999999858e+01,1.652568336929614509e-02
2.744000000000000128e+01,9.335087283944045952e-03
2.748000000000000043e+01,1.210030238803530209e-02
2.751999999999999957e+01,1.331596192925970507e-02
2.755999999999999872e+01,9.663210975332790428e-03
2.760000000000000142e+01,1.574501776753966728e-02
2.764000000000000057e+01,1.651590233409967745e-02
2.767999999999999972e+01,1.374592249571724399e-02
2.771999999999999886e+01,9.426393149313721034e-03
2.776000000000000156e+01,1.417765516426983119e-02
2.780000000000000071e+01,4.767716748779269459e-03
2.783999999999999986e+01,1.327885516526300554e-02
2.787999999999999901e+01,1.205393709757655342e-02
2.792000000000000171e+01,1.193456049131761364e-02
2.796000000000000085e+01,1.026564164285240048e-02
2.800000000000000000e+01,1.213609451613894934e-02
2.803999999999999915e+01,1.046569388320531258e-02
2.807999999999999829e+01,8.573297098274298977e-03
2.812000000000000099e+01,1.022027566800249275e-02
2.816000000000000014e+01,1.430034542227449218e-02
2.819999999999999929e+01,1.019316791364777847e-02
2.823999999999999844e+01,3.430171258514255663e-03
2.828000000000000114e+01,1.259695107006337557e-02
2.832000000000000028e+01,8.708831574849269092e-03
2.835999999999999943e+01,1.212146499579666581e-02
2.839999999999999858e+01,9.780685047077065236e-03
2.844000000000000128e+01,5.890377387780939764e-03
2.848000000000000043e+01,1.306219657324111938e-02
2.851999999999999957e+01,1.337432064085724952e-02
2.855999999999999872e+01,9.703092792418273327e-03
2.860000000000000142e+01,1.244759682108792509e-02
2.864000000000000057e+01,1.651892118484658833e-02
2.867999999999999972e+01,7.092842988130442297e-03
2.871999999999999886e+01,1.005644135928699355e-02
2.876000000000000156e+01,1.071439125425369511e-03
2.880000000000000071e+01,8.458743253279081206e-03
2.883999999999999986e+01,1.097767563699403488e-02
2.887999999999999901e+01,1.526594977404656037e-02
2.892000000000000171e+01,1.557088289376626009e-02
2.896000000000000085e+01,1.322001866442371401e-02
2.900000000000000000e+01,1.507232765971215985e-02
2.903999999999999915e+01,8.958671898670857864e-03
2.907999999999999829e+01,1.965984512856267311e-02
2.912000000000000099e+01,1.155345928943445587e-02
2.916000000000000014e+01,1.318167842423653008e-02
2.919999999999999929e+01,1.834930560986465509e-02
2.923999999999999844e+01,4.488120283163261025e-03
2.928000000000000114e+01,9.211826611975997003e-03
2.932000000000000028e+01,2.208206365555439102e-03
2.935999999999999943e+01,1.511702265388878766e-02
2.939999999999999858e+01,5.456918054298584564e-03
2.944000000000000128e+01,0.000000000000000000e+00
2.948000000000000043e+01,1.202169427497673873e-02
2.951999999999999957e+01,5.457098666841687408e-03
2.955999999999999872e+01,1.548608950505264183e-02
2.960000000000000142e+01,1.201770563507904149e-02
2.964000000000000057e+01,1.098245775550745103e-02
2.967999999999999972e+01,1.171657584865636557e-02
2.971999999999999886e+01,1.245000451575958324e-02
2.976000000000000156e+01,1.274023081535248514e-02
2.980000000000000071e+01,1.325102718705492046e-02
2.983999999999999986e+01,1.376113776561907823e-02
2.987999999999999901e+01,1.338553545714654507e-02
2.992000000000000171e+01,5.929023338532909450e-03
2.996000000000000085e+01,1.373856731865522908e-02
3.000000000000000000e+01,2.076807642427874311e-03
3.003999999999999915e+01,1.165504754473124620e-02
3.007999999999999829e+01,5.080842355876878658e-03
3.012000000000000099e+01,1.001132781394750183e-02
3.016000000000000014e+01,6.754625346607439143e-03
3.019999999999999929e+01,1.323255933839536519e-02
3.023999999999999844e+01,9.310737064541756841e-03
3.028000000000000114e+01,8.485841385247230861e-03
3.032000000000000028e+01,1.407672965473447287e-02
3.035999999999999943e+01,8.161579910403079716e-03
3.039999999999999858e+01,8.440959460574890341e-03
3.044000000000000128e+01,5.622072315108865743e-03
3.048000000000000043e+01,1.585668624880850336e-02
3.051999999999999957e+01,1.082389671687856644e-02
3.055999999999999872e+01,1.353444085684679145e-02
3.060000000000000142e+01,1.447426560235517794e-02
3.064000000000000057e+01,1.297960093572217075e-02
3.067999999999999972e+01,1.347558959225507794e-02
3.071999999999999886e+01,1.817480354509214135e-02
3.076000000000000156e+01,1.424433358462176905e-02
3.080000000000000071e+01,1.385332011374312312e-02
3.083999999999999986e+01,1.478919358125622974e-02
3.087999999999999901e+01,1.019298583540607581e-02
3.092000000000000171e+01,1.223383727909176967e-02
3.096000000000000085e+01,8.742609931352451902e-03
3.100000000000000000e+01,1.410101495725641675e-02
3.103999999999999915e+01,3.085746879045062757e-03
3.107999999999999829e+01,1.109793910239311593e-02
3.112000000000000099e+01,1.247177199710815081e-02
3.116000000000000014e+01,1.428747321310046281e-02
3.119999999999999929e+01,1.278367366565174093e-02
3.123999999999999844e+01,1.105797363276779001e-02
3.128000000000000114e+01,1.663311491679274681e-02
3.132000000000000028e+01,1.579116000324735578e-02
3.135999999999999943e+01,1.052342378905290685e-02
3.139999999999999858e+01,5.255049009516752322e-03
3.144000000000000128e+01,1.414648975349023542e-02
3.148000000000000043e+01,1.308072592429936759e-02
3.151999999999999957e+01,9.359242248071329359e-03
3.155999999999999872e+01,3.269550211723308997e-04
3.160000000000000142e+01,2.356889094622807018e-03
3.164000000000000057e+01,1.323647491722274028e-02
3.167999999999999972e+01,2.146034573666209117e-02
3.171999999999999886e+01,1.375307819089540730e-02
3.176000000000000156e+01,1.401043772231800981e-02
3.180000000000000071e+01,9.399515121318358785e-03
3.183999999999999986e+01,1.739962062000133605e-02
3.187999999999999901e+01,1.145990628330707632e-02
3.192000000000000171e+01,7.289625733605212266e-03
3.196000000000000085e+01,6.658836791600164333e-03
3.200000000000000000e+01,1.244388265908092685e-02
3.203999999999999915e+01,9.599283364266766178e-03
3.207999999999999829e+01,6.311551938152549883e-03
3.211999999999999744e+01,7.005831116045511432e-03
3.215999999999999659e+01,1.367343579486698241e-02
3.220000000000000284e+01,9.277572316884145215e-03
3.224000000000000199e+01,1.019126553311741103e-02
3.228000000000000114e+01,1.243188928263153428e-02
3.232000000000000028e+01,2.724020203381157575e-03
3.235999999999999943e+01,8.503536957232103385e-03
3.239999999999999858e+01,1.007856097184859495e-02
3.243999999999999773e+01,1.674189065930999434e-02
3.247999999999999687e+01,9.244161599714344896e-03
3.252000000000000313e+01,1.214491046410767078e-02
3.256000000000000227e+01,2.212145460683696916e-03
3.260000000000000142e+01,4.890431565356088972e-03
3.264000000000000057e+01,1.464834308367123777e-02
3.267999999999999972e+01,1.157274436707650747e-02
3.271999999999999886e+01,1.557677348606287780e-02
3.275999999999999801e+01,1.626134906940469166e-02
3.279999999999999716e+01,1.207767279455279966e-02
3.284000000000000341e+01,1.231854307358646976e-02
3.288000000000000256e+01,1.300133374557048069e-02
3.292000000000000171e+01,5.718277125231504762e-03
3.296000000000000085e+01,1.082502543549424164e-02
3.300000000000000000e+01,1.393986993322873791e-02
3.303999999999999915e+01,9.531384923981483723e-03
3.307999999999999829e+01,1.198128157282065537e-02
3.311999999999999744e+01,1.000545020365302754e-02
3.315999999999999659e+01,1.533051706694388977e-02
3.320000000000000284e+01,1.246848803847889174e-02
3.324000000000000199e+01,9.605876149252673760e-03
3.328000000000000114e+01,1.404416612539241549e-02
3.332000000000000028e+01,1.118039214755125153e-02
3.335999999999999943e+01,1.451123707592979692e-02
3.339999999999999858e+01,1.186756292956716620e-02
3.343999999999999773e+01,1.519725303514565459e-02
3.347999999999999687e+01,3.259629286811071853e-03
3.352000000000000313e+01,1.477468123349166308e-02
3.356000000000000227e+01,1.323499251036657290e-02
3.360000000000000142e+01,1.788992995927600471e-02
3.364000000000000057e+01,1.126018577005337418e-02
3.367999999999999972e+01,1.082507017480353710e-02
3.371999999999999886e+01,1.370824239367589466e-02
3.375999999999999801e+01,1.061690643652935841e-02
3.379999999999999716e+01,1.305643147761235447e-02
3.384000000000000341e+01,1.195527860300073068e-02
3.388000000000000256e+01,5.985906566362224519e-03
3.392000000000000171e+01,9.751283608981949416e-03
3.396000000000000085e+01,1.373735666450195264e-02
3.400000000000000000e+01,8.872586818998128011e-03
3.403999999999999915e+01,1.507011214296140843e-02
3.407999999999999829e+01,1.330182529270676831e-02
3.411999999999999744e+01,1.153298222301206433e-02
3.415999999999999659e+01,4.010900163206780958e-03
3.420000000000000284e+01,1.153374548864958583e-02
3.424000000000000199e+01,9.541983950232648184e-03
3.428000000000000114e+01,1.108978425572278680e-02
3.432000000000000028e+01,5.778065033894366244e-03
3.435999999999999943e+01,9.979851135767844536e-03
3.439999999999999858e+01,1.218977580903308697e-02
3.443999999999999773e+01,1.262909734087612652e-02
3.447999999999999687e+01,1.218284524713377295e-02
3.452000000000000313e+01,1.062976366255819101e-02
3.456000000000000227e+01,1.018242456028769539e-02
3.460000000000000142e+01,1.637225605671411427e-02
3.464000000000000057e+01,1.349000695140604306e-02
3.467999999999999972e+01,9.500933199141357519e-03
3.471999999999999886e+01,1.303406198334864513e-02
3.475999999999999801e+01,1.479659731388686429e-02
3.479999999999999716e+01,1.014214180117009242e-02
3.484000000000000341e+01,1.522246322000183130e-02
3.488000000000000256e+01,1.477082452238443790e-02
3.492000000000000171e+01,2.117762318743405398e-02
3.496000000000000085e+01,1.696355140498394254e-02
3.500000000000000000e+01,1.097889343467960480e-02
3.503999999999999915e+01,1.163141938373275959e-02
3.507999999999999829e+01,1.471724601499128232e-02
3.511999999999999744e+01,9.616034881012624699e-03
3.515999999999999659e+01,1.270081083281726989e-02
3.520000000000000284e+01,1.821889109973467633e-02
3.524000000000000199e+01,1.444365185323782420e-02
3.528000000000000114e+01,9.561606124321457914e-03
3.532000000000000028e+01,1.441435185858332482e-02
3.535999999999999943e+01,1.019503878855524022e-02
3.539999999999999858e+01,6.196465326316561405e-03
3.543999999999999773e+01,9.498859121777487521e-03
3.547999999999999687e+01,1.302199494696611518e-02
3.552000000000000313e+01,5.924277278223005760e-03
3.556000000000000227e+01,9.225129567123671256e-03
3.560000000000000142e+01,1.318924167109328076e-02
3.564000000000000057e+01,8.081303447556932237e-03
3.567999999999999972e+01,1.447822419565632755e-02
3.571999999999999886e+01,1.202435411440499688e-02
3.575999999999999801e+01,1.886277466455861182e-02
3.579999999999999716e+01,1.839920634081811460e-02
3.584000000000000341e+01,1.572256310714158570e-02
3.588000000000000256e+01,1.525798769883631584e-02
3.592000000000000171e+01,1.766925255552221144e-02
3.596000000000000085e+01,1.631864660166111244e-02
3.600000000000000000e+01,6.559772447667089335e-03
3.603999999999999915e+01,9.854567697549445129e-03
3.607999999999999829e+01,1.491892267521496493e-02
3.611999999999999744e+01,3.831015418063183579e-03
3.615999999999999659e+01,1.885094869449284449e-02
3.620000000000000284e+01,1.373599478613909790e-02
3.624000000000000199e+01,2.101094510785672664e-02
3.628000000000000114e+01,1.434620880080267856e-02
3.632000000000000028e+01,1.055732486843122785e-02
3.635999999999999943e+01,9.201780369277642868e-03
3.639999999999999858e+01,1.581100341973380730e-02
3.643999999999999773e+01,9.586830066379439449e-03
3.647999999999999687e+01,1.973519558081565650e-02
3.652000000000000313e+01,1.395256804634286037e-02
3.656000000000000227e+01,1.480717044805493487e-02
3.660000000000000142e+01,1.212117849094322686e-02
3.664000000000000057e+01,1.054099198653193903e-02
3.667999999999999972e+01,1.559803905121294118e-02
3.671999999999999886e+01,1.711449538997756800e-02
3.675999999999999801e+01,1.420533390892733845e-02
3.679999999999999716e+01,1.682712424879227037e-02
3.684000000000000341e+01,1.524455626699751896e-02
3.688000000000000256e+01,2.118425621400843104e-02
3.692000000000000171e+01,1.628188797479065281e-02
3.696000000000000085e+01,2.421195991552264545e-02
3.700000000000000000e+01,2.395505100656715458e-02
3.703999999999999915e+01,2.192761766918366675e-02
3.707999999999999829e+01,1.857217526677517813e-02
3.711999999999999744e+01,2.406655051628865324e-02
3.715999999999999659e+01,2.203772098864194631e-02
3.720000000000000284e+01,1.270694497102110680e-02
3.724000000000000199e+01,1.355353269553110154e-02
3.728000000000000114e+01,2.479874244935796612e-02
3.732000000000000028e+01,1.856418384014029907e-02
3.735999999999999943e+01,2.317076383461163028e-02
3.739999999999999858e+01,1.870534678421926361e-02
3.743999999999999773e+01,2.928495520757544435e-02
3.747999999999999687e+01,1.972971519716074790e-02
3.752000000000000313e+01,2.013059032944397933e-02
3.756000000000000227e+01,2.916003935809280065e-02
3.760000000000000142e+01,2.823246909185600853e-02
3.764000000000000057e+01,2.575564963794527498e-02
3.767999999999999972e+01,2.880980864627084859e-02
3.771999999999999886e+01,2.898717843155932533e-02
3.775999999999999801e+01,2.761530266208128345e-02
3.779999999999999716e+01,3.973966373155568554e-02
3.784000000000000341e+01,2.619776036055880206e-02
3.788000000000000256e+01,3.389609391804446203e-02
3.792000000000000171e+01,4.247901460302615922e-02
3.796000000000000085e+01,3.867109905345853665e-02
3.800000000000000000e+01,4.393428487335088173e-02
3.803999999999999915e+01,5.207337513959892777e-02
3.807999999999999829e+01,5.047671771880792718e-02
3.811999999999999744e+01,6.635893419662690362e-02
3.815999999999999659e+01,7.626677570503258285e-02
3.820000000000000284e+01,8.816549819880288574e-02
3.824000000000000199e+01,9.431110522131511131e-02
3.828000000000000114e+01,1.194843905198322148e-01
3.832000000000000028e+01,1.393470769214633087e-01
3.835999999999999943e+01,1.642982482193723615e-01
3.839999999999999858e+01,2.091621297310613248e-01
3.843999999999999773e+01,2.476091305976871881e-01
3.847999999999999687e+01,3.212355823589980175e-01
3.852000000000000313e+01,3.795948728485076251e-01
3.856000000000000227e+01,4.459189962799606777e-01
3.860000000000000142e+01,5.131277274253852605e-01
3.864000000000000057e+01,5.692731853800373498e-01
3.867999999999999972e+01,6.645807276561244148e-01
3.871999999999999886e+01,7.147514094259733719e-01
3.875999999999999801e+01,7.866048689180596964e-01
3.879999999999999716e+01,8.569091143405773714e-01
3.884000000000000341e+01,9.203539770752894311e-01
3.888000000000000256e+01,9.404320407573750762e-01
3.892000000000000171e+01,9.821928870055748328e-01
3.896000000000000085e+01,9.858971064522924488e-01
3.900000000000000000e+01,1.000000000000000000e+00
3.903999999999999915e+01,9.729486701011268446e-01
3.907999999999999829e+01,9.529771605819282732e-01
3.911999999999999744e+01,9.310139325284803036e-01
3.915999999999999659e+01,8.928985342738695596e-01
3.920000000000000284e+01,8.645180449464440198e-01
3.924000000000000199e+01,7.852480268737395130e-01
3.928000000000000114e+01,7.387236560767167504e-01
3.932000000000000028e+01,6.862249454283857464e-01
3.935999999999999943e+01,6.100513300423631158e-01
3.939999999999999858e+01,5.686146792508817160e-01
3.943999999999999773e+01,4.970866709333567335e-01
3.947999999999999687e+01,4.445863772209108222e-01
3.952000000000000313e+01,4.230616814402260450e-01
3.956000000000000227e+01,3.537450656690524498e-01
3.960000000000000142e+01,3.432824418549089152e-01
3.964000000000000057e+01,3.029497236457842635e-01
3.967999999999999972e+01,2.719094147430404229e-01
3.971999999999999886e+01,2.375498630132826250e-01
3.975999999999999801e+01,2.217755202129542969e-01
3.979999999999999716e+01,2.062220502270208644e-01
3.984000000000000341e+01,1.880131122756318052e-01
3.988000000000000256e+01,1.837429882860244224e-01
3.992000000000000171e+01,1.754898562955981567e-01
3.996000000000000085e+01,1.842731397559286277e-01
4.000000000000000000e+01,1.687177666254228436e-01
4.003999999999999915e+01,1.622335566238032878e-01
4.007999999999999829e+01,1.641567397333883738e-01
4.011999999999999744e+01,1.508128100099379032e-01
4.015999999999999659e+01,1.403448489142076483e-01
4.020000000000000284e+01,1.329741147333836915e-01
4.024000000000000199e+01,1.129913562670345067e-01
4.028000000000000114e+01,1.049561101862062223e-01
4.032000000000000028e+01,8.475135639422490264e-02
4.035999999999999943e+01,7.627286033348580629e-02
4.039999999999999858e+01,6.447514203220833240e-02
4.043999999999999773e+01,5.909351405490557291e-02
4.047999999999999687e+01,4.928638087791812478e-02
4.052000000000000313e+01,3.925762816033643438e-02
4.056000000000000227e+01,4.383148121966252975e-02
4.060000000000000142e+01,3.866966288300555804e-02
4.064000000000000057e+01,3.749011308678300985e-02
4.067999999999999972e+01,3.808026227979496164e-02
4.071999999999999886e+01,3.402365646272016014e-02
4.075999999999999801e+01,3.660440773359014549e-02
4.079999999999999716e+01,3.166206442549185374e-02
4.084000000000000341e+01,2.826816787428773278e-02
4.088000000000000256e+01,2.686523344338070246e-02
4.092000000000000171e+01,2.302812081940173311e-02
4.096000000000000085e+01,2.560711426199634502e-02
4.100000000000000000e+01,2.597318900967422392e-02
4.103999999999999915e+01,2.987903025504409782e-02
4.107999999999999829e+01,2.338544340740993099e-02
4.111999999999999744e+01,2.308671039400897809e-02
4.115999999999999659e+01,2.079632060578474537e-02
4.120000000000000284e+01,2.248821631156295089e-02
4.124000000000000199e+01,2.108217228337162796e-02
4.128000000000000114e+01,1.392310481757702556e-02
4.132000000000000028e+01,2.402175105170681335e-02
4.135999999999999943e+01,2.261469228853193666e-02
4.139999999999999858e+01,1.611838494931194105e-02
4.143999999999999773e+01,1.603819820829521098e-02
4.147999999999999687e+01,1.551516391372672644e-02
4.152000000000000313e+01,1.831065357226305257e-02
4.156000000000000227e+01,1.446809996511246033e-02
4.160000000000000142e+01,1.505035811408953275e-02
4.164000000000000057e+01,1.452600232474067499e-02
4.167999999999999972e+01,2.174531685671138304e-02
4.171999999999999886e+01,2.232659296687173819e-02
4.175999999999999801e+01,1.560606063754014540e-02
4.179999999999999716e+01,1.154028950944664851e-02
4.184000000000000341e+01,2.030710629953818430e-02
4.188000000000000256e+01,1.668320553005631784e-02
4.192000000000000171e+01,1.792664035688905713e-02
4.196000000000000085e+01,1.739969970449826292e-02
4.200000000000000000e+01,1.576615601250383122e-02
4.203999999999999915e+01,7.715840662669077449e-03
4.207999999999999829e+01,1.736577617360624687e-02
4.211999999999999744e+01,1.661631507673698785e-02
4.215999999999999659e+01,1.984916853712957382e-02
4.220000000000000284e+01,1.666525518355839453e-02
4.224000000000000199e+01,1.237474605619841468e-02
4.228000000000000114e+01,1.627043956712897685e-02
4.232000000000000028e+01,1.596194065917229399e-02
4.235999999999999943e+01,1.410433545790043021e-02
4.239999999999999858e+01,1.401648131753614225e-02
4.243999999999999773e+01,1.282203745822877404e-02
4.247999999999999687e+01,1.892877398719000973e-02
4.252000000000000313e+01,1.485738309425316955e-02
4.256000000000000227e+01,1.698088963043865862e-02
4.260000000000000142e+01,2.286546696832965006e-02
4.264000000000000057e+01,1.281923653559033024e-02
4.267999999999999972e+01,1.095922085083296700e-02
4.271999999999999886e+01,1.640039282015907235e-02
4.275999999999999801e+01,1.719487153882465896e-02
4.279999999999999716e+01,2.042288465674000492e-02
4.284000000000000341e+01,1.347278004051039556e-02
4.288000000000000256e+01,1.028375470277023696e-02
4.292000000000000171e+01,1.196209523557328382e-02
4.296000000000000085e+01,1.275511886824898418e-02
4.300000000000000000e+01,1.487539757393557642e-02
4.303999999999999915e+01,1.743790425873458644e-02
4.307999999999999829e+01,2.442526750551947401e-02
4.311999999999999744e+01,1.924320780899127156e-02
4.315999999999999659e+01,2.291114862072544597e-02
4.320000000000000284e+01,2.215366657867658476e-02
4.324000000000000199e+01,1.497944920786164341e-02
4.328000000000000114e+01,1.267260860631214299e-02
4.332000000000000028e+01,1.589691721364795696e-02
4.335999999999999943e+01,1.867843518298168207e-02
4.339999999999999858e+01,1.327316605769063469e-02
4.343999999999999773e+01,1.848796252718122243e-02
4.347999999999999687e+01,2.392374322022787839e-02
4.352000000000000313e+01,1.586257062235136087e-02
4.356000000000000227e+01,2.063403801433300044e-02
4.360000000000000142e+01,2.031632343357232112e-02
4.364000000000000057e+01,2.176839745376262306e-02
4.367999999999999972e+01,2.521151836208993663e-02
4.371999999999999886e+01,2.268043262571474775e-02
4.375999999999999801e+01,2.391045280915014490e-02
4.379999999999999716e+01,2.226386783685798190e-02
4.384000000000000341e+01,2.791850442578526839e-02
4.388000000000000256e+01,2.206751230846384221e-02
4.392000000000000171e+01,3.037671353702429966e-02
4.396000000000000085e+01,2.762280263370817460e-02
4.400000000000000000e+01,3.017880444953585650e-02
4.403999999999999915e+01,2.366301024137739545e-02
4.407999999999999829e+01,3.418375621379720480e-02
4.411999999999999744e+01,4.492550578527934602e-02
4.415999999999999659e+01,4.283409266999531340e-02
4.420000000000000284e+01,5.047773985303900812e-02
4.424000000000000199e+01,4.086308524691661254e-02
4.428000000000000114e+01,4.341732119944621826e-02
4.432000000000000028e+01,5.659164938807859091e-02
4.435999999999999943e+01,5.626904971613978096e-02
4.439999999999999858e+01,5.926506118708399495e-02
4.443999999999999773e+01,7.199614022217078191e-02
4.447999999999999687e+01,8.539074790747598620e-02
4.452000000000000313e+01,8.329711889013440007e-02
4.456000000000000227e+01,9.779753043256697587e-02
4.460000000000000142e+01,1.118551888770408648e-01
4.464000000000000057e+01,1.243638100534406044e-01
4.467999999999999972e+01,1.333320814867832438e-01
4.471999999999999886e+01,1.615494832383795321e-01
4.475999999999999801e+01,1.756061980104453024e-01
4.479999999999999716e+01,2.013893049313280892e-01
4.484000000000000341e+01,2.276146943249346410e-01
4.488000000000000256e+01,2.507422541827636908e-01
4.492000000000000171e+01,2.791797546120266538e-01
4.496000000000000085e+01,2.956691448787740484e-01
4.500000000000000000e+01,3.086181950902173732e-01
4.503999999999999915e+01,3.436927272984873771e-01
4.507999999999999829e+01,3.725718369587886492e-01
4.511999999999999744e+01,3.715810181268812129e-01
4.515999999999999659e+01,3.823166023425130233e-01
4.520000000000000284e+01,4.025660200544842748e-01
4.524000000000000199e+01,4.133011639191097597e-01
4.528000000000000114e+01,4.100968936230204864e-01
4.532000000000000028e+01,4.252567435048543176e-01
4.535999999999999943e+01,4.114317004651618648e-01
4.539999999999999858e+01,4.057929545193531551e-01
4.543999999999999773e+01,3.917462261621288966e-01
4.547999999999999687e+01,3.830094553299067117e-01
4.552000000000000313e+01,3.791401290812220215e-01
4.556000000000000227e+01,3.588975693102203768e-01
4.560000000000000142e+01,3.457350273068636182e-01
4.564000000000000057e+01,3.155354829744776990e-01
4.567999999999999972e+01,3.065764117095569619e-01
4.571999999999999886e+01,2.788102839278099876e-01
4.575999999999999801e+01,2.532565230808124235e-01
4.579999999999999716e+01,2.498282672390551018e-01
4.584000000000000341e+01,2.291417580468974036e-01
4.588000000000000256e+01,1.911969967153084871e-01
4.592000000000000171e+01,1.837855129181098224e-01
4.596000000000000085e+01,1.763738313483370623e-01
4.600000000000000000e+01,1.621029838542352719e-01
4.603999999999999915e+01,1.531421108387034380e-01
4.607999999999999829e+01,1.417472158451190678e-01
4.611999999999999744e+01,1.241569297887637202e-01
4.615999999999999659e+01,1.154167350633563960e-01
4.620000000000000284e+01,1.133140621176971646e-01
4.624000000000000199e+01,1.065648012756927332e-01
4.628000000000000114e+01,1.007003806537350582e-01
4.632000000000000028e+01,9.749085807252848290e-02
4.635999999999999943e+01,8.852846584679967268e-02
4.639999999999999858e+01,8.487605899836317414e-02
4.643999999999999773e+01,7.768335568951174885e-02
4.647999999999999687e+01,8.243835246639825975e-02
4.652000000000000313e+01,8.453808350967577379e-02
4.656000000000000227e+01,6.805204054269597957e-02
4.660000000000000142e+01,7.369152680033932978e-02
4.664000000000000057e+01,6.517038299400186585e-02
4.667999999999999972e+01,6.749065994716343941e-02
4.671999999999999886e+01,6.228802154478974007e-02
4.675999999999999801e+01,5.686395251300790932e-02
4.679999999999999716e+01,5.055468283413637465e-02
4.684000000000000341e+01,4.977666892943463650e-02
4.688000000000000256e+01,4.634340018984621501e-02
4.692000000000000171e+01,3.428093676848367050e-02
4.696000000000000085e+01,4.368024224181582538e-02
4.700000000000000000e+01,3.383001579690051580e-02
4.703999999999999915e+01,3.482122101020650867e-02
4.707999999999999829e+01,3.005957837643480693e-02
4.711999999999999744e+01,2.684657262171253125e-02
4.715999999999999659e+01,2.783728987161171453e-02
4.720000000000000284e+01,2.484521951707588730e-02
4.724000000000000199e+01,2.340178967449691241e-02
4.728000000000000114e+01,2.417077278349464772e-02
4.732000000000000028e+01,1.985068653988026482e-02
4.735999999999999943e+01,2.039810058438378676e-02
4.739999999999999858e+01,1.762650430794872325e-02
4.743999999999999773e+01,1.861612536048532635e-02
4.747999999999999687e+01,1.672925266645541170e-02
4.752000000000000313e+01,2.347125540010746095e-02
4.756000000000000227e+01,2.069905452262404966e-02
4.760000000000000142e+01,1.084647908336030045e-02
4.764000000000000057e+01,1.095032516198737697e-02
4.767999999999999972e+01,1.149653969214730308e-02
4.771999999999999886e+01,1.337015218967687810e-02
4.775999999999999801e+01,1.369482187472541475e-02
4.779999999999999716e+01,1.025797919609299468e-02
4.784000000000000341e+01,1.390122209937728198e-02
4.788000000000000256e+01,1.179164137496666216e-02
4.792000000000000171e+01,7.026837300867063221e-03
4.796000000000000085e+01,1.376726396592974078e-02
4.800000000000000000e+01,1.519738478863881005e-02
4.803999999999999915e+01,7.334573608059028089e-03
4.807999999999999829e+01,1.451711001901951313e-02
4.811999999999999744e+01,8.202832400508180619e-03
4.815999999999999659e+01,1.051744958518500625e-02
4.820000000000000284e+01,1.238942265912594196e-02
4.824000000000000199e+01,1.514629529060155730e-02
4.828000000000000114e+01,1.060155687055531690e-02
4.832000000000000028e+01,1.269440441162169447e-02
4.835999999999999943e+01,8.370671627972161785e-03
4.839999999999999858e+01,9.135727693855139747e-03
4.843999999999999773e+01,1.498957382023977276e-02
4.847999999999999687e+01,8.895416349393198141e-03
4.852000000000000313e+01,5.677480598817472544e-03
4.856000000000000227e+01,8.875880998952289866e-03
4.860000000000000142e+01,8.312793254788949232e-03
4.864000000000000057e+01,1.084718794002079850e-02
4.867999999999999972e+01,1.404523842723094489e-02
4.871999999999999886e+01,8.392891650061511111e-03
4.875999999999999801e+01,1.446705690765411056e-02
4.879999999999999716e+01,1.014202778928701386e-02
4.884000000000000341e+01,1.134831499354679689e-02
4.888000000000000256e+01,1.255449282597987694e-02
4.892000000000000171e+01,1.265427711647088178e-02
4.896000000000000085e+01,1.474526814302565096e-02
4.900000000000000000e+01,5.994556696032608128e-03
4.903999999999999915e+01,1.206796482762233745e-02
4.907999999999999829e+01,9.512243669771630605e-03
4.911999999999999744e+01,7.177677482126004413e-03
4.915999999999999659e+01,5.949295780522221785e-03
4.920000000000000284e+01,8.482184690532303464e-03
4.924000000000000199e+01,1.344880296582399125e-02
4.928000000000000114e+01,8.016241396785670631e-03
4.932000000000000028e+01,1.143386682525758535e-02
4.935999999999999943e+01,6.664885593506879660e-03
4.939999999999999858e+01,8.976037171469391715e-03
4.943999999999999773e+01,7.968240187919573697e-03
4.947999999999999687e+01,8.509151530598536850e-03
4.952000000000000313e+01,1.214757194399383386e-02
4.956000000000000227e+01,3.395507303890912300e-03
4.960000000000000142e+01,7.476265509986578309e-03
4.964000000000000057e+01,1.133568027645238084e-02
4.967999999999999972e+01,8.114783451533184519e-03
4.971999999999999886e+01,7.991401752176023263e-03
4.975999999999999801e+01,7.867937322313289100e-03
4.979999999999999716e+01,1.084199043995083891e-02
4.984000000000000341e+01,1.270967786793656719e-02
4.988000000000000256e+01,1.413477204589031096e-02
4.992000000000000171e+01,1.378973172747980334e-02
4.996000000000000085e+01,8.134444904203615850e-03
5.000000000000000000e+01,7.789252445442493636e-03
5.003999999999999915e+01,1.076284187621345118e-02
5.007999999999999829e+01,1.567219072301955125e-03
5.011999999999999744e+01,1.206340421991208313e-02
5.015999999999999659e+01,9.726608326127325968e-03
5.020000000000000284e+01,6.504714717629926819e-03
5.024000000000000199e+01,6.822866129727206755e-03
5.028000000000000114e+01,7.583464706351545660e-03
5.032000000000000028e+01,5.246398439001606108e-03
5.035999999999999943e+01,5.121838367852320738e-03
5.039999999999999858e+01,9.864870618475700750e-03
5.043999999999999773e+01,8.855156743429308877e-03
5.047999999999999687e+01,6.517839478020416751e-03
5.052000000000000313e+01,9.711889395942398251e-03
5.056000000000000227e+01,9.808281735704927826e-03
5.060000000000000142e+01,1.211718753748291209e-02
5.064000000000000057e+01,8.673353268436842164e-03
5.067999999999999972e+01,1.053963395038126465e-02
5.071999999999999886e+01,7.980719440741357307e-03
5.075999999999999801e+01,7.855580313210420301e-03
5.079999999999999716e+01,1.304055976957742106e-02
5.084000000000000341e+01,7.383892456977118879e-03
5.088000000000000256e+01,1.013494521724978004e-02
5.092000000000000171e+01,6.026981002397793601e-03
5.096000000000000085e+01,6.565368986669571812e-03
5.100000000000000000e+01,9.980053771299008183e-03
5.103999999999999915e+01,9.412067204531042799e-03
5.107999999999999829e+01,1.459672185087884481e-02
5.111999999999999744e+01,5.178367909355877617e-03
5.115999999999999659e+01,9.920426499129489026e-03
5.120000000000000284e+01,1.355616057220208198e-02
5.124000000000000199e+01,1.143917273898772610e-02
5.128000000000000114e+01,8.658376963444470650e-03
5.132000000000000028e+01,6.541316913842891261e-03
5.135999999999999943e+01,6.194279182236703610e-03
5.139999999999999858e+01,8.944807436896450373e-03
5.143999999999999773e+01,1.390787458392370515e-02
5.147999999999999687e+01,1.223319878561123647e-02
5.152000000000000313e+01,1.100100769186921831e-02
5.156000000000000227e+01,6.449932217979382175e-03
5.160000000000000142e+01,9.421570309539436389e-03
5.164000000000000057e+01,8.410555214239192473e-03
5.167999999999999972e+01,1.182465703929038055e-02
5.171999999999999886e+01,7.494737803732143787e-03
5.175999999999999801e+01,1.135130820615104508e-02
5.179999999999999716e+01,1.078271611315245564e-02
5.184000000000000341e+01,1.441798870816493258e-02
5.188000000000000256e+01,1.008798801022761302e-02
5.192000000000000171e+01,1.040436857467348652e-02
5.196000000000000085e+01,9.614447630832046246e-03
5.200000000000000000e+01,8.381997618323186461e-03
5.203999999999999915e+01,1.396849918910164677e-03
5.207999999999999829e+01,9.678427984168541665e-03
5.211999999999999744e+01,5.348341421736920939e-03
5.215999999999999659e+01,1.053229906427531094e-02
5.220000000000000284e+01,8.193507254050855920e-03
5.224000000000000199e+01,1.691756160425313474e-02
5.228000000000000114e+01,1.148115663712356675e-02
5.232000000000000028e+01,8.036060127465691899e-03
5.235999999999999943e+01,1.255621434410517795e-02
5.239999999999999858e+01,1.110242469634594234e-02
5.243999999999999773e+01,8.099833919495251500e-03
5.247999999999999687e+01,1.284124042563246186e-02
5.252000000000000313e+01,9.396135938109279398e-03
5.256000000000000227e+01,8.827375478740250719e-03
5.260000000000000142e+01,1.091370318227761690e-02
5.264000000000000057e+01,9.902436278050950891e-03
5.267999999999999972e+01,1.353757364462111756e-02
5.271999999999999886e+01,9.649977301027307802e-03
5.275999999999999801e+01,4.656103668529024651e-03
5.279999999999999716e+01,5.414923320819625512e-03
5.284000000000000341e+01,5.731239334794722279e-03
5.288000000000000256e+01,9.808937369544783874e-03
5.292000000000000171e+01,8.355221434928767829e-03
5.296000000000000085e+01,1.022037579059214933e-02
5.300000000000000000e+01,7.439146903695349235e-03
5.303999999999999915e+01,1.173816102470373081e-02
5.307999999999999829e+01,8.956966486704220562e-03
5.311999999999999744e+01,1.037967538772830572e-02
5.315999999999999659e+01,8.704805423587190852e-03
5.320000000000000284e+01,1.123384132040796193e-02
5.324000000000000199e+01,1.398415691725539249e-02
5.328000000000000114e+01,8.990498681289942409e-03
5.332000000000000028e+01,9.749549472712205900e-03
5.335999999999999943e+01,7.189770377597993513e-03
5.339999999999999858e+01,1.392281595128030264e-02
5.343999999999999773e+01,1.623074867927994797e-02
5.347999999999999687e+01,9.467171172010915847e-03
5.352000000000000313e+01,9.120079975626015426e-03
5.356000000000000227e+01,1.209187723405768730e-02
5.360000000000000142e+01,1.174485187176774366e-02
5.364000000000000057e+01,1.161911831919589660e-02
5.367999999999999972e+01,3.970680119719481593e-03
5.371999999999999886e+01,1.313781686816765590e-02
5.375999999999999801e+01,1.411848016299879251e-02
5.379999999999999716e+01,1.089529858708641538e-02
5.384000000000000341e+01,1.408861300981131132e-02
5.388000000000000256e+01,1.086551422156187448e-02
5.392000000000000171e+01,6.978687414946891862e-03
5.396000000000000085e+01,1.127841684961189764e-02
5.400000000000000000e+01,1.491442068784961696e-02
5.403999999999999915e+01,1.434658692115868897e-02
5.407999999999999829e+01,1.001743091294203872e-02
5.411999999999999744e+01,9.449694465543776942e-03
5.415999999999999659e+01,1.220086463749915640e-02
5.420000000000000284e+01,1.340328696300535638e-02
5.424000000000000199e+01,1.305696265303154732e-02
5.428000000000000114e+01,6.736751394208626703e-03
5.432000000000000028e+01,1.125819218999082882e-02
5.435999999999999943e+01,1.091203383994682023e-02
5.439999999999999858e+01,1.299976107020366610e-02
5.443999999999999773e+01,6.458521280885103424e-03
5.447999999999999687e+01,7.661339323011519091e-03
5.452000000000000313e+01,7.094162130225004602e-03
5.456000000000000227e+01,8.075847056748278532e-03
5.460000000000000142e+01,1.304022315193651728e-02
5.464000000000000057e+01,1.512832226403471557e-02
5.467999999999999972e+01,1.434014560401194321e-02
5.471999999999999886e+01,1.288826514500645941e-02
5.475999999999999801e+01,1.121519625042126204e-02
5.479999999999999716e+01,1.219728212204525611e-02
5.484000000000000341e+01,8.975554608123414643e-03
5.488000000000000256e+01,1.017904089208439798e-02
5.492000000000000171e+01,1.116134358434214650e-02
5.496000000000000085e+01,9.267378981262961238e-03
5.500000000000000000e+01,1.047108935167252557e-02
5.503999999999999915e+01,1.300241929680473821e-02
5.507999999999999829e+01,1.553382757032721953e-02
5.511999999999999744e+01,1.054257479183422393e-02
5.515999999999999659e+01,1.285288627882784883e-02
5.520000000000000284e+01,1.184442358386553207e-02
5.524000000000000199e+01,1.061478698495316522e-02
5.528000000000000114e+01,1.270409091253049336e-02
5.532000000000000028e+01,1.169588136727621117e-02
5.535999999999999943e+01,1.312158646558220926e-02
5.539999999999999858e+01,1.122852343677801720e-02
5.543999999999999773e+01,7.344235949134247932e-03
5.547999999999999687e+01,1.408037855798380950e-02
5.552000000000000313e+01,1.218758684342475911e-02
5.556000000000000227e+01,1.184368752240413068e-02
5.560000000000000142e+01,1.415496718697550373e-02
5.564000000000000057e+01,1.270497183781772212e-02
5.567999999999999972e+01,1.081255882915358249e-02
5.571999999999999886e+01,1.024778598168744198e-02
5.575999999999999801e+01,1.255945403990682899e-02
5.579999999999999716e+01,8.676024089887601765e-03
5.584000000000000341e+01,7.226523315058410238e-03
5.588000000000000256e+01,1.285735152694341202e-02
5.592000000000000171e+01,1.140805705862961254e-02
5.596000000000000085e+01,1.526903738923309460e-02
5.600000000000000000e+01,1.404121114752818721e-02
5.603999999999999915e+01,1.524732013585897508e-02
5.607999999999999829e+01,9.815825440301384139e-03
5.611999999999999744e+01,1.611106559782791298e-02
5.615999999999999659e+01,1.554744741718742419e-02
5.620000000000000284e+01,1.210759948125340012e-02
5.624000000000000199e+01,8.225350839380961634e-03
5.628000000000000114e+01,1.009590083661270413e-02
5.632000000000000028e+01,1.683422237905014829e-02
5.635999999999999943e+01,9.854722275442097737e-03
5.639999999999999858e+01,1.106185228223162398e-02
5.643999999999999773e+01,1.514544378118210140e-02
5.647999999999999687e+01,1.082138709620034805e-02
5.652000000000000313e+01,1.468396415452358564e-02
5.656000000000000227e+01,1.500655112762483596e-02
5.660000000000000142e+01,1.532926244594381635e-02
5.664000000000000057e+01,1.299701440584668209e-02
5.667999999999999972e+01,1.309872097129155706e-02
5.671999999999999886e+01,1.032421352404168380e-02
5.675999999999999801e+01,1.529383293347794971e-02
5.679999999999999716e+01,1.207707092295193241e-02
5.684000000000000341e+01,1.195803959049517896e-02
5.688000000000000256e+01,1.449422599464307224e-02
5.692000000000000171e+01,1.415420444094193930e-02
5.696000000000000085e+01,1.315054690253004803e-02
5.700000000000000000e+01,1.966976641040220353e-02
5.703999999999999915e+01,1.689632638304241347e-02
5.707999999999999829e+01,1.390176815631309626e-02
5.711999999999999744e+01,1.400494908443704681e-02
5.715999999999999659e+01,1.344450008269599574e-02
5.720000000000000284e+01,1.708807803883099011e-02
5.724000000000000199e+01,1.475785865783339930e-02
5.728000000000000114e+01,1.375532666583041685e-02
5.732000000000000028e+01,1.518676865487563095e-02
5.735999999999999943e+01,1.462704431160006570e-02
5.739999999999999858e+01,1.517375391400960054e-02
5.743999999999999773e+01,1.660564159685641583e-02
5.747999999999999687e+01,1.516133827542222832e-02
5.752000000000000313e+01,1.283215884662839215e-02
5.756000000000000227e+01,1.581330265551743330e-02
5.760000000000000142e+01,1.414820248329763143e-02
5.764000000000000057e+01,1.735091381826521159e-02
5.767999999999999972e+01,1.457984113676080717e-02
5.771999999999999886e+01,1.623406823194821144e-02
5.775999999999999801e+01,1.147199958016804563e-02
5.779999999999999716e+01,1.202026143188570338e-02
5.784000000000000341e+01,1.610879838833495156e-02
5.788000000000000256e+01,1.267475784963952717e-02
5.792000000000000171e+01,1.698487928573533604e-02
5.796000000000000085e+01,1.155985488645560992e-02
5.800000000000000000e+01,1.299396657903775266e-02
5.803999999999999915e+01,1.863213065984794733e-02
5.807999999999999829e+01,1.342886715710558086e-02
5.811999999999999744e+01,1.530600045534937295e-02
5.815999999999999659e+01,1.674079117417354851e-02
5.820000000000000284e+01,1.773324052454732652e-02
5.824000000000000199e+01,1.961089217474120891e-02
5.828000000000000114e+01,1.595729212543401179e-02
5.832000000000000028e+01,1.894158077952492331e-02
5.835999999999999943e+01,1.263324986036555402e-02
5.839999999999999858e+01,2.048555065791744095e-02
5.843999999999999773e+01,1.860272015172354312e-02
5.847999999999999687e+01,1.782635628738158187e-02
5.852000000000000313e+01,1.660766074234228118e-02
5.856000000000000227e+01,1.760171964217771903e-02
5.860000000000000142e+01,1.527710729243436129e-02
5.864000000000000057e+01,1.627153719058852324e-02
5.867999999999999972e+01,1.505358364218665514e-02
5.871999999999999886e+01,1.250827616306558060e-02
5.875999999999999801e+01,1.792841316530455198e-02
5.879999999999999716e+01,2.069365620146112680e-02
5.884000000000000341e+01,2.124652063493823531e-02
5.888000000000000256e+01,1.361306661884852109e-02
5.892000000000000171e+01,1.837020345233361315e-02
5.896000000000000085e+01,1.604730963927468099e-02
5.900000000000000000e+01,1.549466943931726050e-02
5.903999999999999915e+01,1.405719914882751394e-02
5.907999999999999829e+01,1.660255565554662888e-02
5.911999999999999744e+01,1.627177080771958703e-02
5.915999999999999659e+01,1.992381517903965213e-02
5.920000000000000284e+01,1.693835032206436261e-02
5.924000000000000199e+01,2.036954494456052686e-02
5.928000000000000114e+01,1.716323276069957673e-02
5.932000000000000028e+01,1.616969803012705681e-02
5.935999999999999943e+01,1.628265658272757752e-02
5.939999999999999858e+01,1.528953886730121704e-02
5.943999999999999773e+01,2.071308668619193522e-02
5.947999999999999687e+01,1.551650638166693352e-02
5.952000000000000313e+01,1.695785110961429976e-02
5.956000000000000227e+01,1.884192394692964581e-02
5.960000000000000142e+01,1.961992657106377547e-02
5.964000000000000057e+01,2.194694510758878059e-02
5.967999999999999972e+01,2.316789585287081302e-02
5.971999999999999886e+01,1.664506773137179943e-02
5.975999999999999801e+01,1.963651389897978078e-02
5.979999999999999716e+01,2.417698082285519093e-02
5.984000000000000341e+01,2.362875742745984900e-02
5.988000000000000256e+01,2.086818691458282998e-02
5.992000000000000171e+01,2.164795447683276475e-02
5.996000000000000085e+01,1.999412026732227954e-02
