2.003999999999999915e+01,9.759904180270832785e-03
2.007999999999999829e+01,3.519868622540550142e-03
2.012000000000000099e+01,7.246344774143027509e-03
2.016000000000000014e+01,5.891446929786743310e-04
2.019999999999999929e+01,7.220938695252691018e-03
2.023999999999999844e+01,1.807819036030700781e-03
2.028000000000000114e+01,7.468709386761419357e-03
2.032000000000000028e+01,8.837141608166244541e-03
2.035999999999999943e+01,6.882173581347094705e-03
2.039999999999999858e+01,1.143280950354488845e-02
2.044000000000000128e+01,4.215411350497886428e-03
2.048000000000000043e+01,3.642056313206174824e-03
2.051999999999999957e+01,6.944012420650786180e-03
2.055999999999999872e+01,1.385108096156796196e-03
2.060000000000000142e+01,1.362757356223915630e-03
2.064000000000000057e+01,6.046341486488478190e-03
2.067999999999999972e+01,2.284378926706606087e-03
2.071999999999999886e+01,8.627383529068005305e-03
2.076000000000000156e+01,4.032984045517668502e-03
2.080000000000000071e+01,6.636384344676378964e-03
2.083999999999999986e+01,6.331709412472799441e-03
2.087999999999999901e+01,1.239421680138905711e-02
2.092000000000000171e+01,8.349945082629092047e-03
2.096000000000000085e+01,8.319434950313436133e-03
2.100000000000000000e+01,8.703334466284972509e-03
2.103999999999999915e+01,9.501644883318184284e-03
2.107999999999999829e+01,8.637817536342452113e-03
2.112000000000000099e+01,9.711206869063503458e-03
2.116000000000000014e+01,1.119901086116934993e-02
2.119999999999999929e+01,9.640314235692741887e-03
2.123999999999999844e+01,1.098789467656365558e-02
2.128000000000000114e+01,1.621081006488422557e-02
2.132000000000000028e+01,7.866042343530839365e-03
2.135999999999999943e+01,1.197968506893516000e-02
2.139999999999999858e+01,1.470807337490490085e-02
2.144000000000000128e+01,1.508215188588680686e-02
2.148000000000000043e+01,1.836251497986265968e-02
2.151999999999999957e+01,6.967707938519069819e-03
2.155999999999999872e+01,9.277247558512110442e-03
2.160000000000000142e+01,1.186277895721857267e-02
2.164000000000000057e+01,1.237088014718844102e-02
2.167999999999999972e+01,1.453934223331705862e-02
2.171999999999999886e+01,1.075415010294724152e-02
2.176000000000000156e+01,8.906194696664357369e-03
2.180000000000000071e+01,1.342545042531197511e-02
2.183999999999999986e+01,1.406760561362935084e-02
2.187999999999999901e+01,1.512419801127046562e-02
2.192000000000000171e+01,1.354962232483695496e-02
2.196000000000000085e+01,1.405072628755197131e-02
2.200000000000000000e+01,1.081317138222391040e-02
2.203999999999999915e+01,1.532720174036935126e-02
2.207999999999999829e+01,1.679475904196879241e-02
2.212000000000000099e+01,1.632333782931398927e-02
2.216000000000000014e+01,1.598948927302422732e-02
2.219999999999999929e+01,1.662383459301186930e-02
2.223999999999999844e+01,1.088923199899909273e-02
2.228000000000000114e+01,1.387527881343385977e-02
2.232000000000000028e+01,1.533766336105521662e-02
2.235999999999999943e+01,1.015423043061994095e-02
2.239999999999999858e+01,2.282827030547335267e-02
2.244000000000000128e+01,6.845066078661870765e-03
2.248000000000000043e+01,1.024214043577418090e-02
2.251999999999999957e+01,2.014488513894570690e-02
2.255999999999999872e+01,1.260375905513849010e-02
2.260000000000000142e+01,2.167418208978488803e-02
2.264000000000000057e+01,1.537728676084634642e-02
2.267999999999999972e+01,1.101765696980552649e-02
2.271999999999999886e+01,1.247152048274748244e-02
2.276000000000000156e+01,1.613952536151525355e-02
2.280000000000000071e+01,1.759169970081393003e-02
2.283999999999999986e+01,1.572055146390054572e-02
2.287999999999999901e+01,1.814009826898111202e-02
2.292000000000000171e+01,1.432915511841542124e-02
2.296000000000000085e+01,1.660858611085814368e-02
2.300000000000000000e+01,2.193278595291098254e-02
2.303999999999999915e+01,1.853463969622672416e-02
2.307999999999999829e+01,1.610471487685638178e-02
2.312000000000000099e+01,1.547363271471229387e-02
2.316000000000000014e+01,1.068861803141323875e-02
2.319999999999999929e+01,2.736045439982183469e-02
2.323999999999999844e+01,1.565194504443266285e-02
2.328000000000000114e+01,1.903220283157523729e-02
2.332000000000000028e+01,1.244419333869436865e-02
2.335999999999999943e+01,1.166969719418646176e-02
2.339999999999999858e+01,2.210774543722282548e-02
2.344000000000000128e+01,1.288696387528226982e-02
2.348000000000000043e+01,1.737058910784873914e-02
2.351999999999999957e+01,1.382406658091903627e-02
2.355999999999999872e+01,1.747543027813083447e-02
2.360000000000000142e+01,1.517319863924026201e-02
2.364000000000000057e+01,1.231640270341856358e-02
2.367999999999999972e+01,1.098159364128521026e-02
2.371999999999999886e+01,1.739842245914957272e-02
2.376000000000000156e+01,1.800009761319872753e-02
2.380000000000000071e+01,1.846252346498337971e-02
2.383999999999999986e+01,2.252349111939887585e-02
2.387999999999999901e+01,1.495496909835631986e-02
2.392000000000000171e+01,2.192148761947703556e-02
2.396000000000000085e+01,9.506065944067146681e-03
2.400000000000000000e+01,2.103938027726660887e-02
2.403999999999999915e+01,1.277544693591521098e-02
2.407999999999999829e+01,1.364752936142768144e-02
2.412000000000000099e+01,2.047158559921603491e-02
2.416000000000000014e+01,1.774271084881199126e-02
2.419999999999999929e+01,1.542834596864592692e-02
2.423999999999999844e+01,2.072719859335492992e-02
2.428000000000000114e+01,2.325652038648832673e-02
2.432000000000000028e+01,1.720197283085454776e-02
2.435999999999999943e+01,1.599191331462569005e-02
2.439999999999999858e+01,1.533480659369632591e-02
2.444000000000000128e+01,1.606127388797896210e-02
2.448000000000000043e+01,1.983255638452392430e-02
2.451999999999999957e+01,2.014213226019132691e-02
2.455999999999999872e+01,1.588250947823816039e-02
2.460000000000000142e+01,2.145110205516414376e-02
2.464000000000000057e+01,2.009707523979404470e-02
2.467999999999999972e+01,2.040350327866152086e-02
2.471999999999999886e+01,2.417006402000660900e-02
2.476000000000000156e+01,2.101400912737879517e-02
2.480000000000000071e+01,1.467312970567339302e-02
2.483999999999999986e+01,1.954483977139008163e-02
2.487999999999999901e+01,1.555582470480165909e-02
2.492000000000000171e+01,1.765724516716648401e-02
2.496000000000000085e+01,2.141912925318955122e-02
2.500000000000000000e+01,1.507436201452365745e-02
2.503999999999999915e+01,1.966531720477249223e-02
2.507999999999999829e+01,2.204051326369208669e-02
2.512000000000000099e+01,1.846216159193583839e-02
2.516000000000000014e+01,1.460616655105449746e-02
2.519999999999999929e+01,1.587155918021937798e-02
2.523999999999999844e+01,2.225834073220487111e-02
2.528000000000000114e+01,2.269157956461209658e-02
2.532000000000000028e+01,2.160125008828476731e-02
2.535999999999999943e+01,2.161765011860085697e-02
2.539999999999999858e+01,2.121797763524846045e-02
2.544000000000000128e+01,1.444945745984631269e-02
2.548000000000000043e+01,1.612481359246309420e-02
2.551999999999999957e+01,9.770084604302871692e-03
2.555999999999999872e+01,1.905794081157305420e-02
2.560000000000000142e+01,2.017727774242528832e-02
2.564000000000000057e+01,1.991149304792769192e-02
2.567999999999999972e+01,1.590716474063032584e-02
2.571999999999999886e+01,2.062359358037750903e-02
2.576000000000000156e+01,1.841743810551131968e-02
2.580000000000000071e+01,1.676427927304816393e-02
2.583999999999999986e+01,1.649473830290044268e-02
2.587999999999999901e+01,1.179447667787648403e-02
2.592000000000000171e+01,1.387686520711366861e-02
2.596000000000000085e+01,2.121910187030008957e-02
2.600000000000000000e+01,1.956221181767444500e-02
2.603999999999999915e+01,7.798703012493827733e-03
2.607999999999999829e+01,1.915337539305254563e-02
2.612000000000000099e+01,1.694051499686337336e-02
2.616000000000000014e+01,1.389629590615000174e-02
2.619999999999999929e+01,1.278945259748014325e-02
2.623999999999999844e+01,2.137243935024951691e-02
2.628000000000000114e+01,1.458822174190287611e-02
2.632000000000000028e+01,2.067787990790654132e-02
2.635999999999999943e+01,1.292313949142934182e-02
2.639999999999999858e+01,1.928820730555820193e-02
2.644000000000000128e+01,1.305480899346188155e-02
2.648000000000000043e+01,1.512688164755445971e-02
2.651999999999999957e+01,1.373731031948863257e-02
2.655999999999999872e+01,8.886096262038779142e-03
2.660000000000000142e+01,1.303254023504928083e-02
2.664000000000000057e+01,1.676295053039723870e-02
2.667999999999999972e+01,1.218643871304596164e-02
2.671999999999999886e+01,9.408882302615531948e-03
2.676000000000000156e+01,1.521367895017401717e-02
2.680000000000000071e+01,8.696894068856124080e-03
2.683999999999999986e+01,1.256214134654153568e-02
2.687999999999999901e+01,1.781103905867635617e-02
2.692000000000000171e+01,1.170741562858561638e-02
2.696000000000000085e+01,1.432458818154533527e-02
2.700000000000000000e+01,1.334169512444965087e-02
2.703999999999999915e+01,8.204991065314184637e-03
2.707999999999999829e+01,9.850973490896997378e-03
2.712000000000000099e+01,1.274217720638587230e-02
2.716000000000000014e+01,1.770922343169313920e-02
2.719999999999999929e+01,1.090844730062652361e-02
2.723999999999999844e+01,1.075192600418608570e-02
2.728000000000000114e+01,8.933461123766257839e-03
2.732000000000000028e+01,1.542049351779729675e-02
2.735999999999999943e+01,1.207782182320733463e-02
2.739999999999999858e+01,1.468722666839279191e-02
2.744000000000000128e+01,1.148159310500633176e-02
2.748000000000000043e+01,9.382755445305691194e-03
2.751999999999999957e+01,7.975404958496230476e-03
2.755999999999999872e+01,1.113576941066301076e-02
2.760000000000000142e+01,7.096733853458783714e-03
2.764000000000000057e+01,1.136320559290053371e-02
2.767999999999999972e+01,6.630603233054370611e-03
2.771999999999999886e+01,1.269537057681697015e-02
2.776000000000000156e+01,8.376699714943794742e-03
2.780000000000000071e+01,6.687638052037784761e-03
2.783999999999999986e+01,1.095066670942537561e-02
2.787999999999999901e+01,1.369020723563892268e-02
2.792000000000000171e+01,7.707554501590240838e-03
2.796000000000000085e+01,9.476672441623959844e-03
2.800000000000000000e+01,8.753249380479138919e-03
2.803999999999999915e+01,7.198526505206168796e-03
2.807999999999999829e+01,3.151265134303444983e-03
2.812000000000000099e+01,6.440469465011654064e-03
2.816000000000000014e+01,8.344631095156231776e-03
2.819999999999999929e+01,6.510328037287176940e-03
2.823999999999999844e+01,6.613464652955244015e-03
2.828000000000000114e+01,5.746872309951799561e-03
2.832000000000000028e+01,8.063652096741232359e-03
2.835999999999999943e+01,1.519815742596918517e-03
2.839999999999999858e+01,1.144927349800223954e-02
2.844000000000000128e+01,8.918764427091274705e-03
2.848000000000000043e+01,1.680742809259711153e-03
2.851999999999999957e+01,8.285722496697286305e-03
2.855999999999999872e+01,6.860712274211038138e-03
2.860000000000000142e+01,8.619082950938333418e-03
2.864000000000000057e+01,5.116199447083942010e-03
2.867999999999999972e+01,6.596375943457500300e-03
2.871999999999999886e+01,1.402867032116114632e-02
2.876000000000000156e+01,1.093912115139888085e-02
2.880000000000000071e+01,8.956409226877102420e-03
2.883999999999999986e+01,9.741775734646202639e-03
2.887999999999999901e+01,8.726812108221519010e-03
2.892000000000000171e+01,6.603702906325839388e-03
2.896000000000000085e+01,1.112490240835482119e-02
2.900000000000000000e+01,5.816449185512544140e-03
2.903999999999999915e+01,2.999207336453737095e-03
2.907999999999999829e+01,8.764391206298105183e-03
2.912000000000000099e+01,8.991462606473996436e-03
2.916000000000000014e+01,4.649479418083501611e-03
2.919999999999999929e+01,5.290572515987988778e-03
2.923999999999999844e+01,8.284446590358204160e-03
2.928000000000000114e+01,9.339566397088848448e-03
2.932000000000000028e+01,5.687199965160955918e-03
2.935999999999999943e+01,4.802928251590927490e-03
2.939999999999999858e+01,8.209555782239471439e-03
2.944000000000000128e+01,8.174877402073201221e-04
2.948000000000000043e+01,5.745647796943156860e-03
2.951999999999999957e+01,1.261128761599638985e-02
2.955999999999999872e+01,6.186375719278093717e-03
2.960000000000000142e+01,2.806439379943299027e-03
2.964000000000000057e+01,1.243891945642232495e-02
2.967999999999999972e+01,5.043061723332010332e-03
2.971999999999999886e+01,0.000000000000000000e+00
2.976000000000000156e+01,1.350682489839165334e-02
2.980000000000000071e+01,9.846879084347405151e-03
2.983999999999999986e+01,5.217253169832646899e-03
2.987999999999999901e+01,8.339458062570715216e-03
2.992000000000000171e+01,7.446378814214353950e-03
2.996000000000000085e+01,4.060819950624301733e-03
3.000000000000000000e+01,1.078051889283455911e-02
3.003999999999999915e+01,3.517497846617564754e-03
3.007999999999999829e+01,3.867877210335639998e-03
3.012000000000000099e+01,7.263248417504216022e-03
3.016000000000000014e+01,3.182426470483001001e-03
3.019999999999999929e+01,8.929995270754687367e-03
3.023999999999999844e+01,8.724176695471702950e-03
3.028000000000000114e+01,7.548691800236405521e-03
3.032000000000000028e+01,6.926345110909505089e-03
3.035999999999999943e+01,9.487434442869074197e-03
3.039999999999999858e+01,6.233578071561154607e-03
3.044000000000000128e+01,2.148497052588118836e-03
3.048000000000000043e+01,7.338068905570030963e-03
3.051999999999999957e+01,6.851135474797256583e-03
3.055999999999999872e+01,8.993897684424210712e-03
3.060000000000000142e+01,7.259833711310931421e-03
3.064000000000000057e+01,9.678271157232439317e-03
3.067999999999999972e+01,6.004898346927836986e-03
3.071999999999999886e+01,7.176212767155127140e-03
3.076000000000000156e+01,8.208495867860741285e-03
3.080000000000000071e+01,7.163635645163693964e-03
3.083999999999999986e+01,9.025353154666359429e-03
3.087999999999999901e+01,1.130178974772916810e-02
3.092000000000000171e+01,4.856127038608473202e-03
3.096000000000000085e+01,6.716075606407653428e-03
3.100000000000000000e+01,8.713873693710762897e-03
3.103999999999999915e+01,9.880465924964528315e-03
3.107999999999999829e+01,1.909653881563354522e-03
3.112000000000000099e+01,1.027378447518024346e-02
3.116000000000000014e+01,8.116146687794268885e-03
3.119999999999999929e+01,1.218757777612949032e-02
3.123999999999999844e+01,6.983172939717604243e-03
3.128000000000000114e+01,5.377542921972038557e-03
3.132000000000000028e+01,1.000098553827078775e-02
3.135999999999999943e+01,8.394202534318263159e-03
3.139999999999999858e+01,8.724958173079194745e-03
3.144000000000000128e+01,4.763603953792938661e-03
3.148000000000000043e+01,7.585074024407225182e-03
3.151999999999999957e+01,1.151346652892010734e-02
3.155999999999999872e+01,6.719779775639640566e-03
3.160000000000000142e+01,7.047681136306870389e-03
3.164000000000000057e+01,4.329408853505835320e-03
3.167999999999999972e+01,7.701783818528935843e-03
3.171999999999999886e+01,9.273917596339543296e-03
3.176000000000000156e+01,5.031148265211708541e-03
3.180000000000000071e+01,6.186846634282842580e-03
3.183999999999999986e+01,7.757294153499284112e-03
3.187999999999999901e+01,7.389068835411142545e-03
3.192000000000000171e+01,9.650581752051731743e-03
3.196000000000000085e+01,1.426496083381615515e-02
3.200000000000000000e+01,5.588864619046449329e-03
3.203999999999999915e+01,5.495286828484330019e-03
3.207999999999999829e+01,7.754578961369167252e-03
3.211999999999999744e+01,6.967712484078378114e-03
3.215999999999999659e+01,2.857815327006977147e-03
3.220000000000000284e+01,8.714808217137357677e-03
3.224000000000000199e+01,9.725969659949583804e-03
3.228000000000000114e+01,1.212095066175302577e-02
3.232000000000000028e+01,4.686382918959107816e-03
3.235999999999999943e+01,1.026431678063713382e-02
3.239999999999999858e+01,5.458957758507904448e-03
3.243999999999999773e+01,5.359903175019419160e-03
3.247999999999999687e+01,7.475294381532073679e-03
3.252000000000000313e+01,7.375159472750918328e-03
3.256000000000000227e+01,1.059696614903700776e-02
3.260000000000000142e+01,1.077262924844006077e-02
3.264000000000000057e+01,1.385492645489013255e-02
3.267999999999999972e+01,1.139922268859191318e-02
3.271999999999999886e+01,9.081422311096154498e-03
3.275999999999999801e+01,9.116513154211899894e-03
3.279999999999999716e+01,1.482697633926550844e-02
3.284000000000000341e+01,6.970117213667745455e-03
3.288000000000000256e+01,8.526422787677599008e-03
3.292000000000000171e+01,7.590341451758159108e-03
3.296000000000000085e+01,5.130931087011469244e-03
3.300000000000000000e+01,7.654716022126250262e-03
3.303999999999999915e+01,8.793611095152220961e-03
3.307999999999999829e+01,1.034729415432941030e-02
3.311999999999999744e+01,4.009566781052267131e-03
3.315999999999999659e+01,5.562209603717060101e-03
3.320000000000000284e+01,1.251336397368426299e-02
3.324000000000000199e+01,1.600308482758958442e-02
3.328000000000000114e+01,8.417357052775726808e-03
3.332000000000000028e+01,6.783891228346080986e-03
3.335999999999999943e+01,1.082581528469566193e-02
3.339999999999999858e+01,6.976337678011563549e-03
3.343999999999999773e+01,5.064462605534530981e-03
3.347999999999999687e+01,9.243291155728845451e-03
3.352000000000000313e+01,9.683821636902642180e-03
3.356000000000000227e+01,1.026228181514094416e-02
3.360000000000000142e+01,5.164333173252170540e-03
3.364000000000000057e+01,1.210986959628796572e-02
3.367999999999999972e+01,9.502773191434778569e-03
3.371999999999999886e+01,8.833288090209293064e-03
3.375999999999999801e+01,9.132358917058254130e-03
3.379999999999999716e+01,5.831577105497028762e-03
3.384000000000000341e+01,5.991213628972973104e-03
3.388000000000000256e+01,1.334905959238150835e-02
3.392000000000000171e+01,4.232447185064039906e-03
3.396000000000000085e+01,7.020893203676548990e-03
3.400000000000000000e+01,8.286042765595811113e-03
3.403999999999999915e+01,6.366657189320189258e-03
3.407999999999999829e+01,3.339287645469076870e-03
3.411999999999999744e+01,4.602965173213830960e-03
3.415999999999999659e+01,8.773324413432179864e-03
3.420000000000000284e+01,8.236350253466875881e-03
3.424000000000000199e+01,1.268261022936890622e-02
3.428000000000000114e+01,1.325215927777405496e-02
3.432000000000000028e+01,8.975942023129004563e-03
3.435999999999999943e+01,7.883286067208807729e-03
3.439999999999999858e+01,4.990472859959863873e-03
3.443999999999999773e+01,5.973406762932862400e-03
3.447999999999999687e+01,6.678989193212202073e-03
3.452000000000000313e+01,7.107221403572261918e-03
3.456000000000000227e+01,5.319991390132105917e-03
3.460000000000000142e+01,1.170004999489109888e-02
3.464000000000000057e+01,4.789715986225328778e-03
3.467999999999999972e+01,1.033820959818712755e-02
3.471999999999999886e+01,1.214844272435989386e-02
3.475999999999999801e+01,8.420740022052387169e-03
3.479999999999999716e+01,1.147596558991928993e-02
3.484000000000000341e+01,1.328479433173429189e-02
3.488000000000000256e+01,1.246286088837515391e-02
3.492000000000000171e+01,9.702349818564619602e-03
3.496000000000000085e+01,1.012541883909466416e-02
3.500000000000000000e+01,7.917729432773721460e-03
3.503999999999999915e+01,7.509256010445480162e-03
3.507999999999999829e+01,8.069379857746354634e-03
3.511999999999999744e+01,8.767482260312705472e-03
3.515999999999999659e+01,9.049817826160263395e-03
3.520000000000000284e+01,8.639514485684072001e-03
3.524000000000000199e+01,1.002843339307252397e-02
3.528000000000000114e+01,9.755659271358305476e-03
3.532000000000000028e+01,7.959630034505522228e-03
3.535999999999999943e+01,8.793446770978501428e-03
3.539999999999999858e+01,7.134954269534007736e-03
3.543999999999999773e+01,9.352240197671063057e-03
3.547999999999999687e+01,6.308486169646058787e-03
3.552000000000000313e+01,1.129361291244137221e-02
3.556000000000000227e+01,1.378643542841672710e-02
3.560000000000000142e+01,1.074134842417385702e-02
3.564000000000000057e+01,1.281797606409144225e-02
3.567999999999999972e+01,7.418583432684243764e-03
3.571999999999999886e+01,7.140907950986275128e-03
3.575999999999999801e+01,1.475368409556526185e-02
3.579999999999999716e+01,9.629850601935286900e-03
3.584000000000000341e+01,1.045835798347569297e-02
3.588000000000000256e+01,8.933007821580869062e-03
3.592000000000000171e+01,7.822534592818553706e-03
3.596000000000000085e+01,9.895672773756455931e-03
3.600000000000000000e+01,7.399970590547616522e-03
3.603999999999999915e+01,6.426642388311768796e-03
3.607999999999999829e+01,8.083182709340610075e-03
3.611999999999999744e+01,9.600859582615202392e-03
3.615999999999999659e+01,1.084123759972027527e-02
3.620000000000000284e+01,5.159358276326199075e-03
3.624000000000000199e+01,1.165948210938134479e-02
3.628000000000000114e+01,8.745491206072118773e-03
3.632000000000000028e+01,8.046066359104899618e-03
3.635999999999999943e+01,1.149932207790939701e-02
3.639999999999999858e+01,7.891890058897002222e-03
3.643999999999999773e+01,8.852451094774099055e-03
3.647999999999999687e+01,1.133539989214238375e-02
3.652000000000000313e+01,1.187982117403460665e-02
3.656000000000000227e+01,7.993856291811147000e-03
3.660000000000000142e+01,4.522789639884719146e-03
3.664000000000000057e+01,1.032656878716833697e-02
3.667999999999999972e+01,7.546865692969420385e-03
3.671999999999999886e+01,1.016578439021868958e-02
3.675999999999999801e+01,1.167680305577619912e-02
3.679999999999999716e+01,6.819329817208967873e-03
3.684000000000000341e+01,1.026765201339607109e-02
3.688000000000000256e+01,8.870288084093567657e-03
3.692000000000000171e+01,1.079500229226613983e-02
3.696000000000000085e+01,9.812146137153202746e-03
3.700000000000000000e+01,1.159762398030547009e-02
3.703999999999999915e+01,1.421332381784197463e-02
3.707999999999999829e+01,9.906793875915784892e-03
3.711999999999999744e+01,1.141420823675060731e-02
3.715999999999999659e+01,1.181373509363750109e-02
3.720000000000000284e+01,1.069006571578184732e-02
3.724000000000000199e+01,1.136568122451003630e-02
3.728000000000000114e+01,1.148715963237209765e-02
3.732000000000000028e+01,1.119293885333209719e-02
3.735999999999999943e+01,7.991160238750428038e-03
3.739999999999999858e+01,1.323363125895412294e-02
3.743999999999999773e+01,6.016417327077911228e-03
3.747999999999999687e+01,1.333466862788115596e-02
3.752000000000000313e+01,9.992914077618948038e-03
3.756000000000000227e+01,1.315730091658428788e-02
3.760000000000000142e+01,1.078384087405059866e-02
3.764000000000000057e+01,1.422434142034491485e-02
3.767999999999999972e+01,1.018888433403362936e-02
3.771999999999999886e+01,1.127520703615078959e-02
3.775999999999999801e+01,8.623364463332122351e-03
3.779999999999999716e+01,1.123174084568030230e-02
3.784000000000000341e+01,1.287068768243476019e-02
3.788000000000000256e+01,1.284802292042152606e-02
3.792000000000000171e+01,1.213280444074265121e-02
3.796000000000000085e+01,1.543187997662120135e-02
3.800000000000000000e+01,1.679247434967586980e-02
3.803999999999999915e+01,1.192305231580140755e-02
3.807999999999999829e+01,1.189854802294549631e-02
3.811999999999999744e+01,1.187367958224420927e-02
3.815999999999999659e+01,1.115626494052357823e-02
3.820000000000000284e+01,7.946628755092348742e-03
3.824000000000000199e+01,1.276595852913952299e-02
3.828000000000000114e+01,1.232433604123154072e-02
3.832000000000000028e+01,1.354359560362607476e-02
3.835999999999999943e+01,1.462406187363188802e-02
3.839999999999999858e+01,1.307387620260932852e-02
3.843999999999999773e+01,1.290770301783311994e-02
3.847999999999999687e+01,1.149524700947399287e-02
3.852000000000000313e+01,1.395866589432397109e-02
3.856000000000000227e+01,1.046895798069114383e-02
3.860000000000000142e+01,1.694634055816152118e-02
3.864000000000000057e+01,1.553248558604250831e-02
3.867999999999999972e+01,9.411437524470848623e-03
3.871999999999999886e+01,1.311904705113586291e-02
3.875999999999999801e+01,8.935422786534650066e-03
3.879999999999999716e+01,1.734919183951224436e-02
3.884000000000000341e+01,1.344175644870303915e-02
3.888000000000000256e+01,1.493301049915874042e-02
3.892000000000000171e+01,1.116333233204941551e-02
3.896000000000000085e+01,1.334609275651242252e-02
3.900000000000000000e+01,1.718975652844250204e-02
3.903999999999999915e+01,1.840278840373435129e-02
3.907999999999999829e+01,1.463176639493805366e-02
3.911999999999999744e+01,2.041254117974294555e-02
3.915999999999999659e+01,1.691772808912878762e-02
3.920000000000000284e+01,1.549913459342261435e-02
3.924000000000000199e+01,1.892549516919212957e-02
3.928000000000000114e+01,1.972123136496973725e-02
3.932000000000000028e+01,2.134726096327147979e-02
3.935999999999999943e+01,2.228078194378541738e-02
3.939999999999999858e+01,2.113742894738925363e-02
3.943999999999999773e+01,2.207030306254736604e-02
3.947999999999999687e+01,2.743282878225846572e-02
3.952000000000000313e+01,2.684225777007197625e-02
3.956000000000000227e+01,2.777417098300427253e-02
3.960000000000000142e+01,3.258199291405404485e-02
3.964000000000000057e+01,3.351327178937435480e-02
3.967999999999999972e+01,3.762827858241259843e-02
3.971999999999999886e+01,3.523644826266647545e-02
3.975999999999999801e+01,4.253487144210139209e-02
3.979999999999999716e+01,4.097303677407637679e-02
3.984000000000000341e+01,4.827083814364312858e-02
3.988000000000000256e+01,5.127679399055775494e-02
3.992000000000000171e+01,6.231176841347491058e-02
3.996000000000000085e+01,6.254837674337437869e-02
4.000000000000000000e+01,7.330586605623917729e-02
4.003999999999999915e+01,8.946208114082596086e-02
4.007999999999999829e+01,1.132320098289438665e-01
4.011999999999999744e+01,1.354788337348492300e-01
4.015999999999999659e+01,1.722612068093177795e-01
4.020000000000000284e+01,2.327159499436418921e-01
4.024000000000000199e+01,2.996769184030772526e-01
4.028000000000000114e+01,3.955708525531242414e-01
4.032000000000000028e+01,4.965866479219346319e-01
4.035999999999999943e+01,6.497927705667693177e-01
4.039999999999999858e+01,8.132429133999339310e-01
4.043999999999999773e+01,9.318392865207154596e-01
4.047999999999999687e+01,9.917382250629216411e-01
4.052000000000000313e+01,1.000000000000000000e+00
4.056000000000000227e+01,9.108020777309452365e-01
4.060000000000000142e+01,7.900403102348130258e-01
4.064000000000000057e+01,6.439443485179126014e-01
4.067999999999999972e+01,5.114148956273146807e-01
4.071999999999999886e+01,3.851148097727413733e-01
4.075999999999999801e+01,2.984073275536765490e-01
4.079999999999999716e+01,2.247126112744787241e-01
4.084000000000000341e+01,1.850730346887515532e-01
4.088000000000000256e+01,1.414185172221111564e-01
4.092000000000000171e+01,1.272507321352312204e-01
4.096000000000000085e+01,9.619339918234784403e-02
4.100000000000000000e+01,8.216350160770370670e-02
4.103999999999999915e+01,7.256330449581352426e-02
4.107999999999999829e+01,6.033253937877874895e-02
4.111999999999999744e+01,5.903800030596100673e-02
4.115999999999999659e+01,4.611451275621909762e-02
4.120000000000000284e+01,4.592693035170867383e-02
4.124000000000000199e+01,4.075536171292681170e-02
4.128000000000000114e+01,4.181317764901090750e-02
4.132000000000000028e+01,3.304172671473401546e-02
4.135999999999999943e+01,3.216090279514782074e-02
4.139999999999999858e+01,3.155669077759505614e-02
4.143999999999999773e+01,2.735286540153948620e-02
4.147999999999999687e+01,2.564064101210074970e-02
4.152000000000000313e+01,2.669689218443260445e-02
4.156000000000000227e+01,2.110792721041210296e-02
4.160000000000000142e+01,2.465552671843562055e-02
4.164000000000000057e+01,2.404977248706954493e-02
4.167999999999999972e+01,2.053659571979525936e-02
4.171999999999999886e+01,1.813066084388749444e-02
4.175999999999999801e+01,1.973913899710358702e-02
4.179999999999999716e+01,2.065518495176931271e-02
4.184000000000000341e+01,2.115567328303835648e-02
4.188000000000000256e+01,1.874874534227112186e-02
4.192000000000000171e+01,1.731062889555263704e-02
4.196000000000000085e+01,2.113286169253695418e-02
4.200000000000000000e+01,1.803301880130782006e-02
4.203999999999999915e+01,1.687104779077825203e-02
4.207999999999999829e+01,1.792382323610199057e-02
4.211999999999999744e+01,1.357733002462173724e-02
4.215999999999999659e+01,1.822898217283721450e-02
4.220000000000000284e+01,1.485107160719380953e-02
4.224000000000000199e+01,1.617977240991523222e-02
4.228000000000000114e+01,1.418575948477521047e-02
4.232000000000000028e+01,1.523712049927277747e-02
4.235999999999999943e+01,2.016447667332033414e-02
4.239999999999999858e+01,1.415510651239794068e-02
4.243999999999999773e+01,1.631327051345394727e-02
4.247999999999999687e+01,1.376436043862377077e-02
4.252000000000000313e+01,1.522988719563077298e-02
4.256000000000000227e+01,1.558769557323166910e-02
4.260000000000000142e+01,1.165374361683855706e-02
4.264000000000000057e+01,1.865606531008906846e-02
4.267999999999999972e+01,1.375261280946266443e-02
4.271999999999999886e+01,1.521702664476969231e-02
4.275999999999999801e+01,1.446623507502521611e-02
4.279999999999999716e+01,1.509959254393495112e-02
4.284000000000000341e+01,1.863990357735960737e-02
4.288000000000000256e+01,1.179724995386558124e-02
4.292000000000000171e+01,1.464494879872889864e-02
4.296000000000000085e+01,1.195496863386064958e-02
4.300000000000000000e+01,9.126340498432181092e-03
4.303999999999999915e+01,1.114278544804589086e-02
4.307999999999999829e+01,1.302058493264814792e-02
4.311999999999999744e+01,1.503661352739269277e-02
4.315999999999999659e+01,1.262246266579491842e-02
4.320000000000000284e+01,1.297683998249186087e-02
4.324000000000000199e+01,1.485381677955087930e-02
4.328000000000000114e+01,1.396185781286671430e-02
4.332000000000000028e+01,1.556155746042109204e-02
4.335999999999999943e+01,9.823914030522070545e-03
4.339999999999999858e+01,1.239227149037633660e-02
4.343999999999999773e+01,1.454512143780925526e-02
4.347999999999999687e+01,1.226780195109496152e-02
4.352000000000000313e+01,1.400495061557742275e-02
4.356000000000000227e+01,1.629565215428939104e-02
4.360000000000000142e+01,9.726214859107943159e-03
4.364000000000000057e+01,1.160122263151573338e-02
4.367999999999999972e+01,1.306073040814851281e-02
4.371999999999999886e+01,1.064382291203902486e-02
4.375999999999999801e+01,1.154920777782426911e-02
4.379999999999999716e+01,1.203909640615765352e-02
4.384000000000000341e+01,1.114443342148591261e-02
4.388000000000000256e+01,1.537174315249771953e-02
4.392000000000000171e+01,1.461515058512184544e-02
4.396000000000000085e+01,8.044037004994654405e-03
4.400000000000000000e+01,1.227080300765050550e-02
4.403999999999999915e+01,1.026774051953480496e-02
4.407999999999999829e+01,1.338665701097460289e-02
4.411999999999999744e+01,1.484415733645060714e-02
4.415999999999999659e+01,1.325587613684055775e-02
4.420000000000000284e+01,1.083680124395347208e-02
4.424000000000000199e+01,1.229378039101241583e-02
4.428000000000000114e+01,1.444277162342945224e-02
4.432000000000000028e+01,1.382285966423729001e-02
4.435999999999999943e+01,9.049679154313648374e-03
4.439999999999999858e+01,1.216722086993388824e-02
4.443999999999999773e+01,1.279273647464741932e-02
4.447999999999999687e+01,1.660213033000494318e-02
4.452000000000000313e+01,1.501233069502153593e-02
4.456000000000000227e+01,1.286862196410990498e-02
4.460000000000000142e+01,1.293973861383774376e-02
4.464000000000000057e+01,9.272905465823794158e-03
4.467999999999999972e+01,1.155869005611910583e-02
4.471999999999999886e+01,1.273682391682504252e-02
4.475999999999999801e+01,9.623265093353676122e-03
4.479999999999999716e+01,9.139847897962719361e-03
4.484000000000000341e+01,1.322468684008188018e-02
4.488000000000000256e+01,1.107972359969155128e-02
4.492000000000000171e+01,1.447207563068778069e-02
4.496000000000000085e+01,1.260368461305094896e-02
4.500000000000000000e+01,1.322700482617678551e-02
4.503999999999999915e+01,1.315799431547733100e-02
4.507999999999999829e+01,1.405789426800298399e-02
4.511999999999999744e+01,1.121985945607942466e-02
4.515999999999999659e+01,1.516507738289573845e-02
4.520000000000000284e+01,1.149613653750096616e-02
4.524000000000000199e+01,1.225702769617049645e-02
4.528000000000000114e+01,1.537120219383369263e-02
4.532000000000000028e+01,8.656235098574304940e-03
4.535999999999999943e+01,1.080107692377168388e-02
4.539999999999999858e+01,8.931119431561260202e-03
4.543999999999999773e+01,1.342911346394234061e-02
4.547999999999999687e+01,1.266638073375739131e-02
4.552000000000000313e+01,1.398006553683308131e-02
4.556000000000000227e+01,1.141739269478813344e-02
4.560000000000000142e+01,1.771453628984627840e-02
4.564000000000000057e+01,1.764346484391855763e-02
4.567999999999999972e+01,1.328072952762437281e-02
4.571999999999999886e+01,1.320940458749742148e-02
4.575999999999999801e+01,1.313795477943241474e-02
4.579999999999999716e+01,1.749635451427308114e-02
4.584000000000000341e+01,1.963964530768979103e-02
4.588000000000000256e+01,1.818346180056030353e-02
4.592000000000000171e+01,1.714246842015931457e-02
4.596000000000000085e+01,1.651666641926116674e-02
4.600000000000000000e+01,1.810573364610596966e-02
4.603999999999999915e+01,1.817188150134705846e-02
4.607999999999999829e+01,1.837635117203487156e-02
4.611999999999999744e+01,1.941132721689208668e-02
4.615999999999999659e+01,2.446085409605541772e-02
4.620000000000000284e+01,2.424967676259160571e-02
4.624000000000000199e+01,2.666868615708600787e-02
4.628000000000000114e+01,2.396543050569172398e-02
4.632000000000000028e+01,2.569204068327008914e-02
4.635999999999999943e+01,2.880291139642281173e-02
4.639999999999999858e+01,2.997556402937232370e-02
4.643999999999999773e+01,3.419371963772097067e-02
4.647999999999999687e+01,3.924239289520849855e-02
4.652000000000000313e+01,4.719813497245426565e-02
4.656000000000000227e+01,5.556908722081865121e-02
4.660000000000000142e+01,5.937153109024808501e-02
4.664000000000000057e+01,6.455824426467256238e-02
4.667999999999999972e+01,7.929699100705682457e-02
4.671999999999999886e+01,9.182065636905360761e-02
4.675999999999999801e+01,1.071129614062652502e-01
4.679999999999999716e+01,1.221283008252935232e-01
4.684000000000000341e+01,1.532022018992934276e-01
4.688000000000000256e+01,1.720935869983473421e-01
4.692000000000000171e+01,2.066282262743526776e-01
4.696000000000000085e+01,2.418549615715998580e-01
4.700000000000000000e+01,2.698829044550521972e-01
4.703999999999999915e+01,2.927886060953291403e-01
4.707999999999999829e+01,3.066958412318944172e-01
4.711999999999999744e+01,2.987300016268834013e-01
4.715999999999999659e+01,2.860572345205891209e-01
4.720000000000000284e+01,2.708925277448205327e-01
4.724000000000000199e+01,2.418840763347995526e-01
4.728000000000000114e+01,2.178592674650951522e-01
4.732000000000000028e+01,1.812366464173940095e-01
4.735999999999999943e+01,1.495976704155581594e-01
4.739999999999999858e+01,1.258495105973449768e-01
4.743999999999999773e+01,1.083309282812528890e-01
4.747999999999999687e+01,8.430575189060691976e-02
4.752000000000000313e+01,7.620072179090746356e-02
4.756000000000000227e+01,6.657281992503090440e-02
4.760000000000000142e+01,5.763703412478629606e-02
4.764000000000000057e+01,4.800899903105135952e-02
4.767999999999999972e+01,4.433367563370445297e-02
4.771999999999999886e+01,3.968923212603667205e-02
4.775999999999999801e+01,3.975157286959867670e-02
4.779999999999999716e+01,3.441482285031925714e-02
4.784000000000000341e+01,2.644771654476608252e-02
4.788000000000000256e+01,2.471020152185220142e-02
4.792000000000000171e+01,2.574136250461035724e-02
4.796000000000000085e+01,2.511122758774555694e-02
4.800000000000000000e+01,1.977419147785959216e-02
4.803999999999999915e+01,1.859020174386544905e-02
4.807999999999999829e+01,1.962114638188218810e-02
4.811999999999999744e+01,1.719112353590788317e-02
4.815999999999999659e+01,1.545323429440688748e-02
4.820000000000000284e+01,1.551497319967095646e-02
4.824000000000000199e+01,1.266949502402579981e-02
4.828000000000000114e+01,1.383863407972907647e-02
4.832000000000000028e+01,1.279274186602025534e-02
4.835999999999999943e+01,1.230055285946700903e-02
4.839999999999999858e+01,1.623829482615437789e-02
4.843999999999999773e+01,1.450009275201111399e-02
4.847999999999999687e+01,1.331559764334656198e-02
4.852000000000000313e+01,1.143888080222816087e-02
4.856000000000000227e+01,1.053118341570623458e-02
4.860000000000000142e+01,1.211531000964152262e-02
4.864000000000000057e+01,1.231503532349776005e-02
4.867999999999999972e+01,1.099192394885963389e-02
4.871999999999999886e+01,9.115033766829228404e-03
4.875999999999999801e+01,1.111433918825024091e-02
4.879999999999999716e+01,1.505172820924170415e-02
4.884000000000000341e+01,1.414380568428436936e-02
4.888000000000000256e+01,5.760276303548952405e-03
4.892000000000000171e+01,9.559147208742482110e-03
4.896000000000000085e+01,7.958963681551691274e-03
4.900000000000000000e+01,9.127489984941276890e-03
4.903999999999999915e+01,5.866020989822993970e-03
4.907999999999999829e+01,9.387927505334172848e-03
4.911999999999999744e+01,9.864207839782914919e-03
4.915999999999999659e+01,8.540793196650584354e-03
4.920000000000000284e+01,1.026296797034988509e-02
4.924000000000000199e+01,1.046232359439622575e-02
4.928000000000000114e+01,9.554171305132974634e-03
4.932000000000000028e+01,7.953822338903520847e-03
4.935999999999999943e+01,6.491897915620247969e-03
4.939999999999999858e+01,5.860582594005876202e-03
4.943999999999999773e+01,8.136427544679780341e-03
4.947999999999999687e+01,8.474150878778011903e-03
4.952000000000000313e+01,7.565937155023298027e-03
4.956000000000000227e+01,5.273350965000374313e-03
4.960000000000000142e+01,7.133860009070225154e-03
4.964000000000000057e+01,5.810322496954982083e-03
4.967999999999999972e+01,7.670826096153620169e-03
4.971999999999999886e+01,5.239792355198605832e-03
4.975999999999999801e+01,5.162182263968254775e-03
4.979999999999999716e+01,6.330503785719629462e-03
4.984000000000000341e+01,8.467884850847791703e-03
4.988000000000000256e+01,6.867480231678465066e-03
4.992000000000000171e+01,4.990207710727715372e-03
4.996000000000000085e+01,4.774181797425228885e-03
5.000000000000000000e+01,6.080967083355717784e-03
5.003999999999999915e+01,8.079944854155578227e-03
5.007999999999999829e+01,9.940496395461196830e-03
5.011999999999999744e+01,9.170763058632977124e-03
5.015999999999999659e+01,6.324492741203958587e-03
5.020000000000000284e+01,7.354463127104146972e-03
5.024000000000000199e+01,8.938195600555988093e-03
5.028000000000000114e+01,4.292295016040175923e-03
5.032000000000000028e+01,8.644795357194407989e-03
5.035999999999999943e+01,5.521735195222778753e-03
5.039999999999999858e+01,5.721175355693623212e-03
5.043999999999999773e+01,8.966243769002025729e-03
5.047999999999999687e+01,9.165728595577014512e-03
5.052000000000000313e+01,7.150251055331008701e-03
5.056000000000000227e+01,8.041968865056021640e-03
5.060000000000000142e+01,2.980936961387777549e-03
5.064000000000000057e+01,6.918316005584675826e-03
5.067999999999999972e+01,9.886667644765076424e-03
5.071999999999999886e+01,6.902273328875416052e-03
5.075999999999999801e+01,4.886967370173361455e-03
5.079999999999999716e+01,6.332610922847289707e-03
5.084000000000000341e+01,9.854838627774942586e-03
5.088000000000000256e+01,8.254945355868051685e-03
5.092000000000000171e+01,6.239778840349629804e-03
5.096000000000000085e+01,6.162763574218435743e-03
5.100000000000000000e+01,7.331717504300476126e-03
5.103999999999999915e+01,7.670091965525161967e-03
5.107999999999999829e+01,7.177888210666896578e-03
5.111999999999999744e+01,7.793220749155350610e-03
5.115999999999999659e+01,8.408597544247593467e-03
5.120000000000000284e+01,5.978413302545356953e-03
5.124000000000000199e+01,6.870755691547678588e-03
5.128000000000000114e+01,8.040019417856290179e-03
5.132000000000000028e+01,7.132782494021191848e-03
5.135999999999999943e+01,8.302146008506844366e-03
5.139999999999999858e+01,6.702828072449235931e-03
5.143999999999999773e+01,7.595423063830110920e-03
5.147999999999999687e+01,4.888719143078545243e-03
5.152000000000000313e+01,8.273283846245534784e-03
5.156000000000000227e+01,6.951058853311478311e-03
5.160000000000000142e+01,6.044201881068476771e-03
5.164000000000000057e+01,7.490827438946178266e-03
5.167999999999999972e+01,5.338160348563333359e-03
5.171999999999999886e+01,8.307711517643340260e-03
5.175999999999999801e+01,8.508592511149541682e-03
5.179999999999999716e+01,4.141127986390697943e-03
5.184000000000000341e+01,6.280252091314515901e-03
5.188000000000000256e+01,7.727259696832676841e-03
5.192000000000000171e+01,8.066842072150599147e-03
5.196000000000000085e+01,4.945577229818321971e-03
5.200000000000000000e+01,4.869989498524612999e-03
5.203999999999999915e+01,8.393826775802424103e-03
5.207999999999999829e+01,6.103397353528873699e-03
5.211999999999999744e+01,6.581775478237686210e-03
5.215999999999999659e+01,8.306159129616855902e-03
5.220000000000000284e+01,4.077843178578155134e-03
5.224000000000000199e+01,6.079255062586624674e-03
5.228000000000000114e+01,7.803872958502293920e-03
5.232000000000000028e+01,6.344528234116544180e-03
5.235999999999999943e+01,7.100251928600780603e-03
5.239999999999999858e+01,5.225762153091059910e-03
5.243999999999999773e+01,8.473513186983062939e-03
5.247999999999999687e+01,7.983559966912535596e-03
5.252000000000000313e+01,5.694017002309217923e-03
5.256000000000000227e+01,8.803591927810093878e-03
5.260000000000000142e+01,4.576113166740261064e-03
5.264000000000000057e+01,9.070234669875443245e-03
5.267999999999999972e+01,1.010353150529933082e-02
5.271999999999999886e+01,6.983821619837973782e-03
5.275999999999999801e+01,6.632939325749110868e-03
5.279999999999999716e+01,7.251209280341476375e-03
5.284000000000000341e+01,5.377716206647734781e-03
5.288000000000000256e+01,8.349604400494627099e-03
5.292000000000000171e+01,8.414422088035229674e-03
5.296000000000000085e+01,7.371847117509548915e-03
5.300000000000000000e+01,7.298430659536991709e-03
5.303999999999999915e+01,8.055737305702284981e-03
5.307999999999999829e+01,6.459725101417455526e-03
5.311999999999999744e+01,7.770988424664225167e-03
5.315999999999999659e+01,7.005808725389030614e-03
5.320000000000000284e+01,5.963863851831839244e-03
5.324000000000000199e+01,8.106071586508738561e-03
5.328000000000000114e+01,8.587150040555787886e-03
5.332000000000000028e+01,6.853353821988722276e-03
5.335999999999999943e+01,4.842797440237209781e-03
5.339999999999999858e+01,6.985455306144975479e-03
5.343999999999999773e+01,7.605425563710129649e-03
5.347999999999999687e+01,8.917696044741643679e-03
5.352000000000000313e+01,6.492294843944619066e-03
5.356000000000000227e+01,9.189169530232106989e-03
5.360000000000000142e+01,7.456191734291454064e-03
5.364000000000000057e+01,7.938322446001065333e-03
5.367999999999999972e+01,7.589956371962660459e-03
5.371999999999999886e+01,8.902954666364643402e-03
5.375999999999999801e+01,1.035451530889503272e-02
5.379999999999999716e+01,8.068413039017549582e-03
5.384000000000000341e+01,6.613058928765609343e-03
5.388000000000000256e+01,8.203440809948213744e-03
5.392000000000000171e+01,6.056163537046103593e-03
5.396000000000000085e+01,8.200554711834355873e-03
5.400000000000000000e+01,6.053542593327966050e-03
5.403999999999999915e+01,7.090708138543357596e-03
5.407999999999999829e+01,5.497712830288899351e-03
5.411999999999999744e+01,8.750137625581001777e-03
5.415999999999999659e+01,7.849600799865684084e-03
5.420000000000000284e+01,4.318906879003665822e-03
5.424000000000000199e+01,9.371426672132369268e-03
5.428000000000000114e+01,8.332875345921459884e-03
5.432000000000000028e+01,7.986650551438993079e-03
5.435999999999999943e+01,7.640570235511076093e-03
5.439999999999999858e+01,7.433072312101689748e-03
5.443999999999999773e+01,8.333214662312913093e-03
5.447999999999999687e+01,8.679758604643129927e-03
5.452000000000000313e+01,8.888015375435763185e-03
5.456000000000000227e+01,9.927042855792791304e-03
5.460000000000000142e+01,1.179684229848863494e-02
5.464000000000000057e+01,9.375258492280040545e-03
5.467999999999999972e+01,6.676955864441676269e-03
5.471999999999999886e+01,8.824092131765605765e-03
5.475999999999999801e+01,6.679848908508242977e-03
5.479999999999999716e+01,1.201134364856558737e-02
5.484000000000000341e+01,5.437445038158724396e-03
5.488000000000000256e+01,7.031470202563716403e-03
5.492000000000000171e+01,8.210347400795561454e-03
5.496000000000000085e+01,7.728147934921688125e-03
5.500000000000000000e+01,1.167608615006178636e-02
5.503999999999999915e+01,1.091734366047229440e-02
5.507999999999999829e+01,1.043564152175552665e-02
5.511999999999999744e+01,9.954107664306582198e-03
5.515999999999999659e+01,8.918996696141174435e-03
5.520000000000000284e+01,6.914999886464655819e-03
5.524000000000000199e+01,8.510528307310414806e-03
5.528000000000000114e+01,1.024466668171121302e-02
5.532000000000000028e+01,9.348683038648037888e-03
5.535999999999999943e+01,9.560368483016314090e-03
5.539999999999999858e+01,8.249427704986754886e-03
5.543999999999999773e+01,8.599905164696103679e-03
5.547999999999999687e+01,1.130398542086700348e-02
5.552000000000000313e+01,8.747653360842225223e-03
5.556000000000000227e+01,1.145209648781083528e-02
5.560000000000000142e+01,1.097267972197750290e-02
5.564000000000000057e+01,1.298530742489295391e-02
5.567999999999999972e+01,8.630034533192974117e-03
5.571999999999999886e+01,9.397105178394180719e-03
5.575999999999999801e+01,1.141029409996034173e-02
5.579999999999999716e+01,1.093181269854484085e-02
5.584000000000000341e+01,9.622902161198087015e-03
5.588000000000000256e+01,9.560113658539393447e-03
5.592000000000000171e+01,8.943771847877517861e-03
5.596000000000000085e+01,1.095792118934921754e-02
5.600000000000000000e+01,9.372913182193812198e-03
5.603999999999999915e+01,8.480285576065364414e-03
5.607999999999999829e+01,9.525969574445307744e-03
5.611999999999999744e+01,1.071028983464228194e-02
5.615999999999999659e+01,1.120262764229272914e-02
5.620000000000000284e+01,1.031080094422271234e-02
5.624000000000000199e+01,9.834487588672219741e-03
5.628000000000000114e+01,8.943068861277672643e-03
5.632000000000000028e+01,1.095902588336544747e-02
5.635999999999999943e+01,1.089864010488195839e-02
5.639999999999999858e+01,1.208439264715352977e-02
5.643999999999999773e+01,9.532564960126575782e-03
5.647999999999999687e+01,9.888118033679522273e-03
5.652000000000000313e+01,1.079762988036235376e-02
5.656000000000000227e+01,1.129204512462179781e-02
5.660000000000000142e+01,1.178667500280129211e-02
5.664000000000000057e+01,9.235914221502499952e-03
5.667999999999999972e+01,1.180752704369014694e-02
5.671999999999999886e+01,9.118765132913627183e-03
5.675999999999999801e+01,9.752702735706688525e-03
5.679999999999999716e+01,1.343246778246430344e-02
5.684000000000000341e+01,9.221565291977250681e-03
5.688000000000000256e+01,1.151740928074524925e-02
5.692000000000000171e+01,9.245068106369311312e-03
5.696000000000000085e+01,1.001855938705551417e-02
5.700000000000000000e+01,1.342257439200924760e-02
5.703999999999999915e+01,1.032029473548688042e-02
5.707999999999999829e+01,1.095603459829812103e-02
5.711999999999999744e+01,1.062294875276870859e-02
5.715999999999999659e+01,1.015165841881104057e-02
5.720000000000000284e+01,1.355682802369977819e-02
5.724000000000000199e+01,8.932905957898026189e-03
5.728000000000000114e+01,9.431376287198492414e-03
5.732000000000000028e+01,1.034539378392685012e-02
5.735999999999999943e+01,1.001371976658152821e-02
5.739999999999999858e+01,1.009759542221293389e-02
5.743999999999999773e+01,9.074218730509037156e-03
5.747999999999999687e+01,8.743267539709945885e-03
5.752000000000000313e+01,1.242722297114204691e-02
5.756000000000000227e+01,1.029708333311336356e-02
5.760000000000000142e+01,1.107435953334729058e-02
5.764000000000000057e+01,1.088282631130754394e-02
5.767999999999999972e+01,1.262965480475153855e-02
5.771999999999999886e+01,1.174643644719460499e-02
5.775999999999999801e+01,1.141721569877347971e-02
5.779999999999999716e+01,1.302636042415924837e-02
5.784000000000000341e+01,1.228233537924658045e-02
5.788000000000000256e+01,1.056950842870654945e-02
5.792000000000000171e+01,1.204098066100356065e-02
5.796000000000000085e+01,1.240521683203226443e-02
5.800000000000000000e+01,9.031921631963452102e-03
5.803999999999999915e+01,1.064260596852044556e-02
5.807999999999999829e+01,1.253042461402902735e-02
5.811999999999999744e+01,1.372632219293586781e-02
5.815999999999999659e+01,1.256906002373934898e-02
5.820000000000000284e+01,1.418079582323156923e-02
5.824000000000000199e+01,1.094751447875518847e-02
5.828000000000000114e+01,1.131385357565426776e-02
5.832000000000000028e+01,1.527981436670323469e-02
5.835999999999999943e+01,1.370857846615842687e-02
5.839999999999999858e+01,1.282979688032924448e-02
5.843999999999999773e+01,1.084379426652439318e-02
5.847999999999999687e+01,1.314960166391528247e-02
5.852000000000000313e+01,1.088727400913761661e-02
5.856000000000000227e+01,1.291675887110443031e-02
5.860000000000000142e+01,1.286997108786550222e-02
5.864000000000000057e+01,1.448470176431612688e-02
5.867999999999999972e+01,1.333097899516139974e-02
5.871999999999999886e+01,1.550001712552105497e-02
5.875999999999999801e+01,1.310092772035843789e-02
5.879999999999999716e+01,1.180961514122430903e-02
5.884000000000000341e+01,1.508699717063466048e-02
5.888000000000000256e+01,1.614967866307028682e-02
5.892000000000000171e+01,1.333642093702949900e-02
5.896000000000000085e+01,1.716841149570137726e-02
5.900000000000000000e+01,1.560166206835935342e-02
5.903999999999999915e+01,1.209709043751940223e-02
5.907999999999999829e+01,1.066936103045625778e-02
5.911999999999999744e+01,1.436408164611701309e-02
5.915999999999999659e+01,1.390599723756832419e-02
5.920000000000000284e+01,1.607850545587829333e-02
5.924000000000000199e+01,1.146791459292395739e-02
5.928000000000000114e+01,1.737880855018799145e-02
5.932000000000000028e+01,1.692191591530549724e-02
5.935999999999999943e+01,1.826500095124118303e-02
5.939999999999999858e+01,1.559372514080345842e-02
5.943999999999999773e+01,1.624523277981896122e-02
5.947999999999999687e+01,1.689704525251013376e-02
5.952000000000000313e+01,1.450355726547871565e-02
5.956000000000000227e+01,1.667878643693069401e-02
5.960000000000000142e+01,1.871588753919181322e-02
5.964000000000000057e+01,1.521583203863950337e-02
5.967999999999999972e+01,1.600762413251438990e-02
5.971999999999999886e+01,1.735347522146991547e-02
5.975999999999999801e+01,1.551559670615946206e-02
5.979999999999999716e+01,1.478552633623710089e-02
5.984000000000000341e+01,1.544013868685648223e-02
5.988000000000000256e+01,1.775630833317141596e-02
5.992000000000000171e+01,1.605813341917987358e-02
5.996000000000000085e+01,1.519089833929457463e-02
