2.003999999999999915e+01,3.839105316876954138e-02
2.007999999999999829e+01,3.174981685127324649e-02
2.012000000000000099e+01,2.056320508276021294e-02
2.016000000000000014e+01,3.777894530322883221e-02
2.019999999999999929e+01,6.663914184225931681e-02
2.023999999999999844e+01,5.573397891817554600e-02
2.028000000000000114e+01,7.834374672341587464e-02
2.032000000000000028e+01,6.005202677948662943e-02
2.035999999999999943e+01,3.607880358285463912e-02
2.039999999999999858e+01,4.618857574293910861e-02
2.044000000000000128e+01,6.510248362753680296e-02
2.048000000000000043e+01,5.447618952970853523e-02
2.051999999999999957e+01,6.072761740820622166e-03
2.055999999999999872e+01,2.725634630044876383e-02
2.060000000000000142e+01,5.298358508806234879e-02
2.064000000000000057e+01,7.700577131944397191e-02
2.067999999999999972e+01,4.223244657172845612e-02
2.071999999999999886e+01,8.017048810954760518e-02
2.076000000000000156e+01,3.119383783656304657e-02
2.080000000000000071e+01,2.311695530063332185e-02
2.083999999999999986e+01,4.798694092518419885e-02
2.087999999999999901e+01,4.360075791027958475e-02
2.092000000000000171e+01,4.773467994092201599e-02
2.096000000000000085e+01,3.425775098873028168e-02
2.100000000000000000e+01,7.105365073701189194e-02
2.103999999999999915e+01,2.065082739006778370e-02
2.107999999999999829e+01,3.585856811699147939e-02
2.112000000000000099e+01,5.078141840107388422e-02
2.116000000000000014e+01,6.485131409928689139e-02
2.119999999999999929e+01,2.410215024141993193e-02
2.123999999999999844e+01,6.969789658212745265e-02
2.128000000000000114e+01,8.092489711721974344e-02
2.132000000000000028e+01,4.613783455334965339e-02
2.135999999999999943e+01,6.503198736448642658e-02
2.139999999999999858e+01,4.112253603764205907e-03
2.144000000000000128e+01,7.100612192775639098e-02
2.148000000000000043e+01,4.928110782822793523e-02
2.151999999999999957e+01,5.112990358976571975e-02
2.155999999999999872e+01,4.303671775044178027e-02
2.160000000000000142e+01,6.135766333496124603e-02
2.164000000000000057e+01,2.400745429922420890e-02
2.167999999999999972e+01,9.288440603822768760e-02
2.171999999999999886e+01,5.950893374140178715e-02
2.176000000000000156e+01,5.283162548484288124e-02
2.180000000000000071e+01,5.552652133401416584e-02
2.183999999999999986e+01,7.469442471149315144e-02
2.187999999999999901e+01,8.083768196957401633e-03
2.192000000000000171e+01,2.753399180748514891e-02
2.196000000000000085e+01,3.505401010364601194e-02
2.200000000000000000e+01,6.103526133689562289e-02
2.203999999999999915e+01,4.071841951876294802e-02
2.207999999999999829e+01,6.186941357671944114e-02
2.212000000000000099e+01,6.228520671082939109e-02
2.216000000000000014e+01,7.434546209696511754e-02
2.219999999999999929e+01,1.454473303072892354e-02
2.223999999999999844e+01,4.336117424682107285e-02
2.228000000000000114e+01,5.541886487226378027e-02
2.232000000000000028e+01,5.299006208462372219e-02
2.235999999999999943e+01,8.095184287039114412e-02
2.239999999999999858e+01,7.624907403345120016e-02
2.244000000000000128e+01,6.586480824054609384e-02
2.248000000000000043e+01,6.797710206457388549e-02
2.251999999999999957e+01,2.634759347884810254e-02
2.255999999999999872e+01,6.765461350298923593e-02
2.260000000000000142e+01,8.851046618843669278e-02
2.264000000000000057e+01,5.284307088472688790e-02
2.267999999999999972e+01,7.966189104587459435e-02
2.271999999999999886e+01,7.722454813775776750e-02
2.276000000000000156e+01,9.324844046746066928e-02
2.280000000000000071e+01,3.258280391614742227e-02
2.283999999999999986e+01,4.548063646437622981e-02
2.287999999999999901e+01,5.667342323747467936e-02
2.292000000000000171e+01,6.104858597946356130e-02
2.296000000000000085e+01,4.468855034051887054e-02
2.300000000000000000e+01,5.019813625065434187e-02
2.303999999999999915e+01,2.900784924878937326e-02
2.307999999999999829e+01,6.433910414944404854e-02
2.312000000000000099e+01,4.002275906138039185e-02
2.316000000000000014e+01,6.512715281653132238e-02
2.319999999999999929e+01,4.194523210752564707e-02
2.323999999999999844e+01,3.523632316501666695e-02
2.328000000000000114e+01,3.307107656359693088e-02
2.332000000000000028e+01,5.930819151735453043e-02
2.335999999999999943e+01,6.168575584843548343e-02
2.339999999999999858e+01,4.986086216795323350e-02
2.344000000000000128e+01,3.746705293585420732e-02
2.348000000000000043e+01,5.461173427153458854e-02
2.351999999999999957e+01,2.261800571560890552e-02
2.355999999999999872e+01,3.550050310085682559e-02
2.360000000000000142e+01,3.900908932500869036e-02
2.364000000000000057e+01,5.302601375331901512e-02
2.367999999999999972e+01,1.932468943468453743e-02
2.371999999999999886e+01,4.157684469190858073e-02
2.376000000000000156e+01,3.485687216029621782e-02
2.380000000000000071e+01,5.284684492018094926e-02
2.383999999999999986e+01,4.555710785018478315e-02
2.387999999999999901e+01,4.479925986206124283e-02
2.392000000000000171e+01,5.511781518985275907e-02
2.396000000000000085e+01,5.975487816314118544e-02
2.400000000000000000e+01,7.632044109070552917e-02
2.403999999999999915e+01,5.170049539851345050e-02
2.407999999999999829e+01,5.747113848664583968e-02
2.412000000000000099e+01,4.506287589402248328e-02
2.416000000000000014e+01,7.440648760628508496e-02
2.419999999999999929e+01,7.080152301288064609e-02
2.423999999999999844e+01,5.924280985613494116e-02
2.428000000000000114e+01,7.608646116075298838e-02
2.432000000000000028e+01,7.049072540917819540e-02
2.435999999999999943e+01,7.227897658874764264e-02
2.439999999999999858e+01,6.750764088908097274e-03
2.444000000000000128e+01,2.586327868257432688e-02
2.448000000000000043e+01,5.690429468360987120e-02
2.451999999999999957e+01,6.436979570567019637e-02
2.455999999999999872e+01,4.598752481337051168e-02
2.460000000000000142e+01,4.407826980466506700e-02
2.464000000000000057e+01,5.949412719682355133e-02
2.467999999999999972e+01,5.048237369819272291e-02
2.471999999999999886e+01,5.510331512583455799e-02
2.476000000000000156e+01,7.477711226113775700e-02
2.480000000000000071e+01,5.468556373771276541e-02
2.483999999999999986e+01,5.277122461678562804e-02
2.487999999999999901e+01,5.454845628441369609e-02
2.492000000000000171e+01,2.394517809013365153e-02
2.496000000000000085e+01,4.645506190494109316e-02
2.500000000000000000e+01,2.806347213823809708e-02
2.503999999999999915e+01,6.761359086781629224e-02
2.507999999999999829e+01,6.711433265424451844e-02
2.512000000000000099e+01,7.996373844579698908e-02
2.516000000000000014e+01,6.185279576228550763e-02
2.519999999999999929e+01,7.271228458935202754e-02
2.523999999999999844e+01,1.023170482939463194e-01
2.528000000000000114e+01,4.756342305956699074e-02
2.532000000000000028e+01,7.887068824299524328e-02
2.535999999999999943e+01,4.996229595468808932e-02
2.539999999999999858e+01,3.610676131149971602e-02
2.544000000000000128e+01,6.911568322518375773e-02
2.548000000000000043e+01,5.866684382191518499e-02
2.551999999999999957e+01,6.809940867205002690e-02
2.555999999999999872e+01,5.424049382363789473e-02
2.560000000000000142e+01,8.355361829968918630e-02
2.564000000000000057e+01,4.782253990663132281e-02
2.567999999999999972e+01,2.913254493074660806e-02
2.571999999999999886e+01,3.685669385108904239e-02
2.576000000000000156e+01,6.020176577048922534e-02
2.580000000000000071e+01,7.474099745292279995e-02
2.583999999999999986e+01,3.588134428614173088e-02
2.587999999999999901e+01,6.518855891269637048e-02
2.592000000000000171e+01,9.051847991056866105e-02
2.596000000000000085e+01,4.853194195158532648e-02
2.600000000000000000e+01,6.562324392330740053e-02
2.603999999999999915e+01,3.613243282069790452e-02
2.607999999999999829e+01,5.208591955212096142e-02
2.612000000000000099e+01,4.872437812910529464e-02
2.616000000000000014e+01,6.581230716106960255e-02
2.619999999999999929e+01,7.267423650668078383e-02
2.623999999999999844e+01,7.101435907938713488e-02
2.628000000000000114e+01,6.026461073616044134e-02
2.632000000000000028e+01,5.945514444607735011e-02
2.635999999999999943e+01,4.841967895400564603e-02
2.639999999999999858e+01,1.664902549483539967e-02
2.644000000000000128e+01,4.935282380750299902e-02
2.648000000000000043e+01,6.302562718761139937e-02
2.651999999999999957e+01,6.732452824627394028e-02
2.655999999999999872e+01,4.861598476572655952e-02
2.660000000000000142e+01,6.313835901483823287e-02
2.664000000000000057e+01,4.442813221278069796e-02
2.667999999999999972e+01,4.758753810018511582e-02
2.671999999999999886e+01,7.545689811873743102e-02
2.676000000000000156e+01,5.219963312964621960e-02
2.680000000000000071e+01,3.973474804297048857e-02
2.683999999999999986e+01,7.356625948723663488e-02
2.687999999999999901e+01,6.536017451303630099e-02
2.692000000000000171e+01,8.924887970898573442e-02
2.696000000000000085e+01,5.661434999361733555e-02
2.700000000000000000e+01,6.516363891648456474e-02
2.703999999999999915e+01,6.462305922414983417e-02
2.707999999999999829e+01,5.925309301859650601e-02
2.712000000000000099e+01,8.001324281539949623e-02
2.716000000000000014e+01,5.873579704137370239e-02
2.719999999999999929e+01,8.091442756751483778e-02
2.723999999999999844e+01,8.718641891448199177e-02
2.728000000000000114e+01,8.209628531631819881e-02
2.732000000000000028e+01,7.728934430855283200e-02
2.735999999999999943e+01,9.065962033202487613e-02
2.739999999999999858e+01,7.051326547299935354e-02
2.744000000000000128e+01,5.065010356764595295e-02
2.748000000000000043e+01,8.418414343217917040e-02
2.751999999999999957e+01,7.227220323098974830e-02
2.755999999999999872e+01,8.222989838326655310e-02
2.760000000000000142e+01,6.974821640882114537e-02
2.764000000000000057e+01,7.544375231325071984e-02
2.767999999999999972e+01,8.625102814291026043e-02
2.771999999999999886e+01,1.047263332074261366e-01
2.776000000000000156e+01,7.860775532894449802e-02
2.780000000000000071e+01,1.158275048111603311e-01
2.783999999999999986e+01,5.732758782185378571e-02
2.787999999999999901e+01,1.110195251496579466e-01
2.792000000000000171e+01,1.084722626043902877e-01
2.796000000000000085e+01,1.138770621525850707e-01
2.800000000000000000e+01,1.178608635573705488e-01
2.803999999999999915e+01,1.388857555237043295e-01
2.807999999999999829e+01,1.181570868363639865e-01
2.812000000000000099e+01,1.212862801221817055e-01
2.816000000000000014e+01,1.545220424075572641e-01
2.819999999999999929e+01,1.741234254764212064e-01
2.823999999999999844e+01,9.828917541673314051e-02
2.828000000000000114e+01,1.363509736774238812e-01
2.832000000000000028e+01,7.471665707085280161e-02
2.835999999999999943e+01,1.391917707054003972e-01
2.839999999999999858e+01,1.522562321649806316e-01
2.844000000000000128e+01,1.681601787940457948e-01
2.848000000000000043e+01,1.286770236414929158e-01
2.851999999999999957e+01,1.053828641074031069e-01
2.855999999999999872e+01,1.102070498593657327e-01
2.860000000000000142e+01,1.209950747178320241e-01
2.864000000000000057e+01,1.289419427100492732e-01
2.867999999999999972e+01,9.570331612907814756e-02
2.871999999999999886e+01,1.360281764480413269e-01
2.876000000000000156e+01,1.107407790788827312e-01
2.880000000000000071e+01,9.652979979875414562e-02
2.883999999999999986e+01,9.964394563405541694e-02
2.887999999999999901e+01,1.027572566502489154e-01
2.892000000000000171e+01,1.129705362699129773e-01
2.896000000000000085e+01,1.177863708035213758e-01
2.900000000000000000e+01,8.397300092120574266e-02
2.903999999999999915e+01,1.041249017954487543e-01
2.907999999999999829e+01,1.092222654568870827e-01
2.912000000000000099e+01,1.069339595922176311e-01
2.916000000000000014e+01,1.208346512834688052e-01
2.919999999999999929e+01,8.957340012688336239e-02
2.923999999999999844e+01,8.302211073018538057e-02
2.928000000000000114e+01,8.413885529089669413e-02
2.932000000000000028e+01,7.588170600653962317e-02
2.935999999999999943e+01,2.927938552813788217e-02
2.939999999999999858e+01,6.760183929059833396e-02
2.944000000000000128e+01,7.524798966680240619e-02
2.948000000000000043e+01,4.625316200459220900e-02
2.951999999999999957e+01,7.548408853292595810e-02
2.955999999999999872e+01,6.154129822765942032e-02
2.960000000000000142e+01,1.009957161101080053e-01
2.964000000000000057e+01,5.012708347926408264e-02
2.967999999999999972e+01,4.953130582566325074e-02
2.971999999999999886e+01,7.819000549799476341e-02
2.976000000000000156e+01,5.629015350863476874e-02
2.980000000000000071e+01,8.721944604832658487e-02
2.983999999999999986e+01,8.633630788443509563e-02
2.987999999999999901e+01,6.471799228837120388e-02
2.992000000000000171e+01,4.991561619099590258e-02
2.996000000000000085e+01,5.556272205225572941e-02
3.000000000000000000e+01,5.922077156054243036e-02
3.003999999999999915e+01,6.941072879873157186e-02
3.007999999999999829e+01,2.392955696688739420e-02
3.012000000000000099e+01,3.610607687783497916e-02
3.016000000000000014e+01,5.879095473079116313e-02
3.019999999999999929e+01,6.045662398824445949e-02
3.023999999999999844e+01,9.279693280611168993e-02
3.028000000000000114e+01,5.270821736789177425e-02
3.032000000000000028e+01,6.743687295732422871e-02
3.035999999999999943e+01,5.376148500207150738e-02
3.039999999999999858e+01,3.014414220709125264e-02
3.044000000000000128e+01,5.339127110537112558e-02
3.048000000000000043e+01,8.004595561290142602e-02
3.051999999999999957e+01,2.745484542146334889e-02
3.055999999999999872e+01,4.587093851161495178e-02
3.060000000000000142e+01,4.355185634923406518e-02
3.064000000000000057e+01,5.486548703460934762e-02
3.067999999999999972e+01,5.396490667141891351e-02
3.071999999999999886e+01,6.783316792640464721e-02
3.076000000000000156e+01,4.420835862171294123e-02
3.080000000000000071e+01,3.932884102621250072e-02
3.083999999999999986e+01,6.143154709071938641e-02
3.087999999999999901e+01,3.325973701614527711e-02
3.092000000000000171e+01,6.104142831382818046e-02
3.096000000000000085e+01,3.769650731843366548e-02
3.100000000000000000e+01,4.587832458036286004e-02
3.103999999999999915e+01,4.923076731709274956e-02
3.107999999999999829e+01,6.593189210152150537e-02
3.112000000000000099e+01,4.371978675579518692e-02
3.116000000000000014e+01,6.496376969825516656e-02
3.119999999999999929e+01,5.780371163894313519e-02
3.123999999999999844e+01,2.564799828366410780e-02
3.128000000000000114e+01,3.126773093865494596e-02
3.132000000000000028e+01,5.478066048084308942e-02
3.135999999999999943e+01,5.102567803386155038e-02
3.139999999999999858e+01,4.244132215150065585e-02
3.144000000000000128e+01,6.651983438670348858e-02
3.148000000000000043e+01,1.958948665884960999e-02
3.151999999999999957e+01,5.985617664616238454e-02
3.155999999999999872e+01,2.968207117671954609e-02
3.160000000000000142e+01,2.507003100771768023e-02
3.164000000000000057e+01,6.448214484411435299e-02
3.167999999999999972e+01,3.118120653055284422e-02
3.171999999999999886e+01,6.093457531255752624e-02
3.176000000000000156e+01,3.359665945005781140e-02
3.180000000000000071e+01,5.937192630322449954e-02
3.183999999999999986e+01,4.651799733793547664e-02
3.187999999999999901e+01,2.372211801328972039e-02
3.192000000000000171e+01,2.790846561811122228e-02
3.196000000000000085e+01,1.988060604928230946e-02
3.200000000000000000e+01,3.088207395443735501e-02
3.203999999999999915e+01,2.484078868311285701e-02
3.207999999999999829e+01,4.691785935385799078e-02
3.211999999999999744e+01,6.615378369328010766e-02
3.215999999999999659e+01,6.238228044624691965e-02
3.220000000000000284e+01,4.156802450709876084e-02
3.224000000000000199e+01,4.347551448525445450e-02
3.228000000000000114e+01,2.294364150434707178e-02
3.232000000000000028e+01,3.791496062560254648e-02
3.235999999999999943e+01,1.823353535141941997e-02
3.239999999999999858e+01,4.144013785512785930e-02
3.243999999999999773e+01,4.021915295972131738e-02
3.247999999999999687e+01,1.911509489924272456e-02
3.252000000000000313e+01,2.442520132047893908e-02
3.256000000000000227e+01,4.194786574154689418e-02
3.260000000000000142e+01,5.009664624701699182e-02
3.264000000000000057e+01,2.586494026116206366e-02
3.267999999999999972e+01,7.881117865163055763e-03
3.271999999999999886e+01,4.215838457374738307e-02
3.275999999999999801e+01,3.098968707954379356e-02
3.279999999999999716e+01,4.595112278263339262e-02
3.284000000000000341e+01,4.983448250431474214e-02
3.288000000000000256e+01,3.411880240389450480e-02
3.292000000000000171e+01,6.015502312731229456e-02
3.296000000000000085e+01,5.437882259225292059e-02
3.300000000000000000e+01,1.224568680685562787e-02
3.303999999999999915e+01,2.436186601918703676e-02
3.307999999999999829e+01,6.686866125734149124e-02
3.311999999999999744e+01,5.398836876044602745e-02
3.315999999999999659e+01,6.496595349418769760e-02
3.320000000000000284e+01,4.782353541277208769e-02
3.324000000000000199e+01,5.965157318124664904e-02
3.328000000000000114e+01,4.392767264086503559e-02
3.332000000000000028e+01,2.791891859042889071e-02
3.335999999999999943e+01,2.327062856546809749e-02
3.339999999999999858e+01,2.799457776265748890e-02
3.343999999999999773e+01,3.243367381306561104e-02
3.347999999999999687e+01,3.119130632865342589e-02
3.352000000000000313e+01,2.455150756257151040e-02
3.356000000000000227e+01,7.117667126780764970e-03
3.360000000000000142e+01,2.461895840394927315e-02
3.364000000000000057e+01,5.035636110157641621e-02
3.367999999999999972e+01,1.360587445794214125e-02
3.371999999999999886e+01,4.047776522854822784e-02
3.375999999999999801e+01,4.604642604870005929e-02
3.379999999999999716e+01,7.490490177282771445e-02
3.384000000000000341e+01,1.344033969822883839e-02
3.388000000000000256e+01,1.872250897488912658e-02
3.392000000000000171e+01,5.439529682028561991e-02
3.396000000000000085e+01,3.865744932237819009e-02
3.400000000000000000e+01,2.263475037296494574e-02
3.403999999999999915e+01,3.444638116702603003e-02
3.407999999999999829e+01,1.899010820611248679e-02
3.411999999999999744e+01,2.369929766524936018e-02
3.415999999999999659e+01,1.619428661074654233e-02
3.420000000000000284e+01,4.618069827410482830e-02
3.424000000000000199e+01,2.646066823415378633e-02
3.428000000000000114e+01,3.400690440010467608e-02
3.432000000000000028e+01,2.706668348030438070e-02
3.435999999999999943e+01,3.375918666973298093e-02
3.439999999999999858e+01,2.255684743087884095e-02
3.443999999999999773e+01,4.316528899524282176e-02
3.447999999999999687e+01,4.133437426055451558e-02
3.452000000000000313e+01,3.723038472412837363e-02
3.456000000000000227e+01,4.533895924208918710e-02
3.460000000000000142e+01,6.026348742639797001e-02
3.464000000000000057e+01,7.871582930620431642e-03
3.467999999999999972e+01,3.784817947119567538e-02
3.471999999999999886e+01,2.408301053480406406e-02
3.475999999999999801e+01,3.786814138946704295e-02
3.479999999999999716e+01,4.426761991295924403e-02
3.484000000000000341e+01,3.220419307605181664e-02
3.488000000000000256e+01,2.752478501724909057e-02
3.492000000000000171e+01,2.994536372558255846e-02
3.496000000000000085e+01,3.719367226566740181e-02
3.500000000000000000e+01,1.461779064733790059e-02
3.503999999999999915e+01,1.476366342268942838e-02
3.507999999999999829e+01,3.024645527926666036e-02
3.511999999999999744e+01,1.647312160482163404e-02
3.515999999999999659e+01,3.990718142236480276e-02
3.520000000000000284e+01,5.055897961051797340e-02
3.524000000000000199e+01,1.832111029206710817e-02
3.528000000000000114e+01,0.000000000000000000e+00
3.532000000000000028e+01,4.047272572080612418e-02
3.535999999999999943e+01,2.214998490295041339e-02
3.539999999999999858e+01,1.774400347475178427e-02
3.543999999999999773e+01,2.157413891611161330e-02
3.547999999999999687e+01,3.392442348018060577e-02
3.552000000000000313e+01,5.422679302393079714e-02
3.556000000000000227e+01,2.794707831303244738e-02
3.560000000000000142e+01,1.728831638960358699e-02
3.564000000000000057e+01,2.338663590297315395e-02
3.567999999999999972e+01,5.902348291690921039e-02
3.571999999999999886e+01,2.308341853932657436e-02
3.575999999999999801e+01,4.962960922339270525e-02
3.579999999999999716e+01,4.152306592585518902e-02
3.584000000000000341e+01,2.461071278521824099e-02
3.588000000000000256e+01,3.894108054296006871e-02
3.592000000000000171e+01,2.941193570063196580e-02
3.596000000000000085e+01,1.988197747232177751e-02
3.600000000000000000e+01,4.613925461861542732e-02
3.603999999999999915e+01,4.086815196250642712e-02
3.607999999999999829e+01,3.673236481192647396e-02
3.611999999999999744e+01,5.531833532448747481e-02
3.615999999999999659e+01,1.766513090874412967e-02
3.620000000000000284e+01,3.312512252868855811e-02
3.624000000000000199e+01,4.261962683703947319e-02
3.628000000000000114e+01,4.160412984193618408e-02
3.632000000000000028e+01,5.052894517275255404e-02
3.635999999999999943e+01,3.729844202785803642e-02
3.639999999999999858e+01,4.309727967696897616e-02
3.643999999999999773e+01,2.674079909255116030e-02
3.647999999999999687e+01,3.054978807255892895e-02
3.652000000000000313e+01,2.867732272067039304e-02
3.656000000000000227e+01,2.822420645946356263e-02
3.660000000000000142e+01,6.100203820069189514e-02
3.664000000000000057e+01,5.543472078645649004e-02
3.667999999999999972e+01,5.157078495823567976e-02
3.671999999999999886e+01,5.139845576153702356e-02
3.675999999999999801e+01,6.287063301511712499e-02
3.679999999999999716e+01,4.395056129526341698e-02
3.684000000000000341e+01,5.229676353114238313e-02
3.688000000000000256e+01,4.786070922345773276e-02
3.692000000000000171e+01,3.376675194595496476e-02
3.696000000000000085e+01,4.921132604393398807e-02
3.700000000000000000e+01,4.221655147160027072e-02
3.703999999999999915e+01,5.339902323455123639e-02
3.707999999999999829e+01,4.782278921056139220e-02
3.711999999999999744e+01,6.610444440522804388e-02
3.715999999999999659e+01,7.217190816808781439e-02
3.720000000000000284e+01,6.261679503551802195e-02
3.724000000000000199e+01,5.362893665600042964e-02
3.728000000000000114e+01,7.105525716803916259e-02
3.732000000000000028e+01,4.530788433815160360e-02
3.735999999999999943e+01,5.421162247172763710e-02
3.739999999999999858e+01,5.146923416416240155e-02
3.743999999999999773e+01,5.895119370512730966e-02
3.747999999999999687e+01,8.603056157367632018e-02
3.752000000000000313e+01,6.737994751721941566e-02
3.756000000000000227e+01,5.582932821991155870e-02
3.760000000000000142e+01,6.501224614169917593e-02
3.764000000000000057e+01,7.504645215950939141e-02
3.767999999999999972e+01,7.797904669676784806e-02
3.771999999999999886e+01,6.330084098836477602e-02
3.775999999999999801e+01,6.026714475751807076e-02
3.779999999999999716e+01,6.717376533296190444e-02
3.784000000000000341e+01,1.121398839096762606e-01
3.788000000000000256e+01,9.547022225587356581e-02
3.792000000000000171e+01,9.839797026165716942e-02
3.796000000000000085e+01,8.769136859715853660e-02
3.800000000000000000e+01,1.056712050603319519e-01
3.803999999999999915e+01,1.219460416419037158e-01
3.807999999999999829e+01,1.646350595368538949e-01
3.811999999999999744e+01,1.632982901155214939e-01
3.815999999999999659e+01,2.088260157580325294e-01
3.820000000000000284e+01,2.060674723455509783e-01
3.824000000000000199e+01,2.447768137299648761e-01
3.828000000000000114e+01,2.459931073198287077e-01
3.832000000000000028e+01,2.855529324961159077e-01
3.835999999999999943e+01,3.353371083060285862e-01
3.839999999999999858e+01,3.547290399861516841e-01
3.843999999999999773e+01,3.860495153344394303e-01
3.847999999999999687e+01,5.003065674868538704e-01
3.852000000000000313e+01,5.324775278379260124e-01
3.856000000000000227e+01,6.163415307087638517e-01
3.860000000000000142e+01,6.567478119805312264e-01
3.864000000000000057e+01,7.468589110898301575e-01
3.867999999999999972e+01,8.204953413878920410e-01
3.871999999999999886e+01,9.037880591452804868e-01
3.875999999999999801e+01,9.109593606011222588e-01
3.879999999999999716e+01,9.371600101164356822e-01
3.884000000000000341e+01,1.000000000000000000e+00
3.888000000000000256e+01,9.355927901745837438e-01
3.892000000000000171e+01,9.794010182385907148e-01
3.896000000000000085e+01,9.709465296995031247e-01
3.900000000000000000e+01,9.196023850363753693e-01
3.903999999999999915e+01,9.270520876475935035e-01
3.907999999999999829e+01,9.435900145438392839e-01
3.911999999999999744e+01,8.641242769841943616e-01
3.915999999999999659e+01,8.306709411194922454e-01
3.920000000000000284e+01,7.682455242071196677e-01
3.924000000000000199e+01,7.657500837027870766e-01
3.928000000000000114e+01,6.984945137534713799e-01
3.932000000000000028e+01,6.769673138514031852e-01
3.935999999999999943e+01,6.415217363851820620e-01
3.939999999999999858e+01,5.813645604576386239e-01
3.943999999999999773e+01,5.947709038824453565e-01
3.947999999999999687e+01,6.294788544817484510e-01
3.952000000000000313e+01,5.767041057978566920e-01
3.956000000000000227e+01,6.247599615072987334e-01
3.960000000000000142e+01,6.054993995519515337e-01
3.964000000000000057e+01,6.225941482546177852e-01
3.967999999999999972e+01,6.425284161533694194e-01
3.971999999999999886e+01,6.675744604257732862e-01
3.975999999999999801e+01,7.213069481538578742e-01
3.979999999999999716e+01,7.378304248209139882e-01
3.984000000000000341e+01,7.756555097522860320e-01
3.988000000000000256e+01,8.225688213905079094e-01
3.992000000000000171e+01,8.743098778757781853e-01
3.996000000000000085e+01,8.348758186930823610e-01
4.000000000000000000e+01,8.113467577499369199e-01
4.003999999999999915e+01,8.179243017704073138e-01
4.007999999999999829e+01,7.458241442968022161e-01
4.011999999999999744e+01,6.899130175580803215e-01
4.015999999999999659e+01,5.953727201878526998e-01
4.020000000000000284e+01,5.130450039458576139e-01
4.024000000000000199e+01,4.463382545379001587e-01
4.028000000000000114e+01,3.784945762935618685e-01
4.032000000000000028e+01,3.609237852367004895e-01
4.035999999999999943e+01,2.712080325707694750e-01
4.039999999999999858e+01,2.232442033727129738e-01
4.043999999999999773e+01,2.167482656315626310e-01
4.047999999999999687e+01,1.758836402085273698e-01
4.052000000000000313e+01,1.520601431274648807e-01
4.056000000000000227e+01,1.555029312636076466e-01
4.060000000000000142e+01,1.291215461940906084e-01
4.064000000000000057e+01,1.376753141495671295e-01
4.067999999999999972e+01,1.377073190460272600e-01
4.071999999999999886e+01,1.167201471939448149e-01
4.075999999999999801e+01,1.079455581653705754e-01
4.079999999999999716e+01,1.011583953272541803e-01
4.084000000000000341e+01,1.006191407815789501e-01
4.088000000000000256e+01,8.502538474497484122e-02
4.092000000000000171e+01,7.653163363917249440e-02
4.096000000000000085e+01,8.990755845235631760e-02
4.100000000000000000e+01,9.248946411877675966e-02
4.103999999999999915e+01,6.865558349625328072e-02
4.107999999999999829e+01,6.328299357127543934e-02
4.111999999999999744e+01,7.466750167257743542e-02
4.115999999999999659e+01,7.184960552676662726e-02
4.120000000000000284e+01,5.227301606639887105e-02
4.124000000000000199e+01,6.990383850386706899e-02
4.128000000000000114e+01,7.219612852925783031e-02
4.132000000000000028e+01,5.545746854688902300e-02
4.135999999999999943e+01,8.302702412711655822e-02
4.139999999999999858e+01,5.066500292520108306e-02
4.143999999999999773e+01,6.346329392424267246e-02
4.147999999999999687e+01,6.489950296549512609e-02
4.152000000000000313e+01,6.548281905625050192e-02
4.156000000000000227e+01,5.868050328023169393e-02
4.160000000000000142e+01,5.841013022944464839e-02
4.164000000000000057e+01,4.904993276170863808e-02
4.167999999999999972e+01,7.292069867497813496e-02
4.171999999999999886e+01,5.077746324574801406e-02
4.175999999999999801e+01,6.442148062824085142e-02
4.179999999999999716e+01,4.170858940043883911e-02
4.184000000000000341e+01,4.654601939681697609e-02
4.188000000000000256e+01,4.570201128750665809e-02
4.192000000000000171e+01,6.559155347513112577e-02
4.196000000000000085e+01,7.213079023364329934e-02
4.200000000000000000e+01,4.202908685525660881e-02
4.203999999999999915e+01,8.179849298336866470e-02
4.207999999999999829e+01,6.050019585964855340e-02
4.211999999999999744e+01,5.482287126124789356e-02
4.215999999999999659e+01,4.403217366891558349e-02
4.220000000000000284e+01,5.738341280586949783e-02
4.224000000000000199e+01,5.511209030487300431e-02
4.228000000000000114e+01,4.460304172056381994e-02
4.232000000000000028e+01,4.837889401631249690e-03
4.235999999999999943e+01,3.721610461440211931e-02
4.239999999999999858e+01,8.067077908717845691e-02
4.243999999999999773e+01,4.942420905908728734e-02
4.247999999999999687e+01,6.049763305972708644e-02
4.252000000000000313e+01,4.714350017621021099e-02
4.256000000000000227e+01,2.413148139672094405e-02
4.260000000000000142e+01,3.775881436804628261e-02
4.264000000000000057e+01,4.996519351530643444e-02
4.267999999999999972e+01,4.257256250778555101e-02
4.271999999999999886e+01,6.017396619991377538e-02
4.275999999999999801e+01,6.641329180916821784e-02
4.279999999999999716e+01,6.441489290929423850e-02
4.284000000000000341e+01,5.020231977255037309e-02
4.288000000000000256e+01,5.189475359391632070e-02
4.292000000000000171e+01,5.784687708004465634e-02
4.296000000000000085e+01,4.135966993843486622e-02
4.300000000000000000e+01,5.725133377765834891e-02
4.303999999999999915e+01,4.076254260924405681e-02
4.307999999999999829e+01,5.665262266384535339e-02
4.311999999999999744e+01,3.391354104768228711e-02
4.315999999999999659e+01,6.542380506529729689e-02
4.320000000000000284e+01,3.984281907046385157e-02
4.324000000000000199e+01,4.834489757536720306e-02
4.328000000000000114e+01,6.934359866457776023e-02
4.332000000000000028e+01,5.654168493349086971e-02
4.335999999999999943e+01,6.674558291509431751e-02
4.339999999999999858e+01,7.155207952453070119e-02
4.343999999999999773e+01,5.619150401579824095e-02
4.347999999999999687e+01,5.929222647007757752e-02
4.352000000000000313e+01,4.989474461397622185e-02
4.356000000000000227e+01,1.029835414322889664e-01
4.360000000000000142e+01,6.660142639428313915e-02
4.364000000000000057e+01,7.310737316076912351e-02
4.367999999999999972e+01,5.916221640357336581e-02
4.371999999999999886e+01,5.742965143062745553e-02
4.375999999999999801e+01,5.171984683563195240e-02
4.379999999999999716e+01,5.737053787089006068e-02
4.384000000000000341e+01,6.472463216747056935e-02
4.388000000000000256e+01,5.986455537554974393e-02
4.392000000000000171e+01,8.539512742514124288e-02
4.396000000000000085e+01,7.911331151630929259e-02
4.400000000000000000e+01,9.356505220114945398e-02
4.403999999999999915e+01,6.285489496295258716e-02
4.407999999999999829e+01,8.184957203067752540e-02
4.411999999999999744e+01,6.249912258697522260e-02
4.415999999999999659e+01,9.967027886080441490e-02
4.420000000000000284e+01,9.736018033715068687e-02
4.424000000000000199e+01,1.172037997940130472e-01
4.428000000000000114e+01,1.100635785061921668e-01
4.432000000000000028e+01,9.837805502747817843e-02
4.435999999999999943e+01,1.204915673069923560e-01
4.439999999999999858e+01,1.056801145830146282e-01
4.443999999999999773e+01,1.445499471036112704e-01
4.447999999999999687e+01,1.535956181643851892e-01
4.452000000000000313e+01,1.569598591114835795e-01
4.456000000000000227e+01,1.506662202171648868e-01
4.460000000000000142e+01,1.849883889770486400e-01
4.464000000000000057e+01,2.159013850430061832e-01
4.467999999999999972e+01,1.945516818218972210e-01
4.471999999999999886e+01,1.987640836191115201e-01
4.475999999999999801e+01,2.364914902534057395e-01
4.479999999999999716e+01,2.350216760386430181e-01
4.484000000000000341e+01,2.474686497910380256e-01
4.488000000000000256e+01,3.039398176299872301e-01
4.492000000000000171e+01,2.848576520795388922e-01
4.496000000000000085e+01,3.026988775563397294e-01
4.500000000000000000e+01,3.159948029007962900e-01
4.503999999999999915e+01,3.236092997057617437e-01
4.507999999999999829e+01,3.607623524677031068e-01
4.511999999999999744e+01,3.217940081815835462e-01
4.515999999999999659e+01,3.589454897523775001e-01
4.520000000000000284e+01,3.747937760047730382e-01
4.524000000000000199e+01,3.312785613638907223e-01
4.528000000000000114e+01,3.550781768493510016e-01
4.532000000000000028e+01,3.624031436246976101e-01
4.535999999999999943e+01,3.595021687163301727e-01
4.539999999999999858e+01,3.469433165094587546e-01
4.543999999999999773e+01,2.988796631077612620e-01
4.547999999999999687e+01,3.235274509469924786e-01
4.552000000000000313e+01,3.140905984938773821e-01
4.556000000000000227e+01,3.287956929417013008e-01
4.560000000000000142e+01,2.969187335287439278e-01
4.564000000000000057e+01,3.238356413701646286e-01
4.567999999999999972e+01,2.831521178205845257e-01
4.571999999999999886e+01,3.168842290308364618e-01
4.575999999999999801e+01,2.594412421313325168e-01
4.579999999999999716e+01,2.460224521034779788e-01
4.584000000000000341e+01,2.527691599753674745e-01
4.588000000000000256e+01,2.350883211347531143e-01
4.592000000000000171e+01,2.600115188687641687e-01
4.596000000000000085e+01,2.499979812462525819e-01
4.600000000000000000e+01,2.425399498201614157e-01
4.603999999999999915e+01,2.265601715612618194e-01
4.607999999999999829e+01,2.327341168530693005e-01
4.611999999999999744e+01,2.440198578931057904e-01
4.615999999999999659e+01,2.572930413498080715e-01
4.620000000000000284e+01,2.526714181001035175e-01
4.624000000000000199e+01,2.540136873580797761e-01
4.628000000000000114e+01,2.741012951875046455e-01
4.632000000000000028e+01,2.433463693548958973e-01
4.635999999999999943e+01,2.549114492968551637e-01
4.639999999999999858e+01,3.014116997009269605e-01
4.643999999999999773e+01,2.632695930911598259e-01
4.647999999999999687e+01,2.736961995245427159e-01
4.652000000000000313e+01,2.855421852002924532e-01
4.656000000000000227e+01,2.445574130161385917e-01
4.660000000000000142e+01,2.510052257101702544e-01
4.664000000000000057e+01,2.347296867847858404e-01
4.667999999999999972e+01,2.312348128685120519e-01
4.671999999999999886e+01,2.192181941779786369e-01
4.675999999999999801e+01,2.123133731731319251e-01
4.679999999999999716e+01,1.900700364667802233e-01
4.684000000000000341e+01,1.612931802738586662e-01
4.688000000000000256e+01,1.489894074122765089e-01
4.692000000000000171e+01,1.665082282099205613e-01
4.696000000000000085e+01,1.272198425097393615e-01
4.700000000000000000e+01,1.154817936544907664e-01
4.703999999999999915e+01,1.125479610493399091e-01
4.707999999999999829e+01,1.240989874565675832e-01
4.711999999999999744e+01,9.844102496243892220e-02
4.715999999999999659e+01,1.151030706647002827e-01
4.720000000000000284e+01,8.830742080247883097e-02
4.724000000000000199e+01,9.928726526587806911e-02
4.728000000000000114e+01,6.936570359551190446e-02
4.732000000000000028e+01,8.176415060590035144e-02
4.735999999999999943e+01,8.194843706271356942e-02
4.739999999999999858e+01,6.793033816262632196e-02
4.743999999999999773e+01,8.004241677917636744e-02
4.747999999999999687e+01,6.176227875361750552e-02
4.752000000000000313e+01,4.859394071447641766e-02
4.756000000000000227e+01,6.666835893231660981e-02
4.760000000000000142e+01,6.997232813459289269e-02
4.764000000000000057e+01,4.686053102795747355e-02
4.767999999999999972e+01,5.385536201333878531e-02
4.771999999999999886e+01,4.522764795025098483e-02
4.775999999999999801e+01,5.704946973133963317e-02
4.779999999999999716e+01,3.989923649934571520e-02
4.784000000000000341e+01,4.689095707048376860e-02
4.788000000000000256e+01,5.757431805756200310e-02
4.792000000000000171e+01,5.036287754515079290e-02
4.796000000000000085e+01,4.513888489850515634e-02
4.800000000000000000e+01,5.099136846461962969e-02
4.803999999999999915e+01,5.258259323337328289e-02
4.807999999999999829e+01,3.911933830759664610e-02
4.811999999999999744e+01,5.718287346613636080e-02
4.815999999999999659e+01,4.513822617317539421e-02
4.820000000000000284e+01,4.331795930225169206e-02
4.824000000000000199e+01,3.297595225853029027e-02
4.828000000000000114e+01,4.592380395376460811e-02
4.832000000000000028e+01,3.359201992687391863e-02
4.835999999999999943e+01,5.023073752231082406e-02
4.839999999999999858e+01,4.585030161869720761e-02
4.843999999999999773e+01,3.720860812863371198e-02
4.847999999999999687e+01,5.327693464327880324e-02
4.852000000000000313e+01,3.980514406036226444e-02
4.856000000000000227e+01,2.576451397104246102e-02
4.860000000000000142e+01,6.029260334270115929e-02
4.864000000000000057e+01,3.488913784970671533e-02
4.867999999999999972e+01,6.032664911634893351e-02
4.871999999999999886e+01,3.747792317495898806e-02
4.875999999999999801e+01,3.621486463326113042e-02
4.879999999999999716e+01,4.119973848113416687e-02
4.884000000000000341e+01,5.924931600909699031e-02
4.888000000000000256e+01,4.293023128430678570e-02
4.892000000000000171e+01,3.711956129325317405e-02
4.896000000000000085e+01,3.585263138377802611e-02
4.900000000000000000e+01,4.623024497845960173e-02
4.903999999999999915e+01,5.035837787864150261e-02
4.907999999999999829e+01,3.289929507420268767e-02
4.911999999999999744e+01,3.304943091044307973e-02
4.915999999999999659e+01,4.882056058403735216e-02
4.920000000000000284e+01,5.124140674600926454e-02
4.924000000000000199e+01,4.059600164950945278e-02
4.928000000000000114e+01,2.710950216977035115e-02
4.932000000000000028e+01,1.589448680495385638e-02
4.935999999999999943e+01,3.478610461798043590e-02
4.939999999999999858e+01,5.566517465605226589e-02
4.943999999999999773e+01,4.615203398547938762e-02
4.947999999999999687e+01,1.959619293414862490e-02
4.952000000000000313e+01,5.013003809067629463e-02
4.956000000000000227e+01,2.470878101647905334e-02
4.960000000000000142e+01,4.217560378934823162e-02
4.964000000000000057e+01,4.203166240170500001e-02
4.967999999999999972e+01,3.421808159672229399e-02
4.971999999999999886e+01,3.293646809846550311e-02
4.975999999999999801e+01,3.989101482038256985e-02
4.979999999999999716e+01,4.315237233706631370e-02
4.984000000000000341e+01,3.988021944901293941e-02
4.988000000000000256e+01,2.922245988113517448e-02
4.992000000000000171e+01,7.025777722289676397e-02
4.996000000000000085e+01,5.420186501660648193e-02
5.000000000000000000e+01,4.808630654939356069e-02
5.003999999999999915e+01,4.992287701793277077e-02
5.007999999999999829e+01,5.119061258153072280e-02
5.011999999999999744e+01,2.717871787210343268e-02
5.015999999999999659e+01,5.088345095002931584e-02
5.020000000000000284e+01,5.385306811006379535e-02
5.024000000000000199e+01,4.120014785036887200e-02
5.028000000000000114e+01,2.371791131029587010e-02
5.032000000000000028e+01,3.861456791072835626e-02
5.035999999999999943e+01,4.328529796383485256e-02
5.039999999999999858e+01,5.136364392956165731e-02
5.043999999999999773e+01,3.870687470394379437e-02
5.047999999999999687e+01,4.507948889640001067e-02
5.052000000000000313e+01,4.946310885561975429e-02
5.056000000000000227e+01,4.844934911798021854e-02
5.060000000000000142e+01,5.368352721901131080e-02
5.064000000000000057e+01,4.613549043181881804e-02
5.067999999999999972e+01,3.603039563163523001e-02
5.071999999999999886e+01,3.643372101428794113e-02
5.075999999999999801e+01,3.001950664523945697e-02
5.079999999999999716e+01,3.979435534239911254e-02
5.084000000000000341e+01,4.104747173768295149e-02
5.088000000000000256e+01,3.917546646131220972e-02
5.092000000000000171e+01,3.417833963437798273e-02
5.096000000000000085e+01,2.719221990620944787e-02
5.100000000000000000e+01,3.213468186881227040e-02
5.103999999999999915e+01,4.360911513414741231e-02
5.107999999999999829e+01,3.122408169294123639e-02
5.111999999999999744e+01,3.048359817372025063e-02
5.115999999999999659e+01,3.599105418844544130e-02
5.120000000000000284e+01,3.155661833081729178e-02
5.124000000000000199e+01,3.564237930579339242e-02
5.128000000000000114e+01,4.626011231004847207e-02
5.132000000000000028e+01,6.511401025703043854e-02
5.135999999999999943e+01,5.868828168481143165e-02
5.139999999999999858e+01,6.163484682573947687e-02
5.143999999999999773e+01,5.378742442468235907e-02
5.147999999999999687e+01,4.395101069657524062e-02
5.152000000000000313e+01,1.934415981983238220e-02
5.156000000000000227e+01,2.654814157330025182e-02
5.160000000000000142e+01,3.971603206065696390e-02
5.164000000000000057e+01,4.038574281912711561e-02
5.167999999999999972e+01,5.667645504369072523e-02
5.171999999999999886e+01,5.762866646095525514e-02
5.175999999999999801e+01,5.119527688967720480e-02
5.179999999999999716e+01,4.589725041273230027e-02
5.184000000000000341e+01,6.076473999919704272e-02
5.188000000000000256e+01,4.694421905593124111e-02
5.192000000000000171e+01,3.908760781528311523e-02
5.196000000000000085e+01,4.997635234102046353e-02
5.200000000000000000e+01,4.723078969945340017e-02
5.203999999999999915e+01,5.158526565201516922e-02
5.207999999999999829e+01,4.883817371682271785e-02
5.211999999999999744e+01,5.830369899501215009e-02
5.215999999999999659e+01,2.601573651637254653e-02
5.220000000000000284e+01,3.775199028395910539e-02
5.224000000000000199e+01,6.141682949614141185e-02
5.228000000000000114e+01,4.332818131476796203e-02
5.232000000000000028e+01,2.893118699044732595e-02
5.235999999999999943e+01,4.236857786932670539e-02
5.239999999999999858e+01,3.223053816973081576e-02
5.243999999999999773e+01,3.203285959576956943e-02
5.247999999999999687e+01,4.461586358912904282e-02
5.252000000000000313e+01,5.833423285646160972e-02
5.256000000000000227e+01,5.302168614263480517e-02
5.260000000000000142e+01,4.742434428466579810e-02
5.264000000000000057e+01,6.199252091192863218e-02
5.267999999999999972e+01,6.235832816631663861e-02
5.271999999999999886e+01,4.454531632008821435e-02
5.275999999999999801e+01,2.729960621026050749e-02
5.279999999999999716e+01,3.504796131504021861e-02
5.284000000000000341e+01,5.813328926549585912e-02
5.288000000000000256e+01,4.400964575171410764e-02
5.292000000000000171e+01,5.970861406082434569e-02
5.296000000000000085e+01,5.154812135467504164e-02
5.300000000000000000e+01,4.793138096030583745e-02
5.303999999999999915e+01,3.834920411260692857e-02
5.307999999999999829e+01,4.524012936536852408e-02
5.311999999999999744e+01,3.253207606812736491e-02
5.315999999999999659e+01,3.487696445323163613e-02
5.320000000000000284e+01,4.659415200058259626e-02
5.324000000000000199e+01,4.865348598328609470e-02
5.328000000000000114e+01,3.793061306977890679e-02
5.332000000000000028e+01,4.027245739856513684e-02
5.335999999999999943e+01,5.028240858160556298e-02
5.339999999999999858e+01,5.546305292937413894e-02
5.343999999999999773e+01,4.956568365765338241e-02
5.347999999999999687e+01,4.451965043403257466e-02
5.352000000000000313e+01,4.032495337960289444e-02
5.356000000000000227e+01,4.919497429401323285e-02
5.360000000000000142e+01,4.727101420535809867e-02
5.364000000000000057e+01,3.739339455532333240e-02
5.367999999999999972e+01,6.727951365099334169e-02
5.371999999999999886e+01,5.058360346737633684e-02
5.375999999999999801e+01,4.780450825423328970e-02
5.379999999999999716e+01,5.666997107617938179e-02
5.384000000000000341e+01,6.042209626279638340e-02
5.388000000000000256e+01,3.520218484217857435e-02
5.392000000000000171e+01,5.003004502587168889e-02
5.396000000000000085e+01,5.349586103220031752e-02
5.400000000000000000e+01,4.332737592577957930e-02
5.403999999999999915e+01,4.508748171305421160e-02
5.407999999999999829e+01,4.542666830831951219e-02
5.411999999999999744e+01,5.172977126621329524e-02
5.415999999999999659e+01,3.474148110569964115e-02
5.420000000000000284e+01,1.888856130498537192e-02
5.424000000000000199e+01,4.990018524673859451e-02
5.428000000000000114e+01,6.841363745161806176e-02
5.432000000000000028e+01,3.068796970355449141e-02
5.435999999999999943e+01,4.777974575889725600e-02
5.439999999999999858e+01,4.442045074297402280e-02
5.443999999999999773e+01,5.014942651106236299e-02
5.447999999999999687e+01,4.622055246832742353e-02
5.452000000000000313e+01,5.137994945178633865e-02
5.456000000000000227e+01,5.227810737573426042e-02
5.460000000000000142e+01,4.153019092771582932e-02
5.464000000000000057e+01,4.242683505769993119e-02
5.467999999999999972e+01,4.048240115174377846e-02
5.471999999999999886e+01,5.273881725450766528e-02
5.475999999999999801e+01,3.403497448962476690e-02
5.479999999999999716e+01,5.452680959687856987e-02
5.484000000000000341e+01,4.235419328631084140e-02
5.488000000000000256e+01,3.472533497880510994e-02
5.492000000000000171e+01,3.078813839927392257e-02
5.496000000000000085e+01,5.184501357326977422e-02
5.500000000000000000e+01,6.040371919003181128e-02
5.503999999999999915e+01,5.362393405005650565e-02
5.507999999999999829e+01,4.883161833006319230e-02
5.511999999999999744e+01,5.852418596176042070e-02
5.515999999999999659e+01,4.066488152143569318e-02
5.520000000000000284e+01,3.842658920322162414e-02
5.524000000000000199e+01,3.277915628022386868e-02
5.528000000000000114e+01,6.093079217332601077e-02
5.532000000000000028e+01,4.193233936666611317e-02
5.535999999999999943e+01,4.508763820384946441e-02
5.539999999999999858e+01,5.136653595798169186e-02
5.543999999999999773e+01,3.691033365715730430e-02
5.547999999999999687e+01,5.170868666493651927e-02
5.552000000000000313e+01,4.946435757671457240e-02
5.556000000000000227e+01,5.858055971953105012e-02
5.560000000000000142e+01,3.929279472614912588e-02
5.564000000000000057e+01,3.448991465864211653e-02
5.567999999999999972e+01,4.502401603427962778e-02
5.571999999999999886e+01,6.777074552149819908e-02
5.575999999999999801e+01,6.751011886601318568e-02
5.579999999999999716e+01,4.623036111333195253e-02
5.584000000000000341e+01,6.386225224909676534e-02
5.588000000000000256e+01,5.394227349247942421e-02
5.592000000000000171e+01,4.742992735905478263e-02
5.596000000000000085e+01,3.750844280048647866e-02
5.600000000000000000e+01,5.939780431324141047e-02
5.603999999999999915e+01,5.032691083326488318e-02
5.607999999999999829e+01,5.801316066764128365e-02
5.611999999999999744e+01,4.950882661856146477e-02
5.615999999999999659e+01,5.577341120160043270e-02
5.620000000000000284e+01,5.692466529368540862e-02
5.624000000000000199e+01,3.421646829998138684e-02
5.628000000000000114e+01,5.837282122439110127e-02
5.632000000000000028e+01,4.730843802281479993e-02
5.635999999999999943e+01,4.078781730467137545e-02
5.639999999999999858e+01,5.642095137873977262e-02
5.643999999999999773e+01,3.683334969009547516e-02
5.647999999999999687e+01,5.615739882735496652e-02
5.652000000000000313e+01,5.843876889589083579e-02
5.656000000000000227e+01,3.458843179089077929e-02
5.660000000000000142e+01,4.794555308271086780e-02
5.664000000000000057e+01,6.925482329031523721e-02
5.667999999999999972e+01,5.591142272587255185e-02
5.671999999999999886e+01,5.165629984763431271e-02
5.675999999999999801e+01,4.569623375843138297e-02
5.679999999999999716e+01,5.024460625791250107e-02
5.684000000000000341e+01,6.388125680687145591e-02
5.688000000000000256e+01,4.485346211365520697e-02
5.692000000000000171e+01,4.258281327770505054e-02
5.696000000000000085e+01,6.303398519336123051e-02
5.700000000000000000e+01,5.820554766366212163e-02
5.703999999999999915e+01,4.570749299738675886e-02
5.707999999999999829e+01,4.684223122008757817e-02
5.711999999999999744e+01,6.132573032079623870e-02
5.715999999999999659e+01,3.774817451783726852e-02
5.720000000000000284e+01,4.995791826776745104e-02
5.724000000000000199e+01,5.137369203392262718e-02
5.728000000000000114e+01,5.193662055947589895e-02
5.732000000000000028e+01,5.647525021052945959e-02
5.735999999999999943e+01,5.703668141050895202e-02
5.739999999999999858e+01,5.986962118581417441e-02
5.743999999999999773e+01,5.900939488428690732e-02
5.747999999999999687e+01,7.206599481470635227e-02
5.752000000000000313e+01,7.063620789221530805e-02
5.756000000000000227e+01,5.329987357760732763e-02
5.760000000000000142e+01,5.385681570705214138e-02
5.764000000000000057e+01,7.003477734516501407e-02
5.767999999999999972e+01,6.803393489795846183e-02
5.771999999999999886e+01,5.154670620329676600e-02
5.775999999999999801e+01,6.147371839883686295e-02
5.779999999999999716e+01,5.236983047615241527e-02
5.784000000000000341e+01,4.440132393255778048e-02
5.788000000000000256e+01,4.268077726621483797e-02
5.792000000000000171e+01,4.124351582496560420e-02
5.796000000000000085e+01,4.662227876726911940e-02
5.800000000000000000e+01,5.796496981803819087e-02
5.803999999999999915e+01,5.652546838243796556e-02
5.807999999999999829e+01,5.110877067540357116e-02
5.811999999999999744e+01,5.023584077981059492e-02
5.815999999999999659e+01,5.674700013734491205e-02
5.820000000000000284e+01,5.899693145465896571e-02
5.824000000000000199e+01,6.579063094668761991e-02
5.828000000000000114e+01,5.667778522623929255e-02
5.832000000000000028e+01,4.926838660209311577e-02
5.835999999999999943e+01,5.151533489300560986e-02
5.839999999999999858e+01,5.603379478652144308e-02
5.843999999999999773e+01,4.180538863132983451e-02
5.847999999999999687e+01,6.194412524364538430e-02
5.852000000000000313e+01,5.396293569147270902e-02
5.856000000000000227e+01,5.336583660333846929e-02
5.860000000000000142e+01,5.986879596827430344e-02
5.864000000000000057e+01,6.267859288911081794e-02
5.867999999999999972e+01,4.787765301602447260e-02
5.871999999999999886e+01,6.460353531639707880e-02
5.875999999999999801e+01,5.093723512235224377e-02
5.879999999999999716e+01,4.891550809978468389e-02
5.884000000000000341e+01,4.291658710651389402e-02
5.888000000000000256e+01,4.316562901777246108e-02
5.892000000000000171e+01,3.460893095549873177e-02
5.896000000000000085e+01,4.905809183144604207e-02
5.900000000000000000e+01,4.703264541043736952e-02
5.903999999999999915e+01,6.801305816983183039e-02
5.907999999999999829e+01,5.263661463028861814e-02
5.911999999999999744e+01,5.259716294772485284e-02
5.915999999999999659e+01,5.937373928144698554e-02
5.920000000000000284e+01,6.132102633810739001e-02
5.924000000000000199e+01,6.440369901204642811e-02
5.928000000000000114e+01,6.578143610376017969e-02
5.932000000000000028e+01,5.466101671607943163e-02
5.935999999999999943e+01,5.461710793103249917e-02
5.939999999999999858e+01,5.798084230410435747e-02
5.943999999999999773e+01,4.231368152368696067e-02
5.947999999999999687e+01,4.084738516183093054e-02
5.952000000000000313e+01,5.045759988697316040e-02
5.956000000000000227e+01,4.785369099132694842e-02
5.960000000000000142e+01,7.052790002783536349e-02
5.964000000000000057e+01,4.377977638594528903e-02
5.967999999999999972e+01,7.128104838845927826e-02
5.971999999999999886e+01,4.822385942651899460e-02
5.975999999999999801e+01,4.732043542844341366e-02
5.979999999999999716e+01,5.806158762912274479e-02
5.984000000000000341e+01,5.176007081164021167e-02
5.988000000000000256e+01,5.483087337861899946e-02
5.992000000000000171e+01,4.426739275433187043e-02
5.996000000000000085e+01,5.415348490700796352e-02
