2.003999999999999915e+01,2.547815409400649295e-02
2.007999999999999829e+01,3.626232286669953814e-02
2.012000000000000099e+01,4.394146345010431498e-02
2.016000000000000014e+01,3.969146237925424286e-02
2.019999999999999929e+01,4.246782229872494291e-02
2.023999999999999844e+01,3.282481181930963637e-02
2.028000000000000114e+01,3.707136137928745273e-02
2.032000000000000028e+01,3.478128255029133004e-02
2.035999999999999943e+01,4.294916389857640626e-02
2.039999999999999858e+01,2.660537091489638059e-02
2.044000000000000128e+01,4.751869695383183906e-02
2.048000000000000043e+01,3.591328261594152471e-02
2.051999999999999957e+01,4.489721740988935478e-02
2.055999999999999872e+01,4.358610448959709949e-02
2.060000000000000142e+01,3.753586696444860538e-02
2.064000000000000057e+01,1.285669666714600069e-02
2.067999999999999972e+01,4.994607069631804702e-02
2.071999999999999886e+01,4.030007660568726141e-02
2.076000000000000156e+01,4.176567959319256451e-02
2.080000000000000071e+01,3.816533840016220896e-02
2.083999999999999986e+01,4.469613702105720843e-02
2.087999999999999901e+01,4.942918136690068603e-02
2.092000000000000171e+01,6.903224099089448618e-02
2.096000000000000085e+01,4.908995010711062618e-02
2.100000000000000000e+01,5.153451157665646376e-02
2.103999999999999915e+01,4.008901483807160437e-02
2.107999999999999829e+01,5.871061703452268299e-02
2.112000000000000099e+01,4.497688656027146875e-02
2.116000000000000014e+01,5.297636996314231128e-02
2.119999999999999929e+01,4.381760457724689223e-02
2.123999999999999844e+01,4.070474021685642485e-02
2.128000000000000114e+01,4.870347147177458286e-02
2.132000000000000028e+01,4.722420040710743200e-02
2.135999999999999943e+01,5.277128706953011783e-02
2.139999999999999858e+01,3.511397263907128918e-02
2.144000000000000128e+01,4.948467020924231935e-02
2.148000000000000043e+01,6.156738329690377570e-02
2.151999999999999957e+01,4.881159988884069267e-02
2.155999999999999872e+01,5.354038206295246016e-02
2.160000000000000142e+01,5.140571323423034911e-02
2.164000000000000057e+01,4.289782180972923770e-02
2.167999999999999972e+01,4.010901115990244542e-02
2.171999999999999886e+01,3.748335795031572382e-02
2.176000000000000156e+01,2.636015822252681107e-02
2.180000000000000071e+01,4.105540823462514727e-02
2.183999999999999986e+01,4.071673124240145908e-02
2.187999999999999901e+01,4.952873409928752746e-02
2.192000000000000171e+01,4.739204738996966038e-02
2.196000000000000085e+01,3.169211889749494471e-02
2.200000000000000000e+01,3.788881142563962218e-02
2.203999999999999915e+01,2.905157638683620452e-02
2.207999999999999829e+01,3.769890546738016712e-02
2.212000000000000099e+01,5.059462852608059835e-02
2.216000000000000014e+01,4.241027193876809737e-02
2.219999999999999929e+01,3.634998551971416192e-02
2.223999999999999844e+01,3.862333040440935061e-02
2.228000000000000114e+01,3.534049842555615772e-02
2.232000000000000028e+01,3.467196479696590949e-02
2.235999999999999943e+01,3.923228151054122814e-02
2.239999999999999858e+01,3.643891645119849004e-02
2.244000000000000128e+01,4.083531558729165678e-02
2.248000000000000043e+01,2.905391937297251842e-02
2.251999999999999957e+01,5.322236027774460143e-02
2.255999999999999872e+01,4.863047360449512108e-02
2.260000000000000142e+01,4.109696127192333237e-02
2.264000000000000057e+01,5.447961112040738962e-02
2.267999999999999972e+01,2.831690562252995799e-02
2.271999999999999886e+01,4.186245533123240242e-02
2.276000000000000156e+01,4.119112298016695817e-02
2.280000000000000071e+01,2.842723204165596013e-02
2.283999999999999986e+01,4.115496890432319282e-02
2.287999999999999901e+01,3.737809027827278946e-02
2.292000000000000171e+01,2.722798545563680922e-02
2.296000000000000085e+01,2.459446237866276877e-02
2.300000000000000000e+01,2.751660685650448093e-02
2.303999999999999915e+01,3.141895259388835515e-02
2.307999999999999829e+01,4.300128924588510898e-02
2.312000000000000099e+01,3.186944848599695956e-02
2.316000000000000014e+01,4.034649239212293598e-02
2.319999999999999929e+01,2.529231112868000203e-02
2.323999999999999844e+01,3.344202344978906144e-02
2.328000000000000114e+01,2.737485224830248087e-02
2.332000000000000028e+01,2.996812832543809327e-02
2.335999999999999943e+01,2.798568154000512925e-02
2.339999999999999858e+01,1.881295967505060632e-02
2.344000000000000128e+01,1.143748547701986008e-02
2.348000000000000043e+01,3.510956050167306913e-02
2.351999999999999957e+01,2.283128696052376741e-02
2.355999999999999872e+01,2.313528817948704366e-02
2.360000000000000142e+01,1.804651832809688050e-02
2.364000000000000057e+01,2.831798462272343275e-02
2.367999999999999972e+01,3.368690814152620200e-02
2.371999999999999886e+01,3.349965074587325092e-02
2.376000000000000156e+01,1.190549019014589330e-02
2.380000000000000071e+01,2.577093463312282035e-02
2.383999999999999986e+01,1.741242815834139965e-02
2.387999999999999901e+01,2.506779518053229086e-02
2.392000000000000171e+01,3.582768457155836861e-02
2.396000000000000085e+01,2.665135579862472695e-02
2.400000000000000000e+01,1.486021644104001255e-02
2.403999999999999915e+01,2.970456805456477001e-02
2.407999999999999829e+01,2.134451103601938890e-02
2.412000000000000099e+01,2.818127930666160241e-02
2.416000000000000014e+01,2.243525664442104495e-02
2.419999999999999929e+01,2.534967878524816559e-02
2.423999999999999844e+01,3.087839387512869571e-02
2.428000000000000114e+01,2.889001239687963990e-02
2.432000000000000028e+01,2.363318140767101810e-02
2.435999999999999943e+01,1.821268141898561496e-02
2.439999999999999858e+01,1.213828379871791617e-02
2.444000000000000128e+01,1.603160635858065161e-02
2.448000000000000043e+01,2.662445885551375374e-02
2.451999999999999957e+01,4.048524153993079966e-02
2.455999999999999872e+01,3.571708042472390016e-02
2.460000000000000142e+01,1.215656589084098023e-02
2.464000000000000057e+01,1.474131212060934663e-02
2.467999999999999972e+01,2.190126413997461885e-02
2.471999999999999886e+01,1.451750957278347132e-02
2.476000000000000156e+01,2.804991122281235913e-02
2.480000000000000071e+01,1.184152195424801636e-02
2.483999999999999986e+01,2.651726857598420833e-02
2.487999999999999901e+01,2.517862260232252986e-02
2.492000000000000171e+01,2.106175394940354786e-02
2.496000000000000085e+01,2.152009029840491749e-02
2.500000000000000000e+01,1.756610867783109375e-02
2.503999999999999915e+01,1.638982726233337642e-02
2.507999999999999829e+01,1.733760791327939102e-02
2.512000000000000099e+01,2.220695508993803663e-02
2.516000000000000014e+01,2.380785039260795849e-02
2.519999999999999929e+01,2.230370321529051222e-02
2.523999999999999844e+01,2.014565604336146162e-02
2.528000000000000114e+01,1.194119504891356411e-02
2.532000000000000028e+01,1.108989965461373850e-02
2.535999999999999943e+01,1.906245530667744631e-02
2.539999999999999858e+01,3.210044324246468656e-02
2.544000000000000128e+01,3.598723628162409094e-02
2.548000000000000043e+01,2.876192023330969086e-02
2.551999999999999957e+01,2.022906537660040804e-02
2.555999999999999872e+01,2.871834298741379483e-03
2.560000000000000142e+01,2.571307884522776657e-02
2.564000000000000057e+01,3.123265260612358846e-02
2.567999999999999972e+01,3.283013500409605323e-02
2.571999999999999886e+01,2.282527911986322045e-02
2.576000000000000156e+01,2.409541575464299937e-02
2.580000000000000071e+01,1.016820473857890476e-02
2.583999999999999986e+01,1.584987084934053048e-02
2.587999999999999901e+01,1.662898799539229422e-02
2.592000000000000171e+01,1.217873705115539787e-02
2.596000000000000085e+01,1.606210694582392573e-02
2.600000000000000000e+01,2.484749792981101255e-02
2.603999999999999915e+01,2.595237788803297224e-02
2.607999999999999829e+01,9.735585822887179996e-03
2.612000000000000099e+01,1.819336479921929844e-02
2.616000000000000014e+01,1.995108945137110193e-02
2.619999999999999929e+01,1.468194065376380274e-02
2.623999999999999844e+01,3.114599144257771887e-02
2.628000000000000114e+01,2.571290346264922325e-02
2.632000000000000028e+01,2.322092159351691470e-02
2.635999999999999943e+01,9.943647174409788597e-03
2.639999999999999858e+01,2.558959017879946715e-02
2.644000000000000128e+01,2.276999360140738796e-02
2.648000000000000043e+01,2.027695058028280289e-02
2.651999999999999957e+01,1.386181383320562663e-02
2.655999999999999872e+01,1.218528709356739986e-02
2.660000000000000142e+01,1.246940863788864075e-02
2.664000000000000057e+01,2.059692058860647032e-02
2.667999999999999972e+01,2.055369119357563015e-02
2.671999999999999886e+01,2.198088122534832406e-02
2.676000000000000156e+01,9.681406464412950844e-03
2.680000000000000071e+01,1.633716810359148175e-02
2.683999999999999986e+01,2.201220623409685939e-02
2.687999999999999901e+01,2.425537814550281918e-02
2.692000000000000171e+01,2.012531260780309195e-02
2.696000000000000085e+01,3.609434956580351295e-02
2.700000000000000000e+01,1.938121829884341743e-02
2.703999999999999915e+01,1.312602841745555936e-02
2.707999999999999829e+01,1.896287487438226560e-02
2.712000000000000099e+01,1.809966430652371408e-02
2.716000000000000014e+01,1.968732896685188721e-02
2.719999999999999929e+01,2.813792541906337888e-02
2.723999999999999844e+01,2.547640783269209883e-02
2.728000000000000114e+01,1.709528981059530925e-02
2.732000000000000028e+01,6.916399396889234309e-03
2.735999999999999943e+01,2.222912406901344715e-02
2.739999999999999858e+01,1.874948744569766845e-02
2.744000000000000128e+01,1.657685871720496196e-02
2.748000000000000043e+01,2.388171309734707370e-02
2.751999999999999957e+01,1.255761535100013114e-02
2.755999999999999872e+01,2.884945571270510628e-02
2.760000000000000142e+01,2.618552470981723793e-02
2.764000000000000057e+01,2.368473449343936124e-02
2.767999999999999972e+01,3.376620744707809624e-02
2.771999999999999886e+01,9.694824591562033189e-03
2.776000000000000156e+01,1.356619829452533274e-02
2.780000000000000071e+01,1.514956973599679811e-02
2.783999999999999986e+01,1.803994794703935728e-02
2.787999999999999901e+01,2.926394159577737700e-02
2.792000000000000171e+01,1.842738235571301370e-02
2.796000000000000085e+01,2.556559921337117278e-02
2.800000000000000000e+01,1.293099604855071048e-02
2.803999999999999915e+01,1.582002615850136920e-02
2.807999999999999829e+01,3.021473684091427817e-03
2.812000000000000099e+01,1.898272428806767331e-02
2.816000000000000014e+01,1.615161145862504394e-02
2.819999999999999929e+01,2.296138921889006104e-02
2.823999999999999844e+01,1.261289838595310193e-02
2.828000000000000114e+01,1.991236373748353494e-02
2.832000000000000028e+01,1.822403559709845008e-02
2.835999999999999943e+01,1.980362684177753435e-02
2.839999999999999858e+01,2.481454686552250766e-02
2.844000000000000128e+01,2.851791986653270244e-02
2.848000000000000043e+01,7.055957779379657888e-03
2.851999999999999957e+01,2.268768247822435663e-02
2.855999999999999872e+01,1.201020531816815104e-02
2.860000000000000142e+01,1.456862676615590900e-02
2.864000000000000057e+01,1.810723372015723628e-02
2.867999999999999972e+01,1.412873172825666532e-02
2.871999999999999886e+01,8.842681925945011442e-03
2.876000000000000156e+01,2.528982462096672490e-02
2.880000000000000071e+01,3.569054359125146958e-02
2.883999999999999986e+01,1.406272718652328349e-02
2.887999999999999901e+01,1.792652159166776074e-02
2.892000000000000171e+01,1.721457749324038777e-02
2.896000000000000085e+01,2.418260776822116556e-02
2.900000000000000000e+01,9.253491622745659700e-03
2.903999999999999915e+01,2.537190905895101573e-02
2.907999999999999829e+01,2.874411221514699966e-02
2.912000000000000099e+01,2.247488160281621572e-02
2.916000000000000014e+01,2.078084417725952968e-02
2.919999999999999929e+01,2.121085722805075152e-02
2.923999999999999844e+01,2.768674879930632660e-02
2.928000000000000114e+01,2.354074911277397736e-02
2.932000000000000028e+01,2.331630413680801234e-02
2.935999999999999943e+01,3.011819438289113984e-02
2.939999999999999858e+01,1.436929905715913711e-02
2.944000000000000128e+01,1.528789961350318291e-02
2.948000000000000043e+01,1.587940726061767491e-02
2.951999999999999957e+01,2.366065918620716482e-02
2.955999999999999872e+01,2.702958031434827060e-02
2.960000000000000142e+01,4.771963490057169743e-02
2.964000000000000057e+01,2.951795258715513362e-02
2.967999999999999972e+01,3.452014574173287859e-02
2.971999999999999886e+01,3.543682666181478813e-02
2.976000000000000156e+01,3.145094770224227815e-02
2.980000000000000071e+01,3.841323088358325477e-02
2.983999999999999986e+01,4.700933422128859840e-02
2.987999999999999901e+01,4.547377313290820733e-02
2.992000000000000171e+01,3.217245244064947940e-02
2.996000000000000085e+01,4.583342507882365302e-02
3.000000000000000000e+01,5.050659949902355089e-02
3.003999999999999915e+01,5.861109808475593874e-02
3.007999999999999829e+01,5.004755142070724944e-02
3.012000000000000099e+01,6.174650786939425706e-02
3.016000000000000014e+01,7.181109344370936731e-02
3.019999999999999929e+01,5.997852922181223789e-02
3.023999999999999844e+01,6.971574382728912278e-02
3.028000000000000114e+01,6.883106436184807664e-02
3.032000000000000028e+01,7.170452728731657732e-02
3.035999999999999943e+01,8.977479794804085755e-02
3.039999999999999858e+01,1.000011358112260218e-01
3.044000000000000128e+01,8.522554257903970643e-02
3.048000000000000043e+01,9.201972749907628979e-02
3.051999999999999957e+01,9.717954053201406650e-02
3.055999999999999872e+01,1.188434367897955590e-01
3.060000000000000142e+01,1.084787927214551501e-01
3.064000000000000057e+01,1.144548221463812521e-01
3.067999999999999972e+01,1.114430514404046169e-01
3.071999999999999886e+01,1.045091751933290014e-01
3.076000000000000156e+01,1.165305242063720687e-01
3.080000000000000071e+01,8.998695206959773929e-02
3.083999999999999986e+01,9.056908029422844342e-02
3.087999999999999901e+01,7.709771312300171819e-02
3.092000000000000171e+01,7.555496198114321216e-02
3.096000000000000085e+01,6.714873350555319864e-02
3.100000000000000000e+01,6.658588317111260868e-02
3.103999999999999915e+01,7.353959185224283324e-02
3.107999999999999829e+01,5.565477714412505467e-02
3.112000000000000099e+01,5.443745359202484951e-02
3.116000000000000014e+01,6.139032674402676582e-02
3.119999999999999929e+01,5.428970359996951323e-02
3.123999999999999844e+01,5.846405755897197964e-02
3.128000000000000114e+01,5.544811427098785689e-02
3.132000000000000028e+01,5.014415881929396024e-02
3.135999999999999943e+01,4.794470480674734025e-02
3.139999999999999858e+01,6.110546511032803607e-02
3.144000000000000128e+01,4.632292038792579225e-02
3.148000000000000043e+01,4.248853308037863624e-02
3.151999999999999957e+01,4.617070343809984850e-02
3.155999999999999872e+01,4.364303280031836541e-02
3.160000000000000142e+01,4.013462526336458724e-02
3.164000000000000057e+01,3.842344232566785589e-02
3.167999999999999972e+01,2.265876174160956144e-02
3.171999999999999886e+01,3.140522693897403878e-02
3.176000000000000156e+01,3.394185057820990614e-02
3.180000000000000071e+01,3.745865083396831413e-02
3.183999999999999986e+01,3.378515226738720151e-02
3.187999999999999901e+01,3.337956318365250391e-02
3.192000000000000171e+01,2.872504617000917054e-02
3.196000000000000085e+01,1.998501062045874785e-02
3.200000000000000000e+01,1.680061730755339974e-02
3.203999999999999915e+01,2.587165588636405542e-02
3.207999999999999829e+01,2.399397631756912744e-02
3.211999999999999744e+01,1.018712144948298939e-02
3.215999999999999659e+01,9.616155174697669020e-03
3.220000000000000284e+01,1.901288725015327918e-02
3.224000000000000199e+01,1.974863381927675215e-02
3.228000000000000114e+01,2.604002183736892767e-02
3.232000000000000028e+01,1.648040583690221772e-02
3.235999999999999943e+01,1.558121168436170205e-02
3.239999999999999858e+01,8.472174173289291621e-03
3.243999999999999773e+01,1.901108114406320146e-02
3.247999999999999687e+01,1.369898364617734218e-02
3.252000000000000313e+01,1.802776458527731440e-02
3.256000000000000227e+01,1.957830135280604761e-02
3.260000000000000142e+01,1.606286074486399165e-02
3.264000000000000057e+01,2.986854504308872338e-02
3.267999999999999972e+01,1.327977822914828444e-02
3.271999999999999886e+01,9.926898433155877458e-03
3.275999999999999801e+01,1.458080133373067765e-02
3.279999999999999716e+01,9.429850606933352572e-03
3.284000000000000341e+01,1.261250136470631888e-02
3.288000000000000256e+01,7.460983828797410067e-03
3.292000000000000171e+01,1.570876225473722548e-02
3.296000000000000085e+01,2.150511439690718299e-02
3.300000000000000000e+01,1.275773665980371729e-02
3.303999999999999915e+01,1.218055033811779944e-02
3.307999999999999829e+01,1.209330851256766766e-02
3.311999999999999744e+01,2.148353392959854308e-02
3.315999999999999659e+01,7.015687145231275408e-03
3.320000000000000284e+01,2.228808618770983935e-02
3.324000000000000199e+01,1.795105997343491785e-02
3.328000000000000114e+01,2.031353894068570892e-02
3.332000000000000028e+01,2.757801840514292890e-02
3.335999999999999943e+01,9.186920533781830697e-03
3.339999999999999858e+01,2.282380101801487551e-02
3.343999999999999773e+01,1.962921729382293562e-02
3.347999999999999687e+01,1.855867200578208837e-02
3.352000000000000313e+01,9.317366130182800840e-03
3.356000000000000227e+01,1.167784984423491518e-02
3.360000000000000142e+01,1.926715228087047885e-02
3.364000000000000057e+01,2.522207405344142547e-02
3.367999999999999972e+01,2.202577774919277712e-02
3.371999999999999886e+01,7.063711151171444581e-03
3.375999999999999801e+01,1.122027088040532770e-02
3.379999999999999716e+01,2.371042939360466784e-02
3.384000000000000341e+01,2.345436023629534489e-02
3.388000000000000256e+01,1.257638688079969203e-02
3.392000000000000171e+01,2.081703940245844403e-02
3.396000000000000085e+01,1.827237799435376189e-02
3.400000000000000000e+01,1.425674441598441533e-02
3.403999999999999915e+01,1.563333782894801155e-02
3.407999999999999829e+01,8.839169079000345347e-03
3.411999999999999744e+01,2.181726366968796127e-02
3.415999999999999659e+01,1.551274942859587336e-02
3.420000000000000284e+01,2.130025149633212739e-02
3.424000000000000199e+01,2.300222861422467416e-02
3.428000000000000114e+01,1.179456731730465884e-02
3.432000000000000028e+01,1.137164593942339291e-02
3.435999999999999943e+01,0.000000000000000000e+00
3.439999999999999858e+01,1.411994934197113513e-02
3.443999999999999773e+01,1.794481192345669801e-02
3.447999999999999687e+01,1.768414887994731663e-02
3.452000000000000313e+01,6.964989344375114785e-03
3.456000000000000227e+01,1.520104437902727867e-02
3.460000000000000142e+01,1.902475443805546479e-02
3.464000000000000057e+01,2.219453805904936239e-02
3.467999999999999972e+01,3.091995637749971049e-02
3.471999999999999886e+01,2.232367836713839218e-02
3.475999999999999801e+01,2.810714818162678152e-02
3.479999999999999716e+01,2.964168196439192354e-02
3.484000000000000341e+01,2.562000355069468660e-02
3.488000000000000256e+01,3.695852966343204926e-02
3.492000000000000171e+01,2.460238813018901169e-02
3.496000000000000085e+01,2.858690793749052439e-02
3.500000000000000000e+01,2.145929187631983454e-02
3.503999999999999915e+01,2.544323272178780626e-02
3.507999999999999829e+01,2.403437020216891637e-02
3.511999999999999744e+01,3.814912104036010526e-02
3.515999999999999659e+01,2.726192750520580951e-02
3.520000000000000284e+01,4.709543120979759606e-02
3.524000000000000199e+01,4.617563748568856430e-02
3.528000000000000114e+01,3.806553526207256954e-02
3.532000000000000028e+01,4.008653211825837642e-02
3.535999999999999943e+01,3.115880159977194030e-02
3.539999999999999858e+01,4.641538749733609831e-02
3.543999999999999773e+01,5.399143592571229583e-02
3.547999999999999687e+01,6.418174568355961007e-02
3.552000000000000313e+01,5.639671883598428720e-02
3.556000000000000227e+01,4.697730592313453801e-02
3.560000000000000142e+01,6.599085603340454353e-02
3.564000000000000057e+01,6.081950795266030663e-02
3.567999999999999972e+01,7.803497092849613626e-02
3.571999999999999886e+01,7.171917351437427646e-02
3.575999999999999801e+01,6.066420884834405891e-02
3.579999999999999716e+01,5.745260882043887879e-02
3.584000000000000341e+01,5.391389799179677200e-02
3.588000000000000256e+01,5.625763749790851226e-02
3.592000000000000171e+01,7.003975044815786977e-02
3.596000000000000085e+01,6.061742134635178525e-02
3.600000000000000000e+01,6.148959891794573279e-02
3.603999999999999915e+01,7.706833972663638954e-02
3.607999999999999829e+01,8.660063633100320568e-02
3.611999999999999744e+01,9.155717417726152996e-02
3.615999999999999659e+01,8.066269720254154452e-02
3.620000000000000284e+01,7.712135522111430996e-02
3.624000000000000199e+01,8.452815726404284968e-02
3.628000000000000114e+01,8.768601911181564401e-02
3.632000000000000028e+01,7.417581815587549754e-02
3.635999999999999943e+01,9.612518686572585347e-02
3.639999999999999858e+01,8.424849436150572135e-02
3.643999999999999773e+01,7.073741331645673480e-02
3.647999999999999687e+01,7.340357982946782434e-02
3.652000000000000313e+01,7.067693892648477250e-02
3.656000000000000227e+01,8.461777387609158152e-02
3.660000000000000142e+01,6.865437520564358909e-02
3.664000000000000057e+01,9.354305912869188833e-02
3.667999999999999972e+01,8.820069019358144080e-02
3.671999999999999886e+01,7.583141821458340426e-02
3.675999999999999801e+01,9.091464895631387599e-02
3.679999999999999716e+01,8.475434936128035945e-02
3.684000000000000341e+01,8.316922134818192924e-02
3.688000000000000256e+01,8.681290283060029422e-02
3.692000000000000171e+01,9.339766060463597364e-02
3.696000000000000085e+01,9.295551465963286519e-02
3.700000000000000000e+01,9.496421626161646867e-02
3.703999999999999915e+01,9.059965194561787893e-02
3.707999999999999829e+01,1.029025620193814994e-01
3.711999999999999744e+01,9.543262641492021581e-02
3.715999999999999659e+01,1.011985653381093087e-01
3.720000000000000284e+01,1.180760550915760793e-01
3.724000000000000199e+01,1.215536695837850234e-01
3.728000000000000114e+01,1.296064544201517843e-01
3.732000000000000028e+01,1.303055155116994435e-01
3.735999999999999943e+01,1.419527174768972222e-01
3.739999999999999858e+01,1.630773746444793004e-01
3.743999999999999773e+01,1.611609951031000298e-01
3.747999999999999687e+01,1.827752881003540109e-01
3.752000000000000313e+01,1.991601803750103761e-01
3.756000000000000227e+01,2.152179570103461281e-01
3.760000000000000142e+01,2.396093217397529396e-01
3.764000000000000057e+01,2.675953987614304030e-01
3.767999999999999972e+01,2.926398077017837163e-01
3.771999999999999886e+01,3.185009670984028651e-01
3.775999999999999801e+01,3.741023594939946184e-01
3.779999999999999716e+01,4.149965990007616901e-01
3.784000000000000341e+01,4.965795082187424159e-01
3.788000000000000256e+01,5.572457030748320106e-01
3.792000000000000171e+01,6.646467191585740952e-01
3.796000000000000085e+01,7.490066970705272498e-01
3.800000000000000000e+01,8.382686623142378002e-01
3.803999999999999915e+01,9.053066366937428944e-01
3.807999999999999829e+01,9.231580515196057268e-01
3.811999999999999744e+01,1.000000000000000000e+00
3.815999999999999659e+01,9.848420979916971962e-01
3.820000000000000284e+01,9.523624898648898052e-01
3.824000000000000199e+01,8.759254259431950018e-01
3.828000000000000114e+01,7.936053211348168546e-01
3.832000000000000028e+01,7.065460418729174741e-01
3.835999999999999943e+01,6.245521584365754109e-01
3.839999999999999858e+01,5.500748133111669214e-01
3.843999999999999773e+01,4.854017394755406611e-01
3.847999999999999687e+01,4.473641159894256591e-01
3.852000000000000313e+01,3.929852425237648772e-01
3.856000000000000227e+01,3.528226966865328773e-01
3.860000000000000142e+01,3.239351072477230642e-01
3.864000000000000057e+01,2.930863040661448315e-01
3.867999999999999972e+01,2.746563236036255740e-01
3.871999999999999886e+01,2.526310341080200694e-01
3.875999999999999801e+01,2.381222819106211530e-01
3.879999999999999716e+01,2.195279919355052900e-01
3.884000000000000341e+01,2.104111531118664502e-01
3.888000000000000256e+01,2.047256135856900250e-01
3.892000000000000171e+01,1.929936218659004388e-01
3.896000000000000085e+01,1.949877281297072718e-01
3.900000000000000000e+01,2.036813234839356945e-01
3.903999999999999915e+01,1.948898008501037671e-01
3.907999999999999829e+01,1.952489096795440859e-01
3.911999999999999744e+01,2.158704963035495417e-01
3.915999999999999659e+01,2.428647525548222608e-01
3.920000000000000284e+01,2.437131865220169002e-01
3.924000000000000199e+01,2.716872972203238090e-01
3.928000000000000114e+01,2.910004026078628625e-01
3.932000000000000028e+01,3.402171461124183227e-01
3.935999999999999943e+01,3.587126007000461803e-01
3.939999999999999858e+01,4.004119034120439680e-01
3.943999999999999773e+01,3.966830613946575324e-01
3.947999999999999687e+01,4.112557820807885012e-01
3.952000000000000313e+01,3.937999373476772091e-01
3.956000000000000227e+01,3.928481505212388369e-01
3.960000000000000142e+01,3.804573958728763583e-01
3.964000000000000057e+01,3.811390992690750212e-01
3.967999999999999972e+01,3.703818346182993215e-01
3.971999999999999886e+01,3.602779052910022317e-01
3.975999999999999801e+01,3.390618267047338374e-01
3.979999999999999716e+01,3.176820356842601223e-01
3.984000000000000341e+01,2.781634863991150342e-01
3.988000000000000256e+01,2.639731074728849380e-01
3.992000000000000171e+01,2.479849207096065378e-01
3.996000000000000085e+01,2.073215950830117060e-01
4.000000000000000000e+01,1.913328014516493258e-01
4.003999999999999915e+01,1.777948468153582318e-01
4.007999999999999829e+01,1.513472374480999694e-01
4.011999999999999744e+01,1.660785198976988675e-01
4.015999999999999659e+01,1.455130449971175077e-01
4.020000000000000284e+01,1.435759497876534230e-01
4.024000000000000199e+01,1.360826271908244511e-01
4.028000000000000114e+01,1.414983513316266373e-01
4.032000000000000028e+01,1.348214675989441169e-01
4.035999999999999943e+01,1.281442793632301402e-01
4.039999999999999858e+01,1.217936055250131155e-01
4.043999999999999773e+01,1.402808719507780133e-01
4.047999999999999687e+01,1.211836470347866790e-01
4.052000000000000313e+01,1.169563822595960506e-01
4.056000000000000227e+01,1.135458599513817363e-01
4.060000000000000142e+01,1.035986522039152868e-01
4.064000000000000057e+01,1.230648503405533806e-01
4.067999999999999972e+01,1.176924980818946226e-01
4.071999999999999886e+01,1.105223357356835967e-01
4.075999999999999801e+01,1.164246282833278495e-01
4.079999999999999716e+01,1.032077028265354773e-01
4.084000000000000341e+01,1.056777841429758502e-01
4.088000000000000256e+01,1.003039031802737957e-01
4.092000000000000171e+01,1.181338660659839029e-01
4.096000000000000085e+01,1.072034496120791436e-01
4.100000000000000000e+01,1.029725166223358496e-01
4.103999999999999915e+01,1.002119627753732950e-01
4.107999999999999829e+01,1.012095210500406073e-01
4.111999999999999744e+01,9.452652587694101993e-02
4.115999999999999659e+01,9.372596618526844725e-02
4.120000000000000284e+01,1.014223939669253866e-01
4.124000000000000199e+01,9.637257326091110132e-02
4.128000000000000114e+01,9.867587325748883309e-02
4.132000000000000028e+01,7.744789711058031045e-02
4.135999999999999943e+01,7.909694456125325457e-02
4.139999999999999858e+01,8.058227507671276990e-02
4.143999999999999773e+01,9.873506771668738580e-02
4.147999999999999687e+01,8.943475560643333877e-02
4.152000000000000313e+01,8.765097303014676711e-02
4.156000000000000227e+01,8.161823540537758992e-02
4.160000000000000142e+01,7.297063768486793112e-02
4.164000000000000057e+01,8.311482511109488658e-02
4.167999999999999972e+01,8.018594379881985312e-02
4.171999999999999886e+01,8.215903935345859888e-02
4.175999999999999801e+01,8.020999831004212155e-02
4.179999999999999716e+01,7.956792476490079369e-02
4.184000000000000341e+01,6.993801969432507371e-02
4.188000000000000256e+01,8.269490823892297615e-02
4.192000000000000171e+01,7.486189006963782366e-02
4.196000000000000085e+01,7.732336180749750654e-02
4.200000000000000000e+01,7.096041107634863676e-02
4.203999999999999915e+01,6.394351309000291528e-02
4.207999999999999829e+01,6.624064763406595224e-02
4.211999999999999744e+01,6.396200654124002682e-02
4.215999999999999659e+01,7.802400653442204126e-02
4.220000000000000284e+01,6.201834764749396267e-02
4.224000000000000199e+01,5.777786343877487629e-02
4.228000000000000114e+01,5.958322106730384871e-02
4.232000000000000028e+01,6.024440213337923372e-02
4.235999999999999943e+01,6.319300616153734895e-02
4.239999999999999858e+01,6.761198550661927376e-02
4.243999999999999773e+01,7.382815906915329851e-02
4.247999999999999687e+01,6.125192891424555142e-02
4.252000000000000313e+01,7.269658563937549112e-02
4.256000000000000227e+01,6.747316200686082066e-02
4.260000000000000142e+01,7.515877858551550661e-02
4.264000000000000057e+01,7.532724694697227885e-02
4.267999999999999972e+01,7.173698562882092900e-02
4.271999999999999886e+01,7.631688849498795280e-02
4.275999999999999801e+01,8.024284208050437572e-02
4.279999999999999716e+01,9.037804554696797499e-02
4.284000000000000341e+01,8.482562490727087179e-02
4.288000000000000256e+01,8.058016872766844696e-02
4.292000000000000171e+01,8.090986702617020132e-02
4.296000000000000085e+01,5.721805604807220225e-02
4.300000000000000000e+01,6.996625309574136531e-02
4.303999999999999915e+01,8.058981451634289472e-02
4.307999999999999829e+01,8.614736907987038950e-02
4.311999999999999744e+01,8.010253641272924163e-02
4.315999999999999659e+01,8.075718113338857529e-02
4.320000000000000284e+01,8.500652250531520737e-02
4.324000000000000199e+01,7.275119111319548748e-02
4.328000000000000114e+01,7.601945012374439203e-02
4.332000000000000028e+01,7.438511110859477582e-02
4.335999999999999943e+01,7.667228730766510736e-02
4.339999999999999858e+01,6.817412302102404675e-02
4.343999999999999773e+01,6.245360717786539728e-02
4.347999999999999687e+01,5.869369213303032157e-02
4.352000000000000313e+01,7.552306151804136225e-02
4.356000000000000227e+01,6.767728191246771829e-02
4.360000000000000142e+01,6.898212105481833778e-02
4.364000000000000057e+01,6.375026620600143801e-02
4.367999999999999972e+01,5.557672639707999379e-02
4.371999999999999886e+01,6.259995673999653454e-02
4.375999999999999801e+01,5.932807410405493281e-02
4.379999999999999716e+01,6.210202902940362840e-02
4.384000000000000341e+01,6.585612670118869139e-02
4.388000000000000256e+01,6.813922440898377564e-02
4.392000000000000171e+01,6.584654141625576051e-02
4.396000000000000085e+01,5.767080155826555254e-02
4.400000000000000000e+01,5.554089869893964054e-02
4.403999999999999915e+01,6.664685101292910918e-02
4.407999999999999829e+01,5.797993806930831079e-02
4.411999999999999744e+01,5.666613783899002166e-02
4.415999999999999659e+01,6.989546849662547912e-02
4.420000000000000284e+01,6.122760997422747875e-02
4.424000000000000199e+01,6.007627333408308012e-02
4.428000000000000114e+01,5.581984053942944807e-02
4.432000000000000028e+01,7.542088005465258371e-02
4.435999999999999943e+01,7.524905352458900742e-02
4.439999999999999858e+01,9.517628042923685638e-02
4.443999999999999773e+01,7.980673794350778838e-02
4.447999999999999687e+01,7.832668741942377943e-02
4.452000000000000313e+01,8.648748157476461584e-02
4.456000000000000227e+01,8.190201790284235006e-02
4.460000000000000142e+01,8.303557052865280508e-02
4.464000000000000057e+01,7.730560733711219767e-02
4.467999999999999972e+01,8.285058344016296705e-02
4.471999999999999886e+01,1.011411842840205383e-01
4.475999999999999801e+01,1.110975834142107627e-01
4.479999999999999716e+01,1.112490951594678618e-01
4.484000000000000341e+01,1.051907285508548728e-01
4.488000000000000256e+01,1.172704999483301092e-01
4.492000000000000171e+01,1.208526596755104682e-01
4.496000000000000085e+01,1.201858547895658935e-01
4.500000000000000000e+01,1.286696647131634896e-01
4.503999999999999915e+01,1.253876724983559732e-01
4.507999999999999829e+01,1.335440279594144741e-01
4.511999999999999744e+01,1.278102574721698692e-01
4.515999999999999659e+01,1.297564157856259670e-01
4.520000000000000284e+01,1.163417623669879275e-01
4.524000000000000199e+01,1.122411325892675865e-01
4.528000000000000114e+01,1.156570217681456014e-01
4.532000000000000028e+01,1.144971263081184659e-01
4.535999999999999943e+01,9.830323767894977305e-02
4.539999999999999858e+01,9.224041977323162167e-02
4.543999999999999773e+01,9.026252073694963907e-02
4.547999999999999687e+01,8.191133203986752931e-02
4.552000000000000313e+01,7.437687185663642564e-02
4.556000000000000227e+01,7.991485306423631862e-02
4.560000000000000142e+01,7.221634499933757279e-02
4.564000000000000057e+01,5.945182287575173641e-02
4.567999999999999972e+01,5.077221894645086997e-02
4.571999999999999886e+01,4.977254224249786502e-02
4.575999999999999801e+01,4.795549831197730428e-02
4.579999999999999716e+01,4.254312543140949254e-02
4.584000000000000341e+01,4.301317486681986713e-02
4.588000000000000256e+01,3.482220042480381472e-02
4.592000000000000171e+01,3.659888573688389879e-02
4.596000000000000085e+01,3.069500398564754817e-02
4.600000000000000000e+01,4.162198103757983741e-02
4.603999999999999915e+01,2.869084965499846610e-02
4.607999999999999829e+01,3.880013809855126922e-02
4.611999999999999744e+01,3.158769814360946893e-02
4.615999999999999659e+01,3.205518417623828137e-02
4.620000000000000284e+01,4.101964361654621832e-02
4.624000000000000199e+01,2.726986060540163501e-02
4.628000000000000114e+01,4.097255353398703698e-02
4.632000000000000028e+01,2.411734747278626231e-02
4.635999999999999943e+01,2.752459883908876109e-02
4.639999999999999858e+01,2.570242450219853772e-02
4.643999999999999773e+01,2.714811868898074285e-02
4.647999999999999687e+01,3.055440523469619973e-02
4.652000000000000313e+01,2.170465695899380029e-02
4.656000000000000227e+01,1.988119551950305250e-02
4.660000000000000142e+01,2.001832610136999868e-02
4.664000000000000057e+01,1.182124968088508338e-02
4.667999999999999972e+01,1.882093508537303547e-02
4.671999999999999886e+01,2.042778437993994153e-02
4.675999999999999801e+01,1.941975906301509833e-02
4.679999999999999716e+01,2.135278224398237321e-02
4.684000000000000341e+01,2.639026331684323629e-02
4.688000000000000256e+01,1.639374694460488113e-02
4.692000000000000171e+01,1.636488751333262104e-02
4.696000000000000085e+01,1.028955327088113686e-02
4.700000000000000000e+01,1.124050462686413537e-02
4.703999999999999915e+01,2.134206505360395148e-02
4.707999999999999829e+01,1.853395105746604918e-02
4.711999999999999744e+01,1.311096143710961670e-02
4.715999999999999659e+01,1.781903758909475846e-02
4.720000000000000284e+01,1.615381924169604147e-02
4.724000000000000199e+01,1.612237210219830130e-02
4.728000000000000114e+01,1.690764852544260691e-02
4.732000000000000028e+01,1.899987691848402729e-02
4.735999999999999943e+01,2.027473358394971809e-02
4.739999999999999858e+01,2.530768459206311424e-02
4.743999999999999773e+01,1.187503694266302257e-02
4.747999999999999687e+01,1.707074850479314843e-02
4.752000000000000313e+01,7.069051314894055082e-03
4.756000000000000227e+01,9.976380383039011937e-03
4.760000000000000142e+01,1.696862224425915722e-02
4.764000000000000057e+01,1.186823563988244346e-02
4.767999999999999972e+01,1.461118025364539427e-02
4.771999999999999886e+01,9.673552852982920600e-03
4.775999999999999801e+01,1.976927473258605072e-02
4.779999999999999716e+01,1.613827263122421043e-02
4.784000000000000341e+01,1.495808758251894639e-02
4.788000000000000256e+01,1.263371033035685063e-02
4.792000000000000171e+01,9.982188294846462695e-03
4.796000000000000085e+01,1.157898754621110825e-02
4.800000000000000000e+01,6.802490047687837632e-03
4.803999999999999915e+01,2.441276883545684395e-02
4.807999999999999829e+01,2.159653308698823368e-02
4.811999999999999744e+01,1.044608617273526212e-02
4.815999999999999659e+01,5.831693074105618983e-03
4.820000000000000284e+01,9.060629730788029648e-03
4.824000000000000199e+01,1.343310626266108580e-02
4.828000000000000114e+01,2.091003663552042438e-02
4.832000000000000028e+01,6.653175744777081041e-03
4.835999999999999943e+01,1.167830961611641440e-02
4.839999999999999858e+01,1.229105969063660868e-02
4.843999999999999773e+01,1.323030154508775084e-02
4.847999999999999687e+01,2.528106249770919328e-02
4.852000000000000313e+01,1.183961297398704489e-02
4.856000000000000227e+01,1.032672985601845034e-02
4.860000000000000142e+01,4.891690898184902075e-03
4.864000000000000057e+01,1.775818887559722434e-02
4.867999999999999972e+01,1.461022730511569827e-02
4.871999999999999886e+01,1.146193771383529139e-02
4.875999999999999801e+01,1.239855765239916002e-02
4.879999999999999716e+01,1.529576342343449448e-02
4.884000000000000341e+01,1.476104119903384575e-02
4.888000000000000256e+01,8.670067281824457919e-03
4.892000000000000171e+01,6.827411950885269205e-03
4.896000000000000085e+01,2.043056806514704539e-03
4.900000000000000000e+01,8.697038310540279940e-03
4.903999999999999915e+01,1.992615707631388913e-02
4.907999999999999829e+01,2.298447148222496766e-02
4.911999999999999744e+01,1.395015325910666654e-02
4.915999999999999659e+01,1.112506702542817409e-02
4.920000000000000284e+01,6.338737342327445574e-03
4.924000000000000199e+01,1.135664856720435684e-02
4.928000000000000114e+01,1.179876401318083988e-02
4.932000000000000028e+01,2.449626273998555329e-02
4.935999999999999943e+01,1.431610073184510362e-02
4.939999999999999858e+01,1.965951191001711826e-02
4.943999999999999773e+01,1.062255646758386747e-02
4.947999999999999687e+01,1.024597471228978068e-02
4.952000000000000313e+01,6.764282061684758797e-03
4.956000000000000227e+01,2.109389523866572400e-02
4.960000000000000142e+01,1.565062762955828080e-02
4.964000000000000057e+01,1.788727621832881393e-02
4.967999999999999972e+01,1.424085185073306094e-02
4.971999999999999886e+01,1.729388641680444302e-02
4.975999999999999801e+01,1.756862842546712614e-02
4.979999999999999716e+01,1.686258233598998679e-02
4.984000000000000341e+01,2.138530928386376748e-02
4.988000000000000256e+01,2.084201024537891273e-02
4.992000000000000171e+01,2.209588438213314077e-02
4.996000000000000085e+01,1.926418934663876037e-02
5.000000000000000000e+01,2.280513344408163431e-02
5.003999999999999915e+01,2.258732715727894760e-02
5.007999999999999829e+01,2.400328408908775774e-02
5.011999999999999744e+01,1.888252880064617001e-02
5.015999999999999659e+01,2.830488752137776814e-02
5.020000000000000284e+01,3.445872392734317807e-02
5.024000000000000199e+01,2.868333406010030104e-02
5.028000000000000114e+01,2.078328819872796163e-02
5.032000000000000028e+01,3.036772701390929100e-02
5.035999999999999943e+01,3.521295750548303349e-02
5.039999999999999858e+01,2.633145670195351576e-02
5.043999999999999773e+01,2.807124096327915513e-02
5.047999999999999687e+01,2.850341620048303659e-02
5.052000000000000313e+01,3.775937170569754198e-02
5.056000000000000227e+01,2.740585323074556587e-02
5.060000000000000142e+01,3.600750420341137376e-02
5.064000000000000057e+01,3.741880346689212961e-02
5.067999999999999972e+01,2.935201781728837694e-02
5.071999999999999886e+01,2.749445976864148614e-02
5.075999999999999801e+01,2.530974894735682837e-02
5.079999999999999716e+01,3.080495106071923228e-02
5.084000000000000341e+01,3.531936215028651932e-02
5.088000000000000256e+01,3.983343914269388969e-02
5.092000000000000171e+01,3.650352561213288105e-02
5.096000000000000085e+01,3.268304923978136017e-02
5.100000000000000000e+01,3.539861869376373371e-02
5.103999999999999915e+01,3.043360679372880337e-02
5.107999999999999829e+01,4.066534434089438127e-02
5.111999999999999744e+01,3.749716758055648969e-02
5.115999999999999659e+01,3.073364679179414402e-02
5.120000000000000284e+01,3.279390435811394000e-02
5.124000000000000199e+01,3.485382681454702453e-02
5.128000000000000114e+01,3.021362428097202485e-02
5.132000000000000028e+01,3.864584693459869463e-02
5.135999999999999943e+01,3.384156411209748860e-02
5.139999999999999858e+01,2.920035523613543141e-02
5.143999999999999773e+01,2.439540118113388625e-02
5.147999999999999687e+01,2.514603456300345055e-02
5.152000000000000313e+01,2.851088415173757065e-02
5.156000000000000227e+01,2.092696079309204829e-02
5.160000000000000142e+01,2.216681466427673428e-02
5.164000000000000057e+01,3.108657910707917152e-02
5.167999999999999972e+01,2.284800901691041997e-02
5.171999999999999886e+01,2.179912075372888308e-02
5.175999999999999801e+01,2.320103851573398004e-02
5.179999999999999716e+01,1.757601081184990977e-02
5.184000000000000341e+01,1.979430262348434028e-02
5.188000000000000256e+01,2.511703814883671504e-02
5.192000000000000171e+01,2.210555181851039941e-02
5.196000000000000085e+01,1.500849068967534394e-02
5.200000000000000000e+01,1.983998628942636872e-02
5.203999999999999915e+01,2.810274416584801135e-02
5.207999999999999829e+01,1.283419562950376645e-02
5.211999999999999744e+01,2.469128759115640781e-02
5.215999999999999659e+01,2.870438554155931021e-02
5.220000000000000284e+01,2.634417492692792476e-02
5.224000000000000199e+01,1.695701760863013025e-02
5.228000000000000114e+01,2.015205425734894681e-02
5.232000000000000028e+01,1.909810558830537727e-02
5.235999999999999943e+01,2.163882780225757571e-02
5.239999999999999858e+01,1.829646940812966471e-02
5.243999999999999773e+01,2.377788588080263429e-02
5.247999999999999687e+01,2.190553596160446995e-02
5.252000000000000313e+01,2.509854203404189577e-02
5.256000000000000227e+01,2.976189484200143093e-02
5.260000000000000142e+01,1.759372954196362568e-02
5.264000000000000057e+01,1.522979558526108869e-02
5.267999999999999972e+01,2.005554075494083918e-02
5.271999999999999886e+01,2.095911849465968355e-02
5.275999999999999801e+01,6.338453728494206768e-03
5.279999999999999716e+01,2.178479866487841379e-02
5.284000000000000341e+01,2.072644383116744107e-02
5.288000000000000256e+01,2.685776756121275102e-02
5.292000000000000171e+01,2.302077155718196960e-02
5.296000000000000085e+01,1.248364583708450742e-02
5.300000000000000000e+01,2.498692047626107499e-02
5.303999999999999915e+01,2.196595182187692855e-02
5.307999999999999829e+01,2.204942350545461421e-02
5.311999999999999744e+01,1.461571749023119968e-02
5.315999999999999659e+01,2.237875507089770108e-02
5.320000000000000284e+01,1.739551051885713726e-02
5.324000000000000199e+01,2.123603858311336190e-02
5.328000000000000114e+01,1.804961701804787960e-02
5.332000000000000028e+01,2.760879600087048219e-02
5.335999999999999943e+01,2.311441634867127809e-02
5.339999999999999858e+01,1.910992402980456542e-02
5.343999999999999773e+01,1.968055659491357856e-02
5.347999999999999687e+01,2.237517133357200261e-02
5.352000000000000313e+01,2.343534948313970301e-02
5.356000000000000227e+01,1.861244376139647647e-02
5.360000000000000142e+01,2.195967161711623317e-02
5.364000000000000057e+01,2.465291958533015818e-02
5.367999999999999972e+01,2.881651113836052394e-02
5.371999999999999886e+01,2.170450465459683800e-02
5.375999999999999801e+01,1.949444116766067131e-02
5.379999999999999716e+01,2.496428217598129981e-02
5.384000000000000341e+01,2.177307691436002404e-02
5.388000000000000256e+01,2.560813789683817621e-02
5.392000000000000171e+01,2.012851435821708113e-02
5.396000000000000085e+01,2.134833782559159010e-02
5.400000000000000000e+01,2.648964657548196627e-02
5.403999999999999915e+01,2.966969826040054270e-02
5.407999999999999829e+01,3.056167375476864789e-02
5.411999999999999744e+01,1.756349798266288592e-02
5.415999999999999659e+01,2.155956756511102565e-02
5.420000000000000284e+01,2.506506519122716700e-02
5.424000000000000199e+01,1.794860134382855396e-02
5.428000000000000114e+01,2.079977373275859742e-02
5.432000000000000028e+01,2.838947803663656455e-02
5.435999999999999943e+01,2.748154411427173455e-02
5.439999999999999858e+01,1.823938135966554283e-02
5.443999999999999773e+01,1.978190192392090957e-02
5.447999999999999687e+01,2.655318247260359671e-02
5.452000000000000313e+01,1.943431062956040012e-02
5.456000000000000227e+01,2.718535943097147994e-02
5.460000000000000142e+01,2.447785525266766432e-02
5.464000000000000057e+01,2.062613985414774379e-02
5.467999999999999972e+01,2.445432647533011400e-02
5.471999999999999886e+01,1.749714076616857433e-02
5.475999999999999801e+01,1.920031389081936976e-02
5.479999999999999716e+01,2.466156054095520328e-02
5.484000000000000341e+01,2.227880564065273100e-02
5.488000000000000256e+01,2.251025749509779836e-02
5.492000000000000171e+01,2.584614451134535987e-02
5.496000000000000085e+01,2.591349582232759310e-02
5.500000000000000000e+01,1.960753069151131150e-02
5.503999999999999915e+01,1.934737150240318018e-02
5.507999999999999829e+01,1.794299985530163274e-02
5.511999999999999744e+01,1.523100613115475031e-02
5.515999999999999659e+01,2.722552185705740674e-02
5.520000000000000284e+01,2.565670229135914165e-02
5.524000000000000199e+01,2.604845044157463874e-02
5.528000000000000114e+01,2.153756692105582293e-02
5.532000000000000028e+01,2.617726917857667382e-02
5.535999999999999943e+01,2.166569237061768613e-02
5.539999999999999858e+01,2.499742506343409151e-02
5.543999999999999773e+01,2.342652563541539404e-02
5.547999999999999687e+01,2.855506893743451485e-02
5.552000000000000313e+01,2.632983729566705858e-02
5.556000000000000227e+01,2.083606826075625612e-02
5.560000000000000142e+01,1.779309444861252795e-02
5.564000000000000057e+01,2.700548613831485478e-02
5.567999999999999972e+01,2.445204575790800583e-02
5.571999999999999886e+01,2.124461963868463921e-02
5.575999999999999801e+01,2.342935940960882979e-02
5.579999999999999716e+01,2.463329420361266495e-02
5.584000000000000341e+01,3.531463232588209766e-02
5.588000000000000256e+01,3.063512867182803523e-02
5.592000000000000171e+01,2.889664785991969201e-02
5.596000000000000085e+01,3.402101793427353416e-02
5.600000000000000000e+01,2.934046911663729801e-02
5.603999999999999915e+01,3.952983678002283674e-02
5.607999999999999829e+01,3.615586667625304146e-02
5.611999999999999744e+01,2.215992981028386266e-02
5.615999999999999659e+01,2.940687984230354671e-02
5.620000000000000284e+01,2.488799634138640429e-02
5.624000000000000199e+01,3.115379109569655150e-02
5.628000000000000114e+01,2.630739011812637668e-02
5.632000000000000028e+01,2.767020098798454036e-02
5.635999999999999943e+01,2.690833875988246637e-02
5.639999999999999858e+01,2.304134628213439992e-02
5.643999999999999773e+01,2.914198396435399227e-02
5.647999999999999687e+01,2.690838696302179367e-02
5.652000000000000313e+01,2.712558259637699865e-02
5.656000000000000227e+01,3.469585594769648840e-02
5.660000000000000142e+01,2.968324710819343279e-02
5.664000000000000057e+01,2.957257316370322936e-02
5.667999999999999972e+01,3.763202413223541015e-02
5.671999999999999886e+01,3.523291615721692999e-02
5.675999999999999801e+01,4.525258003986556976e-02
5.679999999999999716e+01,4.203572314295860729e-02
5.684000000000000341e+01,4.421102909801871705e-02
5.688000000000000256e+01,4.295438444007699391e-02
5.692000000000000171e+01,4.856058796779254283e-02
5.696000000000000085e+01,5.563712585325785581e-02
5.700000000000000000e+01,4.931373289001492188e-02
5.703999999999999915e+01,5.606274902286955547e-02
5.707999999999999829e+01,5.218979569291994081e-02
5.711999999999999744e+01,5.305536640115405406e-02
5.715999999999999659e+01,6.699334586791025337e-02
5.720000000000000284e+01,6.753139392333203095e-02
5.724000000000000199e+01,5.859133861153589806e-02
5.728000000000000114e+01,6.256028221415947665e-02
5.732000000000000028e+01,5.933885531588902612e-02
5.735999999999999943e+01,5.415616201305489819e-02
5.739999999999999858e+01,6.041178172832424587e-02
5.743999999999999773e+01,4.999927922657331630e-02
5.747999999999999687e+01,5.184213705050904480e-02
5.752000000000000313e+01,4.698485233050500587e-02
5.756000000000000227e+01,4.098334817594492807e-02
5.760000000000000142e+01,3.743263361789181398e-02
5.764000000000000057e+01,4.286908880488991130e-02
5.767999999999999972e+01,4.046153445216022632e-02
5.771999999999999886e+01,4.148522639752227903e-02
5.775999999999999801e+01,2.812852831703676823e-02
5.779999999999999716e+01,3.846585511890779352e-02
5.784000000000000341e+01,3.327892512419368398e-02
5.788000000000000256e+01,3.560847864063888119e-02
5.792000000000000171e+01,3.074765996831208340e-02
5.796000000000000085e+01,2.980831543850597995e-02
5.800000000000000000e+01,2.674429319720623283e-02
5.803999999999999915e+01,2.939924944517091979e-02
5.807999999999999829e+01,2.894907071743116345e-02
5.811999999999999744e+01,2.833512801894293859e-02
5.815999999999999659e+01,3.262311593950986688e-02
5.820000000000000284e+01,2.645254075309361880e-02
5.824000000000000199e+01,2.910572411732375436e-02
5.828000000000000114e+01,3.159514306070460715e-02
5.832000000000000028e+01,3.522807352292494504e-02
5.835999999999999943e+01,2.709516437584735121e-02
5.839999999999999858e+01,2.860306086194901176e-02
5.843999999999999773e+01,3.354220162068879268e-02
5.847999999999999687e+01,3.276165417404429403e-02
5.852000000000000313e+01,3.279779867055973575e-02
5.856000000000000227e+01,2.548015967137312945e-02
5.860000000000000142e+01,3.515675353644288903e-02
5.864000000000000057e+01,3.486501157633242060e-02
5.867999999999999972e+01,2.999744739389875736e-02
5.871999999999999886e+01,3.509750695749627031e-02
5.875999999999999801e+01,3.268037295623892058e-02
5.879999999999999716e+01,3.058970159088489349e-02
5.884000000000000341e+01,3.340095893165757890e-02
5.888000000000000256e+01,3.343389805927519248e-02
5.892000000000000171e+01,3.608103257659477092e-02
5.896000000000000085e+01,3.529621062960192762e-02
5.900000000000000000e+01,3.630853631462702819e-02
5.903999999999999915e+01,3.634004790819029412e-02
5.907999999999999829e+01,3.800529740219431990e-02
5.911999999999999744e+01,3.248017133167025589e-02
5.915999999999999659e+01,3.741289628898020886e-02
5.920000000000000284e+01,3.956730213293346149e-02
5.924000000000000199e+01,3.583860812699685844e-02
5.928000000000000114e+01,3.031205182181353000e-02
5.932000000000000028e+01,3.148492744424855744e-02
5.935999999999999943e+01,3.886700636219649757e-02
5.939999999999999858e+01,3.546369978435171683e-02
5.943999999999999773e+01,3.353072058769410169e-02
5.947999999999999687e+01,3.715330632286689000e-02
5.952000000000000313e+01,3.374892487478624303e-02
5.956000000000000227e+01,3.524647010737860103e-02
5.960000000000000142e+01,3.445592362094244271e-02
5.964000000000000057e+01,3.938435112276260364e-02
5.967999999999999972e+01,3.450784938027396526e-02
5.971999999999999886e+01,3.453327386835754881e-02
5.975999999999999801e+01,3.161696816120485726e-02
5.979999999999999716e+01,3.883169266842953493e-02
5.984000000000000341e+01,3.231965932460293539e-02
5.988000000000000256e+01,3.920684610063805697e-02
5.992000000000000171e+01,3.285750332015172082e-02
5.996000000000000085e+01,3.500509523867454537e-02
