2.003999999999999915e+01,1.668010979859459869e-02
2.007999999999999829e+01,1.676710516823859409e-02
2.012000000000000099e+01,1.692526701563152811e-02
2.016000000000000014e+01,1.965149156046489334e-02
2.019999999999999929e+01,1.959528708467971406e-02
2.023999999999999844e+01,2.003828860174060311e-02
2.028000000000000114e+01,1.184899020540136454e-02
2.032000000000000028e+01,1.307638421016190690e-02
2.035999999999999943e+01,8.953113372665865571e-03
2.039999999999999858e+01,1.595869241986367509e-02
2.044000000000000128e+01,2.003916301183045548e-02
2.048000000000000043e+01,1.798423014080280033e-02
2.051999999999999957e+01,1.542974520156980070e-02
2.055999999999999872e+01,1.465858474279172971e-02
2.060000000000000142e+01,2.109258048822826997e-02
2.064000000000000057e+01,1.154626813402928782e-02
2.067999999999999972e+01,1.576838201097414960e-02
2.071999999999999886e+01,2.041836268256972536e-02
2.076000000000000156e+01,1.122823213786175271e-02
2.080000000000000071e+01,1.281025260292155236e-02
2.083999999999999986e+01,1.824445477214098332e-02
2.087999999999999901e+01,1.490367811245865183e-02
2.092000000000000171e+01,1.249014776822407295e-02
2.096000000000000085e+01,1.107520368745946310e-02
2.100000000000000000e+01,1.351244154157039620e-02
2.103999999999999915e+01,1.373797070906678831e-02
2.107999999999999829e+01,1.667424368130598911e-02
2.112000000000000099e+01,1.097821795140366957e-02
2.116000000000000014e+01,4.425941624443891637e-03
2.119999999999999929e+01,1.271219063360212211e-02
2.123999999999999844e+01,1.464901760463703517e-02
2.128000000000000114e+01,1.109250127934568141e-02
2.132000000000000028e+01,1.081744822761639309e-02
2.135999999999999943e+01,1.746219291462958179e-02
2.139999999999999858e+01,1.454722072879299430e-02
2.144000000000000128e+01,9.420540433131643215e-03
2.148000000000000043e+01,1.470931267606487812e-02
2.151999999999999957e+01,1.778637692453133648e-02
2.155999999999999872e+01,1.751029499071935294e-02
2.160000000000000142e+01,9.029954388972567456e-03
2.164000000000000057e+01,1.488876052541048510e-02
2.167999999999999972e+01,1.118785019275139216e-02
2.171999999999999886e+01,1.440673811794571622e-02
2.176000000000000156e+01,1.305970201342259406e-02
2.180000000000000071e+01,1.156981513813739454e-02
2.183999999999999986e+01,1.443149064138855332e-02
2.187999999999999901e+01,2.164472858085496679e-02
2.192000000000000171e+01,1.494651708636523905e-02
2.196000000000000085e+01,1.830705937090207000e-02
2.200000000000000000e+01,9.254290034047102029e-03
2.203999999999999915e+01,1.439798823148033015e-02
2.207999999999999829e+01,9.981970536606354569e-03
2.212000000000000099e+01,8.490717817158370539e-03
2.216000000000000014e+01,1.199308695076698773e-02
2.219999999999999929e+01,1.628002446486446000e-02
2.223999999999999844e+01,1.378950204075424929e-02
2.228000000000000114e+01,9.229952498764171925e-03
2.232000000000000028e+01,7.737848001281274861e-03
2.235999999999999943e+01,2.136963007397951753e-02
2.239999999999999858e+01,7.606724130010934781e-03
2.244000000000000128e+01,5.614730025452728535e-03
2.248000000000000043e+01,1.703446529587659269e-02
2.251999999999999957e+01,1.283059462929304201e-02
2.255999999999999872e+01,1.283560759878116242e-02
2.260000000000000142e+01,1.262643106074363628e-02
2.264000000000000057e+01,8.636070555701135312e-03
2.267999999999999972e+01,1.641662223614284710e-02
2.271999999999999886e+01,1.263994201753250446e-02
2.276000000000000156e+01,1.392822440750673268e-02
2.280000000000000071e+01,1.164934273222143629e-02
2.283999999999999986e+01,1.058306970234767878e-02
2.287999999999999901e+01,1.714999550644938711e-02
2.292000000000000171e+01,2.485819018097756156e-02
2.296000000000000085e+01,1.537330196541732835e-02
2.300000000000000000e+01,1.166677560794727141e-02
2.303999999999999915e+01,8.887498622911027199e-03
2.307999999999999829e+01,1.573893768985383523e-02
2.312000000000000099e+01,1.160386455727969654e-02
2.316000000000000014e+01,1.203437537767776920e-02
2.319999999999999929e+01,1.260739700745079281e-02
2.323999999999999844e+01,1.239551092981651392e-02
2.328000000000000114e+01,1.624982974578925710e-02
2.332000000000000028e+01,1.618028579461344013e-02
2.335999999999999943e+01,1.768005069039177771e-02
2.339999999999999858e+01,1.489925348266362554e-02
2.344000000000000128e+01,9.764071268373471918e-03
2.348000000000000043e+01,1.425960568285221039e-02
2.351999999999999957e+01,1.447457816686141194e-02
2.355999999999999872e+01,1.968317452269160994e-02
2.360000000000000142e+01,1.105166375742608169e-02
2.364000000000000057e+01,1.055273215443884582e-02
2.367999999999999972e+01,1.412000602184843717e-02
2.371999999999999886e+01,7.770866910073266284e-03
2.376000000000000156e+01,8.484208778465901143e-03
2.380000000000000071e+01,1.240767760617425726e-02
2.383999999999999986e+01,7.984211215284564220e-03
2.387999999999999901e+01,5.843453324607394972e-03
2.392000000000000171e+01,8.196940592459995775e-03
2.396000000000000085e+01,1.468797362480541227e-02
2.400000000000000000e+01,8.551678248678692279e-03
2.403999999999999915e+01,1.345116757351690626e-03
2.407999999999999829e+01,1.068924212326533528e-02
2.412000000000000099e+01,1.803568291487556499e-02
2.416000000000000014e+01,1.453829278730868133e-02
2.419999999999999929e+01,1.781802471300568055e-02
2.423999999999999844e+01,1.103866462865842231e-02
2.428000000000000114e+01,1.210652506808046827e-02
2.432000000000000028e+01,9.464543853357985578e-03
2.435999999999999943e+01,8.534552708250526740e-03
2.439999999999999858e+01,1.523776258891988006e-02
2.444000000000000128e+01,1.373671789686214950e-02
2.448000000000000043e+01,1.294890498265208537e-02
2.451999999999999957e+01,1.658399820181331169e-02
2.455999999999999872e+01,1.329895504746135028e-02
2.460000000000000142e+01,1.122652307639623523e-02
2.464000000000000057e+01,1.628791324477959351e-02
2.467999999999999972e+01,9.792074340380955630e-03
2.471999999999999886e+01,1.399705220794713115e-02
2.476000000000000156e+01,9.213037170443276122e-03
2.480000000000000071e+01,9.850687134867882819e-03
2.483999999999999986e+01,1.455454424237978377e-02
2.487999999999999901e+01,7.415813004131927705e-03
2.492000000000000171e+01,1.033583981315530295e-02
2.496000000000000085e+01,7.691188741975492175e-03
2.500000000000000000e+01,1.053954285146223822e-02
2.503999999999999915e+01,9.178677112623949766e-03
2.507999999999999829e+01,9.173103029906525333e-03
2.512000000000000099e+01,7.098505924516987017e-03
2.516000000000000014e+01,2.098807170016335488e-03
2.519999999999999929e+01,1.229433897124770220e-02
2.523999999999999844e+01,1.400025779195900565e-02
2.528000000000000114e+01,1.477859206620476228e-02
2.532000000000000028e+01,1.134770689587831158e-02
2.535999999999999943e+01,1.683414216180123893e-02
2.539999999999999858e+01,4.770798604337911884e-03
2.544000000000000128e+01,1.282513838235895334e-02
2.548000000000000043e+01,1.053502837701146208e-02
2.551999999999999957e+01,1.409462375387311034e-02
2.555999999999999872e+01,6.453690778606252162e-03
2.560000000000000142e+01,8.942856721496389438e-03
2.564000000000000057e+01,7.151463790903048179e-03
2.567999999999999972e+01,1.056771746014630031e-02
2.571999999999999886e+01,4.780959937585544349e-03
2.576000000000000156e+01,4.059169349533021942e-03
2.580000000000000071e+01,1.196934027082592090e-02
2.583999999999999986e+01,1.631235151046195320e-02
2.587999999999999901e+01,1.245111025381422792e-02
2.592000000000000171e+01,7.305585921848874870e-03
2.596000000000000085e+01,1.136274245269027795e-02
2.600000000000000000e+01,1.320819744911079160e-02
2.603999999999999915e+01,1.341267009153480558e-02
2.607999999999999829e+01,9.907303617689468267e-03
2.612000000000000099e+01,7.899910080304863025e-03
2.616000000000000014e+01,8.674607563236921490e-03
2.619999999999999929e+01,3.813289063671119680e-03
2.623999999999999844e+01,9.510109747185066520e-03
2.628000000000000114e+01,8.215456647038911486e-03
2.632000000000000028e+01,7.848057649003096353e-03
2.635999999999999943e+01,1.119016853414006411e-02
2.639999999999999858e+01,5.543288879045166900e-03
2.644000000000000128e+01,5.603436152089724329e-03
2.648000000000000043e+01,1.597045433938887272e-03
2.651999999999999957e+01,8.434153863993354081e-03
2.655999999999999872e+01,1.248884244438738973e-02
2.660000000000000142e+01,1.140689485147551238e-02
2.664000000000000057e+01,1.068148269936046446e-02
2.667999999999999972e+01,6.816951418906111969e-03
2.671999999999999886e+01,1.810817997400096264e-03
2.676000000000000156e+01,9.859720670811375834e-03
2.680000000000000071e+01,8.277574367692240587e-03
2.683999999999999986e+01,9.620199846118789033e-03
2.687999999999999901e+01,1.431563650582908832e-02
2.692000000000000171e+01,8.238586116555136202e-03
2.696000000000000085e+01,8.938661760394832692e-03
2.700000000000000000e+01,1.035197281585809384e-02
2.703999999999999915e+01,8.768845042779147350e-03
2.707999999999999829e+01,4.117938608493926927e-03
2.712000000000000099e+01,1.102393109103036971e-02
2.716000000000000014e+01,9.226293690608362158e-03
2.719999999999999929e+01,8.926630783979531969e-03
2.723999999999999844e+01,1.098102111294099216e-02
2.728000000000000114e+01,1.253586912144496503e-02
2.732000000000000028e+01,1.373385464785682568e-02
2.735999999999999943e+01,5.443471785930243702e-03
2.739999999999999858e+01,1.541593793683590681e-02
2.744000000000000128e+01,8.052647877012829997e-03
2.748000000000000043e+01,4.751753464998994007e-04
2.751999999999999957e+01,1.080385255014021384e-02
2.755999999999999872e+01,7.506448013933469596e-03
2.760000000000000142e+01,6.919796684143557537e-03
2.764000000000000057e+01,8.972558728106346318e-03
2.767999999999999972e+01,8.813621660165566959e-03
2.771999999999999886e+01,9.082561480697253983e-03
2.776000000000000156e+01,7.639181537085466475e-03
2.780000000000000071e+01,9.120574759314986971e-03
2.783999999999999986e+01,1.231396306923096193e-02
2.787999999999999901e+01,1.194019463911804441e-02
2.792000000000000171e+01,1.285038206999055549e-02
2.796000000000000085e+01,4.129522197023086268e-03
2.800000000000000000e+01,6.608863058099063298e-03
2.803999999999999915e+01,5.235687848489427310e-03
2.807999999999999829e+01,5.217808620924320635e-03
2.812000000000000099e+01,3.202250586953875496e-03
2.816000000000000014e+01,7.250421413034923920e-03
2.819999999999999929e+01,7.446076399146255367e-03
2.823999999999999844e+01,6.928170778066186988e-03
2.828000000000000114e+01,6.695463072278085015e-03
2.832000000000000028e+01,8.317430927010517616e-03
2.835999999999999943e+01,9.796557470333859541e-03
2.839999999999999858e+01,5.745389891385088189e-04
2.844000000000000128e+01,7.047134968074846018e-03
2.848000000000000043e+01,1.430430838310020950e-02
2.851999999999999957e+01,1.086033694664381190e-02
2.855999999999999872e+01,1.233865670153802899e-02
2.860000000000000142e+01,1.731246989859843571e-02
2.864000000000000057e+01,1.493811326334291111e-02
2.867999999999999972e+01,8.639901589922291750e-03
2.871999999999999886e+01,9.190158377833688302e-03
2.876000000000000156e+01,8.170776624262483107e-03
2.880000000000000071e+01,1.157430717571355551e-02
2.883999999999999986e+01,1.255212061692201862e-02
2.887999999999999901e+01,1.053349788282147495e-02
2.892000000000000171e+01,1.122563025854426966e-02
2.896000000000000085e+01,1.099018339426778741e-02
2.900000000000000000e+01,1.068323603178911348e-02
2.903999999999999915e+01,1.401446252663184414e-02
2.907999999999999829e+01,1.099627828843162576e-02
2.912000000000000099e+01,1.154492813256764207e-02
2.916000000000000014e+01,1.016724056029497981e-02
2.919999999999999929e+01,1.342648554086400652e-02
2.923999999999999844e+01,6.055926598516108740e-03
2.928000000000000114e+01,9.457530893880060699e-03
2.932000000000000028e+01,3.513449407862065822e-03
2.935999999999999943e+01,8.769570616972919772e-03
2.939999999999999858e+01,1.324079300123969655e-02
2.944000000000000128e+01,2.231099207649145551e-03
2.948000000000000043e+01,8.556838851736674884e-03
2.951999999999999957e+01,1.024532576548610983e-02
2.955999999999999872e+01,1.732048559809486014e-03
2.960000000000000142e+01,1.091090441656368364e-02
2.964000000000000057e+01,7.676459668611622725e-03
2.967999999999999972e+01,7.866170029815168149e-03
2.971999999999999886e+01,2.491209374614371946e-03
2.976000000000000156e+01,1.009994924991136113e-02
2.980000000000000071e+01,8.077644474601537034e-03
2.983999999999999986e+01,6.197860083377556943e-03
2.987999999999999901e+01,5.031315256663794130e-03
2.992000000000000171e+01,7.645625336895310771e-03
2.996000000000000085e+01,4.267225404737401938e-03
3.000000000000000000e+01,4.812360275569092620e-03
3.003999999999999915e+01,8.210931651921892643e-03
3.007999999999999829e+01,1.096728496465963418e-02
3.012000000000000099e+01,7.588248715037496789e-03
3.016000000000000014e+01,0.000000000000000000e+00
3.019999999999999929e+01,1.010388521257803845e-02
3.023999999999999844e+01,3.371397484358265237e-03
3.028000000000000114e+01,7.339734545481754052e-03
3.032000000000000028e+01,4.316603648522292745e-03
3.035999999999999943e+01,2.720111911652456967e-03
3.039999999999999858e+01,5.332515115934725707e-03
3.044000000000000128e+01,8.301459240517075622e-03
3.048000000000000043e+01,5.491713773566266228e-03
3.051999999999999957e+01,3.989333995763564016e-04
3.055999999999999872e+01,9.787992406870378234e-03
3.060000000000000142e+01,4.766235264145069275e-03
3.064000000000000057e+01,8.233766829235680124e-03
3.067999999999999972e+01,1.000156657509582896e-03
3.071999999999999886e+01,8.605085549499135594e-03
3.076000000000000156e+01,6.222271723461596758e-03
3.080000000000000071e+01,4.766718459580316161e-03
3.083999999999999986e+01,1.229983342431204690e-02
3.087999999999999901e+01,4.138014616600315700e-03
3.092000000000000171e+01,3.680746126682594033e-03
3.096000000000000085e+01,2.367241171057897411e-03
3.100000000000000000e+01,2.979755530788703952e-03
3.103999999999999915e+01,9.299303451741802035e-03
3.107999999999999829e+01,1.561869376414288385e-02
3.112000000000000099e+01,9.596125496303200414e-03
3.116000000000000014e+01,6.641015020025588939e-03
3.119999999999999929e+01,5.540584257155243587e-03
3.123999999999999844e+01,1.057522668596105886e-02
3.128000000000000114e+01,8.761082321665865716e-03
3.132000000000000028e+01,5.591322778372342407e-03
3.135999999999999943e+01,1.469186716930424332e-02
3.139999999999999858e+01,1.030901513825763054e-02
3.144000000000000128e+01,4.998587443308649854e-03
3.148000000000000043e+01,5.181174273021257708e-03
3.151999999999999957e+01,1.299697239536941329e-02
3.155999999999999872e+01,3.976399480326152369e-03
3.160000000000000142e+01,7.511490406954863912e-03
3.164000000000000057e+01,1.047570540979194872e-02
3.167999999999999972e+01,1.215564564308477258e-02
3.171999999999999886e+01,9.341016099069831061e-03
3.176000000000000156e+01,1.629979490405928863e-02
3.180000000000000071e+01,1.362753194239099339e-02
3.183999999999999986e+01,7.673477512285665006e-03
3.187999999999999901e+01,1.099345237181957764e-02
3.192000000000000171e+01,1.295781291753993723e-02
3.196000000000000085e+01,1.099832315477171016e-02
3.200000000000000000e+01,6.898480399773082930e-03
3.203999999999999915e+01,5.366717472871978568e-03
3.207999999999999829e+01,1.046940818130783456e-02
3.211999999999999744e+01,1.293236683814805166e-02
3.215999999999999659e+01,6.977062383275148619e-03
3.220000000000000284e+01,1.207928493805248207e-02
3.224000000000000199e+01,1.068942153574015987e-02
3.228000000000000114e+01,9.656101706961069814e-03
3.232000000000000028e+01,1.283167958792520713e-02
3.235999999999999943e+01,9.372491904150303393e-03
3.239999999999999858e+01,7.339946322093081343e-03
3.243999999999999773e+01,6.377343447716743614e-03
3.247999999999999687e+01,3.131708492571405947e-03
3.252000000000000313e+01,6.021148574829692131e-03
3.256000000000000227e+01,9.267132634374087088e-03
3.260000000000000142e+01,5.236292462164853292e-03
3.264000000000000057e+01,9.694743881720632728e-03
3.267999999999999972e+01,4.308135132526760662e-03
3.271999999999999886e+01,6.269379844965200510e-03
3.275999999999999801e+01,4.306775402494736858e-03
3.279999999999999716e+01,1.133284201490741480e-02
3.284000000000000341e+01,1.386434046502376879e-02
3.288000000000000256e+01,2.912444627283928937e-03
3.292000000000000171e+01,5.871672451142585618e-03
3.296000000000000085e+01,1.839436123731108541e-03
3.300000000000000000e+01,1.314512138013942087e-02
3.303999999999999915e+01,1.118143225043694185e-02
3.307999999999999829e+01,1.471075995255531794e-02
3.311999999999999744e+01,7.538949436274837088e-03
3.315999999999999659e+01,9.498490274674630321e-03
3.320000000000000284e+01,2.469050378269538500e-03
3.324000000000000199e+01,6.853838442883976138e-03
3.328000000000000114e+01,7.885497225161613305e-03
3.332000000000000028e+01,9.844420203371343631e-03
3.335999999999999943e+01,9.020933137347557015e-03
3.339999999999999858e+01,6.627814220603015991e-03
3.343999999999999773e+01,4.020521427336892425e-03
3.347999999999999687e+01,1.061592034052607179e-02
3.352000000000000313e+01,7.223580515537878291e-03
3.356000000000000227e+01,8.753539091772993136e-03
3.360000000000000142e+01,7.501087969848442907e-03
3.364000000000000057e+01,2.324788961952578299e-03
3.367999999999999972e+01,9.561477014349402392e-03
3.371999999999999886e+01,1.608461236157533378e-02
3.375999999999999801e+01,1.126455140017762827e-02
3.379999999999999716e+01,3.947440590387841022e-03
3.384000000000000341e+01,1.132619356258798490e-02
3.388000000000000256e+01,8.574528535035255347e-03
3.392000000000000171e+01,9.461044401639676429e-03
3.396000000000000085e+01,8.635249444342777206e-03
3.400000000000000000e+01,1.066289670278615029e-02
3.403999999999999915e+01,1.532996656361931484e-02
3.407999999999999829e+01,8.297141125544856693e-03
3.411999999999999744e+01,1.638821921527218450e-02
3.415999999999999659e+01,9.283747494634701433e-03
3.420000000000000284e+01,7.172914988427423096e-03
3.424000000000000199e+01,6.274707566141503497e-03
3.428000000000000114e+01,1.065549903501637752e-02
3.432000000000000028e+01,5.476592261352495813e-03
3.435999999999999943e+01,9.000999230679367080e-03
3.439999999999999858e+01,1.024237688782839162e-02
3.443999999999999773e+01,5.205691431261249072e-03
3.447999999999999687e+01,1.037045758792825775e-02
3.452000000000000313e+01,1.360889405717022327e-02
3.456000000000000227e+01,1.256678451534158983e-02
3.460000000000000142e+01,1.145318255036817043e-02
3.464000000000000057e+01,1.083880734267427329e-02
3.467999999999999972e+01,1.207911686645900956e-02
3.471999999999999886e+01,7.612082803025811695e-03
3.475999999999999801e+01,1.092094448491197876e-02
3.479999999999999716e+01,7.737723901163350709e-03
3.484000000000000341e+01,1.582605380490718916e-02
3.488000000000000256e+01,1.214314967297987907e-02
3.492000000000000171e+01,1.445264425850876534e-02
3.496000000000000085e+01,1.062675626083455817e-02
3.500000000000000000e+01,4.874539267883072277e-03
3.503999999999999915e+01,1.353282822591828256e-02
3.507999999999999829e+01,8.565046287754930765e-03
3.511999999999999744e+01,1.073110160093332030e-02
3.515999999999999659e+01,1.040010902680500032e-02
3.520000000000000284e+01,1.042566423677563671e-02
3.524000000000000199e+01,1.380404268293715375e-02
3.528000000000000114e+01,1.297321604659292145e-02
3.532000000000000028e+01,2.006096574376017155e-02
3.535999999999999943e+01,1.395068429054071614e-02
3.539999999999999858e+01,1.219198476903240839e-02
3.543999999999999773e+01,1.335806943005088919e-02
3.547999999999999687e+01,1.659285964715715572e-02
3.552000000000000313e+01,1.683122326366540827e-02
3.556000000000000227e+01,1.257502264004812208e-02
3.560000000000000142e+01,1.573801952129303544e-02
3.564000000000000057e+01,1.590458997497685295e-02
3.567999999999999972e+01,8.223621515443282209e-03
3.571999999999999886e+01,1.901953373699959843e-02
3.575999999999999801e+01,1.904297165662666505e-02
3.579999999999999716e+01,1.942295822553740531e-02
3.584000000000000341e+01,2.486792626405971013e-02
3.588000000000000256e+01,1.483198741104078608e-02
3.592000000000000171e+01,2.284489018544763952e-02
3.596000000000000085e+01,2.172613642421299465e-02
3.600000000000000000e+01,2.788390096394401454e-02
3.603999999999999915e+01,2.861968338123612593e-02
3.607999999999999829e+01,2.628770011509277971e-02
3.611999999999999744e+01,3.672540687937584508e-02
3.615999999999999659e+01,2.947067055523238180e-02
3.620000000000000284e+01,3.127595007902866237e-02
3.624000000000000199e+01,2.915738546598742667e-02
3.628000000000000114e+01,2.718135052334813215e-02
3.632000000000000028e+01,2.798742125148688531e-02
3.635999999999999943e+01,2.558304691925673835e-02
3.639999999999999858e+01,3.216734883301806958e-02
3.643999999999999773e+01,3.361502876250296867e-02
3.647999999999999687e+01,3.627533700593221083e-02
3.652000000000000313e+01,3.950621460789626588e-02
3.656000000000000227e+01,3.396213599111937848e-02
3.660000000000000142e+01,2.877460717720577502e-02
3.664000000000000057e+01,3.079225769677838495e-02
3.667999999999999972e+01,3.323779802491541591e-02
3.671999999999999886e+01,3.104609600493104388e-02
3.675999999999999801e+01,2.671404785651508573e-02
3.679999999999999716e+01,3.372489291220489432e-02
3.684000000000000341e+01,3.638385535418290490e-02
3.688000000000000256e+01,3.126662050365616036e-02
3.692000000000000171e+01,3.585146155237931009e-02
3.696000000000000085e+01,3.808193709003626637e-02
3.700000000000000000e+01,4.373657829210249315e-02
3.703999999999999915e+01,3.576515142424022825e-02
3.707999999999999829e+01,3.885125860286393895e-02
3.711999999999999744e+01,4.008237973353958455e-02
3.715999999999999659e+01,5.279907436811812765e-02
3.720000000000000284e+01,4.732394818152152460e-02
3.724000000000000199e+01,5.190759780732252110e-02
3.728000000000000114e+01,5.670511843584313122e-02
3.732000000000000028e+01,5.979033308549688841e-02
3.735999999999999943e+01,5.567007025753899913e-02
3.739999999999999858e+01,6.474753864779389523e-02
3.743999999999999773e+01,6.583479088202029428e-02
3.747999999999999687e+01,7.790823784917932926e-02
3.752000000000000313e+01,7.813911469713680225e-02
3.756000000000000227e+01,8.443373395970642237e-02
3.760000000000000142e+01,8.808862907270093023e-02
3.764000000000000057e+01,9.145801647512372123e-02
3.767999999999999972e+01,1.024606240527452111e-01
3.771999999999999886e+01,1.263756037486387374e-01
3.775999999999999801e+01,1.308859852950290392e-01
3.779999999999999716e+01,1.543012898638752017e-01
3.784000000000000341e+01,1.888454694654512211e-01
3.788000000000000256e+01,2.090501833049256963e-01
3.792000000000000171e+01,2.376015165691044428e-01
3.796000000000000085e+01,2.816334583499830457e-01
3.800000000000000000e+01,3.368656152846505880e-01
3.803999999999999915e+01,4.075783808513759321e-01
3.807999999999999829e+01,4.851396283763149131e-01
3.811999999999999744e+01,5.909513250200965073e-01
3.815999999999999659e+01,7.337169374622658502e-01
3.820000000000000284e+01,8.565072332666553434e-01
3.824000000000000199e+01,9.621044682143277127e-01
3.828000000000000114e+01,1.000000000000000000e+00
3.832000000000000028e+01,9.763290592508637733e-01
3.835999999999999943e+01,8.791778843372892727e-01
3.839999999999999858e+01,7.672592050693808341e-01
3.843999999999999773e+01,6.329396532380989759e-01
3.847999999999999687e+01,5.404251302099720711e-01
3.852000000000000313e+01,4.310742461805965320e-01
3.856000000000000227e+01,3.634570511793905889e-01
3.860000000000000142e+01,2.977658864525467575e-01
3.864000000000000057e+01,2.523351038759376608e-01
3.867999999999999972e+01,2.227416303059658320e-01
3.871999999999999886e+01,1.952168669640793330e-01
3.875999999999999801e+01,1.714729712761931257e-01
3.879999999999999716e+01,1.518666427517019746e-01
3.884000000000000341e+01,1.350424235317647104e-01
3.888000000000000256e+01,1.214996929064625086e-01
3.892000000000000171e+01,1.140920465472010092e-01
3.896000000000000085e+01,1.006917031533209328e-01
3.900000000000000000e+01,1.000610539427539136e-01
3.903999999999999915e+01,9.329502803223996277e-02
3.907999999999999829e+01,8.124970416357608916e-02
3.911999999999999744e+01,7.476874572660244245e-02
3.915999999999999659e+01,6.871568067429005555e-02
3.920000000000000284e+01,6.558740522632877656e-02
3.924000000000000199e+01,6.695339702794719794e-02
3.928000000000000114e+01,5.640548135789611589e-02
3.932000000000000028e+01,5.349078822788200238e-02
3.935999999999999943e+01,5.435696361705288915e-02
3.939999999999999858e+01,4.951580216744670693e-02
3.943999999999999773e+01,4.774211044895178974e-02
3.947999999999999687e+01,4.439879564694137332e-02
3.952000000000000313e+01,4.790396487958799993e-02
3.956000000000000227e+01,4.555911772348711364e-02
3.960000000000000142e+01,4.499762250303649541e-02
3.964000000000000057e+01,4.343722355253160083e-02
3.967999999999999972e+01,3.916576356141544812e-02
3.971999999999999886e+01,4.131474855129226714e-02
3.975999999999999801e+01,3.611557974361000178e-02
3.979999999999999716e+01,4.497022429899742019e-02
3.984000000000000341e+01,4.048416438335777218e-02
3.988000000000000256e+01,3.285900437344279473e-02
3.992000000000000171e+01,3.771818031208479943e-02
3.996000000000000085e+01,3.579992186430794310e-02
4.000000000000000000e+01,3.723449351652081268e-02
4.003999999999999915e+01,3.602934453757641875e-02
4.007999999999999829e+01,3.453869136647821220e-02
4.011999999999999744e+01,2.926687943409007897e-02
4.015999999999999659e+01,3.005881366544786368e-02
4.020000000000000284e+01,3.313347993004277930e-02
4.024000000000000199e+01,2.700515594030406669e-02
4.028000000000000114e+01,3.093561214656553524e-02
4.032000000000000028e+01,3.037151097650031203e-02
4.035999999999999943e+01,3.002128525043633311e-02
4.039999999999999858e+01,2.981359513570937605e-02
4.043999999999999773e+01,2.846432266382149107e-02
4.047999999999999687e+01,3.018252142269841481e-02
4.052000000000000313e+01,3.018841881702702054e-02
4.056000000000000227e+01,3.261972854438990183e-02
4.060000000000000142e+01,3.212595888672863803e-02
4.064000000000000057e+01,2.913514924378115406e-02
4.067999999999999972e+01,3.527570179916250659e-02
4.071999999999999886e+01,3.421078172196666961e-02
4.075999999999999801e+01,2.679646775399062084e-02
4.079999999999999716e+01,3.129577188076382993e-02
4.084000000000000341e+01,3.072980025829176107e-02
4.088000000000000256e+01,3.494345781161031089e-02
4.092000000000000171e+01,3.237968236280560491e-02
4.096000000000000085e+01,2.995844333284366362e-02
4.100000000000000000e+01,2.960591781866898226e-02
4.103999999999999915e+01,2.746975179942958215e-02
4.107999999999999829e+01,3.560638680079950685e-02
4.111999999999999744e+01,3.197179676441942731e-02
4.115999999999999659e+01,3.026324069385618459e-02
4.120000000000000284e+01,3.190751645365211275e-02
4.124000000000000199e+01,3.476442739119119801e-02
4.128000000000000114e+01,3.241338343326748139e-02
4.132000000000000028e+01,2.314222726932394988e-02
4.135999999999999943e+01,2.714014792415558527e-02
4.139999999999999858e+01,2.635815319862034808e-02
4.143999999999999773e+01,2.935702999157716736e-02
4.147999999999999687e+01,2.686259261609344126e-02
4.152000000000000313e+01,2.422533290558557054e-02
4.156000000000000227e+01,2.544028477694985219e-02
4.160000000000000142e+01,2.801055212585448068e-02
4.164000000000000057e+01,2.829780060247693088e-02
4.167999999999999972e+01,2.780016796170267993e-02
4.171999999999999886e+01,2.587559524812225314e-02
4.175999999999999801e+01,2.530633824279806404e-02
4.179999999999999716e+01,1.981448665321048838e-02
4.184000000000000341e+01,2.566553553528038920e-02
4.188000000000000256e+01,2.110081839202107915e-02
4.192000000000000171e+01,2.416932753793256741e-02
4.196000000000000085e+01,1.746412978696131740e-02
4.200000000000000000e+01,2.046101526047060942e-02
4.203999999999999915e+01,2.616867476250919755e-02
4.207999999999999829e+01,1.782223412011203420e-02
4.211999999999999744e+01,2.574114678680365642e-02
4.215999999999999659e+01,2.388635284500744901e-02
4.220000000000000284e+01,2.538439217554494878e-02
4.224000000000000199e+01,2.374333481486699468e-02
4.228000000000000114e+01,2.131739720197710006e-02
4.232000000000000028e+01,1.889131818832904749e-02
4.235999999999999943e+01,2.167290982665291341e-02
4.239999999999999858e+01,2.045932632035929108e-02
4.243999999999999773e+01,2.145713818698261749e-02
4.247999999999999687e+01,2.473768537454502925e-02
4.252000000000000313e+01,2.530717561670387319e-02
4.256000000000000227e+01,2.316560897113812897e-02
4.260000000000000142e+01,2.444821606503909048e-02
4.264000000000000057e+01,2.266306693485760013e-02
4.267999999999999972e+01,2.266127418160792523e-02
4.271999999999999886e+01,2.651169468292088535e-02
4.275999999999999801e+01,2.501148264220700787e-02
4.279999999999999716e+01,2.615070583557992448e-02
4.284000000000000341e+01,1.965642011130267625e-02
4.288000000000000256e+01,2.635987350725872355e-02
4.292000000000000171e+01,2.771269459190389348e-02
4.296000000000000085e+01,2.285880473879915373e-02
4.300000000000000000e+01,2.628020174528621078e-02
4.303999999999999915e+01,3.269773378364976280e-02
4.307999999999999829e+01,2.955558021117153655e-02
4.311999999999999744e+01,3.083635959279110161e-02
4.315999999999999659e+01,2.676650700917367412e-02
4.320000000000000284e+01,3.175668036731774807e-02
4.324000000000000199e+01,3.111086231421014703e-02
4.328000000000000114e+01,3.053624413498310514e-02
4.332000000000000028e+01,3.031818544868828541e-02
4.335999999999999943e+01,3.288224258467228878e-02
4.339999999999999858e+01,3.887047461370263940e-02
4.343999999999999773e+01,4.000745431365100580e-02
4.347999999999999687e+01,3.836203856214821101e-02
4.352000000000000313e+01,4.056883721878766502e-02
4.356000000000000227e+01,3.913716185521594337e-02
4.360000000000000142e+01,4.676551301019556128e-02
4.364000000000000057e+01,4.761643508522264007e-02
4.367999999999999972e+01,4.811051826886110494e-02
4.371999999999999886e+01,4.682096481192663667e-02
4.375999999999999801e+01,5.409205887185725148e-02
4.379999999999999716e+01,5.929415684520025071e-02
4.384000000000000341e+01,5.907428394350573014e-02
4.388000000000000256e+01,7.141009259093059058e-02
4.392000000000000171e+01,7.325879826431115627e-02
4.396000000000000085e+01,7.974445777407758451e-02
4.400000000000000000e+01,8.758543622212326685e-02
4.403999999999999915e+01,9.285803969725299478e-02
4.407999999999999829e+01,9.691772617366593845e-02
4.411999999999999744e+01,1.073265240854167080e-01
4.415999999999999659e+01,1.183059023723877917e-01
4.420000000000000284e+01,1.292851419695128512e-01
4.424000000000000199e+01,1.401215631537845452e-01
4.428000000000000114e+01,1.467487922333213790e-01
4.432000000000000028e+01,1.677152007550255230e-01
4.435999999999999943e+01,1.893948697210312282e-01
4.439999999999999858e+01,1.943808659452849752e-01
4.443999999999999773e+01,2.045745358208177211e-01
4.447999999999999687e+01,2.072060390338817393e-01
4.452000000000000313e+01,2.099800837992178704e-01
4.456000000000000227e+01,2.145374876523980512e-01
4.460000000000000142e+01,2.027579185039369292e-01
4.464000000000000057e+01,1.917629500938734244e-01
4.467999999999999972e+01,1.807678436861117621e-01
4.471999999999999886e+01,1.632093294267594752e-01
4.475999999999999801e+01,1.447945986009489816e-01
4.479999999999999716e+01,1.335137189847937500e-01
4.484000000000000341e+01,1.142426338832216587e-01
4.488000000000000256e+01,1.078839312244592591e-01
4.492000000000000171e+01,1.021671499271610273e-01
4.496000000000000085e+01,9.281189662841593524e-02
4.500000000000000000e+01,7.881941292109868880e-02
4.503999999999999915e+01,7.517107583495308276e-02
4.507999999999999829e+01,6.210573580260117521e-02
4.511999999999999744e+01,5.838578404197456578e-02
4.515999999999999659e+01,5.552177365991550068e-02
4.520000000000000284e+01,5.351370471410293872e-02
4.524000000000000199e+01,4.608366691201726956e-02
4.528000000000000114e+01,3.786875318364325144e-02
4.532000000000000028e+01,4.349364110700892905e-02
4.535999999999999943e+01,3.963018659757795714e-02
4.539999999999999858e+01,3.562391534798411280e-02
4.543999999999999773e+01,2.726577388565953886e-02
4.547999999999999687e+01,3.189135562167257770e-02
4.552000000000000313e+01,2.752797438800708846e-02
4.556000000000000227e+01,2.822958863994571785e-02
4.560000000000000142e+01,2.008491981825012360e-02
4.564000000000000057e+01,2.513799409663755938e-02
4.567999999999999972e+01,2.091674607468972311e-02
4.571999999999999886e+01,2.440006971175909256e-02
4.575999999999999801e+01,1.946514984796915773e-02
4.579999999999999716e+01,2.373293945576087846e-02
4.584000000000000341e+01,2.158000260765988165e-02
4.588000000000000256e+01,1.564591530404231892e-02
4.592000000000000171e+01,1.891453764504336110e-02
4.596000000000000085e+01,1.947210800103325867e-02
4.600000000000000000e+01,1.339493246081689334e-02
4.603999999999999915e+01,1.901736290026687093e-02
4.607999999999999829e+01,1.386733391896491016e-02
4.611999999999999744e+01,1.235550342390953453e-02
4.615999999999999659e+01,1.362579278866171695e-02
4.620000000000000284e+01,1.289842941790831157e-02
4.624000000000000199e+01,1.359772810580026949e-02
4.628000000000000114e+01,8.018980752954646754e-03
4.632000000000000028e+01,1.492457857730309506e-02
4.635999999999999943e+01,1.041565837156397702e-02
4.639999999999999858e+01,9.544937055824289501e-03
4.643999999999999773e+01,1.623610865663715347e-02
4.647999999999999687e+01,1.015730448387925332e-02
4.652000000000000313e+01,1.178307312371822471e-02
4.656000000000000227e+01,1.290932724436890354e-02
4.660000000000000142e+01,8.898974031204529012e-03
4.664000000000000057e+01,1.123773588715378142e-02
4.667999999999999972e+01,9.581328770136591719e-03
4.671999999999999886e+01,1.006498330734420868e-02
4.675999999999999801e+01,1.061984273650381366e-02
4.679999999999999716e+01,5.895415339556915775e-03
4.684000000000000341e+01,3.168369989185456075e-03
4.688000000000000256e+01,1.000073511944397746e-02
4.692000000000000171e+01,1.162515348697614088e-02
4.696000000000000085e+01,1.203665900867817787e-02
4.700000000000000000e+01,8.167636457472962977e-03
4.703999999999999915e+01,9.648971087366875130e-03
4.707999999999999829e+01,9.346673921722311110e-03
4.711999999999999744e+01,7.974143921649912148e-03
4.715999999999999659e+01,9.169715552330086339e-03
4.720000000000000284e+01,1.172061073560804086e-02
4.724000000000000199e+01,1.106107654720014412e-02
4.728000000000000114e+01,1.082944745228677126e-02
4.732000000000000028e+01,3.035655790112383890e-03
4.735999999999999943e+01,9.937747405423724353e-03
4.739999999999999858e+01,8.778297336429829317e-03
4.743999999999999773e+01,1.261250557360904696e-02
4.747999999999999687e+01,7.172394106007166058e-03
4.752000000000000313e+01,1.064963502881051231e-02
4.756000000000000227e+01,1.027438802827132340e-02
4.760000000000000142e+01,7.544790859275082515e-03
4.764000000000000057e+01,9.452152833131043444e-03
4.767999999999999972e+01,6.365588811190777893e-03
4.771999999999999886e+01,1.155431845496214006e-02
4.775999999999999801e+01,3.830394390203802849e-03
4.779999999999999716e+01,8.234118185046034391e-03
4.784000000000000341e+01,7.144536982405794677e-03
4.788000000000000256e+01,6.839561190160678081e-03
4.792000000000000171e+01,9.174028014911973436e-03
4.796000000000000085e+01,6.585909137963084567e-03
4.800000000000000000e+01,9.704848278124719729e-03
4.803999999999999915e+01,1.132551656841610660e-02
4.807999999999999829e+01,3.814545799797434793e-03
4.811999999999999744e+01,7.789164339122689462e-03
4.815999999999999659e+01,8.410675052692303047e-03
4.820000000000000284e+01,4.608979643037785373e-03
4.824000000000000199e+01,5.872283583479186685e-03
4.828000000000000114e+01,6.422055813899041343e-03
4.832000000000000028e+01,4.118099681681351189e-03
4.835999999999999943e+01,5.523685156076375315e-03
4.839999999999999858e+01,3.504823260446488821e-03
4.843999999999999773e+01,7.621059358454934478e-03
4.847999999999999687e+01,8.170168421110086260e-03
4.852000000000000313e+01,3.725352699227631442e-03
4.856000000000000227e+01,6.842432950883763076e-03
4.860000000000000142e+01,8.033203818116377640e-03
4.864000000000000057e+01,4.872109086936822660e-03
4.867999999999999972e+01,4.849837301056489705e-03
4.871999999999999886e+01,6.896290163006897275e-03
4.875999999999999801e+01,7.729832774681391801e-03
4.879999999999999716e+01,5.852327496552430300e-03
4.884000000000000341e+01,4.973448684143668037e-03
4.888000000000000256e+01,7.946792008860710174e-03
4.892000000000000171e+01,4.570753209309790302e-03
4.896000000000000085e+01,5.403636113958477059e-03
4.900000000000000000e+01,6.735766482641118713e-03
4.903999999999999915e+01,1.035064163161583672e-02
4.907999999999999829e+01,9.684991706990338234e-03
4.911999999999999744e+01,9.090550077376746696e-03
4.915999999999999659e+01,8.781336471483523060e-03
4.920000000000000284e+01,5.475715991204013755e-03
4.924000000000000199e+01,6.379017618877000709e-03
4.928000000000000114e+01,1.184794086389724665e-02
4.932000000000000028e+01,1.382107817516600723e-02
4.935999999999999943e+01,4.807741124329831944e-03
4.939999999999999858e+01,5.496497968585829091e-03
4.943999999999999773e+01,2.689469052127275474e-03
4.947999999999999687e+01,3.163944015233926665e-03
4.952000000000000313e+01,8.132701051418599406e-03
4.956000000000000227e+01,7.465475789630681216e-03
4.960000000000000142e+01,1.072181359353339622e-02
4.964000000000000057e+01,5.345893820408520632e-03
4.967999999999999972e+01,7.603211526176887128e-03
4.971999999999999886e+01,6.792783217042567233e-03
4.975999999999999801e+01,2.985948841027728350e-03
4.979999999999999716e+01,6.812352116943055751e-03
4.984000000000000341e+01,8.284408454424307261e-03
4.988000000000000256e+01,5.190581310512318650e-03
4.992000000000000171e+01,4.094140654457348143e-03
4.996000000000000085e+01,9.917538977616834756e-03
5.000000000000000000e+01,5.396522874623568833e-03
5.003999999999999915e+01,8.794104331007048664e-03
5.007999999999999829e+01,3.559428844831726176e-03
5.011999999999999744e+01,9.382306208490412414e-03
5.015999999999999659e+01,9.141162797302239407e-03
5.020000000000000284e+01,5.047535269584340657e-03
5.024000000000000199e+01,8.159106686206438197e-03
5.028000000000000114e+01,6.348095746509268243e-03
5.032000000000000028e+01,7.604570226606433003e-03
5.035999999999999943e+01,6.863397969812109339e-03
5.039999999999999858e+01,4.481278485521114630e-03
5.043999999999999773e+01,5.452004155434044853e-03
5.047999999999999687e+01,5.923220958698915267e-03
5.052000000000000313e+01,6.536987966083224882e-03
5.056000000000000227e+01,7.364645125609099036e-03
5.060000000000000142e+01,5.124557539169892831e-03
5.064000000000000057e+01,6.879374408418010949e-03
5.067999999999999972e+01,5.637786537402184918e-03
5.071999999999999886e+01,5.680187404391343932e-03
5.075999999999999801e+01,6.150498382946478250e-03
5.079999999999999716e+01,8.332837556923549868e-03
5.084000000000000341e+01,8.160831234441105753e-03
5.088000000000000256e+01,7.132617170384583996e-03
5.092000000000000171e+01,8.458490487875449174e-03
5.096000000000000085e+01,5.503841442678265340e-03
5.100000000000000000e+01,6.116058030220232304e-03
5.103999999999999915e+01,8.368963268914867901e-03
5.107999999999999829e+01,6.983405331046890242e-03
5.111999999999999744e+01,4.527620326649224591e-03
5.115999999999999659e+01,6.138080418108831163e-03
5.120000000000000284e+01,6.107594435651392609e-03
5.124000000000000199e+01,7.361097941025704881e-03
5.128000000000000114e+01,1.196744781186256067e-02
5.132000000000000028e+01,6.871444173041568911e-03
5.135999999999999943e+01,4.700247672982088738e-03
5.139999999999999858e+01,1.051899058372788957e-02
5.143999999999999773e+01,8.062177964716097170e-03
5.147999999999999687e+01,2.466281978333665238e-03
5.152000000000000313e+01,8.284640312265426423e-03
5.156000000000000227e+01,7.539600657712522934e-03
5.160000000000000142e+01,1.014740783005402443e-02
5.164000000000000057e+01,7.832634607161645390e-03
5.167999999999999972e+01,6.516491945197154176e-03
5.171999999999999886e+01,7.197738366643862372e-03
5.175999999999999801e+01,8.092876670601580058e-03
5.179999999999999716e+01,5.777592178277344073e-03
5.184000000000000341e+01,7.599893652696224251e-03
5.188000000000000256e+01,5.997752775161599263e-03
5.192000000000000171e+01,4.181464668794914602e-03
5.196000000000000085e+01,1.156789491657308697e-02
5.200000000000000000e+01,9.465992306265611292e-03
5.203999999999999915e+01,6.079844285015523382e-03
5.207999999999999829e+01,5.975203892464449676e-03
5.211999999999999744e+01,7.297234037369071044e-03
5.215999999999999659e+01,8.333777409172364939e-03
5.220000000000000284e+01,6.659277793885661108e-03
5.224000000000000199e+01,9.122364722131914155e-03
5.228000000000000114e+01,9.730487462764118162e-03
5.232000000000000028e+01,8.055606731402278897e-03
5.235999999999999943e+01,5.667200173275026114e-03
5.239999999999999858e+01,7.345040499053483163e-03
5.243999999999999773e+01,1.037821193337629989e-02
5.247999999999999687e+01,8.560144074067013373e-03
5.252000000000000313e+01,3.174955004981613784e-03
5.256000000000000227e+01,7.420524497284781452e-03
5.260000000000000142e+01,9.882470153748927622e-03
5.264000000000000057e+01,1.070347181273939401e-02
5.267999999999999972e+01,9.669509860905645127e-03
5.271999999999999886e+01,1.284447503509575199e-02
5.275999999999999801e+01,7.529866911905200300e-03
5.279999999999999716e+01,7.636964165930321992e-03
5.284000000000000341e+01,7.601255408083110177e-03
5.288000000000000256e+01,8.992218283592241443e-03
5.292000000000000171e+01,6.673380745428746097e-03
5.296000000000000085e+01,6.565953749754354328e-03
5.300000000000000000e+01,8.384577792875410121e-03
5.303999999999999915e+01,7.920199402224102278e-03
5.307999999999999829e+01,9.025172714010350553e-03
5.311999999999999744e+01,1.177083767625633319e-02
5.315999999999999659e+01,1.266153971982587889e-02
5.320000000000000284e+01,1.069852043759363623e-02
5.324000000000000199e+01,1.059021264988757247e-02
5.328000000000000114e+01,5.916026283501705195e-03
5.332000000000000028e+01,8.946422535139591375e-03
5.335999999999999943e+01,7.981659446200958449e-03
5.339999999999999858e+01,9.870366547308740204e-03
5.343999999999999773e+01,8.834012778345489217e-03
5.347999999999999687e+01,3.160440828754170362e-03
5.352000000000000313e+01,8.473086741367128610e-03
5.356000000000000227e+01,7.935736452876190200e-03
5.360000000000000142e+01,1.132195499797405795e-02
5.364000000000000057e+01,1.128373372899361612e-02
5.367999999999999972e+01,8.748491278075004596e-03
5.371999999999999886e+01,1.106423640824333657e-02
5.375999999999999801e+01,6.531227160898321268e-03
5.379999999999999716e+01,9.488781552695335630e-03
5.384000000000000341e+01,1.123343301944710292e-02
5.388000000000000256e+01,9.910344469910282311e-03
5.392000000000000171e+01,1.072732795681496758e-02
5.396000000000000085e+01,8.975950775191216674e-03
5.400000000000000000e+01,1.050608399085758288e-02
5.403999999999999915e+01,7.827039175460633047e-03
5.407999999999999829e+01,8.786204324427627707e-03
5.411999999999999744e+01,7.034329254895754432e-03
5.415999999999999659e+01,8.706644594056275888e-03
5.420000000000000284e+01,8.595338404537043731e-03
5.424000000000000199e+01,7.271129866762406947e-03
5.428000000000000114e+01,1.193934796307107547e-02
5.432000000000000028e+01,7.547275888734001313e-03
5.435999999999999943e+01,8.648251331436058315e-03
5.439999999999999858e+01,8.679004437284927598e-03
5.443999999999999773e+01,7.924894825332276516e-03
5.447999999999999687e+01,8.383439482865724310e-03
5.452000000000000313e+01,5.916924827660647972e-03
5.456000000000000227e+01,8.586758526173738151e-03
5.460000000000000142e+01,9.258951601767416786e-03
5.464000000000000057e+01,9.574321590013484470e-03
5.467999999999999972e+01,9.390188767904563555e-03
5.471999999999999886e+01,1.063273023238514407e-02
5.475999999999999801e+01,1.066237009843706320e-02
5.479999999999999716e+01,1.261806359883857823e-02
5.484000000000000341e+01,1.086395945415858169e-02
5.488000000000000256e+01,8.539012897175370792e-03
5.492000000000000171e+01,1.020897696753050171e-02
5.496000000000000085e+01,7.883784004468411336e-03
5.500000000000000000e+01,1.076627991993647955e-02
5.503999999999999915e+01,8.797540233227306786e-03
5.507999999999999829e+01,1.182246986937672377e-02
5.511999999999999744e+01,1.099492248351118147e-02
5.515999999999999659e+01,1.080931122492911726e-02
5.520000000000000284e+01,1.155099571268215081e-02
5.524000000000000199e+01,1.393337490788092853e-02
5.528000000000000114e+01,1.289131665383966979e-02
5.532000000000000028e+01,1.120707673162079504e-02
5.535999999999999943e+01,9.380034431305469406e-03
5.539999999999999858e+01,9.407706740181313865e-03
5.543999999999999773e+01,6.367641282248878189e-03
5.547999999999999687e+01,1.388575717073182135e-02
5.552000000000000313e+01,1.212956494790897420e-02
5.556000000000000227e+01,1.037325041607094385e-02
5.560000000000000142e+01,1.161308902730963898e-02
5.564000000000000057e+01,9.499830598762283584e-03
5.567999999999999972e+01,7.029750582520850541e-03
5.571999999999999886e+01,1.062343916714921475e-02
5.575999999999999801e+01,6.440957683752175297e-03
5.579999999999999716e+01,7.537506122808094663e-03
5.584000000000000341e+01,7.991873643513197623e-03
5.588000000000000256e+01,1.165641438207739786e-02
5.592000000000000171e+01,8.828903309509117045e-03
5.596000000000000085e+01,1.035300381564857250e-02
5.600000000000000000e+01,1.045018484037828557e-02
5.603999999999999915e+01,1.019054479652472915e-02
5.607999999999999829e+01,9.431403961080575896e-03
5.611999999999999744e+01,8.743481514470097596e-03
5.615999999999999659e+01,7.270698830254314869e-03
5.620000000000000284e+01,1.343116302660580554e-02
5.624000000000000199e+01,1.438369389943363469e-02
5.628000000000000114e+01,9.628912274014633788e-03
5.632000000000000028e+01,9.368422527100539812e-03
5.635999999999999943e+01,1.545706186529264767e-02
5.639999999999999858e+01,1.262809381283239336e-02
5.643999999999999773e+01,1.058374351406935095e-02
5.647999999999999687e+01,1.303368532452714793e-02
5.652000000000000313e+01,1.370000895168611670e-02
5.656000000000000227e+01,1.258271445322528374e-02
5.660000000000000142e+01,1.531765322393372798e-02
5.664000000000000057e+01,1.398609749339897908e-02
5.667999999999999972e+01,1.222638172680154053e-02
5.671999999999999886e+01,1.517497808652829017e-02
5.675999999999999801e+01,1.498449869250998573e-02
5.679999999999999716e+01,1.500791844855438838e-02
5.684000000000000341e+01,1.453183850890882138e-02
5.688000000000000256e+01,1.198678134370265505e-02
5.692000000000000171e+01,1.093974152777311103e-02
5.696000000000000085e+01,1.353091582909418666e-02
5.700000000000000000e+01,1.319703439377359691e-02
5.703999999999999915e+01,1.107953552498094560e-02
5.707999999999999829e+01,1.195819193338736042e-02
5.711999999999999744e+01,1.219466926917035787e-02
5.715999999999999659e+01,1.307308561618592165e-02
5.720000000000000284e+01,1.302396344456334919e-02
5.724000000000000199e+01,1.304606127678594601e-02
5.728000000000000114e+01,1.599297478425937280e-02
5.732000000000000028e+01,1.587215323583662449e-02
5.735999999999999943e+01,1.710666989047299885e-02
5.739999999999999858e+01,1.099305818398123302e-02
5.743999999999999773e+01,1.187063613301664496e-02
5.747999999999999687e+01,1.374685300643229031e-02
5.752000000000000313e+01,1.383945313852368540e-02
5.756000000000000227e+01,1.065029888976330545e-02
5.760000000000000142e+01,1.145605913283307548e-02
5.764000000000000057e+01,9.907483684870209070e-03
5.767999999999999972e+01,1.164042394066381117e-02
5.771999999999999886e+01,1.130438818215537093e-02
5.775999999999999801e+01,1.389316879104552510e-02
5.779999999999999716e+01,1.448431339133480003e-02
5.784000000000000341e+01,1.593141765442879221e-02
5.788000000000000256e+01,1.174255161677839610e-02
5.792000000000000171e+01,9.836443164154051733e-03
5.796000000000000085e+01,1.256730873555915104e-02
5.800000000000000000e+01,1.608279431014176045e-02
5.803999999999999915e+01,1.460436882778440651e-02
5.807999999999999829e+01,1.498066181910999960e-02
5.811999999999999744e+01,1.107644277228524328e-02
5.815999999999999659e+01,1.266527672200287030e-02
5.820000000000000284e+01,1.204245556887993500e-02
5.824000000000000199e+01,1.248961432638104156e-02
5.828000000000000114e+01,1.086779787708586596e-02
5.832000000000000028e+01,1.145739969926339204e-02
5.835999999999999943e+01,1.176152368858173446e-02
5.839999999999999858e+01,1.491912507781920777e-02
5.843999999999999773e+01,1.422425423239718698e-02
5.847999999999999687e+01,1.452802375332994979e-02
5.852000000000000313e+01,1.490301512383529481e-02
5.856000000000000227e+01,1.527788851124906554e-02
5.860000000000000142e+01,1.351244726295526728e-02
5.864000000000000057e+01,1.488584332202712822e-02
5.867999999999999972e+01,1.647314124207384725e-02
5.871999999999999886e+01,1.392260776984128624e-02
5.875999999999999801e+01,1.244205495805953375e-02
5.879999999999999716e+01,1.231684242578023718e-02
5.884000000000000341e+01,1.376098990171188870e-02
5.888000000000000256e+01,1.392090182980681642e-02
5.892000000000000171e+01,1.393801651323465542e-02
5.896000000000000085e+01,1.502511214550821331e-02
5.900000000000000000e+01,1.261643580234387066e-02
5.903999999999999915e+01,1.883976889975878463e-02
5.907999999999999829e+01,1.479004055449298187e-02
5.911999999999999744e+01,1.152493382741617833e-02
5.915999999999999659e+01,1.097062581547280161e-02
5.920000000000000284e+01,1.362649580874402723e-02
5.924000000000000199e+01,1.314329362436705492e-02
5.928000000000000114e+01,1.330203350820864487e-02
5.932000000000000028e+01,1.367467617588880892e-02
5.935999999999999943e+01,1.568801949194983947e-02
5.939999999999999858e+01,1.206539469906778642e-02
5.943999999999999773e+01,1.457788376154401690e-02
5.947999999999999687e+01,1.473603978622076323e-02
5.952000000000000313e+01,1.089904535288420406e-02
5.956000000000000227e+01,1.405324363206085503e-02
5.960000000000000142e+01,1.478176915613180209e-02
5.964000000000000057e+01,1.672295639027750191e-02
5.967999999999999972e+01,1.402693438403729981e-02
5.971999999999999886e+01,1.639592828176076461e-02
5.975999999999999801e+01,1.576853053234912594e-02
5.979999999999999716e+01,1.357153900034469528e-02
5.984000000000000341e+01,1.601152420328187317e-02
5.988000000000000256e+01,1.388564034457124598e-02
5.992000000000000171e+01,1.504127541964004992e-02
5.996000000000000085e+01,1.377123825871397374e-02
