2.003999999999999915e+01,2.760039413663850291e-03
2.007999999999999829e+01,1.741676213059449368e-03
2.012000000000000099e+01,2.282768753087005206e-03
2.016000000000000014e+01,2.918293938824362624e-03
2.019999999999999929e+01,3.979063508892728869e-03
2.023999999999999844e+01,3.054878140188115477e-03
2.028000000000000114e+01,3.595631124329705993e-03
2.032000000000000028e+01,3.238381949622574831e-03
2.035999999999999943e+01,2.077648297642809352e-03
2.039999999999999858e+01,2.901700100282766578e-03
2.044000000000000128e+01,2.733232297529777661e-03
2.048000000000000043e+01,1.855797816596161092e-03
2.051999999999999957e+01,3.293960646419555327e-03
2.055999999999999872e+01,3.786862858532968022e-03
2.060000000000000142e+01,2.531104717740378148e-03
2.064000000000000057e+01,1.653332796207331165e-03
2.067999999999999972e+01,2.240499815100133619e-03
2.071999999999999886e+01,3.063876736541230016e-03
2.076000000000000156e+01,2.233111162926297317e-03
2.080000000000000071e+01,1.733073232193718801e-03
2.083999999999999986e+01,3.595891893690919810e-03
2.087999999999999901e+01,5.127814955859593370e-03
2.092000000000000171e+01,4.674784078140687901e-03
2.096000000000000085e+01,3.701822472972969829e-03
2.100000000000000000e+01,2.397965444750599796e-03
2.103999999999999915e+01,2.700824320002924439e-03
2.107999999999999829e+01,3.523446495079572346e-03
2.112000000000000099e+01,3.022738383785271866e-03
2.116000000000000014e+01,2.805499632785946398e-03
2.119999999999999929e+01,1.926554072658396904e-03
2.123999999999999844e+01,1.709148481614206809e-03
2.128000000000000114e+01,3.051200335183430930e-03
2.132000000000000028e+01,2.172004779399439034e-03
2.135999999999999943e+01,2.143384614608917060e-03
2.139999999999999858e+01,5.139245224386483971e-03
2.144000000000000128e+01,4.307059013176780214e-03
2.148000000000000043e+01,4.183671935007270311e-03
2.151999999999999957e+01,2.595178723819279755e-03
2.155999999999999872e+01,2.660660991368562350e-03
2.160000000000000142e+01,2.678801585687025106e-03
2.164000000000000057e+01,2.366047697078279242e-03
2.167999999999999972e+01,3.518234217844468017e-03
2.171999999999999886e+01,3.914197070517869657e-03
2.176000000000000156e+01,3.459418691038315240e-03
2.180000000000000071e+01,2.059381515345663164e-03
2.183999999999999986e+01,3.022202400831901399e-03
2.187999999999999901e+01,3.039764607620970820e-03
2.192000000000000171e+01,3.009985611242926243e-03
2.196000000000000085e+01,3.878041698636884929e-03
2.200000000000000000e+01,4.367945020516250838e-03
2.203999999999999915e+01,2.211272688004239755e-03
2.207999999999999829e+01,1.803094220901148596e-03
2.212000000000000099e+01,3.994068283327995537e-03
2.216000000000000014e+01,1.978926091138448126e-03
2.219999999999999929e+01,2.988265848676269817e-03
2.223999999999999844e+01,3.855747250292579278e-03
2.228000000000000114e+01,2.501982652746811281e-03
2.232000000000000028e+01,4.408994238247596412e-03
2.235999999999999943e+01,3.433136582375418550e-03
2.239999999999999858e+01,2.835267731113218833e-03
2.244000000000000128e+01,2.898940611673304479e-03
2.248000000000000043e+01,1.742620499524374293e-04
2.251999999999999957e+01,2.647971232839303225e-03
2.255999999999999872e+01,2.947693639278893638e-03
2.260000000000000142e+01,3.294593464254879506e-03
2.264000000000000057e+01,1.372989007481398988e-03
2.267999999999999972e+01,3.515561056530133819e-03
2.271999999999999886e+01,3.153334884300043172e-03
2.276000000000000156e+01,4.019756650864640159e-03
2.280000000000000071e+01,2.570415559302581185e-03
2.283999999999999986e+01,2.869569449550766170e-03
2.287999999999999901e+01,9.474782220063349440e-04
2.292000000000000171e+01,4.507328195103621309e-03
2.296000000000000085e+01,3.624769031698516983e-03
2.300000000000000000e+01,2.553093817364150090e-03
2.303999999999999915e+01,2.710066953130235885e-03
2.307999999999999829e+01,4.237464931981887312e-03
2.312000000000000099e+01,2.692959540225667997e-03
2.316000000000000014e+01,3.416796525843042442e-03
2.319999999999999929e+01,3.573447263048536073e-03
2.323999999999999844e+01,2.973876564963853775e-03
2.328000000000000114e+01,4.359095552072326553e-03
2.332000000000000028e+01,1.727235234181603504e-03
2.335999999999999943e+01,4.482799140452081374e-03
2.339999999999999858e+01,3.930166030375155210e-03
2.344000000000000128e+01,5.173287594887002010e-03
2.348000000000000043e+01,4.006129677339457726e-03
2.351999999999999957e+01,1.846456678762230458e-03
2.355999999999999872e+01,4.176290781363919784e-03
2.360000000000000142e+01,2.300010744635949157e-03
2.364000000000000057e+01,2.881109036013366088e-03
2.367999999999999972e+01,3.792939200846559382e-03
2.371999999999999886e+01,3.192407652940241342e-03
2.376000000000000156e+01,3.111643341641848800e-03
2.380000000000000071e+01,3.739681571345583166e-03
2.383999999999999986e+01,2.477287773311253900e-03
2.387999999999999901e+01,3.955825524384433932e-03
2.392000000000000171e+01,3.024084439735840422e-03
2.396000000000000085e+01,2.375816828439715478e-03
2.400000000000000000e+01,3.854116394207247887e-03
2.403999999999999915e+01,3.583760660253698573e-03
2.407999999999999829e+01,2.887996404790656169e-03
2.412000000000000099e+01,1.152459138258317981e-03
2.416000000000000014e+01,4.473535591183063279e-03
2.419999999999999929e+01,1.934440386830590074e-03
2.423999999999999844e+01,4.262923773814904574e-03
2.428000000000000114e+01,2.479811643173047107e-03
2.432000000000000028e+01,2.965043593885741905e-03
2.435999999999999943e+01,4.348114153848293625e-03
2.439999999999999858e+01,1.430554126822334432e-03
2.444000000000000128e+01,2.482655568150889894e-03
2.448000000000000043e+01,3.014831452731472038e-03
2.451999999999999957e+01,2.365458479595237192e-03
2.455999999999999872e+01,5.496711905451167647e-03
2.460000000000000142e+01,8.774418052472282353e-04
2.464000000000000057e+01,1.976409489322747404e-03
2.467999999999999972e+01,4.871133669483922006e-03
2.471999999999999886e+01,4.032333469628992736e-03
2.476000000000000156e+01,2.673608124331845227e-03
2.480000000000000071e+01,3.725003999711986539e-03
2.483999999999999986e+01,2.555157636439756106e-03
2.487999999999999901e+01,2.661221137543373898e-03
2.492000000000000171e+01,3.712382881917399100e-03
2.496000000000000085e+01,2.636820186731053152e-03
2.500000000000000000e+01,4.160414251648062930e-03
2.503999999999999915e+01,4.738754279747074867e-03
2.507999999999999829e+01,3.662958158650192388e-03
2.512000000000000099e+01,1.878202175296513673e-03
2.516000000000000014e+01,3.448744169622979406e-03
2.519999999999999929e+01,4.351038836658593424e-04
2.523999999999999844e+01,2.052749600949355796e-03
2.528000000000000114e+01,2.158035897053941100e-03
2.532000000000000028e+01,2.215985984418375986e-03
2.535999999999999943e+01,1.470458939255691894e-03
2.539999999999999858e+01,2.189877767958622271e-03
2.544000000000000128e+01,2.672925318559068487e-03
2.548000000000000043e+01,2.352495912906276201e-03
2.551999999999999957e+01,4.724486272133181621e-04
2.555999999999999872e+01,3.601758306097142901e-03
2.560000000000000142e+01,2.713992029185722989e-03
2.564000000000000057e+01,3.432948412914877973e-03
2.567999999999999972e+01,3.064875265726285051e-03
2.571999999999999886e+01,6.645964181967605779e-04
2.576000000000000156e+01,9.107342585809675766e-04
2.580000000000000071e+01,1.865677577865503759e-03
2.583999999999999986e+01,2.536991395218133553e-03
2.587999999999999901e+01,2.499346466715295697e-03
2.592000000000000171e+01,3.170507193386683763e-03
2.596000000000000085e+01,1.903980195083042381e-03
2.600000000000000000e+01,3.331129048649977657e-03
2.603999999999999915e+01,2.489778614894399503e-03
2.607999999999999829e+01,2.262716448526800456e-03
2.612000000000000099e+01,1.137660643215280924e-03
2.616000000000000014e+01,2.960815429442565164e-04
2.619999999999999929e+01,3.046096005105716504e-03
2.623999999999999844e+01,2.440658811326176011e-03
2.628000000000000114e+01,4.481639069313893102e-03
2.632000000000000028e+01,3.545238280148988244e-03
2.635999999999999943e+01,2.892314489814404310e-03
2.639999999999999858e+01,2.806420625522437241e-03
2.644000000000000128e+01,2.058827649395569490e-03
2.648000000000000043e+01,3.059735002053691911e-03
2.651999999999999957e+01,1.981179018121110528e-03
2.655999999999999872e+01,1.516912006672062677e-03
2.660000000000000142e+01,1.666934026464520152e-03
2.664000000000000057e+01,2.336727513438324657e-03
2.667999999999999972e+01,1.210610767307634733e-03
2.671999999999999886e+01,3.487053101826725378e-03
2.676000000000000156e+01,3.589514829484784925e-03
2.680000000000000071e+01,2.793983917084324163e-03
2.683999999999999986e+01,2.376448331427862774e-03
2.687999999999999901e+01,1.438990714501286062e-03
2.692000000000000171e+01,3.478763169332787109e-03
2.696000000000000085e+01,3.061002442638731825e-03
2.700000000000000000e+01,9.418495757220141443e-04
2.703999999999999915e+01,2.414291505155012705e-03
2.707999999999999829e+01,2.043564977654099921e-03
2.712000000000000099e+01,6.330698459312102729e-04
2.716000000000000014e+01,2.625134441195719169e-03
2.719999999999999929e+01,6.946430538016704721e-04
2.723999999999999844e+01,2.024935076683761180e-03
2.728000000000000114e+01,4.016775941101814740e-03
2.732000000000000028e+01,1.849766942089909856e-03
2.735999999999999943e+01,2.849023906809940512e-03
2.739999999999999858e+01,1.863336450432593510e-03
2.744000000000000128e+01,2.437115487395139554e-03
2.748000000000000043e+01,2.680008620093255606e-03
2.751999999999999957e+01,2.119427793194322840e-03
2.755999999999999872e+01,3.165572447318247724e-03
2.760000000000000142e+01,3.266466825133875276e-03
2.764000000000000057e+01,1.476934757218032043e-03
2.767999999999999972e+01,2.475598631825360555e-03
2.771999999999999886e+01,3.190635766125098083e-03
2.776000000000000156e+01,1.306364459831398832e-03
2.780000000000000071e+01,1.028818987108323386e-03
2.783999999999999986e+01,2.263481783895740333e-03
2.787999999999999901e+01,2.080306601590038718e-03
2.792000000000000171e+01,3.031269315038287188e-03
2.796000000000000085e+01,2.422617732682179423e-03
2.800000000000000000e+01,2.239221992460088077e-03
2.803999999999999915e+01,2.811893832993383243e-03
2.807999999999999829e+01,1.635916308359982793e-03
2.812000000000000099e+01,1.546818161861295135e-03
2.816000000000000014e+01,2.024752526755665451e-03
2.819999999999999929e+01,8.485553255753305532e-04
2.823999999999999844e+01,2.129743209666283815e-03
2.828000000000000114e+01,1.615023210971293539e-03
2.832000000000000028e+01,2.754288621109537635e-03
2.835999999999999943e+01,3.373634174022325551e-03
2.839999999999999858e+01,2.433366077468364797e-03
2.844000000000000128e+01,3.761448114339261285e-03
2.848000000000000043e+01,3.529916619259337515e-03
2.851999999999999957e+01,3.203794804667344735e-03
2.855999999999999872e+01,1.554353632685733302e-03
2.860000000000000142e+01,2.456815697615192823e-03
2.864000000000000057e+01,2.603064259579652897e-03
2.867999999999999972e+01,3.694416588063157477e-03
2.871999999999999886e+01,3.415190982779865107e-03
2.876000000000000156e+01,1.859905125305825850e-03
2.880000000000000071e+01,1.533276079079077788e-03
2.883999999999999986e+01,2.955150828357205016e-03
2.887999999999999901e+01,1.494165913810531141e-03
2.892000000000000171e+01,2.726861140465817492e-03
2.896000000000000085e+01,1.454767312084697750e-03
2.900000000000000000e+01,2.829094931012409841e-03
2.903999999999999915e+01,3.116397954691365376e-03
2.907999999999999829e+01,2.269417630470474141e-03
2.912000000000000099e+01,1.658659547970371597e-03
2.916000000000000014e+01,1.520417822994302301e-03
2.919999999999999929e+01,4.170374273344057588e-03
2.923999999999999844e+01,2.330672000782739537e-03
2.928000000000000114e+01,3.988050192199037863e-03
2.932000000000000028e+01,2.951604611764373567e-03
2.935999999999999943e+01,1.111687774599013929e-03
2.939999999999999858e+01,3.052404446139507597e-03
2.944000000000000128e+01,3.008179693238796810e-03
2.948000000000000043e+01,2.160483859881282866e-03
2.951999999999999957e+01,1.596269667233254962e-03
2.955999999999999872e+01,1.740866476734199194e-03
2.960000000000000142e+01,7.039218907797753933e-04
2.964000000000000057e+01,2.833246617761233863e-03
2.967999999999999972e+01,1.985195233259066938e-03
2.971999999999999886e+01,1.893213897346782745e-03
2.976000000000000156e+01,1.328573572146851808e-03
2.980000000000000071e+01,1.330968167416501967e-03
2.983999999999999986e+01,1.758621307686517466e-03
2.987999999999999901e+01,1.760874446351840200e-03
2.992000000000000171e+01,3.700668212623303786e-03
2.996000000000000085e+01,2.332274598853483795e-03
3.000000000000000000e+01,2.098021936251760408e-03
3.003999999999999915e+01,7.767461473503869170e-04
3.007999999999999829e+01,9.676819184054945245e-04
3.012000000000000099e+01,1.914688325630124754e-03
3.016000000000000014e+01,1.821930594238058100e-03
3.019999999999999929e+01,2.012655502440867904e-03
3.023999999999999844e+01,4.074754069979847097e-04
3.028000000000000114e+01,1.117906959255391157e-03
3.032000000000000028e+01,2.537150630063077401e-03
3.035999999999999943e+01,2.302265907726145071e-03
3.039999999999999858e+01,1.783758381865213150e-03
3.044000000000000128e+01,2.966498190418676191e-03
3.048000000000000043e+01,8.410513827843869731e-04
3.051999999999999957e+01,1.740098746534027557e-03
3.055999999999999872e+01,2.780852844473055609e-03
3.060000000000000142e+01,2.640067015905816442e-03
3.064000000000000057e+01,1.459517753817450537e-03
3.067999999999999972e+01,1.602145687418796063e-03
3.071999999999999886e+01,1.886480590241381870e-03
3.076000000000000156e+01,3.966580920360189035e-03
3.080000000000000071e+01,2.785753915764017756e-03
3.083999999999999986e+01,2.219222170753548315e-03
3.087999999999999901e+01,1.747138818587125027e-03
3.092000000000000171e+01,7.551393697049566932e-04
3.096000000000000085e+01,1.322611584863531533e-03
3.100000000000000000e+01,1.842755934912871469e-03
3.103999999999999915e+01,1.937501987338472158e-03
3.107999999999999829e+01,1.559590989489244035e-03
3.112000000000000099e+01,4.489727912847751162e-03
3.116000000000000014e+01,8.035624202698736594e-04
3.119999999999999929e+01,2.079503365732674521e-03
3.123999999999999844e+01,0.000000000000000000e+00
3.128000000000000114e+01,1.890168150233714154e-03
3.132000000000000028e+01,2.598797431604523735e-03
3.135999999999999943e+01,2.692993639779075066e-03
3.139999999999999858e+01,2.267274456333456811e-03
3.144000000000000128e+01,2.786663093706402868e-03
3.148000000000000043e+01,9.903016234309321673e-04
3.151999999999999957e+01,1.462294810943555847e-03
3.155999999999999872e+01,1.272596407640694824e-03
3.160000000000000142e+01,2.453335362869785066e-03
3.164000000000000057e+01,2.216241862254388854e-03
3.167999999999999972e+01,1.553751004142681557e-03
3.171999999999999886e+01,2.072662435200591565e-03
3.176000000000000156e+01,1.504553266551309073e-03
3.180000000000000071e+01,2.590434618678138200e-03
3.183999999999999986e+01,2.305742620159363480e-03
3.187999999999999901e+01,3.391488391478289250e-03
3.192000000000000171e+01,1.972449455850159954e-03
3.196000000000000085e+01,1.545777916303194693e-03
3.200000000000000000e+01,2.914873625549328599e-03
3.203999999999999915e+01,5.504557074868126655e-04
3.207999999999999829e+01,2.581039783231483826e-03
3.211999999999999744e+01,7.835927263653251484e-04
3.215999999999999659e+01,1.916124627141493637e-03
3.220000000000000284e+01,2.812295179911128342e-03
3.224000000000000199e+01,2.007081289751392120e-03
3.228000000000000114e+01,1.579870717418793572e-03
3.232000000000000028e+01,2.239545692807147492e-03
3.235999999999999943e+01,9.142835330856867058e-04
3.239999999999999858e+01,1.290271586918860470e-03
3.243999999999999773e+01,1.618933890929502399e-03
3.247999999999999687e+01,2.278340995148028878e-03
3.252000000000000313e+01,1.992505050287875310e-03
3.256000000000000227e+01,2.037414023151535355e-03
3.260000000000000142e+01,1.562409367133946571e-03
3.264000000000000057e+01,1.748961426219513941e-03
3.267999999999999972e+01,1.084788294076358475e-03
3.271999999999999886e+01,1.649277731460973596e-03
3.275999999999999801e+01,1.126748038087507439e-03
3.279999999999999716e+01,7.931871807584753471e-04
3.284000000000000341e+01,1.641030257822052472e-03
3.288000000000000256e+01,1.354595568992376757e-03
3.292000000000000171e+01,2.296823743480296779e-03
3.296000000000000085e+01,2.144218132285969703e-04
3.300000000000000000e+01,7.311883946730906702e-04
3.303999999999999915e+01,2.854688506981521191e-03
3.307999999999999829e+01,1.859041068006118394e-03
3.311999999999999744e+01,1.524951049229435933e-03
3.315999999999999659e+01,2.655818303363419348e-03
3.320000000000000284e+01,1.518196787850490444e-03
3.324000000000000199e+01,1.845532662764151491e-03
3.328000000000000114e+01,2.456355701635935893e-03
3.332000000000000028e+01,3.775995265905318903e-03
3.335999999999999943e+01,9.840526506064042715e-04
3.339999999999999858e+01,3.485031384899597417e-03
3.343999999999999773e+01,2.347016171231002847e-03
3.347999999999999687e+01,1.728782472355629325e-03
3.352000000000000313e+01,2.197436083940139655e-03
3.356000000000000227e+01,1.768106985562079405e-03
3.360000000000000142e+01,1.433230275569624158e-03
3.364000000000000057e+01,1.145547201311678063e-03
3.367999999999999972e+01,3.078963146362860299e-03
3.371999999999999886e+01,2.035008914484793489e-03
3.375999999999999801e+01,2.361495214068743114e-03
3.379999999999999716e+01,7.975641166476963402e-04
3.384000000000000341e+01,3.677796111593074511e-04
3.388000000000000256e+01,3.340564703996299917e-03
3.392000000000000171e+01,2.343544874103660903e-03
3.396000000000000085e+01,2.906001115099088317e-03
3.400000000000000000e+01,1.389005007243109338e-03
3.403999999999999915e+01,1.667779144836419210e-03
3.407999999999999829e+01,1.237606581956919973e-03
3.411999999999999744e+01,3.123051307542266345e-03
3.415999999999999659e+01,2.503714616626546898e-03
3.420000000000000284e+01,3.113042669283278430e-03
3.424000000000000199e+01,3.107941879317179749e-03
3.428000000000000114e+01,3.291812099440185550e-03
3.432000000000000028e+01,2.199630234729484275e-03
3.435999999999999943e+01,3.234030765395180546e-03
3.439999999999999858e+01,6.294387582902227817e-04
3.443999999999999773e+01,2.797922702984808382e-03
3.447999999999999687e+01,1.658225907288070995e-03
3.452000000000000313e+01,3.732064404407907984e-03
3.456000000000000227e+01,2.734016335697638661e-03
3.460000000000000142e+01,2.397527861230765948e-03
3.464000000000000057e+01,2.722599039765256218e-03
3.467999999999999972e+01,2.385983210605461396e-03
3.471999999999999886e+01,2.380115472099555551e-03
3.475999999999999801e+01,2.090631334687759191e-03
3.479999999999999716e+01,2.509965896718236410e-03
3.484000000000000341e+01,1.984060817631946253e-03
3.488000000000000256e+01,2.308750989731031544e-03
3.492000000000000171e+01,2.208048563728906219e-03
3.496000000000000085e+01,1.587435975565417400e-03
3.500000000000000000e+01,2.242748117542717884e-03
3.503999999999999915e+01,1.716526855147783651e-03
3.507999999999999829e+01,1.379277778001239754e-03
3.511999999999999744e+01,1.656330247542576193e-03
3.515999999999999659e+01,3.445601739301843228e-03
3.520000000000000284e+01,2.730093342267116835e-03
3.524000000000000199e+01,1.872745685649236701e-03
3.528000000000000114e+01,2.622134850341303371e-03
3.532000000000000028e+01,4.363896346783520223e-03
3.535999999999999943e+01,2.277631470009997515e-03
3.539999999999999858e+01,1.892621213638421987e-03
3.543999999999999773e+01,2.452724653881835706e-03
3.547999999999999687e+01,3.579871358225745603e-03
3.552000000000000313e+01,1.918685775385034226e-03
3.556000000000000227e+01,2.195049105023411107e-03
3.560000000000000142e+01,1.242621041491996647e-03
3.564000000000000057e+01,1.849671516683139630e-03
3.567999999999999972e+01,1.984071698765333368e-03
3.571999999999999886e+01,2.590997874677695122e-03
3.575999999999999801e+01,2.725273874997036910e-03
3.579999999999999716e+01,1.725276398754517233e-03
3.584000000000000341e+01,1.859428452342865197e-03
3.588000000000000256e+01,3.364024151565322539e-03
3.592000000000000171e+01,3.639828927681702190e-03
3.596000000000000085e+01,2.214254725359383370e-03
3.600000000000000000e+01,2.584453647626593423e-03
3.603999999999999915e+01,4.088802393514488244e-03
3.607999999999999829e+01,1.717867012420931996e-03
3.611999999999999744e+01,4.450821730824824907e-03
3.615999999999999659e+01,5.198844896125496932e-03
3.620000000000000284e+01,3.442089641581282632e-03
3.624000000000000199e+01,4.284507658128357266e-03
3.628000000000000114e+01,3.614582411936681679e-03
3.632000000000000028e+01,3.086372361081232609e-03
3.635999999999999943e+01,3.125206867001489863e-03
3.639999999999999858e+01,4.959815085090918049e-03
3.643999999999999773e+01,4.431421670110414698e-03
3.647999999999999687e+01,3.146826268725902778e-03
3.652000000000000313e+01,2.760087339012357293e-03
3.656000000000000227e+01,3.507498996773033857e-03
3.660000000000000142e+01,5.200026055129663809e-03
3.664000000000000057e+01,5.332951568160160249e-03
3.667999999999999972e+01,4.520640142940240622e-03
3.671999999999999886e+01,3.802785689227130162e-03
3.675999999999999801e+01,2.801317774506337753e-03
3.679999999999999716e+01,3.831918216579640202e-03
3.684000000000000341e+01,3.917281955434381673e-03
3.688000000000000256e+01,5.231314374645174188e-03
3.692000000000000171e+01,4.465898734335946481e-03
3.696000000000000085e+01,4.787375457671529111e-03
3.700000000000000000e+01,4.777980261138152149e-03
3.703999999999999915e+01,6.186289225628908983e-03
3.707999999999999829e+01,5.987738479722084367e-03
3.711999999999999744e+01,5.930904104310769087e-03
3.715999999999999659e+01,8.000656237333342302e-03
3.720000000000000284e+01,6.714972814097107043e-03
3.724000000000000199e+01,8.170240565128425447e-03
3.728000000000000114e+01,6.837178614325558484e-03
3.732000000000000028e+01,8.906691315032980172e-03
3.735999999999999943e+01,9.511121150875745042e-03
3.739999999999999858e+01,8.508691746384643845e-03
3.743999999999999773e+01,9.396555204587896115e-03
3.747999999999999687e+01,1.137131179028948343e-02
3.752000000000000313e+01,1.273164435152130541e-02
3.756000000000000227e+01,1.239060028463299760e-02
3.760000000000000142e+01,1.559390771478791175e-02
3.764000000000000057e+01,1.742665031420203431e-02
3.767999999999999972e+01,1.765253408458803200e-02
3.771999999999999886e+01,1.976871112897413477e-02
3.775999999999999801e+01,2.320807576920961429e-02
3.779999999999999716e+01,2.348104098019196742e-02
3.784000000000000341e+01,2.866886357162798729e-02
3.788000000000000256e+01,3.669215590027712082e-02
3.792000000000000171e+01,4.523523626585351787e-02
3.796000000000000085e+01,5.836236250829406058e-02
3.800000000000000000e+01,7.630982874340201672e-02
3.803999999999999915e+01,1.099471616540185770e-01
3.807999999999999829e+01,1.685843471464860688e-01
3.811999999999999744e+01,2.826088010155863306e-01
3.815999999999999659e+01,4.918124425265038013e-01
3.820000000000000284e+01,7.567814230228424588e-01
3.824000000000000199e+01,9.390001663234129881e-01
3.828000000000000114e+01,1.000000000000000000e+00
3.832000000000000028e+01,8.952631237640299444e-01
3.835999999999999943e+01,7.085794103025192525e-01
3.839999999999999858e+01,4.919335522241893854e-01
3.843999999999999773e+01,3.138508261309315150e-01
3.847999999999999687e+01,1.929512037766723809e-01
3.852000000000000313e+01,1.256430155530815218e-01
3.856000000000000227e+01,8.593391524393530212e-02
3.860000000000000142e+01,6.612071664831528639e-02
3.864000000000000057e+01,5.240384689353465991e-02
3.867999999999999972e+01,4.355457694171590427e-02
3.871999999999999886e+01,3.612301361875576433e-02
3.875999999999999801e+01,2.977834530354882964e-02
3.879999999999999716e+01,2.513493660317080158e-02
3.884000000000000341e+01,2.469750458105969201e-02
3.888000000000000256e+01,2.255869786984126060e-02
3.892000000000000171e+01,1.900206939672784145e-02
3.896000000000000085e+01,1.875350036138313109e-02
3.900000000000000000e+01,1.373173407161627606e-02
3.903999999999999915e+01,1.225432139417934573e-02
3.907999999999999829e+01,1.417948595360314298e-02
3.911999999999999744e+01,1.156774749192396312e-02
3.915999999999999659e+01,1.065726917389536559e-02
3.920000000000000284e+01,1.040835720727605225e-02
3.924000000000000199e+01,9.403247308552256656e-03
3.928000000000000114e+01,9.532291992844246081e-03
3.932000000000000028e+01,1.027564439341035162e-02
3.935999999999999943e+01,9.034069941510375346e-03
3.939999999999999858e+01,9.635532420035942264e-03
3.943999999999999773e+01,9.149985580383442063e-03
3.947999999999999687e+01,8.664382143719171966e-03
3.952000000000000313e+01,7.328063563438054137e-03
3.956000000000000227e+01,6.984123543251298180e-03
3.960000000000000142e+01,5.789468496963622902e-03
3.964000000000000057e+01,5.681709751104354125e-03
3.967999999999999972e+01,7.416988346976376677e-03
3.971999999999999886e+01,5.655058654114148396e-03
3.975999999999999801e+01,5.547131174862910893e-03
3.979999999999999716e+01,4.588488963300579003e-03
3.984000000000000341e+01,6.701613425136885259e-03
3.988000000000000256e+01,4.797682907771174364e-03
3.992000000000000171e+01,3.744355045094325835e-03
3.996000000000000085e+01,4.203253255591115657e-03
4.000000000000000000e+01,3.811437027566628652e-03
4.003999999999999915e+01,4.506517687550188472e-03
4.007999999999999829e+01,4.681695706391806634e-03
4.011999999999999744e+01,3.911641840167923503e-03
4.015999999999999659e+01,2.999755941590485486e-03
4.020000000000000284e+01,3.836390525779757692e-03
4.024000000000000199e+01,5.051040120631033505e-03
4.028000000000000114e+01,3.855434911767886916e-03
4.032000000000000028e+01,4.077538682081938148e-03
4.035999999999999943e+01,3.401669731287334467e-03
4.039999999999999858e+01,3.954474631549628055e-03
4.043999999999999773e+01,4.223671476536942741e-03
4.047999999999999687e+01,4.303777947825356345e-03
4.052000000000000313e+01,4.383829349809065072e-03
4.056000000000000227e+01,3.424131890246768627e-03
4.060000000000000142e+01,3.078744027213442015e-03
4.064000000000000057e+01,4.954465407375003433e-03
4.067999999999999972e+01,3.332979908993461467e-03
4.071999999999999886e+01,3.790827337095566390e-03
4.075999999999999801e+01,2.689079271941853620e-03
4.079999999999999716e+01,1.729052983016355185e-03
4.084000000000000341e+01,2.753842174030282641e-03
4.088000000000000256e+01,4.062129693015524567e-03
4.092000000000000171e+01,3.716304330958688108e-03
4.096000000000000085e+01,3.134130488889470302e-03
4.100000000000000000e+01,2.693678716838287211e-03
4.103999999999999915e+01,2.725760753426506762e-03
4.107999999999999829e+01,3.939258828547958710e-03
4.111999999999999744e+01,3.262350259371864930e-03
4.115999999999999659e+01,1.923764201291692198e-03
4.120000000000000284e+01,3.184358700290366474e-03
4.124000000000000199e+01,3.830534639309939645e-03
4.128000000000000114e+01,1.263057449610220520e-03
4.132000000000000028e+01,3.279631072443658143e-03
4.135999999999999943e+01,3.264021969300165502e-03
4.139999999999999858e+01,4.099017694890211283e-03
4.143999999999999773e+01,3.610712983155118811e-03
4.147999999999999687e+01,3.783977972033268546e-03
4.152000000000000313e+01,3.531860057874297316e-03
4.156000000000000227e+01,2.476288808163717037e-03
4.160000000000000142e+01,1.987769812522149730e-03
4.164000000000000057e+01,3.247773414934004062e-03
4.167999999999999972e+01,2.428335950023581720e-03
4.171999999999999886e+01,2.175950915456071905e-03
4.175999999999999801e+01,3.057724106898126147e-03
4.179999999999999716e+01,3.041526692518238626e-03
4.184000000000000341e+01,3.072534959255516628e-03
4.188000000000000256e+01,2.016537492050551016e-03
4.192000000000000171e+01,3.417945205340619432e-03
4.196000000000000085e+01,2.976206319659448121e-03
4.200000000000000000e+01,3.810402446762798691e-03
4.203999999999999915e+01,3.321299017910474098e-03
4.207999999999999829e+01,3.730060228086142741e-03
4.211999999999999744e+01,4.044251096457550723e-03
4.215999999999999659e+01,2.231742791193204803e-03
4.220000000000000284e+01,3.821816305910787168e-03
4.224000000000000199e+01,2.245496913509273038e-03
4.228000000000000114e+01,3.599171344515041462e-03
4.232000000000000028e+01,3.393252573825596228e-03
4.235999999999999943e+01,4.085198853469888466e-03
4.239999999999999858e+01,4.020951842888877657e-03
4.243999999999999773e+01,4.051170206203554870e-03
4.247999999999999687e+01,3.750524699490366976e-03
4.252000000000000313e+01,5.340179517732983674e-03
4.256000000000000227e+01,4.141512390192680221e-03
4.260000000000000142e+01,4.455075213851644907e-03
4.264000000000000057e+01,4.437774402514605213e-03
4.267999999999999972e+01,4.184127637757641995e-03
4.271999999999999886e+01,3.457840921293425449e-03
4.275999999999999801e+01,2.542467180334269296e-03
4.279999999999999716e+01,2.903029627318920881e-03
4.284000000000000341e+01,3.594352092824191353e-03
4.288000000000000256e+01,3.765776030245007646e-03
4.292000000000000171e+01,4.126183669475204721e-03
4.296000000000000085e+01,3.872175275318764150e-03
4.300000000000000000e+01,5.555726722622751981e-03
4.303999999999999915e+01,5.112580288966192370e-03
4.307999999999999829e+01,4.244053243833121464e-03
4.311999999999999744e+01,4.367909988253221992e-03
4.315999999999999659e+01,3.735574558849337652e-03
4.320000000000000284e+01,4.804505207650411336e-03
4.324000000000000199e+01,5.542573102824949367e-03
4.328000000000000114e+01,3.256026052814626776e-03
4.332000000000000028e+01,5.837085621690015977e-03
4.335999999999999943e+01,5.818859665577997241e-03
4.339999999999999858e+01,6.178653362007152650e-03
4.343999999999999773e+01,5.876772918736183210e-03
4.347999999999999687e+01,6.378241548203837999e-03
4.352000000000000313e+01,6.548847835350698338e-03
4.356000000000000227e+01,5.112603930890176861e-03
4.360000000000000142e+01,7.409755582803737202e-03
4.364000000000000057e+01,7.485692612308094372e-03
4.367999999999999972e+01,7.278026345932572458e-03
4.371999999999999886e+01,8.204521184706860260e-03
4.375999999999999801e+01,7.618683748481703925e-03
4.379999999999999716e+01,8.308783969149455273e-03
4.384000000000000341e+01,7.911881335015209099e-03
4.388000000000000256e+01,1.011416319474341130e-02
4.392000000000000171e+01,1.222187735677575382e-02
4.396000000000000085e+01,1.432954150268830364e-02
4.400000000000000000e+01,1.549197946305788665e-02
4.403999999999999915e+01,1.580370891946058023e-02
4.407999999999999829e+01,1.795848218097062521e-02
4.411999999999999744e+01,2.209807574057314969e-02
4.415999999999999659e+01,2.633213720066383129e-02
4.420000000000000284e+01,3.250376026495386400e-02
4.424000000000000199e+01,4.014035687811065567e-02
4.428000000000000114e+01,4.943096234452837995e-02
4.432000000000000028e+01,6.420354044709866703e-02
4.435999999999999943e+01,8.455260886739759951e-02
4.439999999999999858e+01,1.128883670460450322e-01
4.443999999999999773e+01,1.474622390196638766e-01
4.447999999999999687e+01,1.814689560041077843e-01
4.452000000000000313e+01,2.051732029078688346e-01
4.456000000000000227e+01,2.089341822622573785e-01
4.460000000000000142e+01,1.997934570259808362e-01
4.464000000000000057e+01,1.741120987792997565e-01
4.467999999999999972e+01,1.460677510036893778e-01
4.471999999999999886e+01,1.116434147881377598e-01
4.475999999999999801e+01,8.482769836848393086e-02
4.479999999999999716e+01,6.084746185117097944e-02
4.484000000000000341e+01,4.471213930431702788e-02
4.488000000000000256e+01,3.594914267258941115e-02
4.492000000000000171e+01,2.869837940002300733e-02
4.496000000000000085e+01,2.395228458496596879e-02
4.500000000000000000e+01,1.977324701840489987e-02
4.503999999999999915e+01,1.781532515841478814e-02
4.507999999999999829e+01,1.273827337453009405e-02
4.511999999999999744e+01,1.243431323082137829e-02
4.515999999999999659e+01,1.184675196527745951e-02
4.520000000000000284e+01,1.007767221988420392e-02
4.524000000000000199e+01,8.355803150035086974e-03
4.528000000000000114e+01,8.618756082259412810e-03
4.532000000000000028e+01,8.220037636407929310e-03
4.535999999999999943e+01,7.254165494056718198e-03
4.539999999999999858e+01,6.099210205236206377e-03
4.543999999999999773e+01,6.267453793794187586e-03
4.547999999999999687e+01,6.199355541989744894e-03
4.552000000000000313e+01,6.320244811262345531e-03
4.556000000000000227e+01,5.779463055006926406e-03
4.560000000000000142e+01,4.671527954799566638e-03
4.564000000000000057e+01,5.217603705623925087e-03
4.567999999999999972e+01,5.291043852830389256e-03
4.571999999999999886e+01,5.931542306176180480e-03
4.575999999999999801e+01,5.343264290875077843e-03
4.579999999999999716e+01,3.620727488503165670e-03
4.584000000000000341e+01,4.639154493361122289e-03
4.588000000000000256e+01,3.719923034710216452e-03
4.592000000000000171e+01,3.887597101488095720e-03
4.596000000000000085e+01,3.818930032999107247e-03
4.600000000000000000e+01,3.986510002091802826e-03
4.603999999999999915e+01,2.689019856798066481e-03
4.607999999999999829e+01,3.376352888737061374e-03
4.611999999999999744e+01,2.787651169441786488e-03
4.615999999999999659e+01,3.144078893895905884e-03
4.620000000000000284e+01,2.791577721540375572e-03
4.624000000000000199e+01,2.769841562132420356e-03
4.628000000000000114e+01,3.173388097248120224e-03
4.632000000000000028e+01,3.954958574236384743e-03
4.635999999999999943e+01,2.562577235766068471e-03
4.639999999999999858e+01,2.587913807683511497e-03
4.643999999999999773e+01,2.424168760838714930e-03
4.647999999999999687e+01,3.489106496261376242e-03
4.652000000000000313e+01,2.143798594212027817e-03
4.656000000000000227e+01,2.499761706036637224e-03
4.660000000000000142e+01,1.437914337495374301e-03
4.664000000000000057e+01,1.557491174844364938e-03
4.667999999999999972e+01,1.346210311751732964e-03
4.671999999999999886e+01,2.174577337838111239e-03
4.675999999999999801e+01,2.010463421271990476e-03
4.679999999999999716e+01,2.224374151674003968e-03
4.684000000000000341e+01,2.060168605257192698e-03
4.688000000000000256e+01,1.943176143461041458e-03
4.692000000000000171e+01,2.345984939134088381e-03
4.696000000000000085e+01,1.378242594671998285e-03
4.700000000000000000e+01,2.395324778875813562e-03
4.703999999999999915e+01,1.285714957915503514e-03
4.707999999999999829e+01,1.735600480455509699e-03
4.711999999999999744e+01,1.665593703255275997e-03
4.715999999999999659e+01,3.107823575662224929e-03
4.720000000000000284e+01,2.092549998073506626e-03
4.724000000000000199e+01,2.589513187607900020e-03
4.728000000000000114e+01,1.479631650025588609e-03
4.732000000000000028e+01,1.314881260173630419e-03
4.735999999999999943e+01,3.040438304991142926e-03
4.739999999999999858e+01,1.883162890921288206e-03
4.743999999999999773e+01,2.568936217627773404e-03
4.747999999999999687e+01,1.553347488189253407e-03
4.752000000000000313e+01,2.286289994224887691e-03
4.756000000000000227e+01,2.026752732767308357e-03
4.760000000000000142e+01,1.341841499483171270e-03
4.764000000000000057e+01,2.027391186674618821e-03
4.767999999999999972e+01,1.389649602783344252e-03
4.771999999999999886e+01,1.460745697156780711e-03
4.775999999999999801e+01,1.626314980235145022e-03
4.779999999999999716e+01,1.886357510776401607e-03
4.784000000000000341e+01,2.051838101902290264e-03
4.788000000000000256e+01,2.122756812370761755e-03
4.792000000000000171e+01,2.288148946576024859e-03
4.796000000000000085e+01,1.224767843822427600e-03
4.800000000000000000e+01,1.720883436002326348e-03
4.803999999999999915e+01,2.122437382556669090e-03
4.807999999999999829e+01,1.626029948289450626e-03
4.811999999999999744e+01,2.122013648320928911e-03
4.815999999999999659e+01,3.657647352818125825e-03
4.820000000000000284e+01,1.507049979633263070e-03
4.824000000000000199e+01,1.766608259292714060e-03
4.828000000000000114e+01,1.884346434465339207e-03
4.832000000000000028e+01,2.380111489408738221e-03
4.835999999999999943e+01,1.410809837927632510e-03
4.839999999999999858e+01,2.190040714595893178e-03
4.843999999999999773e+01,2.543898853354843552e-03
4.847999999999999687e+01,7.710671022363741606e-04
4.852000000000000313e+01,9.830621125864527892e-04
4.856000000000000227e+01,2.045672469345665313e-03
4.860000000000000142e+01,1.784992906455327901e-03
4.864000000000000057e+01,1.193458522263615273e-03
4.867999999999999972e+01,6.491398668009470659e-04
4.871999999999999886e+01,1.569801341097019345e-03
4.875999999999999801e+01,2.017831736138437845e-03
4.879999999999999716e+01,2.418560413364673808e-03
4.884000000000000341e+01,3.102799111397105784e-03
4.888000000000000256e+01,1.849383752767991404e-03
4.892000000000000171e+01,9.739961552791115938e-04
4.896000000000000085e+01,1.516330228687699181e-03
4.900000000000000000e+01,1.113445461298837253e-03
4.903999999999999915e+01,1.561176745414678824e-03
4.907999999999999829e+01,2.103383157248268128e-03
4.911999999999999744e+01,1.842147338785476377e-03
4.915999999999999659e+01,1.250057462874843870e-03
4.920000000000000284e+01,1.366807439273592592e-03
4.924000000000000199e+01,1.388997532785719944e-03
4.928000000000000114e+01,7.967808766695519190e-04
4.932000000000000028e+01,2.142133345772160094e-03
4.935999999999999943e+01,2.022420577399369670e-03
4.939999999999999858e+01,1.571854104126514618e-03
4.943999999999999773e+01,2.113680704165181619e-03
4.947999999999999687e+01,1.095924620184223061e-03
4.952000000000000313e+01,1.543149841121290843e-03
4.956000000000000227e+01,1.517745157962979968e-03
4.960000000000000142e+01,3.108284583313987394e-04
4.964000000000000057e+01,1.608587090891000536e-03
4.967999999999999972e+01,2.906304109719691844e-03
4.971999999999999886e+01,1.462968511850113980e-03
4.975999999999999801e+01,1.484614571446337067e-03
4.979999999999999716e+01,1.837030873448949365e-03
4.984000000000000341e+01,1.196970757162307570e-03
4.988000000000000256e+01,1.171233869252329661e-03
4.992000000000000171e+01,2.326926005385668034e-03
4.996000000000000085e+01,1.355930425686267685e-03
5.000000000000000000e+01,2.842351895590660565e-03
5.003999999999999915e+01,2.060309332951066209e-03
5.007999999999999829e+01,1.703555046841726071e-03
5.011999999999999744e+01,1.677571473202494213e-03
5.015999999999999659e+01,2.218652727836615407e-03
5.020000000000000284e+01,1.341928790321640424e-03
5.024000000000000199e+01,1.457599101277465324e-03
5.028000000000000114e+01,2.471146096643945037e-03
5.032000000000000028e+01,2.019629264726159178e-03
5.035999999999999943e+01,2.324212800507784605e-03
5.039999999999999858e+01,1.305509060748246547e-03
5.043999999999999773e+01,2.838740639748229839e-03
5.047999999999999687e+01,1.772697152678430173e-03
5.052000000000000313e+01,2.691483364975388176e-03
5.056000000000000227e+01,1.578100365627180257e-03
5.060000000000000142e+01,1.929700257662026169e-03
5.064000000000000057e+01,2.281259946157109583e-03
5.067999999999999972e+01,3.294402849597194774e-03
5.071999999999999886e+01,2.795223701923608105e-03
5.075999999999999801e+01,2.863110263892837577e-03
5.079999999999999716e+01,1.513192515082431144e-03
5.084000000000000341e+01,1.959069690066271401e-03
5.088000000000000256e+01,1.459730785876980040e-03
5.092000000000000171e+01,1.763751883407651102e-03
5.096000000000000085e+01,1.831439190416985375e-03
5.100000000000000000e+01,9.066517831180234081e-04
5.103999999999999915e+01,2.439282953129930966e-03
5.107999999999999829e+01,9.945694471690611632e-04
5.111999999999999744e+01,2.007274636034979323e-03
5.115999999999999659e+01,2.641869893942215206e-03
5.120000000000000284e+01,2.047696674285683603e-03
5.124000000000000199e+01,2.256883926412835226e-03
5.128000000000000114e+01,3.742019823172197581e-03
5.132000000000000028e+01,2.816917133415255351e-03
5.135999999999999943e+01,2.269845789034365124e-03
5.139999999999999858e+01,1.628217734696913062e-03
5.143999999999999773e+01,2.262538560023535060e-03
5.147999999999999687e+01,2.518749924455181925e-03
5.152000000000000313e+01,2.822181189431330860e-03
5.156000000000000227e+01,1.424256391574824261e-03
5.160000000000000142e+01,1.491315954050478811e-03
5.164000000000000057e+01,5.659017423452606223e-04
5.167999999999999972e+01,1.578060122578709389e-03
5.171999999999999886e+01,1.219674354874759588e-03
5.175999999999999801e+01,1.475614577171786802e-03
5.179999999999999716e+01,2.015069168364357153e-03
5.184000000000000341e+01,1.845603147620229322e-03
5.188000000000000256e+01,2.574016161605318688e-03
5.192000000000000171e+01,7.504150362163902830e-04
5.196000000000000085e+01,1.715045519434909693e-03
5.200000000000000000e+01,1.639943945885186409e-03
5.203999999999999915e+01,1.612063036733499223e-03
5.207999999999999829e+01,1.867696907783102881e-03
5.211999999999999744e+01,1.461669389610816775e-03
5.215999999999999659e+01,1.906262506064437031e-03
5.220000000000000284e+01,2.114523653493607849e-03
5.224000000000000199e+01,1.235794285293264185e-03
5.228000000000000114e+01,1.822050276310470352e-03
5.232000000000000028e+01,1.179539434986909621e-03
5.235999999999999943e+01,1.293131899260964402e-03
5.239999999999999858e+01,2.588157030572121008e-03
5.243999999999999773e+01,2.985227185679807486e-03
5.247999999999999687e+01,2.342565989114816973e-03
5.252000000000000313e+01,1.085502802316634045e-03
5.256000000000000227e+01,1.907789934359496687e-03
5.260000000000000142e+01,1.265016588322055453e-03
5.264000000000000057e+01,2.087229130323849709e-03
5.267999999999999972e+01,2.058745860079010895e-03
5.271999999999999886e+01,1.652154950436086683e-03
5.275999999999999801e+01,2.048926745379478585e-03
5.279999999999999716e+01,1.878555772804490175e-03
5.284000000000000341e+01,2.417029999513621401e-03
5.288000000000000256e+01,1.915773462129721164e-03
5.292000000000000171e+01,2.076103430136822577e-03
5.296000000000000085e+01,2.047361356929850839e-03
5.300000000000000000e+01,1.924064924084886805e-03
5.303999999999999915e+01,2.462355172904816605e-03
5.307999999999999829e+01,2.102691385648705526e-03
5.311999999999999744e+01,1.034108866710743485e-03
5.315999999999999659e+01,2.328430416437644174e-03
5.320000000000000284e+01,1.921398312408412884e-03
5.324000000000000199e+01,1.939659126788608303e-03
5.328000000000000114e+01,3.139353900881115041e-03
5.332000000000000028e+01,2.165107083400817384e-03
5.335999999999999943e+01,1.568894549194772923e-03
5.339999999999999858e+01,1.965080905338703870e-03
5.343999999999999773e+01,1.794125434091677030e-03
5.347999999999999687e+01,2.662827782119605614e-03
5.352000000000000313e+01,2.350023871954753756e-03
5.356000000000000227e+01,2.793325030126447926e-03
5.360000000000000142e+01,2.385931727484690967e-03
5.364000000000000057e+01,2.167537873786710718e-03
5.367999999999999972e+01,1.807331847927073952e-03
5.371999999999999886e+01,2.486783993890186520e-03
5.375999999999999801e+01,2.410059536889818613e-03
5.379999999999999716e+01,2.427817141046970627e-03
5.384000000000000341e+01,2.870868544983014824e-03
5.388000000000000256e+01,1.707084916866436495e-03
5.392000000000000171e+01,2.858947662406974895e-03
5.396000000000000085e+01,1.978646190729308352e-03
5.400000000000000000e+01,3.224955964588453652e-03
5.403999999999999915e+01,2.155548770290973987e-03
5.407999999999999829e+01,1.889506219592629235e-03
5.411999999999999744e+01,3.277486976614419137e-03
5.415999999999999659e+01,2.207974507526301935e-03
5.420000000000000284e+01,1.516497555629692977e-03
5.424000000000000199e+01,2.006455973636540619e-03
5.428000000000000114e+01,3.063485271987049108e-03
5.432000000000000028e+01,1.852056824895740184e-03
5.435999999999999943e+01,2.341910849481410994e-03
5.439999999999999858e+01,1.839295154185738518e-03
5.443999999999999773e+01,2.376338688356168481e-03
5.447999999999999687e+01,1.920912620161187041e-03
5.452000000000000313e+01,3.544839749947502686e-03
5.456000000000000227e+01,2.947568298248837322e-03
5.460000000000000142e+01,2.539297705685095684e-03
5.464000000000000057e+01,2.556322088059528180e-03
5.467999999999999972e+01,2.384276955812346648e-03
5.471999999999999886e+01,2.543009293201153615e-03
5.475999999999999801e+01,2.796225101938625349e-03
5.479999999999999716e+01,3.143924440782719550e-03
5.484000000000000341e+01,2.404637083264968105e-03
5.488000000000000256e+01,2.563233167323754075e-03
5.492000000000000171e+01,2.201948409445306232e-03
5.496000000000000085e+01,2.738547210659320313e-03
5.500000000000000000e+01,2.708006476042976521e-03
5.503999999999999915e+01,2.346620321399532205e-03
5.507999999999999829e+01,2.079718108168460231e-03
5.511999999999999744e+01,1.765523460880556988e-03
5.515999999999999659e+01,2.869059591974572852e-03
5.520000000000000284e+01,1.656880458892920739e-03
5.524000000000000199e+01,2.429537958617800867e-03
5.528000000000000114e+01,1.784397728455042881e-03
5.532000000000000028e+01,2.982317814387568621e-03
5.535999999999999943e+01,3.754875327538585630e-03
5.539999999999999858e+01,2.920600041439626229e-03
5.543999999999999773e+01,3.220503076573989765e-03
5.547999999999999687e+01,2.811490846746388106e-03
5.552000000000000313e+01,2.166151524805365238e-03
5.556000000000000227e+01,2.891284757416850634e-03
5.560000000000000142e+01,2.623950032885915672e-03
5.564000000000000057e+01,2.498358883787913081e-03
5.567999999999999972e+01,2.278217311835528235e-03
5.571999999999999886e+01,2.294337055650112148e-03
5.575999999999999801e+01,1.932353625671890968e-03
5.579999999999999716e+01,2.042925686021857933e-03
5.584000000000000341e+01,1.350065387413433701e-03
5.588000000000000256e+01,2.878336718784253040e-03
5.592000000000000171e+01,2.847034826167685502e-03
5.596000000000000085e+01,2.910218167638709778e-03
5.600000000000000000e+01,3.634992538863971324e-03
5.603999999999999915e+01,2.422123371103276999e-03
5.607999999999999829e+01,2.154398219067105678e-03
5.611999999999999744e+01,3.162628821376812713e-03
5.615999999999999659e+01,3.131133477746548838e-03
5.620000000000000284e+01,2.579759172433916149e-03
5.624000000000000199e+01,2.359164569559904414e-03
5.628000000000000114e+01,2.280314482246249743e-03
5.632000000000000028e+01,2.295950157841863005e-03
5.635999999999999943e+01,2.122518786650369298e-03
5.639999999999999858e+01,2.705196655610866800e-03
5.643999999999999773e+01,2.295407801346202245e-03
5.647999999999999687e+01,2.547210681931356708e-03
5.652000000000000313e+01,2.751723184988416268e-03
5.656000000000000227e+01,3.570568729002163849e-03
5.660000000000000142e+01,2.782583236504859465e-03
5.664000000000000057e+01,3.837659999115661941e-03
5.667999999999999972e+01,2.671541294413588927e-03
5.671999999999999886e+01,2.403308734154402469e-03
5.675999999999999801e+01,2.607633074414551604e-03
5.679999999999999716e+01,1.772232408862151488e-03
5.684000000000000341e+01,2.449082612344279878e-03
5.688000000000000256e+01,2.795090098665657750e-03
5.692000000000000171e+01,2.952031360811417128e-03
5.696000000000000085e+01,3.156200514584811025e-03
5.700000000000000000e+01,3.360338807334755078e-03
5.703999999999999915e+01,3.091858183728625042e-03
5.707999999999999829e+01,2.823346816614965768e-03
5.711999999999999744e+01,2.034957839252110514e-03
5.715999999999999659e+01,3.184149503669017351e-03
5.720000000000000284e+01,1.923111218990346391e-03
5.724000000000000199e+01,9.928541056994102075e-04
5.728000000000000114e+01,2.567283547370814538e-03
5.732000000000000028e+01,2.251330141720172227e-03
5.735999999999999943e+01,2.833263820639841599e-03
5.739999999999999858e+01,3.887755340206275594e-03
5.743999999999999773e+01,3.051864188724554700e-03
5.747999999999999687e+01,2.688530995405522071e-03
5.752000000000000313e+01,2.041614836462226495e-03
5.756000000000000227e+01,3.379538718287378868e-03
5.760000000000000142e+01,2.354492050005667272e-03
5.764000000000000057e+01,2.132815254781899716e-03
5.767999999999999972e+01,3.376131751100853919e-03
5.771999999999999886e+01,3.485206970222321562e-03
5.775999999999999801e+01,3.074405519222020086e-03
5.779999999999999716e+01,2.758092005175662598e-03
5.784000000000000341e+01,2.205454806977803512e-03
5.788000000000000256e+01,3.212328816930598661e-03
5.792000000000000171e+01,2.754150163612334532e-03
5.796000000000000085e+01,1.776095133962116894e-03
5.800000000000000000e+01,2.546586734372673338e-03
5.803999999999999915e+01,2.844460887376267563e-03
5.807999999999999829e+01,1.960835480595002778e-03
5.811999999999999744e+01,2.920274502966520910e-03
5.815999999999999659e+01,4.210496048158941448e-03
5.820000000000000284e+01,2.948712678977731278e-03
5.824000000000000199e+01,3.671770349450365328e-03
5.828000000000000114e+01,3.685916868018529469e-03
5.832000000000000028e+01,3.227446350485487989e-03
5.835999999999999943e+01,2.579911724063536395e-03
5.839999999999999858e+01,2.783006898509909899e-03
5.843999999999999773e+01,3.411402629901053203e-03
5.847999999999999687e+01,3.047334634723210690e-03
5.852000000000000313e+01,3.344861371051350857e-03
5.856000000000000227e+01,2.555406875508316536e-03
5.860000000000000142e+01,2.805617720259665979e-03
5.864000000000000057e+01,3.339352981518424555e-03
5.867999999999999972e+01,2.266260261680267275e-03
5.871999999999999886e+01,3.556079777863991286e-03
5.875999999999999801e+01,3.144553807648613804e-03
5.879999999999999716e+01,2.827517243336278956e-03
5.884000000000000341e+01,3.975475674547621768e-03
5.888000000000000256e+01,2.713206624497898831e-03
5.892000000000000171e+01,3.294003178760231652e-03
5.896000000000000085e+01,2.882336711549151297e-03
5.900000000000000000e+01,3.793889040666435872e-03
5.903999999999999915e+01,3.004096294690362760e-03
5.907999999999999829e+01,2.592346234377432106e-03
5.911999999999999744e+01,2.842191786939954161e-03
5.915999999999999659e+01,3.281044897045311184e-03
5.920000000000000284e+01,3.578093943588068863e-03
5.924000000000000199e+01,3.544303739689966346e-03
5.928000000000000114e+01,2.943380287063670359e-03
5.932000000000000028e+01,2.153394135739610839e-03
5.935999999999999943e+01,1.930486327020671748e-03
5.939999999999999858e+01,2.794503845164453010e-03
5.943999999999999773e+01,3.044129538202840386e-03
5.947999999999999687e+01,4.333421864210817986e-03
5.952000000000000313e+01,3.921369820221017044e-03
5.956000000000000227e+01,2.942184938808768604e-03
5.960000000000000142e+01,3.900584283412096651e-03
5.964000000000000057e+01,3.015863000064365751e-03
5.967999999999999972e+01,3.170808643476040033e-03
5.971999999999999886e+01,2.664104061679014365e-03
5.975999999999999801e+01,3.480619392611670072e-03
5.979999999999999716e+01,3.540966993033446697e-03
5.984000000000000341e+01,3.223217412974762469e-03
5.988000000000000256e+01,3.330770505147566830e-03
5.992000000000000171e+01,3.532814648446409422e-03
5.996000000000000085e+01,2.600620804993761422e-03
