2.003999999999999915e+01,4.705657524564899052e-02
2.007999999999999829e+01,5.537216577486395175e-02
2.012000000000000099e+01,4.705649841670591499e-02
2.016000000000000014e+01,3.395931381758560130e-02
2.019999999999999929e+01,5.121405564932881432e-02
2.023999999999999844e+01,5.162964617246971338e-02
2.028000000000000114e+01,6.119236001313520940e-02
2.032000000000000028e+01,4.518453176690356149e-02
2.035999999999999943e+01,6.555744162594570601e-02
2.039999999999999858e+01,4.040234751825615145e-02
2.044000000000000128e+01,7.200122951931529902e-02
2.048000000000000043e+01,6.555615281090533542e-02
2.051999999999999957e+01,5.516111003693195680e-02
2.055999999999999872e+01,3.582673519149545682e-02
2.060000000000000142e+01,6.035713942106751828e-02
2.064000000000000057e+01,5.328817702674901180e-02
2.067999999999999972e+01,4.850595044686111662e-02
2.071999999999999886e+01,6.908627142935398757e-02
2.076000000000000156e+01,6.160135606723963347e-02
2.080000000000000071e+01,5.889785577091898039e-02
2.083999999999999986e+01,7.698331529848349841e-02
2.087999999999999901e+01,5.640113478100752115e-02
2.092000000000000171e+01,7.012077530661732505e-02
2.096000000000000085e+01,7.885098694804196229e-02
2.100000000000000000e+01,5.515026149630204017e-02
2.103999999999999915e+01,8.030366826288738713e-02
2.107999999999999829e+01,7.302613579254436937e-02
2.112000000000000099e+01,8.279553194239962222e-02
2.116000000000000014e+01,1.006725768004564647e-01
2.119999999999999929e+01,9.193960496229315604e-02
2.123999999999999844e+01,1.129348610693107213e-01
2.128000000000000114e+01,1.054490864860876120e-01
2.132000000000000028e+01,1.029526032397771601e-01
2.135999999999999943e+01,1.214529560884707593e-01
2.139999999999999858e+01,1.189563224323044593e-01
2.144000000000000128e+01,1.399512051943872237e-01
2.148000000000000043e+01,1.474331467088726699e-01
2.151999999999999957e+01,1.318391964470116418e-01
2.155999999999999872e+01,1.378657475374972241e-01
2.160000000000000142e+01,1.064719805225715771e-01
2.164000000000000057e+01,1.083405642289366477e-01
2.167999999999999972e+01,1.122879667470999404e-01
2.171999999999999886e+01,1.137406024823299500e-01
2.176000000000000156e+01,1.010566188500367640e-01
2.180000000000000071e+01,1.012617415042676855e-01
2.183999999999999986e+01,9.814053333758332442e-02
2.187999999999999901e+01,7.402232580345570467e-02
2.192000000000000171e+01,6.632735483513546582e-02
2.196000000000000085e+01,7.484772915515652825e-02
2.200000000000000000e+01,5.384760246314175547e-02
2.203999999999999915e+01,5.529952508322652505e-02
2.207999999999999829e+01,7.275889957042280809e-02
2.212000000000000099e+01,6.735025640862767060e-02
2.216000000000000014e+01,5.300223830009170856e-02
2.219999999999999929e+01,4.094091527447275836e-02
2.223999999999999844e+01,6.172614648074733340e-02
2.228000000000000114e+01,5.278297896622824448e-02
2.232000000000000028e+01,5.402633113117513708e-02
2.235999999999999943e+01,6.524831169812185527e-02
2.239999999999999858e+01,6.254154595301850139e-02
2.244000000000000128e+01,4.798493487982389422e-02
2.248000000000000043e+01,6.294862831788583524e-02
2.251999999999999957e+01,6.793348613434921357e-02
2.255999999999999872e+01,4.443727896034998376e-02
2.260000000000000142e+01,5.441128698805872826e-02
2.264000000000000057e+01,2.738072945259419078e-02
2.267999999999999972e+01,5.835142923399393167e-02
2.271999999999999886e+01,3.277588198355391863e-02
2.276000000000000156e+01,4.129421626404644607e-02
2.280000000000000071e+01,3.983370741976682144e-02
2.283999999999999986e+01,2.922591520116932934e-02
2.287999999999999901e+01,4.148593019631879875e-02
2.292000000000000171e+01,2.464119993731601552e-02
2.296000000000000085e+01,2.962482372037594791e-02
2.300000000000000000e+01,3.647934073754594692e-02
2.303999999999999915e+01,3.127610614281155915e-02
2.307999999999999829e+01,5.351425792526388198e-02
2.312000000000000099e+01,4.311352559922501659e-02
2.316000000000000014e+01,5.267013010558259378e-02
2.319999999999999929e+01,3.748767617187968859e-02
2.323999999999999844e+01,5.328073782276489950e-02
2.328000000000000114e+01,5.036355485176381014e-02
2.332000000000000028e+01,3.247814988750772486e-02
2.335999999999999943e+01,2.665024858404369673e-02
2.339999999999999858e+01,3.287984986948972593e-02
2.344000000000000128e+01,3.245683416939781213e-02
2.348000000000000043e+01,4.720967199821311105e-02
2.351999999999999957e+01,4.200491754034596514e-02
2.355999999999999872e+01,3.555268822648081917e-02
2.360000000000000142e+01,4.656310148730193055e-02
2.364000000000000057e+01,3.990271150721946825e-02
2.367999999999999972e+01,5.694166812558158070e-02
2.371999999999999886e+01,3.593657921203746025e-02
2.376000000000000156e+01,5.671728263898802996e-02
2.380000000000000071e+01,5.566937442582586826e-02
2.383999999999999986e+01,3.965323028494353863e-02
2.387999999999999901e+01,4.006027018765354747e-02
2.392000000000000171e+01,3.838826476509158564e-02
2.396000000000000085e+01,4.918952733626096030e-02
2.400000000000000000e+01,4.190419660842106125e-02
2.403999999999999915e+01,2.484787973305296882e-02
2.407999999999999829e+01,4.583532292261083968e-02
2.412000000000000099e+01,4.520203610258462235e-02
2.416000000000000014e+01,2.066122593966759555e-02
2.419999999999999929e+01,5.266640092301282799e-02
2.423999999999999844e+01,1.585976601354427765e-02
2.428000000000000114e+01,3.747012595683085756e-02
2.432000000000000028e+01,1.479971812245987027e-02
2.435999999999999943e+01,2.081800359855813173e-02
2.439999999999999858e+01,2.787558397056232734e-02
2.444000000000000128e+01,5.114844317422764797e-02
2.448000000000000043e+01,4.552440552592906114e-02
2.451999999999999957e+01,1.661650550455430822e-02
2.455999999999999872e+01,2.429712124643375326e-02
2.460000000000000142e+01,3.239335590805714205e-02
2.464000000000000057e+01,5.358651095817091453e-02
2.467999999999999972e+01,5.045634831976052170e-02
2.471999999999999886e+01,3.131847514430675938e-02
2.476000000000000156e+01,2.111971503001623673e-02
2.480000000000000071e+01,1.445492155982106529e-02
2.483999999999999986e+01,9.660972017166678111e-03
2.487999999999999901e+01,3.126890958909157858e-02
2.492000000000000171e+01,5.453979873920938165e-02
2.496000000000000085e+01,6.325820236008075637e-02
2.500000000000000000e+01,3.414041635440793337e-02
2.503999999999999915e+01,2.934561111994571370e-02
2.507999999999999829e+01,2.787687482082129922e-02
2.512000000000000099e+01,2.121070795620574878e-02
2.516000000000000014e+01,2.972034960145605864e-02
2.519999999999999929e+01,3.843770388263726551e-02
2.523999999999999844e+01,1.222932498415953660e-02
2.528000000000000114e+01,4.339846311346800406e-02
2.532000000000000028e+01,3.319726954624759030e-02
2.535999999999999943e+01,3.255884357871337287e-02
2.539999999999999858e+01,4.273052537248789307e-02
2.544000000000000128e+01,4.479430514753873771e-02
2.548000000000000043e+01,3.396870710355064105e-02
2.551999999999999957e+01,4.434772388442872332e-02
2.555999999999999872e+01,4.474782358068096072e-02
2.560000000000000142e+01,4.390039375495606577e-02
2.564000000000000057e+01,3.161881326175280255e-02
2.567999999999999972e+01,2.183172480332197865e-02
2.571999999999999886e+01,2.763621025957784319e-02
2.576000000000000156e+01,2.055131039362098622e-02
2.580000000000000071e+01,3.966038278337467859e-02
2.583999999999999986e+01,4.193015380105447054e-02
2.587999999999999901e+01,3.110264607529156580e-02
2.592000000000000171e+01,3.815349916623066162e-02
2.596000000000000085e+01,3.668065589281272604e-02
2.600000000000000000e+01,1.628960490395239130e-02
2.603999999999999915e+01,1.128222904913946632e-02
2.607999999999999829e+01,2.976624527427033928e-02
2.612000000000000099e+01,4.138968249218918233e-02
2.616000000000000014e+01,5.342869682645635943e-02
2.619999999999999929e+01,3.345241513407494482e-02
2.623999999999999844e+01,2.137575581530465341e-02
2.628000000000000114e+01,3.175103218914834824e-02
2.632000000000000028e+01,3.879985769129924017e-02
2.635999999999999943e+01,2.214899110263685370e-02
2.639999999999999858e+01,3.439465336404872592e-02
2.644000000000000128e+01,2.855365694165303697e-02
2.648000000000000043e+01,3.269117851741755454e-02
2.651999999999999957e+01,2.331562378846019010e-02
2.655999999999999872e+01,2.371069470831496315e-02
2.660000000000000142e+01,1.890829540304701101e-02
2.664000000000000057e+01,3.406313967644650914e-02
2.667999999999999972e+01,2.655773431189746223e-02
2.671999999999999886e+01,3.838589976549999089e-02
2.676000000000000156e+01,4.356135926736343089e-02
2.680000000000000071e+01,3.397639372782702144e-02
2.683999999999999986e+01,3.707250921210619721e-02
2.687999999999999901e+01,3.996051190210655329e-02
2.692000000000000171e+01,3.952204764218510136e-02
2.696000000000000085e+01,0.000000000000000000e+00
2.700000000000000000e+01,3.885233405866880124e-02
2.703999999999999915e+01,2.947391354561076232e-02
2.707999999999999829e+01,3.963694440935101870e-02
2.712000000000000099e+01,1.986355664899882092e-02
2.716000000000000014e+01,4.811257628669848851e-02
2.719999999999999929e+01,3.852534734434726049e-02
2.723999999999999844e+01,3.870872582881515478e-02
2.728000000000000114e+01,3.598140812759192259e-02
2.732000000000000028e+01,3.055128337437978264e-02
2.735999999999999943e+01,4.071268858869480506e-02
2.739999999999999858e+01,2.904538569352264205e-02
2.744000000000000128e+01,3.920631678963604899e-02
2.748000000000000043e+01,5.435637415284319540e-02
2.751999999999999957e+01,4.767772019091730956e-02
2.755999999999999872e+01,4.515662952998522606e-02
2.760000000000000142e+01,3.639859081896128917e-02
2.764000000000000057e+01,4.385574518904335195e-02
2.767999999999999972e+01,1.908967366726090076e-02
2.771999999999999886e+01,7.212549793475442859e-03
2.776000000000000156e+01,3.109229511005268815e-02
2.780000000000000071e+01,5.330867153997796010e-02
2.783999999999999986e+01,3.269941730572364924e-02
2.787999999999999901e+01,2.456332602077025348e-02
2.792000000000000171e+01,1.497175283910337149e-02
2.796000000000000085e+01,3.573189814320347490e-02
2.800000000000000000e+01,3.029762494232179915e-02
2.803999999999999915e+01,3.026824341335486099e-02
2.807999999999999829e+01,3.834632515701391631e-02
2.812000000000000099e+01,2.792192278665587765e-02
2.816000000000000014e+01,1.874460476088547767e-02
2.819999999999999929e+01,3.576119467790907919e-02
2.823999999999999844e+01,4.654081939472996116e-02
2.828000000000000114e+01,2.135517844094406495e-02
2.832000000000000028e+01,4.148934112804106289e-02
2.835999999999999943e+01,2.898447929011248314e-02
2.839999999999999858e+01,3.809993551271864676e-02
2.844000000000000128e+01,4.118631138129661556e-02
2.848000000000000043e+01,3.990672746863666021e-02
2.851999999999999957e+01,4.527936359881284262e-02
2.855999999999999872e+01,3.984144143088107215e-02
2.860000000000000142e+01,3.232434852749051929e-02
2.864000000000000057e+01,6.077199143864395192e-02
2.867999999999999972e+01,3.475212966338910026e-02
2.871999999999999886e+01,4.511278197008258828e-02
2.876000000000000156e+01,5.318636904820540218e-02
2.880000000000000071e+01,4.130222235122960051e-02
2.883999999999999986e+01,6.434335508146787896e-02
2.887999999999999901e+01,6.971354415426850304e-02
2.892000000000000171e+01,5.429443541398838724e-02
2.896000000000000085e+01,3.471724423547133814e-02
2.900000000000000000e+01,3.696824524484407931e-02
2.903999999999999915e+01,6.873937497683535458e-02
2.907999999999999829e+01,5.685327999397057908e-02
2.912000000000000099e+01,5.910343637673908662e-02
2.916000000000000014e+01,5.594816372835642593e-02
2.919999999999999929e+01,7.025538359118863041e-02
2.923999999999999844e+01,5.670503007602616108e-02
2.928000000000000114e+01,6.872488494609320375e-02
2.932000000000000028e+01,6.889471012437523023e-02
2.935999999999999943e+01,6.760901481819375780e-02
2.939999999999999858e+01,6.154155466632178079e-02
2.944000000000000128e+01,7.667860429488601581e-02
2.948000000000000043e+01,8.266819261673045982e-02
2.951999999999999957e+01,8.990482883917645662e-02
2.955999999999999872e+01,1.100303634030501271e-01
2.960000000000000142e+01,1.241267865283192384e-01
2.964000000000000057e+01,1.384308033106236568e-01
2.967999999999999972e+01,1.377664276704447521e-01
2.971999999999999886e+01,1.410516672440505215e-01
2.976000000000000156e+01,1.414261441752851511e-01
2.980000000000000071e+01,1.532342815775670775e-01
2.983999999999999986e+01,1.646263366607227108e-01
2.987999999999999901e+01,1.872441598655779083e-01
2.992000000000000171e+01,1.905278898993924830e-01
2.996000000000000085e+01,2.320631126370717445e-01
3.000000000000000000e+01,2.338909999127076755e-01
3.003999999999999915e+01,2.617048556189842667e-01
3.007999999999999829e+01,3.159204590951880109e-01
3.012000000000000099e+01,3.283498218378617661e-01
3.016000000000000014e+01,3.763280992523976298e-01
3.019999999999999929e+01,3.827280239952238761e-01
3.023999999999999844e+01,4.523262586088296344e-01
3.028000000000000114e+01,4.946905625922627392e-01
3.032000000000000028e+01,5.291547239929593749e-01
3.035999999999999943e+01,6.014545869675335110e-01
3.039999999999999858e+01,6.398680295175985799e-01
3.044000000000000128e+01,7.190276343759542943e-01
3.048000000000000043e+01,7.370671997345238369e-01
3.051999999999999957e+01,8.293232483566553848e-01
3.055999999999999872e+01,8.446595997108476972e-01
3.060000000000000142e+01,8.466906556339443002e-01
3.064000000000000057e+01,8.248140145692759440e-01
3.067999999999999972e+01,7.241466611707659817e-01
3.071999999999999886e+01,7.003983583490008824e-01
3.076000000000000156e+01,6.504555630624000440e-01
3.080000000000000071e+01,5.948994045919048235e-01
3.083999999999999986e+01,5.106540690458009069e-01
3.087999999999999901e+01,4.565524835324984432e-01
3.092000000000000171e+01,3.980848728531599101e-01
3.096000000000000085e+01,3.664347667735138314e-01
3.100000000000000000e+01,3.198162328992800729e-01
3.103999999999999915e+01,2.944021659302049621e-01
3.107999999999999829e+01,2.716903364974244117e-01
3.112000000000000099e+01,2.460677079782865595e-01
3.116000000000000014e+01,2.137922556003961638e-01
3.119999999999999929e+01,1.975240107005349077e-01
3.123999999999999844e+01,1.640005393133695810e-01
3.128000000000000114e+01,1.429501397655405237e-01
3.132000000000000028e+01,1.453909918811212010e-01
3.135999999999999943e+01,1.447131482734687891e-01
3.139999999999999858e+01,1.328088898529226625e-01
3.144000000000000128e+01,1.065598624638398745e-01
3.148000000000000043e+01,9.444702319935605050e-02
3.151999999999999957e+01,9.605459057642104503e-02
3.155999999999999872e+01,9.371189604850707622e-02
3.160000000000000142e+01,8.471636587113923200e-02
3.164000000000000057e+01,8.133352110189562278e-02
3.167999999999999972e+01,7.503986223994757454e-02
3.171999999999999886e+01,6.001446245705906873e-02
3.176000000000000156e+01,6.161992576260479776e-02
3.180000000000000071e+01,6.280925422680903869e-02
3.183999999999999986e+01,5.900886225494034187e-02
3.187999999999999901e+01,6.601840439950602824e-02
3.192000000000000171e+01,5.036755648958897436e-02
3.196000000000000085e+01,5.737638227063443508e-02
3.200000000000000000e+01,4.962464366562788914e-02
3.203999999999999915e+01,4.478300707733331304e-02
3.207999999999999829e+01,3.557531423842640733e-02
3.211999999999999744e+01,5.734289902631703462e-02
3.215999999999999659e+01,4.730291828273414795e-02
3.220000000000000284e+01,4.994387493078680101e-02
3.224000000000000199e+01,6.776045036560186807e-02
3.228000000000000114e+01,4.732486068019147590e-02
3.232000000000000028e+01,3.811497373168232228e-02
3.235999999999999943e+01,3.971500803702419924e-02
3.239999999999999858e+01,3.923576977812303496e-02
3.243999999999999773e+01,4.229029343386665057e-02
3.247999999999999687e+01,3.786039703641742860e-02
3.252000000000000313e+01,5.068501397839773881e-02
3.256000000000000227e+01,2.899948199749222480e-02
3.260000000000000142e+01,4.265490909806648329e-02
3.264000000000000057e+01,4.882591185792016508e-02
3.267999999999999972e+01,4.127578303764914414e-02
3.271999999999999886e+01,4.682235808571662966e-02
3.275999999999999801e+01,3.178742262562125193e-02
3.279999999999999716e+01,3.982791875813582877e-02
3.284000000000000341e+01,3.664196149000684133e-02
3.288000000000000256e+01,3.220827961738765427e-02
3.292000000000000171e+01,2.943733494657342978e-02
3.296000000000000085e+01,2.832912640568215415e-02
3.300000000000000000e+01,4.260440649138049624e-02
3.303999999999999915e+01,3.214036445406107806e-02
3.307999999999999829e+01,3.934660116099206184e-02
3.311999999999999744e+01,3.989996148695553607e-02
3.315999999999999659e+01,4.232394278901628615e-02
3.320000000000000284e+01,4.225284967802701158e-02
3.324000000000000199e+01,5.174431300598181238e-02
3.328000000000000114e+01,3.836745962988369341e-02
3.332000000000000028e+01,4.785813370634621478e-02
3.335999999999999943e+01,3.676728119641682613e-02
3.339999999999999858e+01,4.750450296736383193e-02
3.343999999999999773e+01,2.248421100051795421e-02
3.347999999999999687e+01,4.132835296269602582e-02
3.352000000000000313e+01,5.040125474132599315e-02
3.356000000000000227e+01,2.683499265027831926e-02
3.360000000000000142e+01,4.152012572183884365e-02
3.364000000000000057e+01,5.204705094497533852e-02
3.367999999999999972e+01,5.384218272495639585e-02
3.371999999999999886e+01,3.651100971069659584e-02
3.375999999999999801e+01,3.747376783544655726e-02
3.379999999999999716e+01,2.554692518971379486e-02
3.384000000000000341e+01,2.151950126002340549e-02
3.388000000000000256e+01,3.349921299227214683e-02
3.392000000000000171e+01,2.759995580437478099e-02
3.396000000000000085e+01,3.687627131231634159e-02
3.400000000000000000e+01,4.303382035281683171e-02
3.403999999999999915e+01,4.274635856464916589e-02
3.407999999999999829e+01,5.825813687342691616e-02
3.411999999999999744e+01,3.863605383917095848e-02
3.415999999999999659e+01,2.213190621746819603e-02
3.420000000000000284e+01,4.866061240857821185e-02
3.424000000000000199e+01,4.546059938619455981e-02
3.428000000000000114e+01,3.519189848709884660e-02
3.432000000000000028e+01,4.862225906585158908e-02
3.435999999999999943e+01,4.251051728908422644e-02
3.439999999999999858e+01,3.930881428799438276e-02
3.443999999999999773e+01,5.689570667093021838e-02
3.447999999999999687e+01,5.057479916543462101e-02
3.452000000000000313e+01,6.441881428344850558e-02
3.456000000000000227e+01,5.747338045302824439e-02
3.460000000000000142e+01,5.530899188913240144e-02
3.464000000000000057e+01,4.711535682950745291e-02
3.467999999999999972e+01,5.908664010586432008e-02
3.471999999999999886e+01,6.710757679856876878e-02
3.475999999999999801e+01,8.094900549819034064e-02
3.479999999999999716e+01,8.585072053637808620e-02
3.484000000000000341e+01,8.202061104683402992e-02
3.488000000000000256e+01,7.403226048052588548e-02
3.492000000000000171e+01,9.473232024785474548e-02
3.496000000000000085e+01,8.965355541391227534e-02
3.500000000000000000e+01,1.047397003408960664e-01
3.503999999999999915e+01,1.368724008731630470e-01
3.507999999999999829e+01,1.602732704464067681e-01
3.511999999999999744e+01,1.452140085902230704e-01
3.515999999999999659e+01,1.584273702252165794e-01
3.520000000000000284e+01,1.807874553657709826e-01
3.524000000000000199e+01,1.912973521760132078e-01
3.528000000000000114e+01,2.149038842541496908e-01
3.532000000000000028e+01,2.328969320257321396e-01
3.535999999999999943e+01,2.515132005864009201e-01
3.539999999999999858e+01,2.665948847525924092e-01
3.543999999999999773e+01,2.735683989295753515e-01
3.547999999999999687e+01,3.000831393881490672e-01
3.552000000000000313e+01,3.268053159371130389e-01
3.556000000000000227e+01,3.393905033192846088e-01
3.560000000000000142e+01,3.765062787014186729e-01
3.564000000000000057e+01,3.924167957831380948e-01
3.567999999999999972e+01,4.484496641398614258e-01
3.571999999999999886e+01,4.379572072350789158e-01
3.575999999999999801e+01,4.642608561721915383e-01
3.579999999999999716e+01,4.564700497751490449e-01
3.584000000000000341e+01,4.071007395710433685e-01
3.588000000000000256e+01,3.485837965591074283e-01
3.592000000000000171e+01,3.025398010482024946e-01
3.596000000000000085e+01,2.421509154461015945e-01
3.600000000000000000e+01,2.104504112368253410e-01
3.603999999999999915e+01,1.698101601377750569e-01
3.607999999999999829e+01,1.524531429425997064e-01
3.611999999999999744e+01,1.288589493864793212e-01
3.615999999999999659e+01,1.293795484128062723e-01
3.620000000000000284e+01,8.894530460188469767e-02
3.624000000000000199e+01,8.759394603169952387e-02
3.628000000000000114e+01,8.187641866329826990e-02
3.632000000000000028e+01,7.470318430297596957e-02
3.635999999999999943e+01,7.231094804637276663e-02
3.639999999999999858e+01,8.010485416679254123e-02
3.643999999999999773e+01,4.777547184100836702e-02
3.647999999999999687e+01,4.953960339065138080e-02
3.652000000000000313e+01,6.086620348491932064e-02
3.656000000000000227e+01,6.055047008235513173e-02
3.660000000000000142e+01,4.859240211107684893e-02
3.664000000000000057e+01,4.806781131903432175e-02
3.667999999999999972e+01,4.400860183229257649e-02
3.671999999999999886e+01,4.161202771857139271e-02
3.675999999999999801e+01,6.249866928673210309e-02
3.679999999999999716e+01,5.739854674146828428e-02
3.684000000000000341e+01,6.705813930537563028e-02
3.688000000000000256e+01,5.675978157403247654e-02
3.692000000000000171e+01,3.066127658723833554e-02
3.696000000000000085e+01,3.990361384679243228e-02
3.700000000000000000e+01,5.579794391021128397e-02
3.703999999999999915e+01,4.383449157865722257e-02
3.707999999999999829e+01,4.330450463563762648e-02
3.711999999999999744e+01,5.753422529861555723e-02
3.715999999999999659e+01,5.035075672408094449e-02
3.720000000000000284e+01,4.961138538841727147e-02
3.724000000000000199e+01,7.776825242282210671e-02
3.728000000000000114e+01,5.104160390503337946e-02
3.732000000000000028e+01,7.628700443338100323e-02
3.735999999999999943e+01,6.619056659067379389e-02
3.739999999999999858e+01,7.875365666298517198e-02
3.743999999999999773e+01,7.717970719005291802e-02
3.747999999999999687e+01,1.026309778056409133e-01
3.752000000000000313e+01,9.980867275250462911e-02
3.756000000000000227e+01,1.082119300197353917e-01
3.760000000000000142e+01,1.166146774339114900e-01
3.764000000000000057e+01,1.782368065526728496e-01
3.767999999999999972e+01,2.047249789309079082e-01
3.771999999999999886e+01,2.873429937481413177e-01
3.775999999999999801e+01,3.795234438816596501e-01
3.779999999999999716e+01,4.332436907696605721e-01
3.784000000000000341e+01,4.884186528124037086e-01
3.788000000000000256e+01,4.995203739150958500e-01
3.792000000000000171e+01,4.316232984677310092e-01
3.796000000000000085e+01,3.843068338731971956e-01
3.800000000000000000e+01,3.253479971940813065e-01
3.803999999999999915e+01,2.341656570056785125e-01
3.807999999999999829e+01,1.853923960407880822e-01
3.811999999999999744e+01,1.555366199965282359e-01
3.815999999999999659e+01,1.250566484761142516e-01
3.820000000000000284e+01,1.182756344610005061e-01
3.824000000000000199e+01,9.631810843508398223e-02
3.828000000000000114e+01,8.683346666916400003e-02
3.832000000000000028e+01,9.564263384771257148e-02
3.835999999999999943e+01,7.804921469827275082e-02
3.839999999999999858e+01,6.003948384697124080e-02
3.843999999999999773e+01,5.554208399605901209e-02
3.847999999999999687e+01,4.979680947718490708e-02
3.852000000000000313e+01,6.380056998245819955e-02
3.856000000000000227e+01,5.992523722928023988e-02
3.860000000000000142e+01,7.018590180571593340e-02
3.864000000000000057e+01,6.527004365252936369e-02
3.867999999999999972e+01,6.347199978923680208e-02
3.871999999999999886e+01,4.109228570737232661e-02
3.875999999999999801e+01,3.700636877927506591e-02
3.879999999999999716e+01,3.416725107516941501e-02
3.884000000000000341e+01,4.587990468055379994e-02
3.888000000000000256e+01,4.844484508696239589e-02
3.892000000000000171e+01,3.437802382148668484e-02
3.896000000000000085e+01,5.232574791891715649e-02
3.900000000000000000e+01,4.802867264992951440e-02
3.903999999999999915e+01,5.558079065842940619e-02
3.907999999999999829e+01,4.442224065167653391e-02
3.911999999999999744e+01,5.571528226343481355e-02
3.915999999999999659e+01,3.291377850295536256e-02
3.920000000000000284e+01,3.090074257255057827e-02
3.924000000000000199e+01,5.071562442825892914e-02
3.928000000000000114e+01,5.951177051591542699e-02
3.932000000000000028e+01,4.834990092352314806e-02
3.935999999999999943e+01,4.134527842695218808e-02
3.939999999999999858e+01,5.720802045688702653e-02
3.943999999999999773e+01,4.209456269517152655e-02
3.947999999999999687e+01,5.047213793294999529e-02
3.952000000000000313e+01,5.697814001708411541e-02
3.956000000000000227e+01,6.597826219295731265e-02
3.960000000000000142e+01,5.148622769067894012e-02
3.964000000000000057e+01,5.861421005011028390e-02
3.967999999999999972e+01,4.827884954956418451e-02
3.971999999999999886e+01,5.769249191670721560e-02
3.975999999999999801e+01,7.375805312786107293e-02
3.979999999999999716e+01,6.820246415171030141e-02
3.984000000000000341e+01,6.701199961438167318e-02
3.988000000000000256e+01,7.787859605060376555e-02
3.992000000000000171e+01,7.710276895191085778e-02
3.996000000000000085e+01,8.360252595457128011e-02
4.000000000000000000e+01,9.820942680903932409e-02
4.003999999999999915e+01,1.007581205017782922e-01
4.007999999999999829e+01,1.020588966512778611e-01
4.011999999999999744e+01,1.091800211755145217e-01
4.015999999999999659e+01,1.264871873198718244e-01
4.020000000000000284e+01,1.464963466114411750e-01
4.024000000000000199e+01,1.652575840722434741e-01
4.028000000000000114e+01,1.973232130212815294e-01
4.032000000000000028e+01,2.345855143688947986e-01
4.035999999999999943e+01,3.034465431523782342e-01
4.039999999999999858e+01,3.889382034977966196e-01
4.043999999999999773e+01,4.852395685769142486e-01
4.047999999999999687e+01,6.170895717823535742e-01
4.052000000000000313e+01,7.420786101030824033e-01
4.056000000000000227e+01,8.635329257565635963e-01
4.060000000000000142e+01,9.517242182723936184e-01
4.064000000000000057e+01,1.000000000000000000e+00
4.067999999999999972e+01,9.861160178700054679e-01
4.071999999999999886e+01,9.221299027344038723e-01
4.075999999999999801e+01,8.101205555771543443e-01
4.079999999999999716e+01,7.051788798061532360e-01
4.084000000000000341e+01,5.800712574180056924e-01
4.088000000000000256e+01,5.017383335389000720e-01
4.092000000000000171e+01,3.888950367135831088e-01
4.096000000000000085e+01,3.398734331114380280e-01
4.100000000000000000e+01,2.683990863431937046e-01
4.103999999999999915e+01,2.208315111822160559e-01
4.107999999999999829e+01,1.913497808002689593e-01
4.111999999999999744e+01,1.722619565188599489e-01
4.115999999999999659e+01,1.413237852686116403e-01
4.120000000000000284e+01,1.317976988710932995e-01
4.124000000000000199e+01,1.197763226122548902e-01
4.128000000000000114e+01,1.054675456257985339e-01
4.132000000000000028e+01,9.656330444645287725e-02
4.135999999999999943e+01,9.119258615207945229e-02
4.139999999999999858e+01,9.018695049313243950e-02
4.143999999999999773e+01,8.938859228604861817e-02
4.147999999999999687e+01,8.006612182441506798e-02
4.152000000000000313e+01,6.949569523179227604e-02
4.156000000000000227e+01,8.449514795664338218e-02
4.160000000000000142e+01,7.662606102599807401e-02
4.164000000000000057e+01,8.954537654062921792e-02
4.167999999999999972e+01,8.354606416209740816e-02
4.171999999999999886e+01,7.837769234900734960e-02
4.175999999999999801e+01,7.882173475791073858e-02
4.179999999999999716e+01,7.074165633720891355e-02
4.184000000000000341e+01,7.222390390083394118e-02
4.188000000000000256e+01,6.601358931342624081e-02
4.192000000000000171e+01,4.462666410207714179e-02
4.196000000000000085e+01,7.105385948687800712e-02
4.200000000000000000e+01,6.234698236790296028e-02
4.203999999999999915e+01,6.819179080786282043e-02
4.207999999999999829e+01,5.158382714091110793e-02
4.211999999999999744e+01,3.975670722667914991e-02
4.215999999999999659e+01,4.767852479533800369e-02
4.220000000000000284e+01,2.566351964041300657e-02
4.224000000000000199e+01,4.002866627134050309e-02
4.228000000000000114e+01,4.254343592073435432e-02
4.232000000000000028e+01,3.882086306748251670e-02
4.235999999999999943e+01,3.946334712449067056e-02
4.239999999999999858e+01,4.862869113155812717e-02
4.243999999999999773e+01,4.053850852437836105e-02
4.247999999999999687e+01,3.099245385545874171e-02
4.252000000000000313e+01,3.828486414431557516e-02
4.256000000000000227e+01,3.767680385456238790e-02
4.260000000000000142e+01,4.039434301585724529e-02
4.264000000000000057e+01,3.645875068828267201e-02
4.267999999999999972e+01,2.275167271619582543e-02
4.271999999999999886e+01,3.627756462167903984e-02
4.275999999999999801e+01,3.795306668304539860e-02
4.279999999999999716e+01,3.089653091217392164e-02
4.284000000000000341e+01,3.797587885143036829e-02
4.288000000000000256e+01,3.216538270300370317e-02
4.292000000000000171e+01,2.864102640264915359e-02
4.296000000000000085e+01,1.014792181500687347e-02
4.300000000000000000e+01,3.094541152563726888e-02
4.303999999999999915e+01,2.679542093718068757e-02
4.307999999999999829e+01,3.407873495496751420e-02
4.311999999999999744e+01,4.884543860101851764e-02
4.315999999999999659e+01,2.785436804196510935e-02
4.320000000000000284e+01,2.848321894712867869e-02
4.324000000000000199e+01,3.514022482582203344e-02
4.328000000000000114e+01,3.348096042086248780e-02
4.332000000000000028e+01,3.036580144464228262e-02
4.335999999999999943e+01,4.284174368317333892e-02
4.339999999999999858e+01,3.057808618126404629e-02
4.343999999999999773e+01,3.120295507774916571e-02
4.347999999999999687e+01,3.286660758245480568e-02
4.352000000000000313e+01,2.829288542805652104e-02
4.356000000000000227e+01,2.808418802745990886e-02
4.360000000000000142e+01,2.683536896359732873e-02
4.364000000000000057e+01,1.768605038031247426e-02
4.367999999999999972e+01,2.100947135296221679e-02
4.371999999999999886e+01,3.119259525889476678e-02
4.375999999999999801e+01,4.054348341961759583e-02
4.379999999999999716e+01,3.700450283937271184e-02
4.384000000000000341e+01,3.886999053767629247e-02
4.388000000000000256e+01,2.576670529540763671e-02
4.392000000000000171e+01,2.783872585037478961e-02
4.396000000000000085e+01,4.383870989719155370e-02
4.400000000000000000e+01,4.611725902129457100e-02
4.403999999999999915e+01,3.238757988937718268e-02
4.407999999999999829e+01,2.343869198796444051e-02
4.411999999999999744e+01,3.403079884164338098e-02
4.415999999999999659e+01,2.113062682262955086e-02
4.420000000000000284e+01,2.278208248092584640e-02
4.424000000000000199e+01,2.755120343752642809e-02
4.428000000000000114e+01,3.398275718146095969e-02
4.432000000000000028e+01,2.918754989463508143e-02
4.435999999999999943e+01,4.019130723109595738e-02
4.439999999999999858e+01,2.645543803006800837e-02
4.443999999999999773e+01,2.623173904713818963e-02
4.447999999999999687e+01,3.286772263173433350e-02
4.452000000000000313e+01,3.181107332108957381e-02
4.456000000000000227e+01,2.576436271591488539e-02
4.460000000000000142e+01,4.404010873168217460e-02
4.464000000000000057e+01,3.903145321775747939e-02
4.467999999999999972e+01,2.071712497029428585e-02
4.471999999999999886e+01,2.984360321188830184e-02
4.475999999999999801e+01,2.691174780968431240e-02
4.479999999999999716e+01,3.187901742787106751e-02
4.484000000000000341e+01,3.830081462146055216e-02
4.488000000000000256e+01,3.141693372210169893e-02
4.492000000000000171e+01,4.282668490669135769e-02
4.496000000000000085e+01,4.467277955508211496e-02
4.500000000000000000e+01,3.591576556747168997e-02
4.503999999999999915e+01,4.586816085933206888e-02
4.507999999999999829e+01,3.523871550339206793e-02
4.511999999999999744e+01,3.562673967654833573e-02
4.515999999999999659e+01,4.245864778406941570e-02
4.520000000000000284e+01,3.931111251293187975e-02
4.524000000000000199e+01,4.510214149940407202e-02
4.528000000000000114e+01,4.361629763604665116e-02
4.532000000000000028e+01,5.688994164288910249e-02
4.535999999999999943e+01,4.729494523733283884e-02
4.539999999999999858e+01,6.825909018260178929e-02
4.543999999999999773e+01,4.764447406914185112e-02
4.547999999999999687e+01,5.966789921858404316e-02
4.552000000000000313e+01,6.566178632040937935e-02
4.556000000000000227e+01,5.502373381794839480e-02
4.560000000000000142e+01,7.245013483989416747e-02
4.564000000000000057e+01,6.409742506809056051e-02
4.567999999999999972e+01,8.152237441550513886e-02
4.571999999999999886e+01,7.753390514267191613e-02
4.575999999999999801e+01,5.753716152289487656e-02
4.579999999999999716e+01,5.770503825592022962e-02
4.584000000000000341e+01,5.808007453379532975e-02
4.588000000000000256e+01,5.637547702321350079e-02
4.592000000000000171e+01,5.279913485787678801e-02
4.596000000000000085e+01,5.150885107758468306e-02
4.600000000000000000e+01,4.418901638709241825e-02
4.603999999999999915e+01,5.308388171201364886e-02
4.607999999999999829e+01,5.407818213271418928e-02
4.611999999999999744e+01,3.864841814836531692e-02
4.615999999999999659e+01,4.379904528104951178e-02
4.620000000000000284e+01,3.772286100452210134e-02
4.624000000000000199e+01,3.601162966570647939e-02
4.628000000000000114e+01,3.097341258611006204e-02
4.632000000000000028e+01,3.196326794513403013e-02
4.635999999999999943e+01,4.501001063283446846e-02
4.639999999999999858e+01,3.477230462803761885e-02
4.643999999999999773e+01,2.786009517362242685e-02
4.647999999999999687e+01,3.300476983223794153e-02
4.652000000000000313e+01,3.045675800151559018e-02
4.656000000000000227e+01,2.333441169333438925e-02
4.660000000000000142e+01,2.411114217085663300e-02
4.664000000000000057e+01,4.442879987490833821e-02
4.667999999999999972e+01,3.460162459901482829e-02
4.671999999999999886e+01,3.662343679927627937e-02
4.675999999999999801e+01,2.596319114489053018e-02
4.679999999999999716e+01,3.172551534574536564e-02
4.684000000000000341e+01,2.584523057610945210e-02
4.688000000000000256e+01,2.890346611692379275e-02
4.692000000000000171e+01,3.632663637345688590e-02
4.696000000000000085e+01,3.210719444385336935e-02
4.700000000000000000e+01,2.809488097452336741e-02
4.703999999999999915e+01,2.033978098748754487e-02
4.707999999999999829e+01,2.755201191343027711e-02
4.711999999999999744e+01,3.102145417790333481e-02
4.715999999999999659e+01,3.033232629785661758e-02
4.720000000000000284e+01,2.402939576231974406e-02
4.724000000000000199e+01,2.936754856288854854e-02
4.728000000000000114e+01,3.636805375964568404e-02
4.732000000000000028e+01,2.694446239489524386e-02
4.735999999999999943e+01,3.061718258969309270e-02
4.739999999999999858e+01,3.428913032036098874e-02
4.743999999999999773e+01,2.465533135763643344e-02
4.747999999999999687e+01,1.626809902052238008e-02
4.752000000000000313e+01,4.322142595292447625e-02
4.756000000000000227e+01,2.589336234426188946e-02
4.760000000000000142e+01,3.413501619890019212e-02
4.764000000000000057e+01,2.408155306671869167e-02
4.767999999999999972e+01,3.190586764746363574e-02
4.771999999999999886e+01,2.538497700372224081e-02
4.775999999999999801e+01,3.258405781746196578e-02
4.779999999999999716e+01,2.003278591776569070e-02
4.784000000000000341e+01,4.053527245110515737e-02
4.788000000000000256e+01,2.611141911960759149e-02
4.792000000000000171e+01,2.977322727532893260e-02
4.796000000000000085e+01,3.613682063316596416e-02
4.800000000000000000e+01,2.649207961867052277e-02
4.803999999999999915e+01,3.888291078184549082e-02
4.807999999999999829e+01,3.069182090607452257e-02
4.811999999999999744e+01,2.977609646774108040e-02
4.815999999999999659e+01,3.073059104977740597e-02
4.820000000000000284e+01,1.463729487215119709e-02
4.824000000000000199e+01,2.182690674629005761e-02
4.828000000000000114e+01,3.109462463073696045e-02
4.832000000000000028e+01,2.539345059571617227e-02
4.835999999999999943e+01,3.299645152877934279e-02
4.839999999999999858e+01,2.521477798744278451e-02
4.843999999999999773e+01,3.385563035418732991e-02
4.847999999999999687e+01,2.357767260783913063e-02
4.852000000000000313e+01,3.304848191515325634e-02
4.856000000000000227e+01,2.193735732093817642e-02
4.860000000000000142e+01,3.681170380414363480e-02
4.864000000000000057e+01,3.484613794256928576e-02
4.867999999999999972e+01,3.786913025066052096e-02
4.871999999999999886e+01,3.610983999408414608e-02
4.875999999999999801e+01,2.374734034460423276e-02
4.879999999999999716e+01,3.342039250703781467e-02
4.884000000000000341e+01,4.870566916836144983e-02
4.888000000000000256e+01,3.966697965258709352e-02
4.892000000000000171e+01,3.998253619245217827e-02
4.896000000000000085e+01,4.736554545464997934e-02
4.900000000000000000e+01,3.645340128604202673e-02
4.903999999999999915e+01,4.404266900312674149e-02
4.907999999999999829e+01,5.204689964820809200e-02
4.911999999999999744e+01,3.967707159099719688e-02
4.915999999999999659e+01,3.832460480280661108e-02
4.920000000000000284e+01,4.362380389448894391e-02
4.924000000000000199e+01,5.349576573832158510e-02
4.928000000000000114e+01,4.798302952635188912e-02
4.932000000000000028e+01,4.600360289484820703e-02
4.935999999999999943e+01,4.423124148258356786e-02
4.939999999999999858e+01,5.014999161870248301e-02
4.943999999999999773e+01,5.315745174653547372e-02
4.947999999999999687e+01,4.930370688810326724e-02
4.952000000000000313e+01,5.542786262383359724e-02
4.956000000000000227e+01,3.265444943762341873e-02
4.960000000000000142e+01,4.231107690489147727e-02
4.964000000000000057e+01,4.760117756537540767e-02
4.967999999999999972e+01,5.060365240303396628e-02
4.971999999999999886e+01,4.612124520638349184e-02
4.975999999999999801e+01,4.891415950001101048e-02
4.979999999999999716e+01,5.711138236177785293e-02
4.984000000000000341e+01,4.950811175022711008e-02
4.988000000000000256e+01,4.647758674071559432e-02
4.992000000000000171e+01,4.781191605577730236e-02
4.996000000000000085e+01,6.203459705247720002e-02
5.000000000000000000e+01,5.567530555989804592e-02
5.003999999999999915e+01,6.282803422194538356e-02
5.007999999999999829e+01,4.981456866211795426e-02
5.011999999999999744e+01,5.197624275782572467e-02
5.015999999999999659e+01,6.224478844732832250e-02
5.020000000000000284e+01,7.126514540746069215e-02
5.024000000000000199e+01,6.531655899779227614e-02
5.028000000000000114e+01,7.662201001197195549e-02
5.032000000000000028e+01,8.293724538062238749e-02
5.035999999999999943e+01,7.532298519174650264e-02
5.039999999999999858e+01,7.415246852070124517e-02
5.043999999999999773e+01,9.418589889207375221e-02
5.047999999999999687e+01,1.056949758354599339e-01
5.052000000000000313e+01,8.705911689823468691e-02
5.056000000000000227e+01,9.420078631063084906e-02
5.060000000000000142e+01,1.086177547037841945e-01
5.064000000000000057e+01,1.278153385388040020e-01
5.067999999999999972e+01,1.372412223529234088e-01
5.071999999999999886e+01,1.481214761758003762e-01
5.075999999999999801e+01,1.590008674964643043e-01
5.079999999999999716e+01,1.873421725120951731e-01
5.084000000000000341e+01,1.863700938943953500e-01
5.088000000000000256e+01,1.943364283989517105e-01
5.092000000000000171e+01,1.998072136467585469e-01
5.096000000000000085e+01,2.017429975380135021e-01
5.100000000000000000e+01,2.228038114094982314e-01
5.103999999999999915e+01,2.270246486232868066e-01
5.107999999999999829e+01,2.000610839221963755e-01
5.111999999999999744e+01,2.088537624324154629e-01
5.115999999999999659e+01,1.899961703789209699e-01
5.120000000000000284e+01,1.779980808167864470e-01
5.124000000000000199e+01,1.743147241132184944e-01
5.128000000000000114e+01,1.479704585643086823e-01
5.132000000000000028e+01,1.586297721008031736e-01
5.135999999999999943e+01,1.370652251913248021e-01
5.139999999999999858e+01,1.312994542539116238e-01
5.143999999999999773e+01,1.111883784069917641e-01
5.147999999999999687e+01,9.918413878176274290e-02
5.152000000000000313e+01,1.054733543799619561e-01
5.156000000000000227e+01,9.762515205859269296e-02
5.160000000000000142e+01,7.231328745642780220e-02
5.164000000000000057e+01,8.275765213110729268e-02
5.167999999999999972e+01,7.677780340914767965e-02
5.171999999999999886e+01,8.036001591667575605e-02
5.175999999999999801e+01,6.647856185588046918e-02
5.179999999999999716e+01,5.654613133003910663e-02
5.184000000000000341e+01,5.825466087388028735e-02
5.188000000000000256e+01,4.603365412868145462e-02
5.192000000000000171e+01,5.272976250484376348e-02
5.196000000000000085e+01,5.776185457766233600e-02
5.200000000000000000e+01,6.944553749861803738e-02
5.203999999999999915e+01,6.283398552574054330e-02
5.207999999999999829e+01,6.121090061256369980e-02
5.211999999999999744e+01,5.293443017449770555e-02
5.215999999999999659e+01,4.424127930718264184e-02
5.220000000000000284e+01,5.134688297429410020e-02
5.224000000000000199e+01,5.013597625619804071e-02
5.228000000000000114e+01,5.308197041605666050e-02
5.232000000000000028e+01,5.644284068147475270e-02
5.235999999999999943e+01,6.250537824199518810e-02
5.239999999999999858e+01,5.110423208408126222e-02
5.243999999999999773e+01,5.882807731864726081e-02
5.247999999999999687e+01,6.010641758697072429e-02
5.252000000000000313e+01,6.117595798469176172e-02
5.256000000000000227e+01,5.746311291707890262e-02
5.260000000000000142e+01,6.164918385287847941e-02
5.264000000000000057e+01,6.022130635724401437e-02
5.267999999999999972e+01,7.583951176695717666e-02
5.271999999999999886e+01,7.191512282733973638e-02
5.275999999999999801e+01,6.757403738024414519e-02
5.279999999999999716e+01,8.859463984621324117e-02
5.284000000000000341e+01,9.319099783096687628e-02
5.288000000000000256e+01,9.695487568142843737e-02
5.292000000000000171e+01,1.090334413714151018e-01
5.296000000000000085e+01,1.119639165599829594e-01
5.300000000000000000e+01,1.263274305280730203e-01
5.303999999999999915e+01,1.149116354042548915e-01
5.307999999999999829e+01,1.398757015862835407e-01
5.311999999999999744e+01,1.309527385148612499e-01
5.315999999999999659e+01,1.399074063085396502e-01
5.320000000000000284e+01,1.201722978446050499e-01
5.324000000000000199e+01,1.031388330943700804e-01
5.328000000000000114e+01,1.031514351712536637e-01
5.332000000000000028e+01,9.339226648302884071e-02
5.335999999999999943e+01,8.300849500351267785e-02
5.339999999999999858e+01,7.345535109991180311e-02
5.343999999999999773e+01,6.639595534501679941e-02
5.347999999999999687e+01,5.309891803241476027e-02
5.352000000000000313e+01,5.435325864863080336e-02
5.356000000000000227e+01,5.228041844155296991e-02
5.360000000000000142e+01,6.538262463628145837e-02
5.364000000000000057e+01,6.102111388423542976e-02
5.367999999999999972e+01,6.060857628869210922e-02
5.371999999999999886e+01,5.271104947064580298e-02
5.375999999999999801e+01,5.770177250545327485e-02
5.379999999999999716e+01,4.169464081102925573e-02
5.384000000000000341e+01,2.901280736882803218e-02
5.388000000000000256e+01,3.504014632018876557e-02
5.392000000000000171e+01,3.628506336222963452e-02
5.396000000000000085e+01,3.337122803982094793e-02
5.400000000000000000e+01,4.833500107299211479e-02
5.403999999999999915e+01,4.832972890757819551e-02
5.407999999999999829e+01,4.104734807830780208e-02
5.411999999999999744e+01,3.688236779250254893e-02
5.415999999999999659e+01,3.001386122192648692e-02
5.420000000000000284e+01,3.416258086324625715e-02
5.424000000000000199e+01,4.246814886030577524e-02
5.428000000000000114e+01,4.786229715136452317e-02
5.432000000000000028e+01,2.726921184470886342e-02
5.435999999999999943e+01,3.557190614265138412e-02
5.439999999999999858e+01,3.056866723974386787e-02
5.443999999999999773e+01,4.760082901339630218e-02
5.447999999999999687e+01,4.467456886374462227e-02
5.452000000000000313e+01,4.652882018341122222e-02
5.456000000000000227e+01,3.112722010860272115e-02
5.460000000000000142e+01,3.651367518932192857e-02
5.464000000000000057e+01,4.480962667345703143e-02
5.467999999999999972e+01,4.458111218200207226e-02
5.471999999999999886e+01,4.248061722176548621e-02
5.475999999999999801e+01,2.873730105841404772e-02
5.479999999999999716e+01,4.513709394246371437e-02
5.484000000000000341e+01,3.139183518265241390e-02
5.488000000000000256e+01,3.926618489753157942e-02
5.492000000000000171e+01,4.277386631721051546e-02
5.496000000000000085e+01,4.295432939772762110e-02
5.500000000000000000e+01,4.687584005705937307e-02
5.503999999999999915e+01,2.772056070297885741e-02
5.507999999999999829e+01,2.602708035249762242e-02
5.511999999999999744e+01,3.119299744894624832e-02
5.515999999999999659e+01,4.425776194836319316e-02
5.520000000000000284e+01,3.861142646410548052e-02
5.524000000000000199e+01,4.356650891164504796e-02
5.528000000000000114e+01,3.937343868861337137e-02
5.532000000000000028e+01,2.457698328403995491e-02
5.535999999999999943e+01,3.368691575299847391e-02
5.539999999999999858e+01,3.697493562508496340e-02
5.543999999999999773e+01,4.421188149086890257e-02
5.547999999999999687e+01,3.959809665407887369e-02
5.552000000000000313e+01,3.623066299462941731e-02
5.556000000000000227e+01,4.762244280360318494e-02
5.560000000000000142e+01,3.947155108774661608e-02
5.564000000000000057e+01,3.880371350110684708e-02
5.567999999999999972e+01,5.850812171801441502e-02
5.571999999999999886e+01,5.471994128834847121e-02
5.575999999999999801e+01,5.592012930524470349e-02
5.579999999999999716e+01,4.235911516633453222e-02
5.584000000000000341e+01,4.230996575916953772e-02
5.588000000000000256e+01,4.600184034941651179e-02
5.592000000000000171e+01,4.262444717482179180e-02
5.596000000000000085e+01,5.026423304931766645e-02
5.600000000000000000e+01,6.102136908882743738e-02
5.603999999999999915e+01,5.701729654123911112e-02
5.607999999999999829e+01,4.552817153011332052e-02
5.611999999999999744e+01,4.484833107496615651e-02
5.615999999999999659e+01,4.874106793639365609e-02
5.620000000000000284e+01,5.595903980900950037e-02
5.624000000000000199e+01,4.363432300668391994e-02
5.628000000000000114e+01,5.064238490175614060e-02
5.632000000000000028e+01,4.746281522940626330e-02
5.635999999999999943e+01,5.010315874772579975e-02
5.639999999999999858e+01,5.170303760055840192e-02
5.643999999999999773e+01,4.041270899773018177e-02
5.647999999999999687e+01,4.866304393847419030e-02
5.652000000000000313e+01,4.443894969096157110e-02
5.656000000000000227e+01,4.125328854627503816e-02
5.660000000000000142e+01,3.661137696552379389e-02
5.664000000000000057e+01,2.656329997072851348e-02
5.667999999999999972e+01,2.566137088089224388e-02
5.671999999999999886e+01,4.076596540840726063e-02
5.675999999999999801e+01,3.341739444833877887e-02
5.679999999999999716e+01,3.937277228926479994e-02
5.684000000000000341e+01,3.493261442271943656e-02
5.688000000000000256e+01,3.963859910172334855e-02
5.692000000000000171e+01,3.145436346248315501e-02
5.696000000000000085e+01,3.158470740269203603e-02
5.700000000000000000e+01,4.002962985046814443e-02
5.703999999999999915e+01,5.325499623900022822e-02
5.707999999999999829e+01,4.402718856489321042e-02
5.711999999999999744e+01,3.708514022076956490e-02
5.715999999999999659e+01,3.388408157383580865e-02
5.720000000000000284e+01,3.338456052428955684e-02
5.724000000000000199e+01,4.099172134543475898e-02
5.728000000000000114e+01,3.092717747296480982e-02
5.732000000000000028e+01,3.333500764468789318e-02
5.735999999999999943e+01,3.324711598666901802e-02
5.739999999999999858e+01,3.752387821130060558e-02
5.743999999999999773e+01,4.720474427462100636e-02
5.747999999999999687e+01,3.879811987374842674e-02
5.752000000000000313e+01,3.600348737338487232e-02
5.756000000000000227e+01,3.694983385139175014e-02
5.760000000000000142e+01,4.080559741355087311e-02
5.764000000000000057e+01,4.112618061487414295e-02
5.767999999999999972e+01,3.624846073880704650e-02
5.771999999999999886e+01,3.261703308657378647e-02
5.775999999999999801e+01,3.688438316498268005e-02
5.779999999999999716e+01,4.011123106203681038e-02
5.784000000000000341e+01,3.335829686573918429e-02
5.788000000000000256e+01,3.325679595093344876e-02
5.792000000000000171e+01,4.313297053508285267e-02
5.796000000000000085e+01,5.030551700567711948e-02
5.800000000000000000e+01,4.063790031111756684e-02
5.803999999999999915e+01,3.866116363844251946e-02
5.807999999999999829e+01,3.564391728123912639e-02
5.811999999999999744e+01,2.514156379451927895e-02
5.815999999999999659e+01,3.709029171050703955e-02
5.820000000000000284e+01,3.510931398010831012e-02
5.824000000000000199e+01,3.187993207206932245e-02
5.828000000000000114e+01,3.925188663280020085e-02
5.832000000000000028e+01,3.685193644318013328e-02
5.835999999999999943e+01,4.650855201765448366e-02
5.839999999999999858e+01,3.994866432490785935e-02
5.843999999999999773e+01,3.920863408496971791e-02
5.847999999999999687e+01,3.971487570310859583e-02
5.852000000000000313e+01,4.001215666835399726e-02
5.856000000000000227e+01,4.155570734791250165e-02
5.860000000000000142e+01,5.037434263184027011e-02
5.864000000000000057e+01,4.858950376802523979e-02
5.867999999999999972e+01,4.285367626327576951e-02
5.871999999999999886e+01,4.584816158633817085e-02
5.875999999999999801e+01,3.844705975159605493e-02
5.879999999999999716e+01,4.767609641309659974e-02
5.884000000000000341e+01,3.923338657758630027e-02
5.888000000000000256e+01,4.159988733820084439e-02
5.892000000000000171e+01,4.188640487684588271e-02
5.896000000000000085e+01,4.965588757850671747e-02
5.900000000000000000e+01,5.576116532560242839e-02
5.903999999999999915e+01,5.812333499041025253e-02
5.907999999999999829e+01,5.071357953911021649e-02
5.911999999999999744e+01,5.723138133640450625e-02
5.915999999999999659e+01,5.480881669616331081e-02
5.920000000000000284e+01,5.280094379778786651e-02
5.924000000000000199e+01,5.661290691458219226e-02
5.928000000000000114e+01,3.672429578172624332e-02
5.932000000000000028e+01,5.612584161931136878e-02
5.935999999999999943e+01,4.351120284011961159e-02
5.939999999999999858e+01,4.669512565660514231e-02
5.943999999999999773e+01,4.384913741055859737e-02
5.947999999999999687e+01,5.305968491591222386e-02
5.952000000000000313e+01,5.436930736471333458e-02
5.956000000000000227e+01,5.422260005818611145e-02
5.960000000000000142e+01,4.783808719601508053e-02
5.964000000000000057e+01,5.122331353629163558e-02
5.967999999999999972e+01,4.961807341066487576e-02
5.971999999999999886e+01,5.216953479295190904e-02
5.975999999999999801e+01,5.721457496659832637e-02
5.979999999999999716e+01,5.685336504752747794e-02
5.984000000000000341e+01,5.046223334710516623e-02
5.988000000000000256e+01,6.319589366912203854e-02
5.992000000000000171e+01,5.368419403046609945e-02
5.996000000000000085e+01,6.454462550398981646e-02
