2.003999999999999915e+01,4.695772772001733340e-03
2.007999999999999829e+01,2.864650739799278530e-03
2.012000000000000099e+01,3.281599665387855119e-03
2.016000000000000014e+01,4.469236196225006424e-03
2.019999999999999929e+01,6.170624163692714319e-03
2.023999999999999844e+01,3.054336476535264751e-03
2.028000000000000114e+01,5.526291309905682729e-03
2.032000000000000028e+01,1.510485029801635331e-03
2.035999999999999943e+01,3.850908143862062996e-04
2.039999999999999858e+01,6.004152483001454384e-03
2.044000000000000128e+01,6.420134526268770833e-03
2.048000000000000043e+01,5.679782950465823640e-03
2.051999999999999957e+01,5.196247207083498978e-03
2.055999999999999872e+01,3.299441756642829300e-03
2.060000000000000142e+01,2.751431359183996277e-03
2.064000000000000057e+01,5.286535777757276310e-03
2.067999999999999972e+01,4.674051048740723510e-03
2.071999999999999886e+01,3.483339745238923750e-03
2.076000000000000156e+01,3.641423817237756603e-03
2.080000000000000071e+01,5.662175843861903292e-03
2.083999999999999986e+01,6.269658727835553114e-03
2.087999999999999901e+01,2.509105683442258705e-03
2.092000000000000171e+01,2.281306455672047710e-03
2.096000000000000085e+01,5.971665499025857228e-03
2.100000000000000000e+01,3.623903235793127578e-03
2.103999999999999915e+01,2.881873161716376908e-03
2.107999999999999829e+01,3.103234734306592382e-03
2.112000000000000099e+01,3.452945224139116788e-03
2.116000000000000014e+01,3.674068462596167053e-03
2.119999999999999929e+01,5.629392337351736379e-03
2.123999999999999844e+01,4.180191944085693070e-03
2.128000000000000114e+01,3.630149538323225889e-03
2.132000000000000028e+01,5.007010197683976933e-03
2.135999999999999943e+01,4.199794014837803478e-03
2.139999999999999858e+01,2.750118565899322808e-03
2.144000000000000128e+01,3.227346423973161994e-03
2.148000000000000043e+01,4.089860174204064218e-03
2.151999999999999957e+01,3.474872090177408886e-03
2.155999999999999872e+01,3.887510682685930627e-03
2.160000000000000142e+01,4.364265097681232011e-03
2.164000000000000057e+01,8.245306656010385760e-03
2.167999999999999972e+01,5.124717343779737304e-03
2.171999999999999886e+01,3.031755030603040194e-03
2.176000000000000156e+01,4.150377915713663983e-03
2.180000000000000071e+01,4.883478590276434626e-03
2.183999999999999986e+01,3.175567140941129227e-03
2.187999999999999901e+01,3.908432384039753869e-03
2.192000000000000171e+01,3.677669097672774112e-03
2.196000000000000085e+01,6.786959537365328844e-03
2.200000000000000000e+01,7.519472237990467746e-03
2.203999999999999915e+01,8.508803834964634438e-03
2.207999999999999829e+01,5.322804109398353647e-03
2.212000000000000099e+01,6.376135304776611723e-03
2.216000000000000014e+01,4.346114398175623429e-03
2.219999999999999929e+01,2.187508336571229988e-03
2.223999999999999844e+01,4.717871873983565424e-03
2.228000000000000114e+01,4.935692299048220419e-03
2.232000000000000028e+01,2.391331256211772296e-03
2.235999999999999943e+01,5.692153175894856115e-03
2.239999999999999858e+01,7.194304723614328503e-03
2.244000000000000128e+01,3.429146615158753034e-03
2.248000000000000043e+01,3.903320153314967112e-03
2.251999999999999957e+01,4.634313555376581677e-03
2.255999999999999872e+01,4.016275344176460475e-03
2.260000000000000142e+01,4.618568092819215834e-03
2.264000000000000057e+01,3.679127202524019608e-03
2.267999999999999972e+01,4.859294305697290511e-03
2.271999999999999886e+01,5.204302616622595058e-03
2.276000000000000156e+01,4.906854402865244193e-03
2.280000000000000071e+01,5.637035365163628811e-03
2.283999999999999986e+01,5.146653403231891619e-03
2.287999999999999901e+01,6.133539214798384293e-03
2.292000000000000171e+01,5.000585391027940162e-03
2.296000000000000085e+01,2.261664511045220066e-03
2.300000000000000000e+01,6.010268506775883444e-03
2.303999999999999915e+01,5.069670616583778038e-03
2.307999999999999829e+01,4.385893719112798038e-03
2.312000000000000099e+01,4.215874144240134257e-03
2.316000000000000014e+01,4.109973536412364452e-03
2.319999999999999929e+01,5.866745720991623642e-03
2.323999999999999844e+01,5.439444852959622080e-03
2.328000000000000114e+01,3.663113823000411270e-03
2.332000000000000028e+01,2.336306456476127096e-03
2.335999999999999943e+01,6.019641258159383682e-03
2.339999999999999858e+01,3.986029902597179597e-03
2.344000000000000128e+01,4.778602757898270034e-03
2.348000000000000043e+01,3.836741480549377050e-03
2.351999999999999957e+01,5.078723952204438827e-03
2.355999999999999872e+01,4.072399953973937156e-03
2.360000000000000142e+01,6.470367049932364972e-03
2.364000000000000057e+01,5.913453151834009713e-03
2.367999999999999972e+01,6.962276764451537543e-03
2.371999999999999886e+01,3.900006422657977326e-03
2.376000000000000156e+01,3.599686874453393755e-03
2.380000000000000071e+01,5.804381951219976868e-03
2.383999999999999986e+01,6.338877683315726624e-03
2.387999999999999901e+01,6.487855397607774667e-03
2.392000000000000171e+01,5.544740489295223521e-03
2.396000000000000085e+01,3.252596789760290111e-03
2.400000000000000000e+01,3.593936242968750420e-03
2.403999999999999915e+01,4.256332686322882898e-03
2.407999999999999829e+01,5.304020262764268245e-03
2.412000000000000099e+01,4.488806872007085162e-03
2.416000000000000014e+01,5.728970395705195937e-03
2.419999999999999929e+01,5.877041861206589932e-03
2.423999999999999844e+01,5.382659785324056360e-03
2.428000000000000114e+01,7.200591115033422134e-03
2.432000000000000028e+01,3.622748453539685696e-03
2.435999999999999943e+01,5.119284038307766668e-03
2.439999999999999858e+01,5.909132341898807976e-03
2.444000000000000128e+01,3.808335326338867319e-03
2.448000000000000043e+01,4.662192742638035167e-03
2.451999999999999957e+01,2.175766564862500075e-03
2.455999999999999872e+01,3.864442164131026529e-03
2.460000000000000142e+01,4.589494636123525768e-03
2.464000000000000057e+01,5.057498746900281755e-03
2.467999999999999972e+01,1.029006464507395933e-03
2.471999999999999886e+01,3.488042524904781758e-03
2.476000000000000156e+01,3.377604222748105314e-03
2.480000000000000071e+01,4.102096941196302707e-03
2.483999999999999986e+01,4.505307639265353388e-03
2.487999999999999901e+01,5.165342958391818881e-03
2.492000000000000171e+01,2.163925178181161802e-03
2.496000000000000085e+01,3.787248417494645629e-03
2.500000000000000000e+01,4.960821834324018534e-03
2.503999999999999915e+01,5.556177384675250672e-03
2.507999999999999829e+01,5.701783273801773119e-03
2.512000000000000099e+01,5.076469270773902552e-03
2.516000000000000014e+01,5.221852951706303959e-03
2.519999999999999929e+01,2.540826907763775542e-03
2.523999999999999844e+01,5.191117133183863544e-03
2.528000000000000114e+01,2.959507801008504427e-03
2.532000000000000028e+01,3.425618344668371600e-03
2.535999999999999943e+01,6.332512595545645995e-03
2.539999999999999858e+01,5.899125026201505230e-03
2.544000000000000128e+01,1.341997855975980898e-04
2.548000000000000043e+01,5.802827217762369753e-03
2.551999999999999957e+01,1.707766840407536199e-03
2.555999999999999872e+01,2.430150878957901099e-03
2.560000000000000142e+01,4.244403799954523521e-03
2.564000000000000057e+01,2.589907259884161300e-03
2.567999999999999972e+01,4.147003819811255140e-03
2.571999999999999886e+01,3.391564201544444886e-03
2.576000000000000156e+01,1.222865358079662122e-03
2.580000000000000071e+01,3.229270791179512760e-03
2.583999999999999986e+01,3.629714973405153387e-03
2.587999999999999901e+01,5.571667038668036420e-03
2.592000000000000171e+01,4.751444892702389074e-03
2.596000000000000085e+01,4.573453918667168272e-03
2.600000000000000000e+01,2.596799829340900971e-03
2.603999999999999915e+01,3.574803316431848701e-03
2.607999999999999829e+01,3.075314161050514070e-03
2.612000000000000099e+01,7.072100238830725596e-03
2.616000000000000014e+01,2.911051354963286632e-03
2.619999999999999929e+01,3.310511927828667985e-03
2.623999999999999844e+01,3.517161426977993745e-03
2.628000000000000114e+01,3.595233995352823796e-03
2.632000000000000028e+01,3.352027526647241053e-03
2.635999999999999943e+01,1.567094917565365264e-03
2.639999999999999858e+01,4.792310604547892795e-03
2.644000000000000128e+01,4.548778443057320715e-03
2.648000000000000043e+01,4.883244439371349326e-03
2.651999999999999957e+01,3.675984617827851575e-03
2.655999999999999872e+01,3.817531863090798359e-03
2.660000000000000142e+01,2.481587514067493377e-03
2.664000000000000057e+01,2.365982268486281799e-03
2.667999999999999972e+01,5.269269951709291272e-03
2.671999999999999886e+01,5.795789410168911832e-03
2.676000000000000156e+01,3.495902288311731210e-03
2.680000000000000071e+01,6.334632393439662557e-03
2.683999999999999986e+01,2.235976091550323074e-03
2.687999999999999901e+01,0.000000000000000000e+00
2.692000000000000171e+01,1.104087632591407766e-03
2.696000000000000085e+01,2.978876577479356094e-03
2.700000000000000000e+01,3.633110983625508026e-03
2.703999999999999915e+01,4.030301866337624925e-03
2.707999999999999829e+01,3.720810870062306666e-03
2.712000000000000099e+01,3.090042449300468667e-03
2.716000000000000014e+01,3.872316367102393402e-03
2.719999999999999929e+01,6.260334891033371429e-03
2.723999999999999844e+01,5.757713739892018553e-03
2.728000000000000114e+01,1.465176121941833692e-03
2.732000000000000028e+01,4.302512710830814872e-03
2.735999999999999943e+01,2.643358308739759185e-03
2.739999999999999858e+01,2.911119227485594804e-03
2.744000000000000128e+01,4.334986799955543521e-03
2.748000000000000043e+01,6.786492982155576358e-03
2.751999999999999957e+01,3.777997561216241400e-03
2.755999999999999872e+01,2.889119970568218565e-03
2.760000000000000142e+01,2.770944982291848133e-03
2.764000000000000057e+01,5.800132982556125381e-03
2.767999999999999972e+01,5.039405322308512618e-03
2.771999999999999886e+01,6.205593627935368332e-03
2.776000000000000156e+01,1.911780814201025688e-03
2.780000000000000071e+01,5.518651922604680439e-03
2.783999999999999986e+01,3.344351761347174722e-03
2.787999999999999901e+01,3.675074449289765944e-03
2.792000000000000171e+01,4.840734446953458801e-03
2.796000000000000085e+01,3.629628719374322025e-03
2.800000000000000000e+01,5.052014207508101484e-03
2.803999999999999915e+01,2.556016636173516141e-03
2.807999999999999829e+01,3.849723563424941458e-03
2.812000000000000099e+01,3.730176022630407942e-03
2.816000000000000014e+01,4.445566275335152001e-03
2.819999999999999929e+01,1.949148476520884106e-03
2.823999999999999844e+01,2.214690501821466821e-03
2.828000000000000114e+01,1.966255253961075346e-03
2.832000000000000028e+01,4.608248116098681568e-03
2.835999999999999943e+01,4.166901373859795317e-03
2.839999999999999858e+01,4.303556659650864362e-03
2.844000000000000128e+01,3.862000932487882031e-03
2.848000000000000043e+01,3.034936459936152763e-03
2.851999999999999957e+01,6.511449871392079904e-03
2.855999999999999872e+01,3.435984716778888847e-03
2.860000000000000142e+01,4.150225108937752490e-03
2.864000000000000057e+01,1.845360523439880081e-03
2.867999999999999972e+01,1.467413838929150635e-03
2.871999999999999886e+01,3.979896070713362377e-03
2.876000000000000156e+01,5.785699809957325218e-03
2.880000000000000071e+01,2.966547336266517603e-03
2.883999999999999986e+01,2.780887771512240928e-03
2.887999999999999901e+01,3.815571825462990303e-03
2.892000000000000171e+01,4.528982083263515847e-03
2.896000000000000085e+01,4.407246127048531498e-03
2.900000000000000000e+01,5.762790280675143990e-03
2.903999999999999915e+01,4.934273072996321098e-03
2.907999999999999829e+01,3.848716453997929384e-03
2.912000000000000099e+01,2.377652379685909513e-03
2.916000000000000014e+01,3.026209360853002184e-03
2.919999999999999929e+01,5.280514979633920032e-03
2.923999999999999844e+01,3.231035583966073137e-03
2.928000000000000114e+01,3.236943423354547537e-03
2.932000000000000028e+01,4.142025456815335259e-03
2.935999999999999943e+01,2.092238026265772714e-03
2.939999999999999858e+01,2.547476508844719739e-03
2.944000000000000128e+01,2.681442243459481335e-03
2.948000000000000043e+01,2.943773746922866662e-03
2.951999999999999957e+01,4.169513909918913346e-03
2.955999999999999872e+01,4.752811255280492073e-03
2.960000000000000142e+01,3.858623053582966450e-03
2.964000000000000057e+01,1.615417510079760833e-03
2.967999999999999972e+01,3.675792188845382683e-03
2.971999999999999886e+01,5.543362808678426769e-03
2.976000000000000156e+01,2.015170402946909502e-03
2.980000000000000071e+01,5.681091265407569278e-03
2.983999999999999986e+01,3.501610827379946292e-03
2.987999999999999901e+01,2.863646335359095168e-03
2.992000000000000171e+01,3.189091309167849109e-03
2.996000000000000085e+01,3.771371144005315843e-03
3.000000000000000000e+01,3.839677172758710656e-03
3.003999999999999915e+01,3.329775413745861886e-03
3.007999999999999829e+01,2.434368134532080476e-03
3.012000000000000099e+01,1.924264163489532208e-03
3.016000000000000014e+01,5.790163973223302158e-04
3.019999999999999929e+01,3.601583963921859213e-03
3.023999999999999844e+01,4.311624463483057501e-03
3.028000000000000114e+01,3.865351098249327454e-03
3.032000000000000028e+01,2.262763948850354725e-03
3.035999999999999943e+01,3.614843083875710593e-03
3.039999999999999858e+01,2.076288913574649876e-03
3.044000000000000128e+01,3.171230877397927025e-03
3.048000000000000043e+01,3.687965940381611202e-03
3.051999999999999957e+01,3.819196370091006848e-03
3.055999999999999872e+01,4.014560683338923124e-03
3.060000000000000142e+01,2.090100842151383469e-03
3.064000000000000057e+01,2.028328790494185550e-03
3.067999999999999972e+01,1.388350241145862177e-03
3.071999999999999886e+01,2.097187144092294009e-03
3.076000000000000156e+01,3.062860520661338844e-03
3.080000000000000071e+01,4.670774825353933568e-03
3.083999999999999986e+01,2.874184213151781929e-03
3.087999999999999901e+01,2.811813749634402108e-03
3.092000000000000171e+01,2.685109770699053815e-03
3.096000000000000085e+01,2.429838294663551074e-03
3.100000000000000000e+01,4.743830019256259876e-03
3.103999999999999915e+01,1.212422862251543061e-03
3.107999999999999829e+01,2.562705310361825840e-03
3.112000000000000099e+01,3.399016210019506923e-03
3.116000000000000014e+01,3.143249081047432957e-03
3.119999999999999929e+01,4.814404932733305081e-03
3.123999999999999844e+01,3.851865421563859231e-03
3.128000000000000114e+01,3.531567806074307342e-03
3.132000000000000028e+01,3.211171543775610121e-03
3.135999999999999943e+01,3.854187649975550183e-03
3.139999999999999858e+01,3.083955899764541288e-03
3.144000000000000128e+01,2.955966367752193690e-03
3.148000000000000043e+01,3.598687259191967955e-03
3.151999999999999957e+01,4.562480218530427095e-03
3.155999999999999872e+01,2.442940023868023659e-03
3.160000000000000142e+01,2.186089553848664414e-03
3.164000000000000057e+01,2.571481705176427261e-03
3.167999999999999972e+01,3.021009997674187902e-03
3.171999999999999886e+01,2.763865764229161189e-03
3.176000000000000156e+01,2.056985334718531427e-03
3.180000000000000071e+01,3.864962912770033925e-04
3.183999999999999986e+01,3.533464322602808665e-03
3.187999999999999901e+01,3.982504218836556073e-03
3.192000000000000171e+01,1.862084185231699081e-03
3.196000000000000085e+01,3.338674284357668297e-03
3.200000000000000000e+01,2.053102427968802549e-03
3.203999999999999915e+01,3.272561806268329664e-03
3.207999999999999829e+01,4.106519695851689085e-03
3.211999999999999744e+01,3.848401491917975530e-03
3.215999999999999659e+01,2.947845711279997727e-03
3.220000000000000284e+01,2.753767743116768054e-03
3.224000000000000199e+01,4.743551101231043010e-03
3.228000000000000114e+01,8.879380772684656144e-04
3.232000000000000028e+01,1.796974755208698702e-04
3.235999999999999943e+01,3.004233750489206621e-03
3.239999999999999858e+01,4.351290122477096886e-03
3.243999999999999773e+01,2.101142615822450613e-03
3.247999999999999687e+01,4.283049100139020050e-03
3.252000000000000313e+01,4.859007798740500213e-03
3.256000000000000227e+01,5.049465976182142442e-03
3.260000000000000142e+01,3.698210591479961749e-03
3.264000000000000057e+01,4.402349214728483971e-03
3.267999999999999972e+01,2.793965689350098088e-03
3.271999999999999886e+01,2.727103834686842899e-03
3.275999999999999801e+01,1.246996865022269741e-03
3.279999999999999716e+01,4.905519216797088640e-03
3.284000000000000341e+01,4.774136309290696357e-03
3.288000000000000256e+01,4.899594148780763055e-03
3.292000000000000171e+01,1.941721575679619628e-03
3.296000000000000085e+01,5.792564266645323923e-03
3.300000000000000000e+01,1.742522032888763799e-03
3.303999999999999915e+01,3.023811791285375278e-03
3.307999999999999829e+01,3.598431765148831039e-03
3.311999999999999744e+01,4.879531405970022676e-03
3.315999999999999659e+01,4.361982364215632839e-03
3.320000000000000284e+01,4.550913150678364931e-03
3.324000000000000199e+01,4.290110724374220953e-03
3.328000000000000114e+01,9.459786111461088599e-04
3.332000000000000028e+01,3.061647179102789697e-03
3.335999999999999943e+01,2.607858719889877969e-03
3.339999999999999858e+01,2.924784554354450949e-03
3.343999999999999773e+01,2.984679766136233078e-03
3.347999999999999687e+01,3.301416934359906446e-03
3.352000000000000313e+01,3.489591765783928677e-03
3.356000000000000227e+01,4.255779026468591540e-03
3.360000000000000142e+01,2.388275681449958561e-03
3.364000000000000057e+01,5.145530852599337207e-03
3.367999999999999972e+01,2.892435273765532004e-03
3.371999999999999886e+01,4.557523686928520099e-03
3.375999999999999801e+01,3.139283380723891306e-03
3.379999999999999716e+01,4.033375669978640776e-03
3.384000000000000341e+01,3.706927208169460020e-03
3.388000000000000256e+01,2.994980885980401408e-03
3.392000000000000171e+01,5.301942086570400614e-03
3.396000000000000085e+01,3.497829973951288585e-03
3.400000000000000000e+01,2.657135551390711874e-03
3.403999999999999915e+01,2.715624837206477137e-03
3.407999999999999829e+01,2.388616665790846156e-03
3.411999999999999744e+01,4.438175797184014913e-03
3.415999999999999659e+01,3.725577327065879903e-03
3.420000000000000284e+01,2.691715703917295019e-03
3.424000000000000199e+01,2.171633818422298752e-03
3.428000000000000114e+01,3.321544872824298573e-03
3.432000000000000028e+01,4.856767701515535447e-03
3.435999999999999943e+01,1.381641150928394424e-03
3.439999999999999858e+01,3.494785583151568519e-03
3.443999999999999773e+01,3.102709227518791937e-03
3.447999999999999687e+01,3.224413093317779044e-03
3.452000000000000313e+01,2.446747890317018444e-03
3.456000000000000227e+01,8.981818237699669112e-04
3.460000000000000142e+01,4.231312457751092333e-03
3.464000000000000057e+01,4.673818333153516649e-03
3.467999999999999972e+01,3.060742340661267401e-03
3.471999999999999886e+01,3.374596424240155698e-03
3.475999999999999801e+01,1.568634738871884640e-03
3.479999999999999716e+01,4.066263596373432924e-03
3.484000000000000341e+01,3.416331849197254932e-03
3.488000000000000256e+01,3.858287690556644160e-03
3.492000000000000171e+01,2.822768708606389083e-03
3.496000000000000085e+01,4.677691221183530139e-03
3.500000000000000000e+01,6.018650006388509902e-03
3.503999999999999915e+01,3.955112340816748298e-03
3.507999999999999829e+01,4.075441726230863600e-03
3.511999999999999744e+01,3.810275750785651651e-03
3.515999999999999659e+01,2.260337622744585349e-03
3.520000000000000284e+01,3.922011784568447089e-03
3.524000000000000199e+01,3.014232708818392371e-03
3.528000000000000114e+01,2.427533280158383853e-03
3.532000000000000028e+01,3.253892638519956942e-03
3.535999999999999943e+01,3.887459306735985796e-03
3.539999999999999858e+01,5.420212424738005824e-03
3.543999999999999773e+01,2.456490838958402291e-03
3.547999999999999687e+01,3.924829291377176198e-03
3.552000000000000313e+01,2.887949132941775108e-03
3.556000000000000227e+01,3.521064494553611569e-03
3.560000000000000142e+01,4.732196397540550971e-03
3.564000000000000057e+01,3.502343993874269985e-03
3.567999999999999972e+01,3.685551102896826928e-03
3.571999999999999886e+01,3.162093748946118166e-03
3.575999999999999801e+01,5.207909190557342624e-03
3.579999999999999716e+01,4.041931900291655805e-03
3.584000000000000341e+01,3.004333198996136066e-03
3.588000000000000256e+01,5.563752532141595479e-03
3.592000000000000171e+01,3.883634378309273189e-03
3.596000000000000085e+01,6.378640980984178095e-03
3.600000000000000000e+01,4.377174008693194771e-03
3.603999999999999915e+01,3.596065087822687342e-03
3.607999999999999829e+01,1.658653993463066537e-03
3.611999999999999744e+01,5.245283286678769155e-03
3.615999999999999659e+01,3.050758081209922670e-03
3.620000000000000284e+01,3.232804371294034293e-03
3.624000000000000199e+01,4.570975053635228762e-03
3.628000000000000114e+01,5.716354900313871078e-03
3.632000000000000028e+01,5.127326496474713530e-03
3.635999999999999943e+01,7.171806159954790920e-03
3.639999999999999858e+01,6.903771173369605517e-03
3.643999999999999773e+01,6.507179735952522102e-03
3.647999999999999687e+01,4.183478183600803854e-03
3.652000000000000313e+01,2.630497214042797679e-03
3.656000000000000227e+01,3.132918154145643026e-03
3.660000000000000142e+01,5.626507022227169100e-03
3.664000000000000057e+01,6.642624534075949015e-03
3.667999999999999972e+01,5.988568583386059616e-03
3.671999999999999886e+01,6.747574241757084076e-03
3.675999999999999801e+01,6.029108785784447096e-03
3.679999999999999716e+01,5.952896352389640093e-03
3.684000000000000341e+01,4.206510778974944555e-03
3.688000000000000256e+01,5.029400258753652028e-03
3.692000000000000171e+01,5.723734255256802093e-03
3.696000000000000085e+01,5.390235976747878056e-03
3.700000000000000000e+01,4.607012064663427130e-03
3.703999999999999915e+01,6.649999777538643901e-03
3.707999999999999829e+01,6.958580771860271678e-03
3.711999999999999744e+01,6.110861689064862011e-03
3.715999999999999659e+01,6.804673226880755300e-03
3.720000000000000284e+01,6.984525471957728215e-03
3.724000000000000199e+01,8.192036000410412785e-03
3.728000000000000114e+01,9.592162082814163077e-03
3.732000000000000028e+01,9.193647868130620446e-03
3.735999999999999943e+01,7.124961561613228980e-03
3.739999999999999858e+01,1.237887196755384570e-02
3.743999999999999773e+01,8.575693277054662750e-03
3.747999999999999687e+01,1.145277083715414736e-02
3.752000000000000313e+01,1.336625131336916482e-02
3.756000000000000227e+01,1.393073041245816886e-02
3.760000000000000142e+01,1.539440039596640282e-02
3.764000000000000057e+01,1.794996353145917808e-02
3.767999999999999972e+01,2.012003646639310903e-02
3.771999999999999886e+01,1.856444804118053543e-02
3.775999999999999801e+01,2.253290330936078695e-02
3.779999999999999716e+01,2.752901798973248632e-02
3.784000000000000341e+01,3.271774935287099367e-02
3.788000000000000256e+01,4.388016308747452743e-02
3.792000000000000171e+01,5.298700148518869363e-02
3.796000000000000085e+01,6.954490584880035353e-02
3.800000000000000000e+01,9.894953749313649405e-02
3.803999999999999915e+01,1.546258155220081865e-01
3.807999999999999829e+01,2.623315990031060418e-01
3.811999999999999744e+01,4.726833291188152764e-01
3.815999999999999659e+01,7.633917863275457849e-01
3.820000000000000284e+01,9.677053449483064007e-01
3.824000000000000199e+01,1.000000000000000000e+00
3.828000000000000114e+01,8.692685202869190331e-01
3.832000000000000028e+01,6.723116377936848576e-01
3.835999999999999943e+01,4.570479630855844300e-01
3.839999999999999858e+01,2.694690848585478693e-01
3.843999999999999773e+01,1.571082093039906091e-01
3.847999999999999687e+01,9.934620250043146861e-02
3.852000000000000313e+01,7.048943960375095297e-02
3.856000000000000227e+01,5.319472387037319644e-02
3.860000000000000142e+01,4.155252164823561994e-02
3.864000000000000057e+01,3.716868457576472801e-02
3.867999999999999972e+01,3.188548681998241291e-02
3.871999999999999886e+01,2.647373720926082460e-02
3.875999999999999801e+01,2.549405424837261278e-02
3.879999999999999716e+01,2.143105272745838077e-02
3.884000000000000341e+01,2.064390489602321854e-02
3.888000000000000256e+01,1.619533210501458015e-02
3.892000000000000171e+01,1.412333629237817224e-02
3.896000000000000085e+01,1.429944941411995588e-02
3.900000000000000000e+01,1.479664968151345010e-02
3.903999999999999915e+01,1.394485155507965528e-02
3.907999999999999829e+01,1.212945948931951241e-02
3.911999999999999744e+01,1.166289980809011480e-02
3.915999999999999659e+01,1.241670446739742348e-02
3.920000000000000284e+01,9.444850749856938121e-03
3.924000000000000199e+01,8.399936219543147758e-03
3.928000000000000114e+01,6.841066589234590621e-03
3.932000000000000028e+01,9.264626301392032623e-03
3.935999999999999943e+01,9.054507018522301581e-03
3.939999999999999858e+01,6.853049444373820673e-03
3.943999999999999773e+01,8.248617080709189087e-03
3.947999999999999687e+01,6.946271901594601450e-03
3.952000000000000313e+01,6.478887414812735390e-03
3.956000000000000227e+01,5.433314330132093389e-03
3.960000000000000142e+01,8.049000840765959189e-03
3.964000000000000057e+01,7.131732048414306420e-03
3.967999999999999972e+01,8.141403330215988415e-03
3.971999999999999886e+01,4.654608535613447007e-03
3.975999999999999801e+01,6.049520842769779382e-03
3.979999999999999716e+01,5.710031914191797744e-03
3.984000000000000341e+01,6.333972447607849436e-03
3.988000000000000256e+01,4.966575657301489262e-03
3.992000000000000171e+01,6.168460048045369508e-03
3.996000000000000085e+01,6.535220397939933180e-03
4.000000000000000000e+01,5.552984289119896819e-03
4.003999999999999915e+01,6.304986793184840128e-03
4.007999999999999829e+01,4.937184252052102124e-03
4.011999999999999744e+01,7.744514852914898516e-03
4.015999999999999659e+01,3.871422145696447759e-03
4.020000000000000284e+01,4.494633053292273854e-03
4.024000000000000199e+01,4.154252359822915158e-03
4.028000000000000114e+01,4.391897641402994594e-03
4.032000000000000028e+01,3.987121794736641668e-03
4.035999999999999943e+01,4.674244582874098955e-03
4.039999999999999858e+01,5.297052964831364986e-03
4.043999999999999773e+01,3.157716404139484113e-03
4.047999999999999687e+01,1.789108408581136997e-03
4.052000000000000313e+01,3.889059675884671847e-03
4.056000000000000227e+01,4.896951862536831970e-03
4.060000000000000142e+01,3.785040052177356118e-03
4.064000000000000057e+01,5.306644936514495411e-03
4.067999999999999972e+01,7.020872228326803695e-03
4.071999999999999886e+01,3.853231085606033043e-03
4.075999999999999801e+01,2.162893757857261255e-03
4.079999999999999716e+01,4.133818444313862653e-03
4.084000000000000341e+01,3.663769305977628964e-03
4.088000000000000256e+01,3.129406729017542455e-03
4.092000000000000171e+01,4.265050476483857843e-03
4.096000000000000085e+01,3.730529388788898434e-03
4.100000000000000000e+01,4.737546662155985890e-03
4.103999999999999915e+01,4.459803635492422605e-03
4.107999999999999829e+01,5.081258508031573362e-03
4.111999999999999744e+01,2.555165434755156655e-03
4.115999999999999659e+01,3.947271350598855963e-03
4.120000000000000284e+01,3.990383226618813249e-03
4.124000000000000199e+01,4.418820825865281930e-03
4.128000000000000114e+01,4.461775481225491169e-03
4.132000000000000028e+01,1.999523217037334297e-03
4.135999999999999943e+01,3.262768158182151063e-03
4.139999999999999858e+01,4.333232584265410588e-03
4.143999999999999773e+01,4.118937516614972622e-03
4.147999999999999687e+01,5.381947715271053097e-03
4.152000000000000313e+01,3.754347023656006300e-03
4.156000000000000227e+01,2.126668326433802259e-03
4.160000000000000142e+01,3.967551069075253047e-03
4.164000000000000057e+01,4.844845032690844357e-03
4.167999999999999972e+01,3.987741550167800582e-03
4.171999999999999886e+01,3.515964758427614009e-03
4.175999999999999801e+01,2.209067554174396365e-03
4.179999999999999716e+01,4.820370629116420454e-03
4.184000000000000341e+01,4.348361271889267417e-03
4.188000000000000256e+01,3.233933930973788545e-03
4.192000000000000171e+01,4.624557740281438206e-03
4.196000000000000085e+01,3.509975920115844441e-03
4.200000000000000000e+01,4.322338850625919750e-03
4.203999999999999915e+01,4.428050057654578375e-03
4.207999999999999829e+01,4.019811808767132996e-03
4.211999999999999744e+01,4.382305430830730000e-03
4.215999999999999659e+01,4.873190381356343540e-03
4.220000000000000284e+01,5.235530491726176662e-03
4.224000000000000199e+01,4.441580845579956409e-03
4.228000000000000114e+01,3.904490894408586734e-03
4.232000000000000028e+01,5.422814463574186609e-03
4.235999999999999943e+01,3.729358524132900168e-03
4.239999999999999858e+01,5.761401886396662862e-03
4.243999999999999773e+01,4.196261527441695963e-03
4.247999999999999687e+01,3.851492201288138698e-03
4.252000000000000313e+01,2.864306181521379148e-03
4.256000000000000227e+01,4.125236352805387342e-03
4.260000000000000142e+01,4.743749991735582774e-03
4.264000000000000057e+01,4.976783428189151919e-03
4.267999999999999972e+01,5.273975178978898733e-03
4.271999999999999886e+01,4.222175953873323097e-03
4.275999999999999801e+01,4.968854886783880681e-03
4.279999999999999716e+01,5.779692375919701086e-03
4.284000000000000341e+01,3.892623822499957902e-03
4.288000000000000256e+01,5.281417102158503067e-03
4.292000000000000171e+01,4.357708874392110868e-03
4.296000000000000085e+01,3.883563899240998971e-03
4.300000000000000000e+01,4.501322880453593155e-03
4.303999999999999915e+01,3.962793717744042196e-03
4.307999999999999829e+01,5.415445545023799163e-03
4.311999999999999744e+01,7.124958760502002331e-03
4.315999999999999659e+01,6.136566578462208238e-03
4.320000000000000284e+01,3.542248138835938417e-03
4.324000000000000199e+01,5.444239441880794131e-03
4.328000000000000114e+01,2.400133408381193920e-03
4.332000000000000028e+01,4.623146026554574364e-03
4.335999999999999943e+01,5.432934896595889053e-03
4.339999999999999858e+01,5.022202286070441557e-03
4.343999999999999773e+01,6.217247017330325941e-03
4.347999999999999687e+01,7.091047301649060393e-03
4.352000000000000313e+01,8.221709780463187789e-03
4.356000000000000227e+01,7.939148914293720632e-03
4.360000000000000142e+01,9.069663525492752121e-03
4.364000000000000057e+01,6.795699021299528644e-03
4.367999999999999972e+01,6.448682654229164618e-03
4.371999999999999886e+01,6.615465134050170330e-03
4.375999999999999801e+01,8.837664036877171739e-03
4.379999999999999716e+01,1.073861913780058998e-02
4.384000000000000341e+01,1.148328770739576524e-02
4.388000000000000256e+01,1.177824451172299926e-02
4.392000000000000171e+01,1.213736212990695722e-02
4.396000000000000085e+01,1.615774813204221699e-02
4.400000000000000000e+01,1.516780418665565969e-02
4.403999999999999915e+01,1.758219253723229680e-02
4.407999999999999829e+01,2.031767827343192862e-02
4.411999999999999744e+01,2.356696366281988905e-02
4.415999999999999659e+01,2.855049596995143379e-02
4.420000000000000284e+01,3.404782809153068801e-02
4.424000000000000199e+01,4.288525884990972842e-02
4.428000000000000114e+01,5.698981019507444457e-02
4.432000000000000028e+01,8.066516438254998922e-02
4.435999999999999943e+01,1.081302558848975248e-01
4.439999999999999858e+01,1.526815356813043811e-01
4.443999999999999773e+01,1.932502314141059940e-01
4.447999999999999687e+01,2.182099778854831862e-01
4.452000000000000313e+01,2.228074545649870453e-01
4.456000000000000227e+01,2.141084083875532673e-01
4.460000000000000142e+01,1.795229632206845616e-01
4.464000000000000057e+01,1.489841921823431836e-01
4.467999999999999972e+01,1.006525141671221341e-01
4.471999999999999886e+01,7.698664444379892113e-02
4.475999999999999801e+01,5.434844816223415725e-02
4.479999999999999716e+01,4.057448100510594596e-02
4.484000000000000341e+01,2.911286869723299711e-02
4.488000000000000256e+01,2.580891098962542762e-02
4.492000000000000171e+01,2.109173267844388633e-02
4.496000000000000085e+01,1.720952602523363392e-02
4.500000000000000000e+01,1.441922735987184040e-02
4.503999999999999915e+01,1.387704988460191670e-02
4.507999999999999829e+01,1.391290805994486665e-02
4.511999999999999744e+01,1.118663072631301443e-02
4.515999999999999659e+01,1.141504951009271115e-02
4.520000000000000284e+01,1.023024825470631761e-02
4.524000000000000199e+01,9.944653284010942715e-03
4.528000000000000114e+01,8.759710933903852234e-03
4.532000000000000028e+01,8.281272842811547227e-03
4.535999999999999943e+01,6.710785346631299546e-03
4.539999999999999858e+01,6.681845080779575362e-03
4.543999999999999773e+01,7.230941191207985487e-03
4.547999999999999687e+01,6.495285951501916268e-03
4.552000000000000313e+01,6.530369436270990098e-03
4.556000000000000227e+01,5.280701732164975841e-03
4.560000000000000142e+01,5.957986035407198191e-03
4.564000000000000057e+01,5.671689622593082715e-03
4.567999999999999972e+01,7.697749752257831805e-03
4.571999999999999886e+01,5.548526211532015667e-03
4.575999999999999801e+01,5.197786876049465855e-03
4.579999999999999716e+01,4.718509957083704028e-03
4.584000000000000341e+01,4.239163659888176006e-03
4.588000000000000256e+01,5.943706183696244837e-03
4.592000000000000171e+01,3.601433564885962897e-03
4.596000000000000085e+01,4.342326800704877920e-03
4.600000000000000000e+01,4.376576295382210088e-03
4.603999999999999915e+01,2.676437132557685575e-03
4.607999999999999829e+01,3.995230003939581089e-03
4.611999999999999744e+01,5.185485936875827880e-03
4.615999999999999659e+01,3.934778768768708301e-03
4.620000000000000284e+01,5.060663253638362016e-03
4.624000000000000199e+01,3.231712300229058494e-03
4.628000000000000114e+01,3.458182849496560952e-03
4.632000000000000028e+01,2.849542178036293654e-03
4.635999999999999943e+01,1.405790366477950278e-03
4.639999999999999858e+01,4.586822791960398250e-03
4.643999999999999773e+01,3.014466437579930991e-03
4.647999999999999687e+01,2.662489178970402822e-03
4.652000000000000313e+01,3.338188909825886685e-03
4.656000000000000227e+01,2.729139467548661463e-03
4.660000000000000142e+01,4.239746235297673672e-03
4.664000000000000057e+01,3.566327118807153564e-03
4.667999999999999972e+01,2.828606254998591689e-03
4.671999999999999886e+01,2.990094659179778902e-03
4.675999999999999801e+01,3.472685851173540599e-03
4.679999999999999716e+01,4.019443662362101079e-03
4.684000000000000341e+01,2.382175992459601311e-03
4.688000000000000256e+01,3.828076031669294058e-03
4.692000000000000171e+01,4.246163872661027489e-03
4.696000000000000085e+01,3.443737409128881915e-03
4.700000000000000000e+01,4.118627338801201208e-03
4.703999999999999915e+01,4.215343748327753798e-03
4.707999999999999829e+01,5.147036089199432361e-03
4.711999999999999744e+01,3.830469451076050618e-03
4.715999999999999659e+01,3.027708593997818429e-03
4.720000000000000284e+01,3.959200782520023131e-03
4.724000000000000199e+01,3.798647355549956278e-03
4.728000000000000114e+01,3.381091203771655063e-03
4.732000000000000028e+01,3.348873030933553936e-03
4.735999999999999943e+01,3.123886356858477861e-03
4.739999999999999858e+01,1.999556576745540205e-03
4.743999999999999773e+01,3.637225323001156210e-03
4.747999999999999687e+01,3.155103940552710182e-03
4.752000000000000313e+01,3.893363750247283515e-03
4.756000000000000227e+01,1.933727031690334920e-03
4.760000000000000142e+01,3.314195722827575821e-03
4.764000000000000057e+01,2.510640545467674248e-03
4.767999999999999972e+01,3.312871256640794772e-03
4.771999999999999886e+01,3.601163880684844602e-03
4.775999999999999801e+01,2.412007563551428046e-03
4.779999999999999716e+01,3.214041750711361511e-03
4.784000000000000341e+01,3.309435905695690214e-03
4.788000000000000256e+01,3.212062607629082803e-03
4.792000000000000171e+01,2.857687874829377590e-03
4.796000000000000085e+01,3.274056784916216239e-03
4.800000000000000000e+01,3.754594733088703878e-03
4.803999999999999915e+01,2.500748055244107152e-03
4.807999999999999829e+01,3.687730882283827335e-03
4.811999999999999744e+01,2.562222683759000225e-03
4.815999999999999659e+01,2.914033216699790825e-03
4.820000000000000284e+01,3.265779128562836930e-03
4.824000000000000199e+01,4.645205496967785841e-03
4.828000000000000114e+01,4.418715847757569148e-03
4.832000000000000028e+01,2.265139950002508298e-03
4.835999999999999943e+01,3.066266620034614580e-03
4.839999999999999858e+01,3.738860947513709520e-03
4.843999999999999773e+01,2.805539579896411829e-03
4.847999999999999687e+01,3.606473838029789023e-03
4.852000000000000313e+01,4.086173808563610399e-03
4.856000000000000227e+01,3.345362699761373574e-03
4.860000000000000142e+01,2.668721838490200216e-03
4.864000000000000057e+01,3.019762240057891588e-03
4.867999999999999972e+01,2.728398364985451952e-03
4.871999999999999886e+01,4.171290599441860106e-03
4.875999999999999801e+01,2.787820599913861091e-03
4.879999999999999716e+01,2.496266248055370538e-03
4.884000000000000341e+01,3.039691375248601470e-03
4.888000000000000256e+01,3.004946691262049430e-03
4.892000000000000171e+01,3.612479460650988312e-03
4.896000000000000085e+01,3.834544767055156431e-03
4.900000000000000000e+01,3.478440504168622393e-03
4.903999999999999915e+01,3.186507375739813276e-03
4.907999999999999829e+01,1.866766403096584061e-03
4.911999999999999744e+01,4.272538277947214060e-03
4.915999999999999659e+01,3.338076226615404110e-03
4.920000000000000284e+01,4.523275626240014051e-03
4.924000000000000199e+01,3.331752195619677899e-03
4.928000000000000114e+01,3.938720065655793023e-03
4.932000000000000028e+01,3.068242139072552190e-03
4.935999999999999943e+01,2.390404116608344127e-03
4.939999999999999858e+01,2.033674203516608152e-03
4.943999999999999773e+01,2.768861228169508960e-03
4.947999999999999687e+01,3.054347775711804911e-03
4.952000000000000313e+01,3.339772362956289990e-03
4.956000000000000227e+01,3.625135070532665461e-03
4.960000000000000142e+01,3.203861293640025611e-03
4.964000000000000057e+01,2.782525798338673917e-03
4.967999999999999972e+01,3.260405537624502716e-03
4.971999999999999886e+01,2.774712785082924810e-03
4.975999999999999801e+01,2.224724493709832104e-03
4.979999999999999716e+01,2.638185741124884041e-03
4.984000000000000341e+01,3.693926296398425489e-03
4.988000000000000256e+01,3.657626557739582143e-03
4.992000000000000171e+01,2.721988792713667983e-03
4.996000000000000085e+01,3.584843699049032086e-03
5.000000000000000000e+01,2.713317930222368564e-03
5.003999999999999915e+01,2.291369685467051307e-03
5.007999999999999829e+01,2.640169356972123672e-03
5.011999999999999744e+01,3.888185149991041454e-03
5.015999999999999659e+01,3.979927151173574817e-03
5.020000000000000284e+01,3.236565752708764950e-03
5.024000000000000199e+01,3.328186655335020096e-03
5.028000000000000114e+01,2.327768070325836325e-03
5.032000000000000028e+01,3.190076944657062666e-03
5.035999999999999943e+01,1.290260872503561692e-03
5.039999999999999858e+01,2.537853667187303739e-03
5.043999999999999773e+01,3.721152293744359706e-03
5.047999999999999687e+01,3.298539337319477543e-03
5.052000000000000313e+01,3.453972997146032009e-03
5.056000000000000227e+01,3.159708356863743638e-03
5.060000000000000142e+01,2.801149870973544762e-03
5.064000000000000057e+01,4.048383240213828879e-03
5.067999999999999972e+01,3.047364806501923293e-03
5.071999999999999886e+01,3.266734015308652653e-03
5.075999999999999801e+01,2.843703140219402438e-03
5.079999999999999716e+01,3.255655695036938253e-03
5.084000000000000341e+01,2.125931454851670392e-03
5.088000000000000256e+01,3.822446737500623682e-03
5.092000000000000171e+01,3.399178825599310366e-03
5.096000000000000085e+01,3.682426541499826244e-03
5.100000000000000000e+01,3.259040594970651680e-03
5.103999999999999915e+01,2.964063876695839476e-03
5.107999999999999829e+01,4.724518336661261836e-03
5.111999999999999744e+01,3.787083444418038077e-03
5.115999999999999659e+01,4.134271143931964564e-03
5.120000000000000284e+01,5.059506830402142954e-03
5.124000000000000199e+01,3.608023718112118080e-03
5.128000000000000114e+01,2.798822816349609294e-03
5.132000000000000028e+01,4.494692012788608498e-03
5.135999999999999943e+01,1.565650471440961384e-03
5.139999999999999858e+01,3.839509806652858723e-03
5.143999999999999773e+01,3.094310123134312498e-03
5.147999999999999687e+01,3.184095240227376687e-03
5.152000000000000313e+01,3.145354303883647791e-03
5.156000000000000227e+01,4.198534578658402738e-03
5.160000000000000142e+01,4.031209901953933424e-03
5.164000000000000057e+01,2.386444105152430752e-03
5.167999999999999972e+01,2.347472259853477031e-03
5.171999999999999886e+01,3.079251636632435001e-03
5.175999999999999801e+01,2.012419823644083592e-03
5.179999999999999716e+01,2.679850328671116912e-03
5.184000000000000341e+01,2.640648864492075362e-03
5.188000000000000256e+01,3.372198944909710668e-03
5.192000000000000171e+01,2.112435971143205530e-03
5.196000000000000085e+01,2.137297201727756269e-03
5.200000000000000000e+01,2.483271782614977601e-03
5.203999999999999915e+01,2.186848859756459085e-03
5.207999999999999829e+01,2.083071323836251359e-03
5.211999999999999744e+01,3.199684252474012131e-03
5.215999999999999659e+01,3.095793358448267057e-03
5.220000000000000284e+01,4.533463401799240310e-03
5.224000000000000199e+01,3.787118849068024130e-03
5.228000000000000114e+01,2.912249774864226603e-03
5.232000000000000028e+01,2.615430945248140363e-03
5.235999999999999943e+01,1.804683381547628196e-03
5.239999999999999858e+01,3.820178404609769762e-03
5.243999999999999773e+01,3.972829546297548635e-03
5.247999999999999687e+01,4.125424694284967990e-03
5.252000000000000313e+01,3.828325493018622933e-03
5.256000000000000227e+01,3.723872646246925797e-03
5.260000000000000142e+01,4.390172795406423363e-03
5.264000000000000057e+01,4.992183211072482273e-03
5.267999999999999972e+01,3.924052416077962804e-03
5.271999999999999886e+01,3.305504547344370690e-03
5.275999999999999801e+01,3.393475934748882428e-03
5.279999999999999716e+01,5.151477593599295378e-03
5.284000000000000341e+01,4.661231803501059145e-03
5.288000000000000256e+01,4.042462701375672957e-03
5.292000000000000171e+01,2.074723183927257211e-03
5.296000000000000085e+01,2.290886758938491270e-03
5.300000000000000000e+01,3.920144759296602562e-03
5.303999999999999915e+01,3.108453526918936605e-03
5.307999999999999829e+01,2.682111884157572720e-03
5.311999999999999744e+01,3.540396784008426664e-03
5.315999999999999659e+01,2.021966755324462305e-03
5.320000000000000284e+01,3.137078739061424648e-03
5.324000000000000199e+01,2.196646267082317649e-03
5.328000000000000114e+01,2.091202224051103096e-03
5.332000000000000028e+01,3.077682939844970499e-03
5.335999999999999943e+01,3.421768812673043388e-03
5.339999999999999858e+01,2.866523673917532183e-03
5.343999999999999773e+01,2.311224476574356111e-03
5.347999999999999687e+01,3.939829419876867377e-03
5.352000000000000313e+01,4.733337655796751760e-03
5.356000000000000227e+01,4.306344891092478595e-03
5.360000000000000142e+01,3.879298390319311802e-03
5.364000000000000057e+01,4.158772919537543147e-03
5.367999999999999972e+01,3.924321375451297368e-03
5.371999999999999886e+01,2.919007589442778813e-03
5.375999999999999801e+01,3.069853511497856648e-03
5.379999999999999716e+01,2.899475789073152621e-03
5.384000000000000341e+01,3.371385437476463222e-03
5.388000000000000256e+01,3.393603478035635626e-03
5.392000000000000171e+01,3.415768427563480297e-03
5.396000000000000085e+01,4.401391301367784184e-03
5.400000000000000000e+01,3.203003126796479406e-03
5.403999999999999915e+01,3.546179598567871048e-03
5.407999999999999829e+01,2.154983619406157080e-03
5.411999999999999744e+01,2.690756821717773129e-03
5.415999999999999659e+01,4.061520226830573309e-03
5.420000000000000284e+01,3.569443298275602403e-03
5.424000000000000199e+01,4.618931419211817768e-03
5.428000000000000114e+01,3.934047492363393524e-03
5.432000000000000028e+01,3.249111280780593060e-03
5.435999999999999943e+01,3.591867862083080159e-03
5.439999999999999858e+01,4.319976693781810324e-03
5.443999999999999773e+01,4.534160984140269898e-03
5.447999999999999687e+01,4.684059249971259803e-03
5.452000000000000313e+01,3.035351889483926553e-03
5.456000000000000227e+01,3.442082722020303742e-03
5.460000000000000142e+01,3.720293709606429123e-03
5.464000000000000057e+01,4.126921182119490036e-03
5.467999999999999972e+01,3.248815849327974219e-03
5.471999999999999886e+01,3.719574346648363457e-03
5.475999999999999801e+01,3.291004573794808694e-03
5.479999999999999716e+01,3.825894418441306601e-03
5.484000000000000341e+01,2.819115531054523349e-03
5.488000000000000256e+01,4.317413917912136037e-03
5.492000000000000171e+01,4.274043733995852752e-03
5.496000000000000085e+01,4.359090680044061354e-03
5.500000000000000000e+01,3.801746088943988838e-03
5.503999999999999915e+01,3.244350664444058813e-03
5.507999999999999829e+01,3.072308861045193636e-03
5.511999999999999744e+01,2.964450447817732533e-03
5.515999999999999659e+01,3.113477692326986884e-03
5.520000000000000284e+01,4.418667547568867239e-03
5.524000000000000199e+01,4.246423539386290011e-03
5.528000000000000114e+01,3.560256683087047354e-03
5.532000000000000028e+01,4.094486741721382710e-03
5.535999999999999943e+01,2.508942555701626324e-03
5.539999999999999858e+01,3.300008567488547581e-03
5.543999999999999773e+01,4.155258614484440977e-03
5.547999999999999687e+01,4.046947780329024011e-03
5.552000000000000313e+01,4.837863952696305932e-03
5.556000000000000227e+01,4.344049093612319286e-03
5.560000000000000142e+01,2.629737346018620487e-03
5.564000000000000057e+01,5.797164710172801258e-03
5.567999999999999972e+01,3.504647234493086464e-03
5.571999999999999886e+01,2.882165916227008226e-03
5.575999999999999801e+01,4.122423022939887029e-03
5.579999999999999716e+01,2.215161774935358284e-03
5.584000000000000341e+01,3.648022546342253453e-03
5.588000000000000256e+01,3.860386993647301531e-03
5.592000000000000171e+01,3.301893633663314283e-03
5.596000000000000085e+01,3.385691917881186123e-03
5.600000000000000000e+01,4.497186300801838538e-03
5.603999999999999915e+01,2.204226563535762861e-03
5.607999999999999829e+01,3.636793703330520270e-03
5.611999999999999744e+01,4.491205625920324969e-03
5.615999999999999659e+01,4.703228349623016571e-03
5.620000000000000284e+01,4.401330079692030925e-03
5.624000000000000199e+01,3.328574647509563271e-03
5.628000000000000114e+01,3.733154314620855656e-03
5.632000000000000028e+01,4.587324164665642495e-03
5.635999999999999943e+01,4.220998658164939327e-03
5.639999999999999858e+01,3.019582249619665471e-03
5.643999999999999773e+01,4.772884696059996774e-03
5.647999999999999687e+01,2.479393286121534326e-03
5.652000000000000313e+01,3.269089017051811548e-03
5.656000000000000227e+01,5.150716037812477603e-03
5.660000000000000142e+01,3.756358191825904993e-03
5.664000000000000057e+01,3.839336170800338333e-03
5.667999999999999972e+01,2.637585375954974633e-03
5.671999999999999886e+01,4.069383688943719116e-03
5.675999999999999801e+01,4.601857763243286277e-03
5.679999999999999716e+01,3.399964869429021944e-03
5.684000000000000341e+01,4.253514764531099793e-03
5.688000000000000256e+01,4.785847223639941826e-03
5.692000000000000171e+01,3.776515143459655000e-03
5.696000000000000085e+01,5.336498592579775463e-03
5.700000000000000000e+01,3.877434230497102657e-03
5.703999999999999915e+01,3.895706499672391219e-03
5.707999999999999829e+01,2.565016739012951786e-03
5.711999999999999744e+01,4.189047204043946232e-03
5.715999999999999659e+01,3.950243302004626152e-03
5.720000000000000284e+01,3.004818235138382101e-03
5.724000000000000199e+01,2.765921454936116301e-03
5.728000000000000114e+01,4.325532101329358087e-03
5.732000000000000028e+01,3.315734017740463915e-03
5.735999999999999943e+01,4.232911646630204902e-03
5.739999999999999858e+01,4.186532264594024395e-03
5.743999999999999773e+01,5.360554070865271130e-03
5.747999999999999687e+01,4.607508092791885897e-03
5.752000000000000313e+01,5.267565651220947054e-03
5.756000000000000227e+01,5.349470895114088152e-03
5.760000000000000142e+01,3.504308596551690674e-03
5.764000000000000057e+01,4.228463197994524435e-03
5.767999999999999972e+01,3.346720729800577686e-03
5.771999999999999886e+01,4.199252512816899728e-03
5.775999999999999801e+01,2.482376452777732521e-03
5.779999999999999716e+01,3.399051677574461104e-03
5.784000000000000341e+01,3.994511401490626404e-03
5.788000000000000256e+01,3.883351331284697321e-03
5.792000000000000171e+01,4.928359354630674864e-03
5.796000000000000085e+01,3.982066498876485512e-03
5.800000000000000000e+01,3.806537524062354738e-03
5.803999999999999915e+01,3.759431887699251924e-03
5.807999999999999829e+01,3.583813421169389658e-03
5.811999999999999744e+01,3.922022828221178106e-03
5.815999999999999659e+01,4.324421753301202834e-03
5.820000000000000284e+01,3.891733404672957555e-03
5.824000000000000199e+01,4.229809420762926410e-03
5.828000000000000114e+01,4.375138947522736257e-03
5.832000000000000028e+01,4.006551754022723288e-03
5.835999999999999943e+01,3.766388544011289863e-03
5.839999999999999858e+01,3.847351585053762103e-03
5.843999999999999773e+01,4.249440957779830434e-03
5.847999999999999687e+01,3.559507371957996470e-03
5.852000000000000313e+01,4.732317774564090591e-03
5.856000000000000227e+01,2.950317572837366561e-03
5.860000000000000142e+01,4.123040580099807291e-03
5.864000000000000057e+01,3.689868452838135707e-03
5.867999999999999972e+01,5.440610948082532858e-03
5.871999999999999886e+01,4.365011286136650202e-03
5.875999999999999801e+01,3.546304538600044028e-03
5.879999999999999716e+01,3.948001720780510392e-03
5.884000000000000341e+01,3.900017293199054859e-03
5.888000000000000256e+01,4.494330395787219344e-03
5.892000000000000171e+01,5.538238922239056838e-03
5.896000000000000085e+01,4.783550772268735200e-03
5.900000000000000000e+01,4.671160394357123935e-03
5.903999999999999915e+01,3.980620685208307447e-03
5.907999999999999829e+01,4.510485470184429427e-03
5.911999999999999744e+01,4.847605459053997562e-03
5.915999999999999659e+01,4.606576358575454298e-03
5.920000000000000284e+01,5.842888243358420296e-03
5.924000000000000199e+01,4.445561206072761937e-03
5.928000000000000114e+01,4.140170941436762189e-03
5.932000000000000028e+01,3.963206595402038804e-03
5.935999999999999943e+01,4.300072622469524111e-03
5.939999999999999858e+01,5.022300978645167883e-03
5.943999999999999773e+01,4.202869875202486574e-03
5.947999999999999687e+01,3.961503449062962062e-03
5.952000000000000313e+01,4.555138030103797302e-03
5.956000000000000227e+01,5.534135262771562244e-03
5.960000000000000142e+01,5.099941482963531343e-03
5.964000000000000057e+01,4.729940204482471072e-03
5.967999999999999972e+01,4.359897445646185483e-03
5.971999999999999886e+01,4.182515474020005036e-03
5.975999999999999801e+01,5.032837180287964320e-03
5.979999999999999716e+01,3.956095778733619873e-03
5.984000000000000341e+01,4.163994465580295526e-03
5.988000000000000256e+01,4.628788324467734798e-03
5.992000000000000171e+01,5.222009311401869247e-03
5.996000000000000085e+01,4.337805949215586473e-03
