2.003999999999999915e+01,2.826139485712310297e-03
2.007999999999999829e+01,2.656205894794405262e-03
2.012000000000000099e+01,4.066364138059724506e-03
2.016000000000000014e+01,4.561601016889992206e-03
2.019999999999999929e+01,4.807253448757417558e-03
2.023999999999999844e+01,3.535023082736375895e-03
2.028000000000000114e+01,1.285496173821993379e-03
2.032000000000000028e+01,3.131866380350958271e-03
2.035999999999999943e+01,4.354400356192584566e-03
2.039999999999999858e+01,3.040254660955274066e-03
2.044000000000000128e+01,3.410160092714195450e-03
2.048000000000000043e+01,4.050275860986916193e-03
2.051999999999999957e+01,4.669517137586591191e-03
2.055999999999999872e+01,2.440202290621470722e-03
2.060000000000000142e+01,3.703823380280709017e-03
2.064000000000000057e+01,1.224842033808227343e-03
2.067999999999999972e+01,2.945717146518486186e-03
2.071999999999999886e+01,5.415013774133208696e-03
2.076000000000000156e+01,4.952587424499155927e-03
2.080000000000000071e+01,5.321749799941475657e-03
2.083999999999999986e+01,2.197811318840892526e-03
2.087999999999999901e+01,3.315313105716354795e-03
2.092000000000000171e+01,2.540680973027842782e-03
2.096000000000000085e+01,3.429308852305033677e-03
2.100000000000000000e+01,2.904013786701576273e-03
2.103999999999999915e+01,1.879634018644450819e-03
2.107999999999999829e+01,2.248221313299414090e-03
2.112000000000000099e+01,2.367225332308998606e-03
2.116000000000000014e+01,5.230662026055018024e-03
2.119999999999999929e+01,4.663373652838406769e-03
2.123999999999999844e+01,2.016825773756670583e-03
2.128000000000000114e+01,3.258258461567073612e-03
2.132000000000000028e+01,2.649141293241095724e-03
2.135999999999999943e+01,2.497361575535420996e-03
2.139999999999999858e+01,1.971248276194989719e-03
2.144000000000000128e+01,3.856899574806143659e-03
2.148000000000000043e+01,4.910798297886161991e-03
2.151999999999999957e+01,4.322065190259476511e-03
2.155999999999999872e+01,2.818412500637138690e-03
2.160000000000000142e+01,3.892858829310186404e-03
2.164000000000000057e+01,2.118750409443230596e-03
2.167999999999999972e+01,5.209836588475683788e-03
2.171999999999999886e+01,3.227647973310150513e-03
2.176000000000000156e+01,3.012679274044968887e-03
2.180000000000000071e+01,3.192673254356763555e-03
2.183999999999999986e+01,3.164668429865483308e-03
2.187999999999999901e+01,3.718752380520820230e-03
2.192000000000000171e+01,4.376714284420001738e-03
2.196000000000000085e+01,1.603952088966593493e-03
2.200000000000000000e+01,5.879521493179966016e-03
2.203999999999999915e+01,3.460057898405320947e-03
2.207999999999999829e+01,3.452359716411795235e-03
2.212000000000000099e+01,3.694082181853170551e-03
2.216000000000000014e+01,3.790181581144876685e-03
2.219999999999999929e+01,4.676287933793467355e-03
2.223999999999999844e+01,2.422755422691063969e-03
2.228000000000000114e+01,3.391867885106410706e-03
2.232000000000000028e+01,3.716354835170296040e-03
2.235999999999999943e+01,3.708092980002809010e-03
2.239999999999999858e+01,2.805704389382972924e-03
2.244000000000000128e+01,1.840860197419581920e-03
2.248000000000000043e+01,1.125437111232706604e-03
2.251999999999999957e+01,4.318787947749755558e-03
2.255999999999999872e+01,5.204171411112530794e-03
2.260000000000000142e+01,3.469710896054660140e-03
2.264000000000000057e+01,2.920301659060374564e-03
2.267999999999999972e+01,2.557938451238187926e-03
2.271999999999999886e+01,3.276667737935533460e-03
2.276000000000000156e+01,2.124057224783366341e-03
2.280000000000000071e+01,3.799048582686503830e-03
2.283999999999999986e+01,3.644283796752908339e-03
2.287999999999999901e+01,1.555804032511687394e-03
2.292000000000000171e+01,5.538443516515893957e-03
2.296000000000000085e+01,2.306256745860821907e-03
2.300000000000000000e+01,3.419471827702324964e-03
2.303999999999999915e+01,0.000000000000000000e+00
2.307999999999999829e+01,2.755606509648235794e-03
2.312000000000000099e+01,4.180459881856834169e-03
2.316000000000000014e+01,3.775557517643457310e-03
2.319999999999999929e+01,3.599285398810261969e-03
2.323999999999999844e+01,4.441731105306948903e-03
2.328000000000000114e+01,1.978205055514250556e-03
2.332000000000000028e+01,4.608585240496673036e-03
2.335999999999999943e+01,2.394402267156783577e-03
2.339999999999999858e+01,4.068202559831867425e-03
2.344000000000000128e+01,5.118170543186729982e-03
2.348000000000000043e+01,2.966125910284169668e-03
2.351999999999999957e+01,4.452563371222535010e-03
2.355999999999999872e+01,3.298366298904988926e-03
2.360000000000000142e+01,2.518342420792940226e-03
2.364000000000000057e+01,1.717448023301791811e-03
2.367999999999999972e+01,4.991663242029461926e-03
2.371999999999999886e+01,4.440112837674353025e-03
2.376000000000000156e+01,4.137985168754790798e-03
2.380000000000000071e+01,2.858565438504298822e-03
2.383999999999999986e+01,2.015694539259003937e-03
2.387999999999999901e+01,3.189547579991451175e-03
2.392000000000000171e+01,2.907897839343863509e-03
2.396000000000000085e+01,2.147958890981886953e-03
2.400000000000000000e+01,2.510697620957594040e-03
2.403999999999999915e+01,2.332771913833942088e-03
2.407999999999999829e+01,1.323096941424112011e-03
2.412000000000000099e+01,2.475688654109937416e-03
2.416000000000000014e+01,3.836120057340680536e-03
2.419999999999999929e+01,2.639084850463241805e-03
2.423999999999999844e+01,3.354815156507419578e-03
2.428000000000000114e+01,4.922930395343060213e-03
2.432000000000000028e+01,3.663286074816924764e-03
2.435999999999999943e+01,1.717435285049363465e-03
2.439999999999999858e+01,4.158571684377064363e-03
2.444000000000000128e+01,3.085820033498421454e-03
2.448000000000000043e+01,2.491201582613593399e-03
2.451999999999999957e+01,3.206387465831401877e-03
2.455999999999999872e+01,3.963079332226202706e-03
2.460000000000000142e+01,4.241482805736138811e-03
2.464000000000000057e+01,4.083181491447133819e-03
2.467999999999999972e+01,3.446591886126942807e-03
2.471999999999999886e+01,2.560423588577460680e-03
2.476000000000000156e+01,3.212769478566704362e-03
2.480000000000000071e+01,1.557150847305017148e-03
2.483999999999999986e+01,4.558813067368042669e-03
2.487999999999999901e+01,4.857467103522417062e-03
2.492000000000000171e+01,4.657041377127130524e-03
2.496000000000000085e+01,4.706039913972789347e-03
2.500000000000000000e+01,4.027249242247437494e-03
2.503999999999999915e+01,8.533683611162986129e-04
2.507999999999999829e+01,2.232809751473212312e-03
2.512000000000000099e+01,4.485428921164882725e-03
2.516000000000000014e+01,3.639996498924412578e-03
2.519999999999999929e+01,6.737260584174015925e-04
2.523999999999999844e+01,4.381539355219764460e-03
2.528000000000000114e+01,1.539866217665433832e-03
2.532000000000000028e+01,2.191135026103243569e-03
2.535999999999999943e+01,2.675993065459472686e-03
2.539999999999999858e+01,3.306317042854200246e-03
2.544000000000000128e+01,3.208852371873218735e-03
2.548000000000000043e+01,3.547938619898108586e-03
2.551999999999999957e+01,4.864162041923969504e-03
2.555999999999999872e+01,3.622920585354403797e-03
2.560000000000000142e+01,5.749870768787591555e-03
2.564000000000000057e+01,2.429299161421758120e-03
2.567999999999999972e+01,2.518502850071486013e-03
2.571999999999999886e+01,2.254170234265294448e-03
2.576000000000000156e+01,2.135304014839207749e-03
2.580000000000000071e+01,1.746068701129110641e-03
2.583999999999999986e+01,2.541888739630242429e-03
2.587999999999999901e+01,3.358424664814718078e-03
2.592000000000000171e+01,4.465969629643515466e-03
2.596000000000000085e+01,1.394291612940542916e-03
2.600000000000000000e+01,2.169016618338389345e-03
2.603999999999999915e+01,3.692169911911177566e-03
2.607999999999999829e+01,4.362784709460511799e-03
2.612000000000000099e+01,3.349189978731268585e-03
2.616000000000000014e+01,2.917689472321103455e-03
2.619999999999999929e+01,2.818781916202290488e-03
2.623999999999999844e+01,2.200004501040167450e-03
2.628000000000000114e+01,3.805871852262002891e-03
2.632000000000000028e+01,2.064187763475610303e-03
2.635999999999999943e+01,2.609523874165520230e-03
2.639999999999999858e+01,3.362702527303699368e-03
2.644000000000000128e+01,3.429677359396420509e-03
2.648000000000000043e+01,2.560947096415938651e-03
2.651999999999999957e+01,1.879267751584715040e-03
2.655999999999999872e+01,2.528187115204783963e-03
2.660000000000000142e+01,1.576064669986629394e-03
2.664000000000000057e+01,2.432751907903066453e-03
2.667999999999999972e+01,2.956695840687440305e-03
2.671999999999999886e+01,4.104318264925823495e-03
2.676000000000000156e+01,2.237058242624067640e-03
2.680000000000000071e+01,1.055852144868647162e-03
2.683999999999999986e+01,1.142869780813799167e-03
2.687999999999999901e+01,2.165442768113566303e-03
2.692000000000000171e+01,2.584979653808220507e-03
2.696000000000000085e+01,3.420277565722472119e-03
2.700000000000000000e+01,4.712920108942262980e-03
2.703999999999999915e+01,5.996261979617474938e-04
2.707999999999999829e+01,2.016870627550316000e-03
2.712000000000000099e+01,2.914246318486179814e-03
2.716000000000000014e+01,2.543249346832435632e-03
2.719999999999999929e+01,2.172178165368395929e-03
2.723999999999999844e+01,9.901535189185107187e-04
2.728000000000000114e+01,2.365443345296501954e-03
2.732000000000000028e+01,2.867404477303677097e-03
2.735999999999999943e+01,2.828705399139680877e-03
2.739999999999999858e+01,2.353305047129083168e-03
2.744000000000000128e+01,1.129326816005529147e-03
2.748000000000000043e+01,2.982457739332769475e-03
2.751999999999999957e+01,2.506835827355043643e-03
2.755999999999999872e+01,1.324219743203979656e-03
2.760000000000000142e+01,3.177129412125162013e-03
2.764000000000000057e+01,3.304247933828812194e-03
2.767999999999999972e+01,2.807539544457854624e-03
2.771999999999999886e+01,4.327559984041807160e-03
2.776000000000000156e+01,1.668359733802028374e-03
2.780000000000000071e+01,3.229816784802988592e-03
2.783999999999999986e+01,1.610058547652257676e-03
2.787999999999999901e+01,2.318905999357043311e-03
2.792000000000000171e+01,2.882137718377912172e-03
2.796000000000000085e+01,3.278961978562147921e-03
2.800000000000000000e+01,2.469789976859180797e-03
2.803999999999999915e+01,2.180339261798379304e-03
2.807999999999999829e+01,2.743278317579389038e-03
2.812000000000000099e+01,2.723974576640167140e-03
2.816000000000000014e+01,1.166006344248366172e-03
2.819999999999999929e+01,3.017816616263349801e-03
2.823999999999999844e+01,2.228998313463356664e-03
2.828000000000000114e+01,3.311367113037268738e-03
2.832000000000000028e+01,2.543194968672734830e-03
2.835999999999999943e+01,3.355125149422107534e-03
2.839999999999999858e+01,4.520442858518881370e-03
2.844000000000000128e+01,4.230263540969162427e-03
2.848000000000000043e+01,3.108340560086252351e-03
2.851999999999999957e+01,4.772443178638457670e-03
2.855999999999999872e+01,4.315712056779158826e-03
2.860000000000000142e+01,4.004450947105992267e-03
2.864000000000000057e+01,3.069364148602499870e-03
2.867999999999999972e+01,1.988662585025161109e-03
2.871999999999999886e+01,3.506860881801224586e-03
2.876000000000000156e+01,4.609151413322989249e-03
2.880000000000000071e+01,2.488644324778244155e-03
2.883999999999999986e+01,3.112579688924279903e-03
2.887999999999999901e+01,3.133481446880625847e-03
2.892000000000000171e+01,2.177097662142240576e-03
2.896000000000000085e+01,4.006740037034273172e-03
2.900000000000000000e+01,3.507631460914612670e-03
2.903999999999999915e+01,5.550213222328006070e-04
2.907999999999999829e+01,2.945826076746426835e-03
2.912000000000000099e+01,2.675211599756116120e-03
2.916000000000000014e+01,2.591651402086868946e-03
2.919999999999999929e+01,3.734734388642969773e-03
2.923999999999999844e+01,3.068861156737161429e-03
2.928000000000000114e+01,2.174206815341988078e-03
2.932000000000000028e+01,9.260207529070014478e-04
2.935999999999999943e+01,3.295532442552832810e-03
2.939999999999999858e+01,2.691748600989414802e-03
2.944000000000000128e+01,7.364278913483796561e-04
2.948000000000000043e+01,3.687895265500717827e-03
2.951999999999999957e+01,3.042313948837882878e-03
2.955999999999999872e+01,3.893669376776131771e-03
2.960000000000000142e+01,1.854896636457561976e-03
2.964000000000000057e+01,3.704115106741849746e-03
2.967999999999999972e+01,2.704789064782108041e-03
2.971999999999999886e+01,1.040055154857770720e-03
2.976000000000000156e+01,1.537595110714310440e-03
2.980000000000000071e+01,2.762776364789707329e-03
2.983999999999999986e+01,2.719588368374136096e-03
2.987999999999999901e+01,1.969409153542265364e-03
2.992000000000000171e+01,1.468660516880170930e-03
2.996000000000000085e+01,3.338103771428662086e-03
3.000000000000000000e+01,2.379794698227427879e-03
3.003999999999999915e+01,1.670916355976505155e-03
3.007999999999999829e+01,1.440178343477780147e-03
3.012000000000000099e+01,1.916290259533123905e-03
3.016000000000000014e+01,2.080455078171508480e-03
3.019999999999999929e+01,2.410883723149398385e-03
3.023999999999999844e+01,2.046452250523147999e-04
3.028000000000000114e+01,1.844815198228525474e-03
3.032000000000000028e+01,1.301778340535787682e-03
3.035999999999999943e+01,1.590342379435481530e-03
3.039999999999999858e+01,1.878836282672523240e-03
3.044000000000000128e+01,1.439547903389543082e-03
3.048000000000000043e+01,1.998194790115932328e-03
3.051999999999999957e+01,9.973884129940505106e-04
3.055999999999999872e+01,2.117273366030851707e-03
3.060000000000000142e+01,2.176707806982240961e-03
3.064000000000000057e+01,1.175691786775061526e-03
3.067999999999999972e+01,3.147830109768592552e-03
3.071999999999999886e+01,9.199597344454094701e-04
3.076000000000000156e+01,1.727619135415276765e-03
3.080000000000000071e+01,2.036206260081774300e-03
3.083999999999999986e+01,7.645487512352077070e-04
3.087999999999999901e+01,7.403283426210485610e-04
3.092000000000000171e+01,1.693251983132006144e-03
3.096000000000000085e+01,2.791648640512983236e-03
3.100000000000000000e+01,1.041502466235823959e-03
3.103999999999999915e+01,4.972100417393447193e-04
3.107999999999999829e+01,5.142263284843975662e-04
3.112000000000000099e+01,3.234104416591333277e-03
3.116000000000000014e+01,2.731187889315631924e-03
3.119999999999999929e+01,1.230196945095847743e-03
3.123999999999999844e+01,1.558813317677439081e-03
3.128000000000000114e+01,3.841787720464541478e-03
3.132000000000000028e+01,4.693297932692108904e-04
3.135999999999999943e+01,1.442284362281164760e-03
3.139999999999999858e+01,1.812208533494689662e-03
3.144000000000000128e+01,4.593910034371173970e-03
3.148000000000000043e+01,1.408302752779377843e-03
3.151999999999999957e+01,2.838401273136393222e-03
3.155999999999999872e+01,3.104091618254538072e-03
3.160000000000000142e+01,3.286546247197189800e-03
3.164000000000000057e+01,1.722423044527315482e-03
3.167999999999999972e+01,1.364154406467655125e-03
3.171999999999999886e+01,5.276064405016198978e-04
3.176000000000000156e+01,2.331545759488339812e-03
3.180000000000000071e+01,8.503159466833173832e-04
3.183999999999999986e+01,2.321450176877968945e-03
3.187999999999999901e+01,2.087590435180262331e-03
3.192000000000000171e+01,3.566545433125220652e-04
3.196000000000000085e+01,4.137433307702768903e-04
3.200000000000000000e+01,2.279648625559925913e-03
3.203999999999999915e+01,2.440560152164581321e-03
3.207999999999999829e+01,2.476653019556805928e-03
3.211999999999999744e+01,2.450302609902078616e-03
3.215999999999999659e+01,3.276347165627382235e-03
3.220000000000000284e+01,4.429711113975224029e-04
3.224000000000000199e+01,1.830258011288260012e-03
3.228000000000000114e+01,2.219471869259746852e-03
3.232000000000000028e+01,2.982870023489027442e-03
3.235999999999999943e+01,4.265994964459792795e-03
3.239999999999999858e+01,3.261956837359827194e-03
3.243999999999999773e+01,1.966766292752634201e-03
3.247999999999999687e+01,2.542768197838134268e-03
3.252000000000000313e+01,2.910784895588288887e-03
3.256000000000000227e+01,2.072811137111624930e-03
3.260000000000000142e+01,1.692189139698873105e-03
3.264000000000000057e+01,1.540209406401838897e-03
3.267999999999999972e+01,2.386167740090668239e-03
3.271999999999999886e+01,1.298423623475863107e-03
3.275999999999999801e+01,1.187825898621062319e-03
3.279999999999999716e+01,1.492996635305302846e-03
3.284000000000000341e+01,1.215930584637098764e-03
3.288000000000000256e+01,1.895219301429888065e-03
3.292000000000000171e+01,9.942660329055896546e-04
3.296000000000000085e+01,1.008084079536883610e-03
3.300000000000000000e+01,2.144591263046100038e-03
3.303999999999999915e+01,1.201853964109596750e-03
3.307999999999999829e+01,2.670896082836713911e-03
3.311999999999999744e+01,1.624066502301288852e-03
3.315999999999999659e+01,1.346466051998835949e-03
3.320000000000000284e+01,4.021231376208812477e-03
3.324000000000000199e+01,3.015785637482058888e-03
3.328000000000000114e+01,2.696402073450618071e-03
3.332000000000000028e+01,1.545281008234294451e-03
3.335999999999999943e+01,3.034649265044552218e-03
3.339999999999999858e+01,2.548732383148442394e-03
3.343999999999999773e+01,3.060754535848260460e-03
3.347999999999999687e+01,1.056905447627137741e-03
3.352000000000000313e+01,2.358882751685536378e-03
3.356000000000000227e+01,2.039035331097279607e-03
3.360000000000000142e+01,1.615162963596249949e-03
3.364000000000000057e+01,8.793479293138186563e-04
3.367999999999999972e+01,1.515724222620271153e-03
3.371999999999999886e+01,1.237196415692096282e-03
3.375999999999999801e+01,2.434818923604228306e-03
3.379999999999999716e+01,2.759120987294531608e-03
3.384000000000000341e+01,1.981393109814807117e-03
3.388000000000000256e+01,2.263980158364961841e-03
3.392000000000000171e+01,3.211838419360412995e-03
3.396000000000000085e+01,2.870540898250436256e-03
3.400000000000000000e+01,1.801465627109691140e-03
3.403999999999999915e+01,5.535225360024959018e-03
3.407999999999999829e+01,2.885844079125929589e-03
3.411999999999999744e+01,3.251205075295412767e-03
3.415999999999999659e+01,1.308613467095814638e-03
3.420000000000000284e+01,1.320383606761451689e-03
3.424000000000000199e+01,2.330093799559925741e-03
3.428000000000000114e+01,1.593229521917673619e-03
3.432000000000000028e+01,3.205770909432604891e-03
3.435999999999999943e+01,2.427192838894491958e-03
3.439999999999999858e+01,3.291100114662604426e-03
3.443999999999999773e+01,1.951014027947300554e-03
3.447999999999999687e+01,1.733618962403205011e-03
3.452000000000000313e+01,3.720087377093681327e-03
3.456000000000000227e+01,1.049132886694541938e-03
3.460000000000000142e+01,1.871132157315681492e-03
3.464000000000000057e+01,1.819812053178748810e-03
3.467999999999999972e+01,2.932766779006334978e-03
3.471999999999999886e+01,1.217975186451969146e-03
3.475999999999999801e+01,1.062502290227240352e-03
3.479999999999999716e+01,1.530718172679319767e-03
3.484000000000000341e+01,1.645409361996258511e-03
3.488000000000000256e+01,2.466956540161887191e-03
3.492000000000000171e+01,4.399658775002303086e-04
3.496000000000000085e+01,1.302967898893555221e-03
3.500000000000000000e+01,2.581741182802429254e-03
3.503999999999999915e+01,1.802064307687405859e-03
3.507999999999999829e+01,2.560914759237236087e-03
3.511999999999999744e+01,9.078549432645358552e-04
3.515999999999999659e+01,1.708160747310525545e-03
3.520000000000000284e+01,1.115353462585557884e-03
3.524000000000000199e+01,1.957114822835086341e-03
3.528000000000000114e+01,4.586905089338282927e-03
3.532000000000000028e+01,2.912733628714253651e-03
3.535999999999999943e+01,2.444421417970223109e-03
3.539999999999999858e+01,2.849300074760260839e-03
3.543999999999999773e+01,2.006608387897245577e-03
3.547999999999999687e+01,1.309395472637795745e-03
3.552000000000000313e+01,3.626926616886452445e-03
3.556000000000000227e+01,2.617709862307736682e-03
3.560000000000000142e+01,3.417314198477012458e-03
3.564000000000000057e+01,2.844597783150165302e-03
3.567999999999999972e+01,3.415365693879445289e-03
3.571999999999999886e+01,1.886100757182099285e-03
3.575999999999999801e+01,5.076505906076923813e-03
3.579999999999999716e+01,3.110487078705175077e-03
3.584000000000000341e+01,2.786955431006090441e-03
3.588000000000000256e+01,3.627700141076897321e-03
3.592000000000000171e+01,2.534746474991698365e-03
3.596000000000000085e+01,3.728825230825717763e-03
3.600000000000000000e+01,5.671344955619191455e-03
3.603999999999999915e+01,5.222747361287124156e-03
3.607999999999999829e+01,4.337459544233928863e-03
3.611999999999999744e+01,4.928325046704940156e-03
3.615999999999999659e+01,4.105286905569730839e-03
3.620000000000000284e+01,4.612859746255569028e-03
3.624000000000000199e+01,4.891660338723151889e-03
3.628000000000000114e+01,4.463477861069702936e-03
3.632000000000000028e+01,4.367901218199516170e-03
3.635999999999999943e+01,4.313845581925735209e-03
3.639999999999999858e+01,4.779521876004824352e-03
3.643999999999999773e+01,5.307511055613581448e-03
3.647999999999999687e+01,6.479982929906192429e-03
3.652000000000000313e+01,4.242541019297528700e-03
3.656000000000000227e+01,5.206970486010895592e-03
3.660000000000000142e+01,4.611954429756509599e-03
3.664000000000000057e+01,4.619837717734265152e-03
3.667999999999999972e+01,5.979124375734759869e-03
3.671999999999999886e+01,3.491870184797687352e-03
3.675999999999999801e+01,5.017366931919271453e-03
3.679999999999999716e+01,7.041804341582644580e-03
3.684000000000000341e+01,8.213716954543974491e-03
3.688000000000000256e+01,5.726214915991067154e-03
3.692000000000000171e+01,6.357417604783601427e-03
3.696000000000000085e+01,7.030142064075236945e-03
3.700000000000000000e+01,8.160223886383780045e-03
3.703999999999999915e+01,7.398192312647091859e-03
3.707999999999999829e+01,7.592520853690175146e-03
3.711999999999999744e+01,9.845173745655948910e-03
3.715999999999999659e+01,7.752283698970291806e-03
3.720000000000000284e+01,9.859271144254529509e-03
3.724000000000000199e+01,7.787049969377410688e-03
3.728000000000000114e+01,1.022658304451710617e-02
3.732000000000000028e+01,1.017104154479257089e-02
3.735999999999999943e+01,1.182036449119947680e-02
3.739999999999999858e+01,1.193103471025509094e-02
3.743999999999999773e+01,1.291489839411388320e-02
3.747999999999999687e+01,1.225615056707732992e-02
3.752000000000000313e+01,1.650420106013008800e-02
3.756000000000000227e+01,1.676016933415219040e-02
3.760000000000000142e+01,1.793091483084395532e-02
3.764000000000000057e+01,1.943426784290486903e-02
3.767999999999999972e+01,2.114547775878449637e-02
3.771999999999999886e+01,2.352196372515973771e-02
3.775999999999999801e+01,2.976565946320793368e-02
3.779999999999999716e+01,3.345190590627539207e-02
3.784000000000000341e+01,3.836480653376683064e-02
3.788000000000000256e+01,4.462911205908637324e-02
3.792000000000000171e+01,5.738039147180938604e-02
3.796000000000000085e+01,7.204445386536197093e-02
3.800000000000000000e+01,9.566971172063803985e-02
3.803999999999999915e+01,1.314788905358943993e-01
3.807999999999999829e+01,1.928826865783667688e-01
3.811999999999999744e+01,3.036876846550651821e-01
3.815999999999999659e+01,5.109664681250145613e-01
3.820000000000000284e+01,8.062152002136063755e-01
3.824000000000000199e+01,1.000000000000000000e+00
3.828000000000000114e+01,9.759077076667295181e-01
3.832000000000000028e+01,8.221162498590873779e-01
3.835999999999999943e+01,6.370538993225839386e-01
3.839999999999999858e+01,4.249205950782145025e-01
3.843999999999999773e+01,2.635399587856564474e-01
3.847999999999999687e+01,1.738077264607831296e-01
3.852000000000000313e+01,1.201491675714136814e-01
3.856000000000000227e+01,8.828033131482500295e-02
3.860000000000000142e+01,7.063301088498820379e-02
3.864000000000000057e+01,5.427472098935095385e-02
3.867999999999999972e+01,4.629545766296614545e-02
3.871999999999999886e+01,3.910622232272538412e-02
3.875999999999999801e+01,3.570103091901051517e-02
3.879999999999999716e+01,2.938493128313372782e-02
3.884000000000000341e+01,2.573011972334090375e-02
3.888000000000000256e+01,2.323958834083137553e-02
3.892000000000000171e+01,2.118562498874780597e-02
3.896000000000000085e+01,1.900685173686922011e-02
3.900000000000000000e+01,1.589238933002005624e-02
3.903999999999999915e+01,1.747680940768485403e-02
3.907999999999999829e+01,1.702357624701669042e-02
3.911999999999999744e+01,1.523961031964706642e-02
3.915999999999999659e+01,1.285262387428703565e-02
3.920000000000000284e+01,1.173387689902282219e-02
3.924000000000000199e+01,1.094773947620157097e-02
3.928000000000000114e+01,1.149221695656846808e-02
3.932000000000000028e+01,1.029012638327716708e-02
3.935999999999999943e+01,1.087606991077777474e-02
3.939999999999999858e+01,9.403568830280642152e-03
3.943999999999999773e+01,7.889425569428832469e-03
3.947999999999999687e+01,7.414812587285714643e-03
3.952000000000000313e+01,7.314393068232586011e-03
3.956000000000000227e+01,8.087169713105447910e-03
3.960000000000000142e+01,8.568803056376432872e-03
3.964000000000000057e+01,7.802871403313151391e-03
3.967999999999999972e+01,7.452716971206331358e-03
3.971999999999999886e+01,6.229249632050798922e-03
3.975999999999999801e+01,5.920562265614599633e-03
3.979999999999999716e+01,7.004865795654183908e-03
3.984000000000000341e+01,5.261429525948024474e-03
3.988000000000000256e+01,7.135704402083046204e-03
3.992000000000000171e+01,5.641653376257756668e-03
3.996000000000000085e+01,6.289097425479379597e-03
4.000000000000000000e+01,5.065223624321889967e-03
4.003999999999999915e+01,5.047215031485318554e-03
4.007999999999999829e+01,5.382608837635022639e-03
4.011999999999999744e+01,5.364484672993187313e-03
4.015999999999999659e+01,5.741346563350415398e-03
4.020000000000000284e+01,3.020176010269381116e-03
4.024000000000000199e+01,4.249385494643913123e-03
4.028000000000000114e+01,5.332994982729779253e-03
4.032000000000000028e+01,4.129451486260313393e-03
4.035999999999999943e+01,5.899074657288173353e-03
4.039999999999999858e+01,4.217205429159664315e-03
4.043999999999999773e+01,4.572873001802478174e-03
4.047999999999999687e+01,3.764143755892973391e-03
4.052000000000000313e+01,3.974154335710597917e-03
4.056000000000000227e+01,3.643521511216045450e-03
4.060000000000000142e+01,6.431598099336723919e-03
4.064000000000000057e+01,4.790969071123333742e-03
4.067999999999999972e+01,5.520545582515110766e-03
4.071999999999999886e+01,4.129303835256403071e-03
4.075999999999999801e+01,4.422139085831455936e-03
4.079999999999999716e+01,4.132747683496310748e-03
4.084000000000000341e+01,4.882888291382611774e-03
4.088000000000000256e+01,3.824087500519034524e-03
4.092000000000000171e+01,3.472150388457808691e-03
4.096000000000000085e+01,4.242912547716760560e-03
4.100000000000000000e+01,4.140363429586058769e-03
4.103999999999999915e+01,5.555557449140648314e-03
4.107999999999999829e+01,3.228175056181565271e-03
4.111999999999999744e+01,3.291790540102507590e-03
4.115999999999999659e+01,3.750393352193644777e-03
4.120000000000000284e+01,4.125772670552209885e-03
4.124000000000000199e+01,5.124848966809693492e-03
4.128000000000000114e+01,5.250614342165448555e-03
4.132000000000000028e+01,3.130811560296112295e-03
4.135999999999999943e+01,4.566346477322591815e-03
4.139999999999999858e+01,3.111768249511656561e-03
4.143999999999999773e+01,2.759098127063493600e-03
4.147999999999999687e+01,4.256840135768693613e-03
4.152000000000000313e+01,4.756520866655946853e-03
4.156000000000000227e+01,2.241337993935878410e-03
4.160000000000000142e+01,3.489410896468177550e-03
4.164000000000000057e+01,4.280008878031335215e-03
4.167999999999999972e+01,3.719085575131596873e-03
4.171999999999999886e+01,4.426404950718934236e-03
4.175999999999999801e+01,4.114871576969846012e-03
4.179999999999999716e+01,3.824074358788606687e-03
4.184000000000000341e+01,3.512429792942972639e-03
4.188000000000000256e+01,4.739321211325922371e-03
4.192000000000000171e+01,2.972141261522712533e-03
4.196000000000000085e+01,4.697924443279355086e-03
4.200000000000000000e+01,3.034592594192102224e-03
4.203999999999999915e+01,4.323637774450124656e-03
4.207999999999999829e+01,4.240370402434163501e-03
4.211999999999999744e+01,2.618456312434669624e-03
4.215999999999999659e+01,4.385546723231509118e-03
4.220000000000000284e+01,3.636776995159724142e-03
4.224000000000000199e+01,4.218625938862651838e-03
4.228000000000000114e+01,3.344995476607624807e-03
4.232000000000000028e+01,3.635649571344618230e-03
4.235999999999999943e+01,5.236130713557304688e-03
4.239999999999999858e+01,3.988083538262819638e-03
4.243999999999999773e+01,4.673616824684188355e-03
4.247999999999999687e+01,4.090796953497763226e-03
4.252000000000000313e+01,4.277218129426155722e-03
4.256000000000000227e+01,5.170505072157569569e-03
4.260000000000000142e+01,4.192477474754817933e-03
4.264000000000000057e+01,5.376740141577187986e-03
4.267999999999999972e+01,4.398603491005390054e-03
4.271999999999999886e+01,3.482787721477996045e-03
4.275999999999999801e+01,4.874804808513093224e-03
4.279999999999999716e+01,4.561841826684637051e-03
4.284000000000000341e+01,5.059703853544865459e-03
4.288000000000000256e+01,5.703054073475063643e-03
4.292000000000000171e+01,4.204797058651722937e-03
4.296000000000000085e+01,4.848038938388717252e-03
4.300000000000000000e+01,4.992224074510213938e-03
4.303999999999999915e+01,5.136355167852215201e-03
4.307999999999999829e+01,4.573511848636925212e-03
4.311999999999999744e+01,6.443252506803029238e-03
4.315999999999999659e+01,6.275345121174410665e-03
4.320000000000000284e+01,5.795507240280458813e-03
4.324000000000000199e+01,5.689867558673122883e-03
4.328000000000000114e+01,6.207927452233826145e-03
4.332000000000000028e+01,6.996226761537096758e-03
4.335999999999999943e+01,7.285469785566476598e-03
4.339999999999999858e+01,7.990494766748948083e-03
4.343999999999999773e+01,8.653882660261288245e-03
4.347999999999999687e+01,7.612291350666454404e-03
4.352000000000000313e+01,9.044868081880562405e-03
4.356000000000000227e+01,9.999180559534557450e-03
4.360000000000000142e+01,8.874261999430040071e-03
4.364000000000000057e+01,9.079963893539825387e-03
4.367999999999999972e+01,1.292417354862065992e-02
4.371999999999999886e+01,1.319214436899601543e-02
4.375999999999999801e+01,1.373035516530923643e-02
4.379999999999999716e+01,1.393584445318025306e-02
4.384000000000000341e+01,1.357990273566088077e-02
4.388000000000000256e+01,1.607238150472393295e-02
4.392000000000000171e+01,1.760838560573886602e-02
4.396000000000000085e+01,1.980967370183731036e-02
4.400000000000000000e+01,2.238516096483243387e-02
4.403999999999999915e+01,2.572989121016250325e-02
4.407999999999999829e+01,2.872110852645873638e-02
4.411999999999999744e+01,3.614092169294416679e-02
4.415999999999999659e+01,4.424681088622689495e-02
4.420000000000000284e+01,5.237343929068820347e-02
4.424000000000000199e+01,6.299502842972122540e-02
4.428000000000000114e+01,7.999964066812836894e-02
4.432000000000000028e+01,1.039694458150638989e-01
4.435999999999999943e+01,1.386261720186938162e-01
4.439999999999999858e+01,1.760689440397164851e-01
4.443999999999999773e+01,2.138235404565924924e-01
4.447999999999999687e+01,2.425960369656904592e-01
4.452000000000000313e+01,2.462312228271279491e-01
4.456000000000000227e+01,2.265171909206730172e-01
4.460000000000000142e+01,2.024992091021189378e-01
4.464000000000000057e+01,1.671288649924256853e-01
4.467999999999999972e+01,1.261031055623163810e-01
4.471999999999999886e+01,9.848799044466392816e-02
4.475999999999999801e+01,7.330546139239356440e-02
4.479999999999999716e+01,5.729205423020584248e-02
4.484000000000000341e+01,4.595674515984510961e-02
4.488000000000000256e+01,3.761540028879479386e-02
4.492000000000000171e+01,3.226801966798172050e-02
4.496000000000000085e+01,2.513249462003656551e-02
4.500000000000000000e+01,2.165627079072790159e-02
4.503999999999999915e+01,1.924037609603901008e-02
4.507999999999999829e+01,1.665809573920335948e-02
4.511999999999999744e+01,1.553118838335259058e-02
4.515999999999999659e+01,1.255376152376530899e-02
4.520000000000000284e+01,1.265346637922140118e-02
4.524000000000000199e+01,1.042444095996505719e-02
4.528000000000000114e+01,9.941873624514650440e-03
4.532000000000000028e+01,9.064211384603528682e-03
4.535999999999999943e+01,7.770662514078987941e-03
4.539999999999999858e+01,8.493864982175053369e-03
4.543999999999999773e+01,7.054671646829305601e-03
4.547999999999999687e+01,6.467890235503135667e-03
4.552000000000000313e+01,5.964225047180092380e-03
4.556000000000000227e+01,5.689218572343860900e-03
4.560000000000000142e+01,6.266624174307748076e-03
4.564000000000000057e+01,5.055886214895915186e-03
4.567999999999999972e+01,4.531226217501503097e-03
4.571999999999999886e+01,5.898567303665178466e-03
4.575999999999999801e+01,4.812428114688116314e-03
4.579999999999999716e+01,3.497528849008871635e-03
4.584000000000000341e+01,5.031052565327481275e-03
4.588000000000000256e+01,4.215055044683643608e-03
4.592000000000000171e+01,4.147511122856936856e-03
4.596000000000000085e+01,2.562117149103411949e-03
4.600000000000000000e+01,4.033064131850620099e-03
4.603999999999999915e+01,3.341616075058681870e-03
4.607999999999999829e+01,5.061963987155158884e-03
4.611999999999999744e+01,4.120914311657031606e-03
4.615999999999999659e+01,3.678817215582523645e-03
4.620000000000000284e+01,2.633708564642411615e-03
4.624000000000000199e+01,3.106349671877495482e-03
4.628000000000000114e+01,3.142313542737056129e-03
4.632000000000000028e+01,4.550484834068675710e-03
4.635999999999999943e+01,3.609135499559980049e-03
4.639999999999999858e+01,2.875654170922302411e-03
4.643999999999999773e+01,2.578750446957523389e-03
4.647999999999999687e+01,1.408542422580926672e-03
4.652000000000000313e+01,2.816465143924427698e-03
4.656000000000000227e+01,2.852081016800631433e-03
4.660000000000000142e+01,2.679729608591112019e-03
4.664000000000000057e+01,2.112284976506772442e-03
4.667999999999999972e+01,2.605171567042861760e-03
4.671999999999999886e+01,3.118800577148795466e-03
4.675999999999999801e+01,1.573994349796560858e-03
4.679999999999999716e+01,2.316234345538659666e-03
4.684000000000000341e+01,1.603000740983187610e-03
4.688000000000000256e+01,2.261975269875603038e-03
4.692000000000000171e+01,2.338730937665177076e-03
4.696000000000000085e+01,2.249103336869736226e-03
4.700000000000000000e+01,2.201010289211605391e-03
4.703999999999999915e+01,3.109290037117765689e-03
4.707999999999999829e+01,2.873973146480664556e-03
4.711999999999999744e+01,2.950484063795538910e-03
4.715999999999999659e+01,1.924981998579931505e-03
4.720000000000000284e+01,2.729107569977048779e-03
4.724000000000000199e+01,2.306469598220084374e-03
4.728000000000000114e+01,2.403577408917962916e-03
4.732000000000000028e+01,1.668965542826880352e-03
4.735999999999999943e+01,2.951107510771834239e-03
4.739999999999999858e+01,3.734198337054292667e-03
4.743999999999999773e+01,2.209353466680367365e-03
4.747999999999999687e+01,3.387391226748123763e-03
4.752000000000000313e+01,1.716907187944925837e-03
4.756000000000000227e+01,3.165141423028069393e-03
4.760000000000000142e+01,1.660895075696207455e-03
4.764000000000000057e+01,1.258564727388163150e-03
4.767999999999999972e+01,3.060114614246860470e-03
4.771999999999999886e+01,1.909184071471087263e-03
4.775999999999999801e+01,2.317588776249734830e-03
4.779999999999999716e+01,2.247734625713894690e-03
4.784000000000000341e+01,2.967920072642867176e-03
4.788000000000000256e+01,2.003923695497219614e-03
4.792000000000000171e+01,1.809175240590528509e-03
4.796000000000000085e+01,2.238132319292799113e-03
4.800000000000000000e+01,1.876954141121580906e-03
4.803999999999999915e+01,1.370185846469716695e-03
4.807999999999999829e+01,1.133663027855024525e-03
4.811999999999999744e+01,1.936681488147652718e-03
4.815999999999999659e+01,1.388186914126351241e-03
4.820000000000000284e+01,1.775274835468318522e-03
4.824000000000000199e+01,1.663312684611544445e-03
4.828000000000000114e+01,2.362182468494434216e-03
4.832000000000000028e+01,2.665961167430015277e-03
4.835999999999999943e+01,2.179605067833709827e-03
4.839999999999999858e+01,2.649623495314445965e-03
4.843999999999999773e+01,1.892879907446468101e-03
4.847999999999999687e+01,1.177672757009079604e-03
4.852000000000000313e+01,4.624185407700403226e-04
4.856000000000000227e+01,1.847086794690597136e-03
4.860000000000000142e+01,2.607954772276726944e-03
4.864000000000000057e+01,1.954934995432431981e-03
4.867999999999999972e+01,2.216706547993997981e-03
4.871999999999999886e+01,1.522009543728899093e-03
4.875999999999999801e+01,2.698525716382594968e-03
4.879999999999999716e+01,8.393957261084469650e-04
4.884000000000000341e+01,1.350481664515950676e-03
4.888000000000000256e+01,2.194189428736181141e-03
4.892000000000000171e+01,1.811135788729843115e-03
4.896000000000000085e+01,1.157742541083018033e-03
4.900000000000000000e+01,2.666647655029737336e-03
4.903999999999999915e+01,2.304246428064413588e-03
4.907999999999999829e+01,2.128924841989203107e-03
4.911999999999999744e+01,1.205052979151272942e-03
4.915999999999999659e+01,2.152394802500584830e-03
4.920000000000000284e+01,1.561098921918015582e-03
4.924000000000000199e+01,2.924183937694579873e-03
4.928000000000000114e+01,2.187253370245136747e-03
4.932000000000000028e+01,1.200775430576363255e-03
4.935999999999999943e+01,1.233048571467569706e-03
4.939999999999999858e+01,2.866242602072964149e-03
4.943999999999999773e+01,1.359832399182305321e-03
4.947999999999999687e+01,1.620677404495910346e-03
4.952000000000000313e+01,1.694350623463062710e-03
4.956000000000000227e+01,2.017479425681122703e-03
4.960000000000000142e+01,3.237601604061326349e-04
4.964000000000000057e+01,1.208175613145191438e-03
4.967999999999999972e+01,1.427208610415553079e-03
4.971999999999999886e+01,1.750154955087367993e-03
4.975999999999999801e+01,1.636428494019214743e-03
4.979999999999999716e+01,3.082039877774603830e-03
4.984000000000000341e+01,2.905847264109442246e-03
4.988000000000000256e+01,1.003891818552832532e-03
4.992000000000000171e+01,1.700863224577736990e-03
4.996000000000000085e+01,1.503742983746832879e-03
5.000000000000000000e+01,2.159040421669046993e-03
5.003999999999999915e+01,1.192534116804939721e-03
5.007999999999999829e+01,1.785366013252289059e-03
5.011999999999999744e+01,1.172229810357988721e-03
5.015999999999999659e+01,2.846144108413038634e-03
5.020000000000000284e+01,1.588372911377587118e-03
5.024000000000000199e+01,1.640438794406396490e-03
5.028000000000000114e+01,2.544922712676242916e-03
5.032000000000000028e+01,1.910770352965881786e-03
5.035999999999999943e+01,2.336953901145733242e-03
5.039999999999999858e+01,1.536377929392298159e-03
5.043999999999999773e+01,2.627809050564710886e-03
5.047999999999999687e+01,1.390516568441450872e-03
5.052000000000000313e+01,2.107606612336376632e-03
5.056000000000000227e+01,1.660312671244045099e-03
5.060000000000000142e+01,2.065437172807505981e-03
5.064000000000000057e+01,1.368553122476052521e-03
5.067999999999999972e+01,1.690421833290472109e-03
5.071999999999999886e+01,1.596410737688769158e-03
5.075999999999999801e+01,9.201856699613909568e-04
5.079999999999999716e+01,1.740924388990049620e-03
5.084000000000000341e+01,2.208158785621762085e-03
5.088000000000000256e+01,2.716932675294796238e-03
5.092000000000000171e+01,1.811821713367595382e-03
5.096000000000000085e+01,1.384877665005934070e-03
5.100000000000000000e+01,1.581643020693489438e-03
5.103999999999999915e+01,2.214991837641171624e-03
5.107999999999999829e+01,2.182959981559755725e-03
5.111999999999999744e+01,2.795429459387642392e-03
5.115999999999999659e+01,1.723721289142242158e-03
5.120000000000000284e+01,2.232144523239515659e-03
5.124000000000000199e+01,1.139557319435388757e-03
5.128000000000000114e+01,2.479564482089128240e-03
5.132000000000000028e+01,2.322520194092893026e-03
5.135999999999999943e+01,2.373350226896516531e-03
5.139999999999999858e+01,1.883550656563091766e-03
5.143999999999999773e+01,1.497666623485472380e-03
5.147999999999999687e+01,2.026577484692905495e-03
5.152000000000000313e+01,2.139609558021113040e-03
5.156000000000000227e+01,2.793184640056182305e-03
5.160000000000000142e+01,2.386335946599725966e-03
5.164000000000000057e+01,2.291320815828781603e-03
5.167999999999999972e+01,1.780427100885999866e-03
5.171999999999999886e+01,1.726909490039271093e-03
5.175999999999999801e+01,4.230737519249849754e-03
5.179999999999999716e+01,2.700917905227665124e-03
5.184000000000000341e+01,1.857184095957108800e-03
5.188000000000000256e+01,2.302497677671923055e-03
5.192000000000000171e+01,1.521053674673576413e-03
5.196000000000000085e+01,2.506868037343917659e-03
5.200000000000000000e+01,1.766922267245626434e-03
5.203999999999999915e+01,1.525936562817241469e-03
5.207999999999999829e+01,1.638368535428774957e-03
5.211999999999999744e+01,2.935889319189018219e-03
5.215999999999999659e+01,2.029439301058387057e-03
5.220000000000000284e+01,1.559574221066402366e-03
5.224000000000000199e+01,1.297584582264878954e-03
5.228000000000000114e+01,3.218689258137776617e-03
5.232000000000000028e+01,7.526867424745786956e-04
5.235999999999999943e+01,1.530159274396471810e-03
5.239999999999999858e+01,2.411548565818467070e-03
5.243999999999999773e+01,2.315682259530871517e-03
5.247999999999999687e+01,1.845521941767446503e-03
5.252000000000000313e+01,1.915905854955180085e-03
5.256000000000000227e+01,1.986247845952644319e-03
5.260000000000000142e+01,2.555550615595862229e-03
5.264000000000000057e+01,1.274343404822675645e-03
5.267999999999999972e+01,1.718811922242299232e-03
5.271999999999999886e+01,1.643444294190323342e-03
5.275999999999999801e+01,2.274955419286961433e-03
5.279999999999999716e+01,9.727896593563984187e-04
5.284000000000000341e+01,2.477472239462544072e-03
5.288000000000000256e+01,3.088066890372598555e-03
5.292000000000000171e+01,2.430321675581536504e-03
5.296000000000000085e+01,2.500247245652862348e-03
5.300000000000000000e+01,2.590923230808776356e-03
5.303999999999999915e+01,3.305311217283030990e-03
5.307999999999999829e+01,1.774146019024757780e-03
5.311999999999999744e+01,2.717161084018343119e-03
5.315999999999999659e+01,3.077965232496992793e-03
5.320000000000000284e+01,2.357555865478368987e-03
5.324000000000000199e+01,2.614318964764644065e-03
5.328000000000000114e+01,1.976994644123282203e-03
5.332000000000000028e+01,1.443588254299466023e-03
5.335999999999999943e+01,2.885359783379411788e-03
5.339999999999999858e+01,1.956827872664302758e-03
5.343999999999999773e+01,2.109427568286065431e-03
5.347999999999999687e+01,1.887734525603129449e-03
5.352000000000000313e+01,1.728376114212866813e-03
5.356000000000000227e+01,2.275897474508135725e-03
5.360000000000000142e+01,2.490709803438338234e-03
5.364000000000000057e+01,3.246067789271373134e-03
5.367999999999999972e+01,1.942999347990499205e-03
5.371999999999999886e+01,2.573525729795907418e-03
5.375999999999999801e+01,2.413924188193567952e-03
5.379999999999999716e+01,3.085953386315117702e-03
5.384000000000000341e+01,1.720348138109695788e-03
5.388000000000000256e+01,2.454672133334317302e-03
5.392000000000000171e+01,3.022621721245033390e-03
5.396000000000000085e+01,2.779651863302687320e-03
5.400000000000000000e+01,3.389104776797999177e-03
5.403999999999999915e+01,2.647052142225669175e-03
5.407999999999999829e+01,1.988126629001398925e-03
5.411999999999999744e+01,2.431125364949921538e-03
5.415999999999999659e+01,2.541415782509216705e-03
5.420000000000000284e+01,1.695244620219676880e-03
5.424000000000000199e+01,2.179707407758498753e-03
5.428000000000000114e+01,3.870053533575226572e-03
5.432000000000000028e+01,2.171300314016464880e-03
5.435999999999999943e+01,3.029896044759972009e-03
5.439999999999999858e+01,2.620153794095637402e-03
5.443999999999999773e+01,2.667791110552844309e-03
5.447999999999999687e+01,2.777764280547018617e-03
5.452000000000000313e+01,2.804530915448166014e-03
5.456000000000000227e+01,1.313458447694269230e-03
5.460000000000000142e+01,1.818357254655894291e-03
5.464000000000000057e+01,3.217263202043818028e-03
5.467999999999999972e+01,2.162700230977542253e-03
5.471999999999999886e+01,2.667481368736809074e-03
5.475999999999999801e+01,2.195009862543532628e-03
5.479999999999999716e+01,2.533378592165728103e-03
5.484000000000000341e+01,3.079626073223337788e-03
5.488000000000000256e+01,3.563459254609084408e-03
5.492000000000000171e+01,3.340333097783787595e-03
5.496000000000000085e+01,3.491420061810831480e-03
5.500000000000000000e+01,1.646457610548522155e-03
5.503999999999999915e+01,2.192510758708461020e-03
5.507999999999999829e+01,2.676149861830747888e-03
5.511999999999999744e+01,2.639955875092169987e-03
5.515999999999999659e+01,2.395805505612802477e-03
5.520000000000000284e+01,3.149621874933301608e-03
5.524000000000000199e+01,2.551934223991523306e-03
5.528000000000000114e+01,3.035380522021506600e-03
5.532000000000000028e+01,2.125739347483802770e-03
5.535999999999999943e+01,2.421982886248834777e-03
5.539999999999999858e+01,3.050856551902410285e-03
5.543999999999999773e+01,3.409398860064469846e-03
5.547999999999999687e+01,2.208519682729836574e-03
5.552000000000000313e+01,2.067982982848480013e-03
5.556000000000000227e+01,3.174914805063194963e-03
5.560000000000000142e+01,2.618466409164007212e-03
5.564000000000000057e+01,3.080777089339539060e-03
5.567999999999999972e+01,4.166803132005221164e-03
5.571999999999999886e+01,1.738980949257707158e-03
5.575999999999999801e+01,2.471471034558959685e-03
5.579999999999999716e+01,3.515799978937659241e-03
5.584000000000000341e+01,2.959124342002186596e-03
5.588000000000000256e+01,2.901413659713785592e-03
5.592000000000000171e+01,2.822873556010593084e-03
5.596000000000000085e+01,2.494794533944422795e-03
5.600000000000000000e+01,3.102307937976383524e-03
5.603999999999999915e+01,2.940488098510337257e-03
5.607999999999999829e+01,1.759833741518550916e-03
5.611999999999999744e+01,2.076149944553246605e-03
5.615999999999999659e+01,2.683513687927451333e-03
5.620000000000000284e+01,3.145297703897493701e-03
5.624000000000000199e+01,3.336751380912922078e-03
5.628000000000000114e+01,3.361833655298324119e-03
5.632000000000000028e+01,3.823506113287459662e-03
5.635999999999999943e+01,1.727752906352177055e-03
5.639999999999999858e+01,3.644775642556670903e-03
5.643999999999999773e+01,3.732085013474634172e-03
5.647999999999999687e+01,2.176807063748859711e-03
5.652000000000000313e+01,3.116505483136348519e-03
5.656000000000000227e+01,3.744290416824890520e-03
5.660000000000000142e+01,2.833447068047975029e-03
5.664000000000000057e+01,3.377991387187429147e-03
5.667999999999999972e+01,2.695784181908338333e-03
5.671999999999999886e+01,3.427381192240213943e-03
5.675999999999999801e+01,3.472812984075505146e-03
5.679999999999999716e+01,3.268706927011566163e-03
5.684000000000000341e+01,4.000194365509511865e-03
5.688000000000000256e+01,4.253434509086893682e-03
5.692000000000000171e+01,4.257136956545582232e-03
5.696000000000000085e+01,3.200422452710030997e-03
5.700000000000000000e+01,1.956545685848127495e-03
5.703999999999999915e+01,4.143275918728172615e-03
5.707999999999999829e+01,3.231995199298749472e-03
5.711999999999999744e+01,3.568184988112364786e-03
5.715999999999999659e+01,2.989500519822812803e-03
5.720000000000000284e+01,2.909782686766231204e-03
5.724000000000000199e+01,2.975571329517147281e-03
5.728000000000000114e+01,3.228450053161509813e-03
5.732000000000000028e+01,3.169416258716985322e-03
5.735999999999999943e+01,2.403426232598997962e-03
5.739999999999999858e+01,4.111621918905346111e-03
5.743999999999999773e+01,3.220809761152993323e-03
5.747999999999999687e+01,3.182424805473863059e-03
5.752000000000000313e+01,3.102420688374219002e-03
5.756000000000000227e+01,2.710504358746758293e-03
5.760000000000000142e+01,3.212598938132157998e-03
5.764000000000000057e+01,3.381989629763888783e-03
5.767999999999999972e+01,2.407797178466409335e-03
5.771999999999999886e+01,3.117703317985164122e-03
5.775999999999999801e+01,3.016694849701172156e-03
5.779999999999999716e+01,3.497820888871041450e-03
5.784000000000000341e+01,2.793780434659968656e-03
5.788000000000000256e+01,3.420378564620198646e-03
5.792000000000000171e+01,2.924185634291834920e-03
5.796000000000000085e+01,3.259628740079286574e-03
5.800000000000000000e+01,3.553453295568363875e-03
5.803999999999999915e+01,2.807654051867570708e-03
5.807999999999999829e+01,3.059825213699535890e-03
5.811999999999999744e+01,2.979293098899976362e-03
5.815999999999999659e+01,3.855147937327750747e-03
5.820000000000000284e+01,2.568623217977426387e-03
5.824000000000000199e+01,3.236490853526457698e-03
5.828000000000000114e+01,3.925115626503681253e-03
5.832000000000000028e+01,3.428574517222122975e-03
5.835999999999999943e+01,2.370620888995072801e-03
5.839999999999999858e+01,3.163100933977028382e-03
5.843999999999999773e+01,3.373376784787645005e-03
5.847999999999999687e+01,3.188574486069708364e-03
5.852000000000000313e+01,3.461156949011549421e-03
5.856000000000000227e+01,4.107957116221823586e-03
5.860000000000000142e+01,3.403257541024847996e-03
5.864000000000000057e+01,3.280693542745474756e-03
5.867999999999999972e+01,4.114517159742434385e-03
5.871999999999999886e+01,3.222589199680798901e-03
5.875999999999999801e+01,3.307840733828732414e-03
5.879999999999999716e+01,3.767310277806172440e-03
5.884000000000000341e+01,2.958447493255617674e-03
5.888000000000000256e+01,3.563391674365700389e-03
5.892000000000000171e+01,3.731674711983423535e-03
5.896000000000000085e+01,3.026669338365116368e-03
5.900000000000000000e+01,2.903800000006036188e-03
5.903999999999999915e+01,3.550192741548950474e-03
5.907999999999999829e+01,4.487636741091096185e-03
5.911999999999999744e+01,3.241910577093039345e-03
5.915999999999999659e+01,3.805035499754944473e-03
5.920000000000000284e+01,3.224579214707760239e-03
5.924000000000000199e+01,2.727256620571705953e-03
5.928000000000000114e+01,2.708111532785043105e-03
5.932000000000000028e+01,3.312686441831459890e-03
5.935999999999999943e+01,3.189515888467143578e-03
5.939999999999999858e+01,4.126692752460124972e-03
5.943999999999999773e+01,4.772751574566578767e-03
5.947999999999999687e+01,3.173265360235781943e-03
5.952000000000000313e+01,3.673715570020252060e-03
5.956000000000000227e+01,3.342461686630468325e-03
5.960000000000000142e+01,3.634928156561685435e-03
5.964000000000000057e+01,4.551115030740751632e-03
5.967999999999999972e+01,2.431669594093944196e-03
5.971999999999999886e+01,3.160664811060370002e-03
5.975999999999999801e+01,3.265873960282264163e-03
5.979999999999999716e+01,3.183924411356992609e-03
5.984000000000000341e+01,3.372235310961460911e-03
5.988000000000000256e+01,3.435762945511104931e-03
5.992000000000000171e+01,3.499258028410048935e-03
5.996000000000000085e+01,4.269641031289790438e-03
