2.003999999999999915e+01,1.700806771519171590e-01
2.007999999999999829e+01,1.752747807489155318e-01
2.012000000000000099e+01,2.162384824754747525e-01
2.016000000000000014e+01,1.526918130156243725e-01
2.019999999999999929e+01,1.958930427375424610e-01
2.023999999999999844e+01,1.675580683053554953e-01
2.028000000000000114e+01,1.476073439890310535e-01
2.032000000000000028e+01,1.438652462854772829e-01
2.035999999999999943e+01,1.926592522065326829e-01
2.039999999999999858e+01,1.822124929511615976e-01
2.044000000000000128e+01,1.628245536267568794e-01
2.048000000000000043e+01,1.590863404448915053e-01
2.051999999999999957e+01,1.894410320550949101e-01
2.055999999999999872e+01,1.667026699045070226e-01
2.060000000000000142e+01,1.741450142060280426e-01
2.064000000000000057e+01,1.765583485222591287e-01
2.067999999999999972e+01,1.840025866453978698e-01
2.071999999999999886e+01,1.433837137757352775e-01
2.076000000000000156e+01,1.798918144128349161e-01
2.080000000000000071e+01,1.895744002891715796e-01
2.083999999999999986e+01,2.009345678830727899e-01
2.087999999999999901e+01,1.714971045474528444e-01
2.092000000000000171e+01,1.655337034852574218e-01
2.096000000000000085e+01,1.316270028682463566e-01
2.100000000000000000e+01,1.334898115755429882e-01
2.103999999999999915e+01,1.744754315134793565e-01
2.107999999999999829e+01,1.701923257483047569e-01
2.112000000000000099e+01,1.910599150450109363e-01
2.116000000000000014e+01,1.895730278421113024e-01
2.119999999999999929e+01,1.618194698362482586e-01
2.123999999999999844e+01,1.815719677353450634e-01
2.128000000000000114e+01,1.744989024344522632e-01
2.132000000000000028e+01,1.406002698969675835e-01
2.135999999999999943e+01,1.748864011360561632e-01
2.139999999999999858e+01,1.488138976360182386e-01
2.144000000000000128e+01,1.249777996283342046e-01
2.148000000000000043e+01,1.598254197824402478e-01
2.151999999999999957e+01,8.233815097215148315e-02
2.155999999999999872e+01,1.456905878523064857e-01
2.160000000000000142e+01,1.475666011626800278e-01
2.164000000000000057e+01,1.153515187339546749e-01
2.167999999999999972e+01,1.278480261884545333e-01
2.171999999999999886e+01,1.649362838319790581e-01
2.176000000000000156e+01,1.416658704069563846e-01
2.180000000000000071e+01,1.536060012503752681e-01
2.183999999999999986e+01,1.225128669905302947e-01
2.187999999999999901e+01,1.691054775364064233e-01
2.192000000000000171e+01,1.458383673623498966e-01
2.196000000000000085e+01,1.527518263959264933e-01
2.200000000000000000e+01,1.261330376848068258e-01
2.203999999999999915e+01,1.425491495560250732e-01
2.207999999999999829e+01,1.248741212855203619e-01
2.212000000000000099e+01,1.127887358280647567e-01
2.216000000000000014e+01,9.343864969914530971e-02
2.219999999999999929e+01,1.607164252642844515e-01
2.223999999999999844e+01,1.139825862347215307e-01
2.228000000000000114e+01,9.463486250086282359e-02
2.232000000000000028e+01,1.367651937792583594e-01
2.235999999999999943e+01,1.800140690605116223e-01
2.239999999999999858e+01,1.014269330671436209e-01
2.244000000000000128e+01,1.307052388534631349e-01
2.248000000000000043e+01,1.521599273516787698e-01
2.251999999999999957e+01,1.216391329432380264e-01
2.255999999999999872e+01,8.608913479259933110e-02
2.260000000000000142e+01,9.022067476893498583e-02
2.264000000000000057e+01,1.440936666644415109e-01
2.267999999999999972e+01,1.241946708778171732e-01
2.271999999999999886e+01,1.288873243651619260e-01
2.276000000000000156e+01,1.168141831270325393e-01
2.280000000000000071e+01,8.629859015536064937e-02
2.283999999999999986e+01,1.379397197015336807e-01
2.287999999999999901e+01,1.370464456878075221e-01
2.292000000000000171e+01,1.372716591645080642e-01
2.296000000000000085e+01,1.352620501520996887e-01
2.300000000000000000e+01,1.332531519092689798e-01
2.303999999999999915e+01,1.340393820185243889e-01
2.307999999999999829e+01,1.337085461765089300e-01
2.312000000000000099e+01,1.339372933180863201e-01
2.316000000000000014e+01,1.196357426634562099e-01
2.319999999999999929e+01,9.192165882366050422e-02
2.323999999999999844e+01,1.128311977063577165e-01
2.328000000000000114e+01,1.365358407215275238e-01
2.332000000000000028e+01,1.194426065744391974e-01
2.335999999999999943e+01,9.117236039106475787e-02
2.339999999999999858e+01,1.221445229363954943e-01
2.344000000000000128e+01,1.335564005149031952e-01
2.348000000000000043e+01,1.136714182897205910e-01
2.351999999999999957e+01,1.228490791970388851e-01
2.355999999999999872e+01,1.527061143429239709e-01
2.360000000000000142e+01,1.272342516509586408e-01
2.364000000000000057e+01,9.785084487617967675e-02
2.367999999999999972e+01,1.271509342500681816e-01
2.371999999999999886e+01,1.206830650100749747e-01
2.376000000000000156e+01,1.293057065874155254e-01
2.380000000000000071e+01,1.189269111923351441e-01
2.383999999999999986e+01,1.711437860662685106e-01
2.387999999999999901e+01,1.249976419118285637e-01
2.392000000000000171e+01,1.274750518576433789e-01
2.396000000000000085e+01,1.321886129898708073e-01
2.400000000000000000e+01,9.722199698524593148e-02
2.403999999999999915e+01,7.063925165587293942e-02
2.407999999999999829e+01,1.591872788151836582e-01
2.412000000000000099e+01,1.158392032971780061e-01
2.416000000000000014e+01,1.412344933174115580e-01
2.419999999999999929e+01,8.782768335022979322e-02
2.423999999999999844e+01,1.048408838195494380e-01
2.428000000000000114e+01,1.185013599442422128e-01
2.432000000000000028e+01,8.968720502015377349e-02
2.435999999999999943e+01,9.999552628871875848e-02
2.439999999999999858e+01,1.538973943039119441e-01
2.444000000000000128e+01,9.099300409216919128e-02
2.448000000000000043e+01,1.225406260216674870e-01
2.451999999999999957e+01,1.535299210060363795e-01
2.455999999999999872e+01,8.895054995890484817e-02
2.460000000000000142e+01,1.400607832484499493e-01
2.464000000000000057e+01,1.330475921293757524e-01
2.467999999999999972e+01,1.137394871184972400e-01
2.471999999999999886e+01,1.028151841606324557e-01
2.476000000000000156e+01,7.791930626629270384e-02
2.480000000000000071e+01,9.941135637166964578e-02
2.483999999999999986e+01,1.181095099438105867e-01
2.487999999999999901e+01,1.250716137649583171e-01
2.492000000000000171e+01,9.458898490269072867e-02
2.496000000000000085e+01,1.211130700463526194e-01
2.500000000000000000e+01,1.286355971195260184e-01
2.503999999999999915e+01,5.512040214134909105e-02
2.507999999999999829e+01,1.274745165470185237e-01
2.512000000000000099e+01,7.519792357000391891e-02
2.516000000000000014e+01,6.930922226328578573e-02
2.519999999999999929e+01,1.025429123805737391e-01
2.523999999999999844e+01,1.078328710266052287e-01
2.528000000000000114e+01,4.493942284958296618e-02
2.532000000000000028e+01,9.158777878835300257e-02
2.535999999999999943e+01,6.837606685939760787e-02
2.539999999999999858e+01,8.037453590468204845e-02
2.544000000000000128e+01,8.063689868654179416e-02
2.548000000000000043e+01,1.066084008644602593e-01
2.551999999999999957e+01,5.154213255180101899e-02
2.555999999999999872e+01,8.925111442065562783e-02
2.560000000000000142e+01,7.554318688830342909e-02
2.564000000000000057e+01,7.357227451004590135e-02
2.567999999999999972e+01,3.974539599115285010e-02
2.571999999999999886e+01,7.522060990683382409e-02
2.576000000000000156e+01,4.866009612227731318e-02
2.580000000000000071e+01,1.874670460220869556e-02
2.583999999999999986e+01,8.384407230272697409e-02
2.587999999999999901e+01,1.092610731460877810e-01
2.592000000000000171e+01,6.537683393311403968e-02
2.596000000000000085e+01,8.744135699216788737e-02
2.600000000000000000e+01,2.511475517848450745e-02
2.603999999999999915e+01,6.729992590735354996e-02
2.607999999999999829e+01,6.645140365312098008e-02
2.612000000000000099e+01,4.883674759882637717e-02
2.616000000000000014e+01,2.898694612724365266e-02
2.619999999999999929e+01,1.091778264612272981e-01
2.623999999999999844e+01,8.765214366437294735e-02
2.628000000000000114e+01,8.345225467419969956e-02
2.632000000000000028e+01,6.919282358681917711e-02
2.635999999999999943e+01,8.120132741406982380e-02
2.639999999999999858e+01,9.209243025206373390e-02
2.644000000000000128e+01,5.156653892020301305e-02
2.648000000000000043e+01,4.289741363138883934e-02
2.651999999999999957e+01,8.899930762572719201e-02
2.655999999999999872e+01,9.653853478831464496e-02
2.660000000000000142e+01,7.781054620663616084e-02
2.664000000000000057e+01,4.287525567288907880e-02
2.667999999999999972e+01,1.314537401060121291e-01
2.671999999999999886e+01,4.901395681512137059e-02
2.676000000000000156e+01,7.611583232234253593e-02
2.680000000000000071e+01,1.032180351219283976e-01
2.683999999999999986e+01,4.145795368955262905e-02
2.687999999999999901e+01,6.129530275437390652e-02
2.692000000000000171e+01,2.021457570513664204e-02
2.696000000000000085e+01,5.961350243224736167e-02
2.700000000000000000e+01,5.765529630587132998e-02
2.703999999999999915e+01,9.370152727215402821e-02
2.707999999999999829e+01,6.659412868268128893e-02
2.712000000000000099e+01,4.563475265479949999e-02
2.716000000000000014e+01,9.006513347705562278e-02
2.719999999999999929e+01,5.792864886201742891e-02
2.723999999999999844e+01,4.200009252756212869e-02
2.728000000000000114e+01,2.718958369388962265e-02
2.732000000000000028e+01,4.255910316314926584e-02
2.735999999999999943e+01,4.731009125972165941e-02
2.739999999999999858e+01,4.032477529935979410e-02
2.744000000000000128e+01,7.357939336092279847e-02
2.748000000000000043e+01,1.202474938643446206e-01
2.751999999999999957e+01,4.619683505570321841e-02
2.755999999999999872e+01,3.921254570264378486e-02
2.760000000000000142e+01,7.358594287274496104e-02
2.764000000000000057e+01,2.971577723146067926e-02
2.767999999999999972e+01,8.476837539381537612e-02
2.771999999999999886e+01,3.139764918518289649e-02
2.776000000000000156e+01,8.365629059285129010e-02
2.780000000000000071e+01,4.984697250921481249e-02
2.783999999999999986e+01,5.515977943383671561e-02
2.787999999999999901e+01,5.432507710051902305e-02
2.792000000000000171e+01,8.702364846403357057e-02
2.796000000000000085e+01,6.998172523827506097e-02
2.800000000000000000e+01,9.347030948685313562e-03
2.803999999999999915e+01,6.048940358122422561e-02
2.807999999999999829e+01,8.201110517228166197e-02
2.812000000000000099e+01,6.105779223734517092e-02
2.816000000000000014e+01,3.172140449296517034e-02
2.819999999999999929e+01,7.112797458999761679e-02
2.823999999999999844e+01,5.576406292714255336e-02
2.828000000000000114e+01,5.046024703116815113e-02
2.832000000000000028e+01,5.018656395107315427e-02
2.835999999999999943e+01,4.432420749763378576e-02
2.839999999999999858e+01,7.423061359708869877e-02
2.844000000000000128e+01,6.110308855390942512e-02
2.848000000000000043e+01,7.033109421868757871e-02
2.851999999999999957e+01,7.564706333517920434e-02
2.855999999999999872e+01,8.990533131469191641e-02
2.860000000000000142e+01,1.192536216826673018e-01
2.864000000000000057e+01,4.297291645691481143e-02
2.867999999999999972e+01,1.643305362339472081e-02
2.871999999999999886e+01,8.322700640363396574e-02
2.876000000000000156e+01,7.792501090966880151e-02
2.880000000000000071e+01,4.859111495360301375e-02
2.883999999999999986e+01,6.061478038602872292e-02
2.887999999999999901e+01,5.140095890225997860e-02
2.892000000000000171e+01,3.827506050418256339e-02
2.896000000000000085e+01,2.067819683137145370e-02
2.900000000000000000e+01,4.164445678153173847e-02
2.903999999999999915e+01,3.298994881175642407e-02
2.907999999999999829e+01,6.960516827761401015e-02
2.912000000000000099e+01,8.162957066473108814e-02
2.916000000000000014e+01,1.708690982104389688e-02
2.919999999999999929e+01,4.979020641864426860e-02
2.923999999999999844e+01,5.902044247534191795e-02
2.928000000000000114e+01,2.130447235400355008e-02
2.932000000000000028e+01,3.053485842015084273e-02
2.935999999999999943e+01,5.373742153167385127e-02
2.939999999999999858e+01,5.849686687028449184e-02
2.944000000000000128e+01,1.074082346674634925e-01
2.948000000000000043e+01,6.578039884546633964e-02
2.951999999999999957e+01,5.656790660856726022e-02
2.955999999999999872e+01,1.214575073768222810e-02
2.960000000000000142e+01,6.049843735148465601e-02
2.964000000000000057e+01,5.855157551489784118e-02
2.967999999999999972e+01,6.442913086882530449e-02
2.971999999999999886e+01,9.388327546537570539e-03
2.976000000000000156e+01,1.806036572377604787e-02
2.980000000000000071e+01,6.585433111576323439e-02
2.983999999999999986e+01,2.981566844501978841e-02
2.987999999999999901e+01,3.904665247786433951e-02
2.992000000000000171e+01,1.977454843316859417e-02
2.996000000000000085e+01,3.571216519005711992e-02
3.000000000000000000e+01,3.320660362499985863e-02
3.003999999999999915e+01,6.646963911214462395e-02
3.007999999999999829e+01,9.470271197587123990e-02
3.012000000000000099e+01,6.201738579736052609e-02
3.016000000000000014e+01,3.324423810338185403e-02
3.019999999999999929e+01,0.000000000000000000e+00
3.023999999999999844e+01,4.164624143336093098e-02
3.028000000000000114e+01,5.981931737416078948e-02
3.032000000000000028e+01,6.513802593841848398e-02
3.035999999999999943e+01,4.251248634633354034e-02
3.039999999999999858e+01,3.888897776236539816e-02
3.044000000000000128e+01,4.308980967346841967e-02
3.048000000000000043e+01,2.717076185193247062e-02
3.051999999999999957e+01,7.049340424390265758e-02
3.055999999999999872e+01,6.183975237216571968e-02
3.060000000000000142e+01,4.647943242971477873e-02
3.064000000000000057e+01,2.664797767523632149e-02
3.067999999999999972e+01,1.370365061132702567e-01
3.071999999999999886e+01,7.528859451942224168e-02
3.076000000000000156e+01,5.322139758569115198e-02
3.080000000000000071e+01,5.183284426552126761e-02
3.083999999999999986e+01,8.565392294168612530e-02
3.087999999999999901e+01,6.638090641368185607e-02
3.092000000000000171e+01,7.840532354205287380e-02
3.096000000000000085e+01,1.239627075854859151e-01
3.100000000000000000e+01,6.668527949476990568e-02
3.103999999999999915e+01,8.262159723728508542e-02
3.107999999999999829e+01,1.259431422230117281e-01
3.112000000000000099e+01,9.381519483206876564e-02
3.116000000000000014e+01,1.114278395640192210e-01
3.119999999999999929e+01,1.122738378474232579e-01
3.123999999999999844e+01,1.550360396470058799e-01
3.128000000000000114e+01,1.469396431716856466e-01
3.132000000000000028e+01,1.259887784047671044e-01
3.135999999999999943e+01,1.939003882452825789e-01
3.139999999999999858e+01,1.606537985570930804e-01
3.144000000000000128e+01,1.978264927170015619e-01
3.148000000000000043e+01,2.372345791821016958e-01
3.151999999999999957e+01,2.665825987917031514e-01
3.155999999999999872e+01,2.819583572424489981e-01
3.160000000000000142e+01,3.029228018315123228e-01
3.164000000000000057e+01,3.859232452283298254e-01
3.167999999999999972e+01,4.488036877944412972e-01
3.171999999999999886e+01,4.904463568455997291e-01
3.176000000000000156e+01,4.868192224208494623e-01
3.180000000000000071e+01,5.077828209613597377e-01
3.183999999999999986e+01,5.443949992493731793e-01
3.187999999999999901e+01,4.899088473982537995e-01
3.192000000000000171e+01,4.745444088219641365e-01
3.196000000000000085e+01,3.379018785469405928e-01
3.200000000000000000e+01,3.024172134178026994e-01
3.203999999999999915e+01,3.116430926919092625e-01
3.207999999999999829e+01,2.655392183684908702e-01
3.211999999999999744e+01,2.529681938986693135e-01
3.215999999999999659e+01,2.851077017222857779e-01
3.220000000000000284e+01,2.395620708856834868e-01
3.224000000000000199e+01,2.459924604790029723e-01
3.228000000000000114e+01,1.831209681962318314e-01
3.232000000000000028e+01,1.873153650133763393e-01
3.235999999999999943e+01,1.725074610252204932e-01
3.239999999999999858e+01,1.599348565004048150e-01
3.243999999999999773e+01,1.736295733266800256e-01
3.247999999999999687e+01,1.292000745702965858e-01
3.252000000000000313e+01,1.300399561017530625e-01
3.256000000000000227e+01,1.297618150072076537e-01
3.260000000000000142e+01,1.004214310589497117e-01
3.264000000000000057e+01,1.359113666225008066e-01
3.267999999999999972e+01,1.205425626300703351e-01
3.271999999999999886e+01,7.890592529323145476e-02
3.275999999999999801e+01,1.093650915680830643e-01
3.279999999999999716e+01,1.169097223682546427e-01
3.284000000000000341e+01,1.037753509524328294e-01
3.288000000000000256e+01,4.592994735966208358e-02
3.292000000000000171e+01,7.750574527065996755e-02
3.296000000000000085e+01,1.096401331610999813e-01
3.300000000000000000e+01,1.216543870129596361e-01
3.303999999999999915e+01,6.324891364564184937e-02
3.307999999999999829e+01,1.322687596555910672e-01
3.311999999999999744e+01,9.454138932471747858e-02
3.315999999999999659e+01,9.761226010547077725e-02
3.320000000000000284e+01,7.329748045494431652e-02
3.324000000000000199e+01,4.227576631795617462e-02
3.328000000000000114e+01,7.999649737389633031e-02
3.332000000000000028e+01,9.983259939372697567e-02
3.335999999999999943e+01,8.222311700706992632e-02
3.339999999999999858e+01,1.439748698561558737e-01
3.343999999999999773e+01,1.151870194624438626e-01
3.347999999999999687e+01,1.109897324966979404e-01
3.352000000000000313e+01,1.028799044073853419e-01
3.356000000000000227e+01,1.053885235772802215e-01
3.360000000000000142e+01,1.637852161993758604e-01
3.364000000000000057e+01,1.210234832430411717e-01
3.367999999999999972e+01,1.185010545986819736e-01
3.371999999999999886e+01,1.170960235621445189e-01
3.375999999999999801e+01,1.425170649926460753e-01
3.379999999999999716e+01,1.371990894999013388e-01
3.384000000000000341e+01,1.704437492012568223e-01
3.388000000000000256e+01,1.371807871815428626e-01
3.392000000000000171e+01,2.162531830272503841e-01
3.396000000000000085e+01,1.684584421058900050e-01
3.400000000000000000e+01,2.363523569196798457e-01
3.403999999999999915e+01,2.466807830471458851e-01
3.407999999999999829e+01,2.212402050807505682e-01
3.411999999999999744e+01,2.505698794430824550e-01
3.415999999999999659e+01,2.385416984001266782e-01
3.420000000000000284e+01,2.941381010606035074e-01
3.424000000000000199e+01,2.826679613467684704e-01
3.428000000000000114e+01,2.890816924429890911e-01
3.432000000000000028e+01,2.384887909204922163e-01
3.435999999999999943e+01,3.002312028607922456e-01
3.439999999999999858e+01,3.329111903002789363e-01
3.443999999999999773e+01,3.432353610882160067e-01
3.447999999999999687e+01,2.920818085204496262e-01
3.452000000000000313e+01,3.040817327727206032e-01
3.456000000000000227e+01,2.417495861481736841e-01
3.460000000000000142e+01,3.308746314343616324e-01
3.464000000000000057e+01,2.579227589304476376e-01
3.467999999999999972e+01,2.559487276336721018e-01
3.471999999999999886e+01,2.584452989725952166e-01
3.475999999999999801e+01,2.240550289477745149e-01
3.479999999999999716e+01,2.483471328961979752e-01
3.484000000000000341e+01,2.083670555403870916e-01
3.488000000000000256e+01,2.097439300461289291e-01
3.492000000000000171e+01,2.474477934624216557e-01
3.496000000000000085e+01,2.477059110081370752e-01
3.500000000000000000e+01,2.060472040560958062e-01
3.503999999999999915e+01,1.638291085325357943e-01
3.507999999999999829e+01,1.383770344393417950e-01
3.511999999999999744e+01,1.660184587883525020e-01
3.515999999999999659e+01,1.679506878840404949e-01
3.520000000000000284e+01,1.503214452518469857e-01
3.524000000000000199e+01,1.472226706083219760e-01
3.528000000000000114e+01,1.603310128883297381e-01
3.532000000000000028e+01,1.846165091408686898e-01
3.535999999999999943e+01,1.708973348329856923e-01
3.539999999999999858e+01,1.610898102147413080e-01
3.543999999999999773e+01,2.149945538985047200e-01
3.547999999999999687e+01,2.398367640931943490e-01
3.552000000000000313e+01,2.188499070475428965e-01
3.556000000000000227e+01,2.403377018888503691e-01
3.560000000000000142e+01,2.640604732653186182e-01
3.564000000000000057e+01,2.525729674442599437e-01
3.567999999999999972e+01,3.047977057055960559e-01
3.571999999999999886e+01,2.648059576663400194e-01
3.575999999999999801e+01,3.522392585520010000e-01
3.579999999999999716e+01,3.329250726444890618e-01
3.584000000000000341e+01,4.052673308640708516e-01
3.588000000000000256e+01,4.211616833612704669e-01
3.592000000000000171e+01,4.532630881963667924e-01
3.596000000000000085e+01,5.026893099804025100e-01
3.600000000000000000e+01,5.353484009236226804e-01
3.603999999999999915e+01,5.937155655999099002e-01
3.607999999999999829e+01,6.492876994577315708e-01
3.611999999999999744e+01,7.300090146515934020e-01
3.615999999999999659e+01,7.363980975045482102e-01
3.620000000000000284e+01,7.679363536203387408e-01
3.624000000000000199e+01,7.234657163505509025e-01
3.628000000000000114e+01,7.270585015471033863e-01
3.632000000000000028e+01,7.401516868296642571e-01
3.635999999999999943e+01,7.135634476652809033e-01
3.639999999999999858e+01,6.517648546079284344e-01
3.643999999999999773e+01,6.704449586521927795e-01
3.647999999999999687e+01,6.136750294150875584e-01
3.652000000000000313e+01,6.474437070351939383e-01
3.656000000000000227e+01,5.185763887844679898e-01
3.660000000000000142e+01,4.679522141936616197e-01
3.664000000000000057e+01,4.542137392633316950e-01
3.667999999999999972e+01,4.253847178414151831e-01
3.671999999999999886e+01,4.127626680253505542e-01
3.675999999999999801e+01,3.772256831109843667e-01
3.679999999999999716e+01,3.925464898062401842e-01
3.684000000000000341e+01,3.709802452344356238e-01
3.688000000000000256e+01,3.594732285600303334e-01
3.692000000000000171e+01,3.211390703741594521e-01
3.696000000000000085e+01,3.426048368326561344e-01
3.700000000000000000e+01,2.640296072857785670e-01
3.703999999999999915e+01,2.972305364255257709e-01
3.707999999999999829e+01,2.644824052398465075e-01
3.711999999999999744e+01,2.501767425892856833e-01
3.715999999999999659e+01,2.744333800948389745e-01
3.720000000000000284e+01,2.947771051094195127e-01
3.724000000000000199e+01,2.340818769089663409e-01
3.728000000000000114e+01,2.248032762027302456e-01
3.732000000000000028e+01,2.473803476203335627e-01
3.735999999999999943e+01,2.341880839426916383e-01
3.739999999999999858e+01,2.086996227337332976e-01
3.743999999999999773e+01,2.111546312720523622e-01
3.747999999999999687e+01,2.409942211972242732e-01
3.752000000000000313e+01,2.535076425668735811e-01
3.756000000000000227e+01,2.755213388878619551e-01
3.760000000000000142e+01,2.517057580651928528e-01
3.764000000000000057e+01,2.474503619494572426e-01
3.767999999999999972e+01,2.951704372857388292e-01
3.771999999999999886e+01,3.395364319790405983e-01
3.775999999999999801e+01,3.280132155534769556e-01
3.779999999999999716e+01,4.025574022232757398e-01
3.784000000000000341e+01,4.228890226724708601e-01
3.788000000000000256e+01,4.292477441796566096e-01
3.792000000000000171e+01,5.082606329006655876e-01
3.796000000000000085e+01,6.420433864365869825e-01
3.800000000000000000e+01,7.322323597581170684e-01
3.803999999999999915e+01,8.749556525260662188e-01
3.807999999999999829e+01,9.500531310820664599e-01
3.811999999999999744e+01,1.000000000000000000e+00
3.815999999999999659e+01,9.303448045173188241e-01
3.820000000000000284e+01,9.339026323160679599e-01
3.824000000000000199e+01,8.642457865182372467e-01
3.828000000000000114e+01,8.616542283665887814e-01
3.832000000000000028e+01,7.651692685637359048e-01
3.835999999999999943e+01,7.961090953066543019e-01
3.839999999999999858e+01,7.264489004392983285e-01
3.843999999999999773e+01,7.361494321958029774e-01
3.847999999999999687e+01,6.631342326311376878e-01
3.852000000000000313e+01,6.230923527398884998e-01
3.856000000000000227e+01,5.824907290561238682e-01
3.860000000000000142e+01,5.659202677914162427e-01
3.864000000000000057e+01,4.973726968693489847e-01
3.867999999999999972e+01,4.601217765028225992e-01
3.871999999999999886e+01,4.312532453785258846e-01
3.875999999999999801e+01,4.286513978221661580e-01
3.879999999999999716e+01,3.880445325575923032e-01
3.884000000000000341e+01,4.094729395123691829e-01
3.888000000000000256e+01,3.671876417899075928e-01
3.892000000000000171e+01,3.388735563648863081e-01
3.896000000000000085e+01,3.345905970295020015e-01
3.900000000000000000e+01,2.542984657829846507e-01
3.903999999999999915e+01,2.371593552204517008e-01
3.907999999999999829e+01,2.328736721613055838e-01
3.911999999999999744e+01,2.224393455589905588e-01
3.915999999999999659e+01,2.980722848075618714e-01
3.920000000000000284e+01,2.490730957894607689e-01
3.924000000000000199e+01,2.542847580911777317e-01
3.928000000000000114e+01,2.142258580357653264e-01
3.932000000000000028e+01,2.915317298188715989e-01
3.935999999999999943e+01,2.481176474556513745e-01
3.939999999999999858e+01,2.700920867422839655e-01
3.943999999999999773e+01,2.501492534683109059e-01
3.947999999999999687e+01,2.112034008738391255e-01
3.952000000000000313e+01,2.672669269819881732e-01
3.956000000000000227e+01,2.657644073527041240e-01
3.960000000000000142e+01,2.592309643886689385e-01
3.964000000000000057e+01,2.649920080917670950e-01
3.967999999999999972e+01,2.483967063484220916e-01
3.971999999999999886e+01,2.496847264372278885e-01
3.975999999999999801e+01,2.543250719022056017e-01
3.979999999999999716e+01,2.802020370690626594e-01
3.984000000000000341e+01,2.406885477087608582e-01
3.988000000000000256e+01,2.844478299213941686e-01
3.992000000000000171e+01,2.220180938946460514e-01
3.996000000000000085e+01,2.937195948354456854e-01
4.000000000000000000e+01,2.994717407788554109e-01
4.003999999999999915e+01,2.817497362987574361e-01
4.007999999999999829e+01,2.835876702928564752e-01
4.011999999999999744e+01,3.027500014292617281e-01
4.015999999999999659e+01,2.772005657271102153e-01
4.020000000000000284e+01,3.248639514762771130e-01
4.024000000000000199e+01,3.250211406945719417e-01
4.028000000000000114e+01,3.514448600899186537e-01
4.032000000000000028e+01,3.253324159667894122e-01
4.035999999999999943e+01,2.813346323655564474e-01
4.039999999999999858e+01,3.245217581281845676e-01
4.043999999999999773e+01,3.168493612339965959e-01
4.047999999999999687e+01,3.427089705435372169e-01
4.052000000000000313e+01,3.327989258662558680e-01
4.056000000000000227e+01,3.061212901755040461e-01
4.060000000000000142e+01,3.291832939695167881e-01
4.064000000000000057e+01,3.265355494956997395e-01
4.067999999999999972e+01,3.255633845847368812e-01
4.071999999999999886e+01,3.245901422285592530e-01
4.075999999999999801e+01,3.498833816102064342e-01
4.079999999999999716e+01,3.567323527873030864e-01
4.084000000000000341e+01,3.389893241612030872e-01
4.088000000000000256e+01,3.290695824769896971e-01
4.092000000000000171e+01,3.644183733941459002e-01
4.096000000000000085e+01,3.796462269888761232e-01
4.100000000000000000e+01,3.445733857381808596e-01
4.103999999999999915e+01,3.335314606738064569e-01
4.107999999999999829e+01,3.208117688633304598e-01
4.111999999999999744e+01,3.650971602714783160e-01
4.115999999999999659e+01,3.741717174309905913e-01
4.120000000000000284e+01,3.312689065905997099e-01
4.124000000000000199e+01,3.403412079446266336e-01
4.128000000000000114e+01,3.482946066933629847e-01
4.132000000000000028e+01,3.584824047431399152e-01
4.135999999999999943e+01,3.284293894468703345e-01
4.139999999999999858e+01,3.073173772643025270e-01
4.143999999999999773e+01,3.286794235881645432e-01
4.147999999999999687e+01,3.220960995802609750e-01
4.152000000000000313e+01,2.635353752796364968e-01
4.156000000000000227e+01,3.139559319104727186e-01
4.160000000000000142e+01,2.978680877560070939e-01
4.164000000000000057e+01,2.739546927809651256e-01
4.167999999999999972e+01,2.886031418259840664e-01
4.171999999999999886e+01,2.350665250044280952e-01
4.175999999999999801e+01,2.843634413692778251e-01
4.179999999999999716e+01,2.643575151467037476e-01
4.184000000000000341e+01,2.516158946637405136e-01
4.188000000000000256e+01,2.439030385884971008e-01
4.192000000000000171e+01,2.121569580456186821e-01
4.196000000000000085e+01,2.457991408100494990e-01
4.200000000000000000e+01,2.045496175658239602e-01
4.203999999999999915e+01,2.085685138981050457e-01
4.207999999999999829e+01,2.176161544550948568e-01
4.211999999999999744e+01,1.813929460561961859e-01
4.215999999999999659e+01,1.680827721711109501e-01
4.220000000000000284e+01,1.558891401341725158e-01
4.224000000000000199e+01,2.046126685577503712e-01
4.228000000000000114e+01,1.622368173256132640e-01
4.232000000000000028e+01,1.366262568988367010e-01
4.235999999999999943e+01,1.411942070125506987e-01
4.239999999999999858e+01,1.401720669055343538e-01
4.243999999999999773e+01,1.581507427893604489e-01
4.247999999999999687e+01,1.459484101310765669e-01
4.252000000000000313e+01,1.678367621336292193e-01
4.256000000000000227e+01,1.304821126821144872e-01
4.260000000000000142e+01,1.383958262946753670e-01
4.264000000000000057e+01,1.284239703428047275e-01
4.267999999999999972e+01,1.290696413048307845e-01
4.271999999999999886e+01,1.107119659815766072e-01
4.275999999999999801e+01,9.235300734639355358e-02
4.279999999999999716e+01,1.075258207920090636e-01
4.284000000000000341e+01,1.226973428524913562e-01
4.288000000000000256e+01,1.328376105768385440e-01
4.292000000000000171e+01,1.491243064048916878e-01
4.296000000000000085e+01,1.072857290604994907e-01
4.300000000000000000e+01,9.897890361389471980e-02
4.303999999999999915e+01,8.061084877034659091e-02
4.307999999999999829e+01,1.002456123419587508e-01
4.311999999999999744e+01,1.109369070910672661e-01
4.315999999999999659e+01,1.121258446572476336e-01
4.320000000000000284e+01,1.049301896515418553e-01
4.324000000000000199e+01,5.246357266508502176e-02
4.328000000000000114e+01,1.218324024841022091e-01
4.332000000000000028e+01,8.668852392401418805e-02
4.335999999999999943e+01,1.286693381904225053e-01
4.339999999999999858e+01,1.309680175678923642e-01
4.343999999999999773e+01,7.905356560044496383e-02
4.347999999999999687e+01,1.199125554167080471e-01
4.352000000000000313e+01,1.350615063297798402e-01
4.356000000000000227e+01,1.094105375598600077e-01
4.360000000000000142e+01,8.934704394758585799e-02
4.364000000000000057e+01,9.107866684719786998e-02
4.367999999999999972e+01,1.263419730223594439e-01
4.371999999999999886e+01,1.023621606819888341e-01
4.375999999999999801e+01,1.080018332772079565e-01
4.379999999999999716e+01,9.855024086564165287e-02
4.384000000000000341e+01,1.371613080025920195e-01
4.388000000000000256e+01,1.511800685545755807e-01
4.392000000000000171e+01,1.299877163323688578e-01
4.396000000000000085e+01,1.551813585774056703e-01
4.400000000000000000e+01,1.535471448323802723e-01
4.403999999999999915e+01,1.502348656326876197e-01
4.407999999999999829e+01,1.726298488090119154e-01
4.411999999999999744e+01,1.916701054859981934e-01
4.415999999999999659e+01,1.559382738354047060e-01
4.420000000000000284e+01,2.034787778047047191e-01
4.424000000000000199e+01,1.649496632391790063e-01
4.428000000000000114e+01,2.387548610590948805e-01
4.432000000000000028e+01,2.125183241754266816e-01
4.435999999999999943e+01,1.907514171063172670e-01
4.439999999999999858e+01,1.902206655298295246e-01
4.443999999999999773e+01,1.963950729899847092e-01
4.447999999999999687e+01,1.595339306300078697e-01
4.452000000000000313e+01,1.718531478439540572e-01
4.456000000000000227e+01,2.109973476423346317e-01
4.460000000000000142e+01,1.763673477005571755e-01
4.464000000000000057e+01,1.367059158121462226e-01
4.467999999999999972e+01,1.523725549132932955e-01
4.471999999999999886e+01,9.985382540269738261e-02
4.475999999999999801e+01,7.639559558881325874e-02
4.479999999999999716e+01,1.278263759884559481e-01
4.484000000000000341e+01,1.373393388861910980e-01
4.488000000000000256e+01,1.261720845506583699e-01
4.492000000000000171e+01,1.367998175557401386e-01
4.496000000000000085e+01,1.094219112158627272e-01
4.500000000000000000e+01,9.042576037166331904e-02
4.503999999999999915e+01,8.148801395800631120e-02
4.507999999999999829e+01,7.143098146184606589e-02
4.511999999999999744e+01,8.205114747564509758e-02
4.515999999999999659e+01,1.038474744578239545e-01
4.520000000000000284e+01,3.510301143614637936e-02
4.524000000000000199e+01,7.422168933087916476e-02
4.528000000000000114e+01,8.315907612134491866e-02
4.532000000000000028e+01,7.868169748560634169e-02
4.535999999999999943e+01,1.099713698834118986e-01
4.539999999999999858e+01,7.195783639959210665e-02
4.543999999999999773e+01,1.032444053054419747e-01
4.547999999999999687e+01,6.299222296117321096e-02
4.552000000000000313e+01,5.403600091346243833e-02
4.556000000000000227e+01,7.749350377335154083e-02
4.560000000000000142e+01,6.462195567411180286e-02
4.564000000000000057e+01,5.901432983727003534e-02
4.567999999999999972e+01,6.178839087386851781e-02
4.571999999999999886e+01,4.667657152766286482e-02
4.575999999999999801e+01,2.709209153378297139e-02
4.579999999999999716e+01,6.283556950459835699e-02
4.584000000000000341e+01,5.163117014405034511e-02
4.588000000000000256e+01,6.333942989330765272e-02
4.592000000000000171e+01,3.480641612386310008e-02
4.596000000000000085e+01,6.327799714417130239e-02
4.600000000000000000e+01,5.486160251550627892e-02
4.603999999999999915e+01,3.470702277326310342e-02
4.607999999999999829e+01,3.690619763399176356e-02
4.611999999999999744e+01,7.151904088988907116e-02
4.615999999999999659e+01,6.812612370275961116e-02
4.620000000000000284e+01,6.752599767501950290e-02
4.624000000000000199e+01,8.089634524650969605e-02
4.628000000000000114e+01,6.296753215103260970e-02
4.632000000000000028e+01,7.354017700095778765e-02
4.635999999999999943e+01,9.417109307355121806e-02
4.639999999999999858e+01,6.561853800706149431e-02
4.643999999999999773e+01,8.121618984318780543e-02
4.647999999999999687e+01,1.163731342971527916e-01
4.652000000000000313e+01,6.825465174907541233e-02
4.656000000000000227e+01,6.596301696527405445e-02
4.660000000000000142e+01,6.758190162248385591e-02
4.664000000000000057e+01,6.193361520765928996e-02
4.667999999999999972e+01,6.746133637032956931e-02
4.671999999999999886e+01,7.745844918802664847e-02
4.675999999999999801e+01,6.565738640450613506e-02
4.679999999999999716e+01,8.347550177480542177e-02
4.684000000000000341e+01,8.228985508979372310e-02
4.688000000000000256e+01,8.445581526575526854e-02
4.692000000000000171e+01,9.779775879959828888e-02
4.696000000000000085e+01,7.592828277748070454e-02
4.700000000000000000e+01,1.082688749743469236e-01
4.703999999999999915e+01,7.913047632240624574e-02
4.707999999999999829e+01,7.569903730131433139e-02
4.711999999999999744e+01,1.136233149414898197e-01
4.715999999999999659e+01,1.085117723091829217e-01
4.720000000000000284e+01,5.812886807250328830e-02
4.724000000000000199e+01,7.313369431163711798e-02
4.728000000000000114e+01,1.032266578459873629e-01
4.732000000000000028e+01,1.143158108857998678e-01
4.735999999999999943e+01,1.209321418138484122e-01
4.739999999999999858e+01,1.146923817361982650e-01
4.743999999999999773e+01,1.218640898358893665e-01
4.747999999999999687e+01,1.077964339993446735e-01
4.752000000000000313e+01,1.177590404195578144e-01
4.756000000000000227e+01,1.361031439929057396e-01
4.760000000000000142e+01,1.074991926243916152e-01
4.764000000000000057e+01,1.029254914028285978e-01
4.767999999999999972e+01,1.078510438722378589e-01
4.771999999999999886e+01,1.189225400530843635e-01
4.775999999999999801e+01,1.115490656605902797e-01
4.779999999999999716e+01,9.914384042988573509e-02
4.784000000000000341e+01,8.953124085787859954e-02
4.788000000000000256e+01,9.724225532734293020e-02
4.792000000000000171e+01,1.194824581825657400e-01
4.796000000000000085e+01,7.018365951833119287e-02
4.800000000000000000e+01,1.091867719111764973e-01
4.803999999999999915e+01,9.788847901660230333e-02
4.807999999999999829e+01,9.888382106608882560e-02
4.811999999999999744e+01,6.354985785050558389e-02
4.815999999999999659e+01,8.913245767830696442e-02
4.820000000000000284e+01,9.906446414925425270e-02
4.824000000000000199e+01,7.602045918825800497e-02
4.828000000000000114e+01,8.930209491266445643e-02
4.832000000000000028e+01,1.176717629806291326e-01
4.835999999999999943e+01,4.208709838142833670e-02
4.839999999999999858e+01,1.190760017128342230e-01
4.843999999999999773e+01,8.819837403711504320e-02
4.847999999999999687e+01,8.749863930174350823e-02
4.852000000000000313e+01,1.013280324030968599e-01
4.856000000000000227e+01,6.988592665560108830e-02
4.860000000000000142e+01,8.762376874859992282e-02
4.864000000000000057e+01,7.070890607216624713e-02
4.867999999999999972e+01,9.235518101040164629e-02
4.871999999999999886e+01,9.276196687773206884e-02
4.875999999999999801e+01,6.745818504697786988e-02
4.879999999999999716e+01,4.382916334882298870e-02
4.884000000000000341e+01,7.888109877652627056e-02
4.888000000000000256e+01,6.027823820522983794e-02
4.892000000000000171e+01,6.794103590490144229e-02
4.896000000000000085e+01,4.262774951378912186e-02
4.900000000000000000e+01,4.861007223483967965e-02
4.903999999999999915e+01,7.247477625971905646e-02
4.907999999999999829e+01,6.392226840782984365e-02
4.911999999999999744e+01,7.548767108185362729e-02
4.915999999999999659e+01,7.363792081585807114e-02
4.920000000000000284e+01,5.557859195413008407e-02
4.924000000000000199e+01,7.105038528024039401e-02
4.928000000000000114e+01,7.981362544239049839e-02
4.932000000000000028e+01,8.019165543251198514e-02
4.935999999999999943e+01,5.988901608991475944e-02
4.939999999999999858e+01,9.323731844634472465e-02
4.943999999999999773e+01,6.175308181490047482e-02
4.947999999999999687e+01,4.368010749408288151e-02
4.952000000000000313e+01,3.454731685671257740e-02
4.956000000000000227e+01,8.353652636253765251e-02
4.960000000000000142e+01,8.166528882963376701e-02
4.964000000000000057e+01,8.146872666068229185e-02
4.967999999999999972e+01,5.947369421854970667e-02
4.971999999999999886e+01,6.318535499151821389e-02
4.975999999999999801e+01,5.236403362778949827e-02
4.979999999999999716e+01,4.433514012924830161e-02
4.984000000000000341e+01,5.362966287866897247e-02
4.988000000000000256e+01,8.974863134442591373e-02
4.992000000000000171e+01,9.289141884094528900e-02
4.996000000000000085e+01,5.076256620753703819e-02
5.000000000000000000e+01,8.240443038172032275e-02
5.003999999999999915e+01,7.604014256245972270e-02
5.007999999999999829e+01,8.196928785714790999e-02
5.011999999999999744e+01,5.101004173283213428e-02
5.015999999999999659e+01,4.799298171628127441e-02
5.020000000000000284e+01,7.180033512324883460e-02
5.024000000000000199e+01,5.871928500140569107e-02
5.028000000000000114e+01,7.637483049663158774e-02
5.032000000000000028e+01,6.664299789481913094e-02
5.035999999999999943e+01,3.846593234052064769e-02
5.039999999999999858e+01,7.008743513223714139e-02
5.043999999999999773e+01,7.432154771710844376e-02
5.047999999999999687e+01,6.737591144937533916e-02
5.052000000000000313e+01,7.551808551207710163e-02
5.056000000000000227e+01,5.906727887723799142e-02
5.060000000000000142e+01,1.001794831101139177e-01
5.064000000000000057e+01,8.540117643820303861e-02
5.067999999999999972e+01,7.732739909298569358e-02
5.071999999999999886e+01,7.931145298079277095e-02
5.075999999999999801e+01,8.241118488386717233e-02
5.079999999999999716e+01,8.830324373707329477e-02
5.084000000000000341e+01,6.680787201741196502e-02
5.088000000000000256e+01,5.872362132729877504e-02
5.092000000000000171e+01,7.187486816364208053e-02
5.096000000000000085e+01,4.478433286940138036e-02
5.100000000000000000e+01,8.475780158183010560e-02
5.103999999999999915e+01,5.822191687082863693e-02
5.107999999999999829e+01,8.813122594067100690e-02
5.111999999999999744e+01,9.624191941965185015e-02
5.115999999999999659e+01,7.752403435676953614e-02
5.120000000000000284e+01,5.656847696359679906e-02
5.124000000000000199e+01,6.579053398521723939e-02
5.128000000000000114e+01,6.998048898423231412e-02
5.132000000000000028e+01,6.690280062875073042e-02
5.135999999999999943e+01,8.897275566385630385e-02
5.139999999999999858e+01,8.812629820424019989e-02
5.143999999999999773e+01,7.721776366121008151e-02
5.147999999999999687e+01,5.680603232198600666e-02
5.152000000000000313e+01,8.389730117982646673e-02
5.156000000000000227e+01,8.918991004418069801e-02
5.160000000000000142e+01,9.392145918368897950e-02
5.164000000000000057e+01,8.188429917090592203e-02
5.167999999999999972e+01,8.381706377944857234e-02
5.171999999999999886e+01,5.612677171458581998e-02
5.175999999999999801e+01,6.476176915073091067e-02
5.179999999999999716e+01,7.954229856488471972e-02
5.184000000000000341e+01,7.699521431991405984e-02
5.188000000000000256e+01,8.785915018943557531e-02
5.192000000000000171e+01,7.692438973605070229e-02
5.196000000000000085e+01,6.822295484751042527e-02
5.200000000000000000e+01,6.399037878250123101e-02
5.203999999999999915e+01,8.322872451437429708e-02
5.207999999999999829e+01,8.066835777693201481e-02
5.211999999999999744e+01,6.748696101001559755e-02
5.215999999999999659e+01,6.100994421550978708e-02
5.220000000000000284e+01,5.564846011859073821e-02
5.224000000000000199e+01,7.264010898789867443e-02
5.228000000000000114e+01,6.224418196665833236e-02
5.232000000000000028e+01,8.985014090546096510e-02
5.235999999999999943e+01,8.615632561375580201e-02
5.239999999999999858e+01,9.140240337013659511e-02
5.243999999999999773e+01,9.776398960449066144e-02
5.247999999999999687e+01,8.679789759408430838e-02
5.252000000000000313e+01,7.582953734080252750e-02
5.256000000000000227e+01,8.274320317035228911e-02
5.260000000000000142e+01,8.071244350266741641e-02
5.264000000000000057e+01,7.364944456790097072e-02
5.267999999999999972e+01,7.999738501558199821e-02
5.271999999999999886e+01,7.628311920857729078e-02
5.275999999999999801e+01,8.150871012023838680e-02
5.279999999999999716e+01,1.062929558665842572e-01
5.284000000000000341e+01,8.915857679057410945e-02
5.288000000000000256e+01,1.010838779810209892e-01
5.292000000000000171e+01,8.562153869528386918e-02
5.296000000000000085e+01,9.921887160279922735e-02
5.300000000000000000e+01,7.872194407506007130e-02
5.303999999999999915e+01,8.169583742914741931e-02
5.307999999999999829e+01,1.003161670949484635e-01
5.311999999999999744e+01,9.601991069213160201e-02
5.315999999999999659e+01,8.110251930818236643e-02
5.320000000000000284e+01,8.239043644996228710e-02
5.324000000000000199e+01,9.541258349029195507e-02
5.328000000000000114e+01,1.156978818019917532e-01
5.332000000000000028e+01,8.903454793770927689e-02
5.335999999999999943e+01,1.042851853485667613e-01
5.339999999999999858e+01,1.050024732919230958e-01
5.343999999999999773e+01,8.559756449295455316e-02
5.347999999999999687e+01,9.581115973523154916e-02
5.352000000000000313e+01,1.032279642004661629e-01
5.356000000000000227e+01,8.996367548974694428e-02
5.360000000000000142e+01,8.563915872904644122e-02
5.364000000000000057e+01,8.466556664354067674e-02
5.367999999999999972e+01,7.586520872018413797e-02
5.371999999999999886e+01,1.056254797996145356e-01
5.375999999999999801e+01,1.119102159009690151e-01
5.379999999999999716e+01,9.527829731146732206e-02
5.384000000000000341e+01,7.976174591886074638e-02
5.388000000000000256e+01,7.989155010592308148e-02
5.392000000000000171e+01,9.063774692165270375e-02
5.396000000000000085e+01,9.243938099567160227e-02
5.400000000000000000e+01,9.535636612017640845e-02
5.403999999999999915e+01,8.765212745829946417e-02
5.407999999999999829e+01,7.547438853548234239e-02
5.411999999999999744e+01,7.447190638214347402e-02
5.415999999999999659e+01,8.129137101874756022e-02
5.420000000000000284e+01,8.475509193224915749e-02
5.424000000000000199e+01,1.094539753342213539e-01
5.428000000000000114e+01,9.055743562469044383e-02
5.432000000000000028e+01,9.457270330189204710e-02
5.435999999999999943e+01,8.852559922371618095e-02
5.439999999999999858e+01,9.588926095409150419e-02
5.443999999999999773e+01,1.121926098658384413e-01
5.447999999999999687e+01,1.145213846456460405e-01
5.452000000000000313e+01,9.784562234251249768e-02
5.456000000000000227e+01,9.905168429209851300e-02
5.460000000000000142e+01,9.298977188580447029e-02
5.464000000000000057e+01,7.630657514409512621e-02
5.467999999999999972e+01,9.371283593614126994e-02
5.471999999999999886e+01,1.004978043195677573e-01
5.475999999999999801e+01,9.889701355306083908e-02
5.479999999999999716e+01,1.067947579623274718e-01
5.484000000000000341e+01,1.320154140442758861e-01
5.488000000000000256e+01,1.074928589036438925e-01
5.492000000000000171e+01,7.570229711431387953e-02
5.496000000000000085e+01,7.576562730723511441e-02
5.500000000000000000e+01,9.147520005496266593e-02
5.503999999999999915e+01,1.027111756632963641e-01
5.507999999999999829e+01,1.010902852383012696e-01
5.511999999999999744e+01,1.190278155250609898e-01
5.515999999999999659e+01,9.169318092360198569e-02
5.520000000000000284e+01,1.034779102944690249e-01
5.524000000000000199e+01,9.905245154266538454e-02
5.528000000000000114e+01,8.680006548892144069e-02
5.532000000000000028e+01,1.119903783262302666e-01
5.535999999999999943e+01,1.209704909310617693e-01
5.539999999999999858e+01,9.362056360921568177e-02
5.543999999999999773e+01,1.137732408974148346e-01
5.547999999999999687e+01,1.082146723383529685e-01
5.552000000000000313e+01,1.305977489823559601e-01
5.556000000000000227e+01,7.473444526661005005e-02
5.560000000000000142e+01,1.088489386249848340e-01
5.564000000000000057e+01,1.144577483705789406e-01
5.567999999999999972e+01,1.362716163725636309e-01
5.571999999999999886e+01,1.435519007841170869e-01
5.575999999999999801e+01,1.228853737969052978e-01
5.579999999999999716e+01,1.402203815853416968e-01
5.584000000000000341e+01,9.942881641541144455e-02
5.588000000000000256e+01,1.284951844057882764e-01
5.592000000000000171e+01,1.094948891933929108e-01
5.596000000000000085e+01,1.637058250110333402e-01
5.600000000000000000e+01,1.402292203901221168e-01
5.603999999999999915e+01,1.491652830870240087e-01
5.607999999999999829e+01,1.564220653119846594e-01
5.611999999999999744e+01,1.603229100569351084e-01
5.615999999999999659e+01,1.351591343894535113e-01
5.620000000000000284e+01,1.535856963698195299e-01
5.624000000000000199e+01,1.630674655221469593e-01
5.628000000000000114e+01,1.814887361721429504e-01
5.632000000000000028e+01,1.490488816342335765e-01
5.635999999999999943e+01,1.970857139700256389e-01
5.639999999999999858e+01,1.702293871203546805e-01
5.643999999999999773e+01,2.177020115091367336e-01
5.647999999999999687e+01,2.159901475350710087e-01
5.652000000000000313e+01,2.466909024395914640e-01
5.656000000000000227e+01,2.494447652133017224e-01
5.660000000000000142e+01,2.739924366397726851e-01
5.664000000000000057e+01,2.588566370619635459e-01
5.667999999999999972e+01,2.481892240252233928e-01
5.671999999999999886e+01,2.598744918552590155e-01
5.675999999999999801e+01,2.436128473714736231e-01
5.679999999999999716e+01,2.346139989380610913e-01
5.684000000000000341e+01,2.205824873943316444e-01
5.688000000000000256e+01,2.065482676180826482e-01
5.692000000000000171e+01,1.891580296297785957e-01
5.696000000000000085e+01,1.896493736980599254e-01
5.700000000000000000e+01,1.879024601287261620e-01
5.703999999999999915e+01,1.705040611134431283e-01
5.707999999999999829e+01,1.721050006925829157e-01
5.711999999999999744e+01,1.904697375342544741e-01
5.715999999999999659e+01,1.434422719999974838e-01
5.720000000000000284e+01,1.735381026278617622e-01
5.724000000000000199e+01,1.080619693201957943e-01
5.728000000000000114e+01,1.666554073025087179e-01
5.732000000000000028e+01,1.324712948951976832e-01
5.735999999999999943e+01,1.362885598360474848e-01
5.739999999999999858e+01,1.294842619159273789e-01
5.743999999999999773e+01,1.495036467943202385e-01
5.747999999999999687e+01,1.426938153476957627e-01
5.752000000000000313e+01,1.386756327020267909e-01
5.756000000000000227e+01,1.357724418492443352e-01
5.760000000000000142e+01,1.239243209239472981e-01
5.764000000000000057e+01,1.266044074900644079e-01
5.767999999999999972e+01,1.426949288633490298e-01
5.771999999999999886e+01,9.842315026267303701e-02
5.775999999999999801e+01,1.251268837496431197e-01
5.779999999999999716e+01,1.149414507899791799e-01
5.784000000000000341e+01,1.282263543198727540e-01
5.788000000000000256e+01,1.197119600731262334e-01
5.792000000000000171e+01,1.229313234424673495e-01
5.796000000000000085e+01,1.015569593428529288e-01
5.800000000000000000e+01,1.209783296248743284e-01
5.803999999999999915e+01,9.792166600242638297e-02
5.807999999999999829e+01,1.128663070692990933e-01
5.811999999999999744e+01,1.317203050357377836e-01
5.815999999999999659e+01,1.187150591405216893e-01
5.820000000000000284e+01,1.213557328719327422e-01
5.824000000000000199e+01,7.760616224910800443e-02
5.828000000000000114e+01,7.353452910405915144e-02
5.832000000000000028e+01,8.790322509494150061e-02
5.835999999999999943e+01,1.251833207757301059e-01
5.839999999999999858e+01,8.309898085036629412e-02
5.843999999999999773e+01,7.957479360872500573e-02
5.847999999999999687e+01,1.067863744806937243e-01
5.852000000000000313e+01,1.284062383812290820e-01
5.856000000000000227e+01,9.748809807266711758e-02
5.860000000000000142e+01,1.040123256537746205e-01
5.864000000000000057e+01,8.706052579133266578e-02
5.867999999999999972e+01,8.128352252571356684e-02
5.871999999999999886e+01,1.090366847732018724e-01
5.875999999999999801e+01,7.475078912360463845e-02
5.879999999999999716e+01,9.132046495239742878e-02
5.884000000000000341e+01,1.196238055554264129e-01
5.888000000000000256e+01,1.305988220573365277e-01
5.892000000000000171e+01,1.175388985356596722e-01
5.896000000000000085e+01,1.005638666113913976e-01
5.900000000000000000e+01,1.154423189725482940e-01
5.903999999999999915e+01,1.275234235055537346e-01
5.907999999999999829e+01,1.015974637730089752e-01
5.911999999999999744e+01,8.181629732026314550e-02
5.915999999999999659e+01,9.165306171124466827e-02
5.920000000000000284e+01,9.869246212766578930e-02
5.924000000000000199e+01,8.449131184679280204e-02
5.928000000000000114e+01,1.200279159574385301e-01
5.932000000000000028e+01,1.186752002305650200e-01
5.935999999999999943e+01,9.216973142983547751e-02
5.939999999999999858e+01,8.354559845295453369e-02
5.943999999999999773e+01,1.151581702162065846e-01
5.947999999999999687e+01,9.311487628086535795e-02
5.952000000000000313e+01,8.951179038338820393e-02
5.956000000000000227e+01,1.255865127924150337e-01
5.960000000000000142e+01,8.956217470691055227e-02
5.964000000000000057e+01,1.099821665693706263e-01
5.967999999999999972e+01,9.071838064578034710e-02
5.971999999999999886e+01,1.200745360634398601e-01
5.975999999999999801e+01,9.130372293571323294e-02
5.979999999999999716e+01,9.773961930429993228e-02
5.984000000000000341e+01,9.411259090300215513e-02
5.988000000000000256e+01,1.106023871816147752e-01
5.992000000000000171e+01,9.020280307367449513e-02
5.996000000000000085e+01,9.047891989626219433e-02
