2.003999999999999915e+01,8.160422940995901153e-02
2.007999999999999829e+01,1.274296010144622127e-01
2.012000000000000099e+01,1.547995675608769273e-01
2.016000000000000014e+01,7.205845164499009858e-02
2.019999999999999929e+01,1.184952311713217826e-01
2.023999999999999844e+01,1.151045241746050801e-01
2.028000000000000114e+01,8.095563086320908819e-02
2.032000000000000028e+01,9.109547901631079303e-02
2.035999999999999943e+01,1.233790716198152476e-01
2.039999999999999858e+01,8.676587003401391163e-02
2.044000000000000128e+01,1.547250043603881076e-01
2.048000000000000043e+01,5.290458413393983594e-02
2.051999999999999957e+01,8.149232494611685640e-02
2.055999999999999872e+01,9.654575440897215921e-02
2.060000000000000142e+01,8.391667944709683968e-02
2.064000000000000057e+01,8.235884073332035149e-02
2.067999999999999972e+01,1.121718160050401980e-01
2.071999999999999886e+01,9.461784191283516277e-02
2.076000000000000156e+01,1.447278659293195213e-01
2.080000000000000071e+01,3.920651504419063460e-02
2.083999999999999986e+01,7.085983967472249401e-02
2.087999999999999901e+01,5.637648650404703671e-02
2.092000000000000171e+01,1.261658721176388831e-01
2.096000000000000085e+01,1.030680308437743747e-01
2.100000000000000000e+01,8.304460845512087741e-02
2.103999999999999915e+01,1.116158720341662997e-01
2.107999999999999829e+01,1.229619722862924924e-01
2.112000000000000099e+01,8.201999814260065025e-02
2.116000000000000014e+01,6.445201614678428004e-02
2.119999999999999929e+01,1.200842647329312812e-01
2.123999999999999844e+01,1.301949608581853823e-01
2.128000000000000114e+01,4.434272434078873754e-02
2.132000000000000028e+01,1.165798634336080719e-01
2.135999999999999943e+01,1.063871197199377228e-01
2.139999999999999858e+01,1.054201676208450372e-01
2.144000000000000128e+01,2.386874602564956205e-02
2.148000000000000043e+01,8.871905754858565307e-02
2.151999999999999957e+01,5.022476230523166552e-02
2.155999999999999872e+01,1.452142831420512037e-01
2.160000000000000142e+01,1.171747537649644455e-01
2.164000000000000057e+01,6.268295871115311946e-02
2.167999999999999972e+01,7.647026622425594222e-02
2.171999999999999886e+01,8.964113318708366585e-02
2.176000000000000156e+01,1.194194435144607658e-01
2.180000000000000071e+01,1.313574249020036111e-01
2.183999999999999986e+01,1.297610472097352752e-01
2.187999999999999901e+01,8.448850948487239554e-02
2.192000000000000171e+01,9.457715132265506752e-02
2.196000000000000085e+01,1.384971144735013537e-01
2.200000000000000000e+01,1.104445299493579807e-01
2.203999999999999915e+01,1.051507659938634293e-01
2.207999999999999829e+01,1.201552660573825954e-01
2.212000000000000099e+01,5.826610385506310330e-02
2.216000000000000014e+01,7.880421790455567621e-02
2.219999999999999929e+01,6.735379651460456085e-02
2.223999999999999844e+01,7.374107811929879464e-02
2.228000000000000114e+01,3.091593589499100347e-02
2.232000000000000028e+01,7.113320272069770245e-02
2.235999999999999943e+01,5.045040620847351942e-02
2.239999999999999858e+01,6.605946966001531584e-02
2.244000000000000128e+01,1.321085831675756772e-01
2.248000000000000043e+01,8.743138893680534041e-02
2.251999999999999957e+01,7.843091143055279379e-02
2.255999999999999872e+01,9.218923510243777486e-02
2.260000000000000142e+01,1.305517747544257257e-01
2.264000000000000057e+01,6.864535969851684460e-02
2.267999999999999972e+01,1.002386992651674441e-01
2.271999999999999886e+01,9.123154129866110906e-02
2.276000000000000156e+01,1.154405360491486399e-01
2.280000000000000071e+01,1.279605522155009278e-01
2.283999999999999986e+01,3.529049609995150300e-02
2.287999999999999901e+01,1.265455855326889090e-01
2.292000000000000171e+01,1.255285137551721553e-01
2.296000000000000085e+01,7.037788267571527812e-02
2.300000000000000000e+01,7.243380717984604367e-02
2.303999999999999915e+01,6.341588291488924056e-02
2.307999999999999829e+01,8.876337576460969006e-03
2.312000000000000099e+01,9.089624396924370076e-02
2.316000000000000014e+01,9.294675549259326375e-02
2.319999999999999929e+01,9.376563251277396371e-02
2.323999999999999844e+01,7.428357183826198029e-02
2.328000000000000114e+01,4.249737591616634114e-02
2.332000000000000028e+01,5.807550341280583867e-02
2.335999999999999943e+01,3.797421962715979982e-02
2.339999999999999858e+01,1.144483574382444413e-01
2.344000000000000128e+01,1.300223916387973078e-01
2.348000000000000043e+01,1.037656224371869690e-01
2.351999999999999957e+01,0.000000000000000000e+00
2.355999999999999872e+01,1.053801870993676254e-01
2.360000000000000142e+01,1.191033263961724931e-01
2.364000000000000057e+01,1.045287091438193289e-01
2.367999999999999972e+01,4.012647709272620933e-02
2.371999999999999886e+01,5.876660188642586491e-02
2.376000000000000156e+01,8.663243029161170339e-02
2.380000000000000071e+01,8.250966359424193042e-02
2.383999999999999986e+01,5.131941041885450250e-02
2.387999999999999901e+01,6.011179460593984308e-02
2.392000000000000171e+01,8.182070902528706946e-02
2.396000000000000085e+01,5.862310832096565005e-02
2.400000000000000000e+01,5.879939386249467131e-02
2.403999999999999915e+01,1.100308085614449261e-01
2.407999999999999829e+01,1.977891763323263996e-02
2.412000000000000099e+01,8.392546531770421481e-02
2.416000000000000014e+01,6.010577690461017808e-02
2.419999999999999929e+01,6.950218751170833542e-02
2.423999999999999844e+01,7.213067595398528487e-02
2.428000000000000114e+01,9.751790143655450493e-02
2.432000000000000028e+01,7.861373713576864930e-02
2.435999999999999943e+01,9.784677600497906913e-02
2.439999999999999858e+01,6.909758952059288917e-02
2.444000000000000128e+01,5.388005264247108100e-02
2.448000000000000043e+01,2.143722565331677987e-02
2.451999999999999957e+01,8.372436220317178157e-02
2.455999999999999872e+01,5.927552526871213145e-02
2.460000000000000142e+01,6.250652355803693050e-02
2.464000000000000057e+01,1.192531836891734254e-01
2.467999999999999972e+01,1.126391389128085785e-01
2.471999999999999886e+01,3.835841638576348300e-02
2.476000000000000156e+01,1.006370844352399707e-01
2.480000000000000071e+01,1.001701818669961247e-01
2.483999999999999986e+01,5.110589877328532843e-02
2.487999999999999901e+01,1.121500349072434427e-01
2.492000000000000171e+01,5.447096837793758556e-02
2.496000000000000085e+01,1.216894835792860056e-02
2.500000000000000000e+01,4.552757227804906520e-02
2.503999999999999915e+01,7.888477061145077185e-02
2.507999999999999829e+01,3.411791877322711136e-02
2.512000000000000099e+01,2.748824176502207700e-02
2.516000000000000014e+01,9.098295385000509938e-02
2.519999999999999929e+01,5.174806070805443997e-02
2.523999999999999844e+01,7.648616603099275824e-02
2.528000000000000114e+01,1.325949138079796363e-01
2.532000000000000028e+01,4.168406083826252384e-02
2.535999999999999943e+01,7.749035583916953629e-02
2.539999999999999858e+01,6.469924943251997851e-02
2.544000000000000128e+01,6.482461657817593925e-02
2.548000000000000043e+01,7.602103949101608749e-02
2.551999999999999957e+01,3.923519528608096496e-02
2.555999999999999872e+01,5.350442355861041027e-02
2.560000000000000142e+01,7.761442559456181722e-02
2.564000000000000057e+01,6.376471170396258610e-03
2.567999999999999972e+01,4.647718367137230328e-02
2.571999999999999886e+01,1.179485222190406329e-01
2.576000000000000156e+01,8.115398577705644489e-02
2.580000000000000071e+01,6.158188081477782710e-02
2.583999999999999986e+01,7.030470360188681433e-02
2.587999999999999901e+01,4.150260484376443876e-02
2.592000000000000171e+01,4.284084714541711025e-02
2.596000000000000085e+01,7.862540036686734013e-02
2.600000000000000000e+01,1.070268270295584856e-01
2.603999999999999915e+01,4.869222501955634136e-02
2.607999999999999829e+01,5.063975756422293278e-02
2.612000000000000099e+01,8.272762371077516108e-02
2.616000000000000014e+01,7.483000281299433121e-02
2.619999999999999929e+01,8.723049230171299462e-02
2.623999999999999844e+01,5.410924288231381413e-02
2.628000000000000114e+01,7.634901044357934874e-02
2.632000000000000028e+01,5.983356252322938329e-02
2.635999999999999943e+01,1.066759325390753826e-01
2.639999999999999858e+01,4.217670987745152783e-02
2.644000000000000128e+01,1.130065376170528574e-01
2.648000000000000043e+01,7.372504722505743291e-02
2.651999999999999957e+01,6.827470810625618780e-02
2.655999999999999872e+01,5.728663784015004118e-02
2.660000000000000142e+01,6.352096922219349628e-02
2.664000000000000057e+01,6.237215018023325314e-02
2.667999999999999972e+01,6.552781574846457124e-02
2.671999999999999886e+01,9.697837625137170625e-02
2.676000000000000156e+01,3.492635482352618448e-02
2.680000000000000071e+01,5.038032650835231469e-02
2.683999999999999986e+01,7.752044201123166334e-02
2.687999999999999901e+01,1.477187768308207139e-01
2.692000000000000171e+01,9.673327935019827850e-02
2.696000000000000085e+01,3.344350939683453372e-02
2.700000000000000000e+01,5.811708409499796724e-02
2.703999999999999915e+01,8.278915862755219235e-02
2.707999999999999829e+01,5.455779775468154458e-02
2.712000000000000099e+01,7.870770797614147496e-03
2.716000000000000014e+01,7.805860445793977309e-02
2.719999999999999929e+01,6.581633754141541504e-02
2.723999999999999844e+01,7.817811358196935512e-02
2.728000000000000114e+01,5.609060969464076812e-02
2.732000000000000028e+01,7.583103118763745432e-02
2.735999999999999943e+01,4.143772930513568709e-02
2.739999999999999858e+01,2.734249306180001893e-02
2.744000000000000128e+01,6.307198166274312345e-02
2.748000000000000043e+01,8.403662334237521625e-02
2.751999999999999957e+01,1.056148857219794401e-01
2.755999999999999872e+01,1.235007959583766524e-01
2.760000000000000142e+01,9.155894522140906044e-02
2.764000000000000057e+01,5.838529441613704574e-02
2.767999999999999972e+01,3.566747857675559019e-02
2.771999999999999886e+01,3.570827150197482952e-02
2.776000000000000156e+01,4.805031270347233374e-02
2.780000000000000071e+01,1.487055682531744465e-02
2.783999999999999986e+01,7.026925304007004824e-02
2.787999999999999901e+01,2.601393791474777145e-02
2.792000000000000171e+01,1.010940101248973544e-01
2.796000000000000085e+01,2.423327302809256609e-02
2.800000000000000000e+01,5.625056128685916590e-02
2.803999999999999915e+01,3.228868451976195375e-02
2.807999999999999829e+01,1.509179521569080189e-02
2.812000000000000099e+01,6.617376833450777651e-02
2.816000000000000014e+01,5.451004554306864563e-02
2.819999999999999929e+01,6.498977485278235877e-02
2.823999999999999844e+01,2.994769067548751565e-02
2.828000000000000114e+01,4.350002249030904961e-02
2.832000000000000028e+01,3.921178223811407071e-02
2.835999999999999943e+01,4.537935159498726612e-02
2.839999999999999858e+01,7.061467177255213723e-02
2.844000000000000128e+01,7.001261146968025539e-02
2.848000000000000043e+01,5.956677707216810613e-02
2.851999999999999957e+01,5.096480361421097671e-02
2.855999999999999872e+01,7.496362782995127927e-02
2.860000000000000142e+01,3.929243355065149823e-02
2.864000000000000057e+01,6.820924971664230063e-02
2.867999999999999972e+01,7.805520286238731842e-02
2.871999999999999886e+01,3.069168809641708087e-02
2.876000000000000156e+01,3.007715513008603000e-02
2.880000000000000071e+01,6.759965976861499748e-02
2.883999999999999986e+01,6.144574484001154302e-02
2.887999999999999901e+01,7.805039542025248023e-02
2.892000000000000171e+01,7.865986785335331299e-02
2.896000000000000085e+01,4.420485894779009606e-02
2.900000000000000000e+01,3.619924366342391203e-02
2.903999999999999915e+01,6.571551826993679568e-02
2.907999999999999829e+01,5.032508683082170114e-02
2.912000000000000099e+01,8.906528894131833518e-02
2.916000000000000014e+01,3.368768086187981514e-02
2.919999999999999929e+01,6.196736404558818995e-02
2.923999999999999844e+01,6.194908185924653116e-02
2.928000000000000114e+01,3.855394292739126871e-02
2.932000000000000028e+01,6.252290367760073020e-02
2.935999999999999943e+01,4.220028670565188073e-02
2.939999999999999858e+01,3.171830179723374860e-02
2.944000000000000128e+01,8.705457503157862376e-02
2.948000000000000043e+01,5.196385873045213100e-02
2.951999999999999957e+01,7.900056500184646224e-02
2.955999999999999872e+01,9.373290184794232094e-02
2.960000000000000142e+01,1.078485043029352580e-01
2.964000000000000057e+01,5.798807813026427699e-02
2.967999999999999972e+01,8.132756632506228656e-02
2.971999999999999886e+01,8.621129148310652246e-02
2.976000000000000156e+01,2.035245712909551294e-02
2.980000000000000071e+01,7.567435629994276325e-02
2.983999999999999986e+01,6.148397050460788216e-02
2.987999999999999901e+01,5.897961516741317967e-02
2.992000000000000171e+01,3.494379551300366704e-02
2.996000000000000085e+01,6.811427190764418604e-02
3.000000000000000000e+01,5.268717536328094281e-02
3.003999999999999915e+01,1.116902572912147201e-01
3.007999999999999829e+01,8.641771495515426782e-02
3.012000000000000099e+01,6.914036154068084472e-02
3.016000000000000014e+01,8.077291354970614345e-02
3.019999999999999929e+01,9.117357002944707911e-02
3.023999999999999844e+01,7.881247273032182532e-02
3.028000000000000114e+01,5.168642409944010363e-02
3.032000000000000028e+01,4.916430357414477287e-02
3.035999999999999943e+01,4.971625290485454790e-02
3.039999999999999858e+01,1.704908349364240433e-02
3.044000000000000128e+01,2.805513941322993268e-02
3.048000000000000043e+01,5.136234218180485422e-02
3.051999999999999957e+01,9.127666165939050946e-02
3.055999999999999872e+01,8.874477496102688157e-02
3.060000000000000142e+01,1.132773609852631008e-01
3.064000000000000057e+01,5.537971815695872518e-02
3.067999999999999972e+01,3.807959788741507867e-02
3.071999999999999886e+01,9.643990826237500147e-02
3.076000000000000156e+01,3.976763079079812663e-02
3.080000000000000071e+01,8.951271920628890710e-02
3.083999999999999986e+01,8.327853818546891718e-02
3.087999999999999901e+01,7.089132616242700691e-02
3.092000000000000171e+01,8.802912998741968531e-02
3.096000000000000085e+01,6.395099024971402646e-02
3.100000000000000000e+01,8.723688754780506427e-02
3.103999999999999915e+01,1.308207147514813817e-01
3.107999999999999829e+01,1.670212259660178444e-01
3.112000000000000099e+01,1.644663427096023645e-01
3.116000000000000014e+01,1.311528674293437891e-01
3.119999999999999929e+01,1.427428666689355141e-01
3.123999999999999844e+01,1.303407973111872786e-01
3.128000000000000114e+01,1.493091466708166559e-01
3.132000000000000028e+01,1.227555676919468153e-01
3.135999999999999943e+01,2.167675253018863102e-01
3.139999999999999858e+01,1.963620099645584649e-01
3.144000000000000128e+01,2.626893961845928605e-01
3.148000000000000043e+01,3.228637290287376116e-01
3.151999999999999957e+01,3.350555710184369151e-01
3.155999999999999872e+01,3.816935151070408039e-01
3.160000000000000142e+01,4.689289474481160291e-01
3.164000000000000057e+01,5.475507653889331028e-01
3.167999999999999972e+01,5.621964786316188123e-01
3.171999999999999886e+01,6.752627195163954932e-01
3.176000000000000156e+01,7.151257712521691401e-01
3.180000000000000071e+01,7.100820155150241453e-01
3.183999999999999986e+01,7.462508778453977865e-01
3.187999999999999901e+01,6.458572538070525004e-01
3.192000000000000171e+01,6.162029055497612040e-01
3.196000000000000085e+01,5.871620124273054797e-01
3.200000000000000000e+01,5.538134628319917319e-01
3.203999999999999915e+01,4.472617136466306986e-01
3.207999999999999829e+01,4.003767365147533064e-01
3.211999999999999744e+01,3.811713141900336388e-01
3.215999999999999659e+01,3.385889277261986963e-01
3.220000000000000284e+01,2.873929059800164887e-01
3.224000000000000199e+01,2.823305975016900393e-01
3.228000000000000114e+01,2.237495209483098269e-01
3.232000000000000028e+01,1.836209102764821410e-01
3.235999999999999943e+01,2.296100280912126979e-01
3.239999999999999858e+01,1.341155300305975628e-01
3.243999999999999773e+01,1.604168058152199150e-01
3.247999999999999687e+01,1.701076319377629598e-01
3.252000000000000313e+01,1.188980158616125965e-01
3.256000000000000227e+01,1.212037662948686062e-01
3.260000000000000142e+01,1.339651682299453916e-01
3.264000000000000057e+01,1.270404207140597153e-01
3.267999999999999972e+01,1.527163172393573853e-01
3.271999999999999886e+01,1.261037068112743353e-01
3.275999999999999801e+01,9.149257898326895733e-02
3.279999999999999716e+01,1.128573637732605134e-01
3.284000000000000341e+01,1.428323748220629574e-01
3.288000000000000256e+01,1.580423375865512292e-01
3.292000000000000171e+01,9.082198647856418172e-02
3.296000000000000085e+01,9.249545607706534389e-02
3.300000000000000000e+01,1.027791459680660463e-01
3.303999999999999915e+01,6.754084338272185739e-02
3.307999999999999829e+01,1.085780222033048970e-01
3.311999999999999744e+01,1.237776460288480124e-01
3.315999999999999659e+01,1.112942970742301779e-01
3.320000000000000284e+01,1.049606058961653210e-01
3.324000000000000199e+01,5.925630242901040040e-02
3.328000000000000114e+01,9.413344426149454491e-02
3.332000000000000028e+01,1.370056556893414768e-01
3.335999999999999943e+01,9.990809189541491331e-02
3.339999999999999858e+01,1.175561408167893618e-01
3.343999999999999773e+01,1.530414750910234767e-01
3.347999999999999687e+01,9.071800549783323731e-02
3.352000000000000313e+01,9.913375202258513375e-02
3.356000000000000227e+01,1.499923300060387876e-01
3.360000000000000142e+01,1.411807030472272961e-01
3.364000000000000057e+01,8.992275506097557880e-02
3.367999999999999972e+01,1.063283234037827180e-01
3.371999999999999886e+01,1.098142284326851931e-01
3.375999999999999801e+01,1.188346315915368434e-01
3.379999999999999716e+01,1.592253594983646381e-01
3.384000000000000341e+01,2.316015494261051411e-01
3.388000000000000256e+01,2.092446143932152058e-01
3.392000000000000171e+01,2.213336934561397629e-01
3.396000000000000085e+01,2.205031002556927522e-01
3.400000000000000000e+01,2.178253310615556604e-01
3.403999999999999915e+01,2.538995428401004673e-01
3.407999999999999829e+01,2.844357430547130861e-01
3.411999999999999744e+01,3.703326679007408195e-01
3.415999999999999659e+01,3.411968781161180408e-01
3.420000000000000284e+01,3.600401448055823295e-01
3.424000000000000199e+01,4.102537198356668857e-01
3.428000000000000114e+01,4.026424808602064864e-01
3.432000000000000028e+01,4.497768202937578175e-01
3.435999999999999943e+01,4.772249461385010827e-01
3.439999999999999858e+01,4.683781102609699820e-01
3.443999999999999773e+01,4.133940909373563510e-01
3.447999999999999687e+01,4.254584193467308428e-01
3.452000000000000313e+01,4.209122220235584910e-01
3.456000000000000227e+01,3.782256407182570390e-01
3.460000000000000142e+01,3.515308852165157094e-01
3.464000000000000057e+01,3.728151697815053622e-01
3.467999999999999972e+01,3.362746254251722799e-01
3.471999999999999886e+01,3.163410411621802587e-01
3.475999999999999801e+01,2.570367879301413416e-01
3.479999999999999716e+01,2.543235115017236647e-01
3.484000000000000341e+01,2.331542811145934369e-01
3.488000000000000256e+01,2.150589520351762485e-01
3.492000000000000171e+01,1.969618289493224317e-01
3.496000000000000085e+01,1.720963839557960451e-01
3.500000000000000000e+01,1.927494105467424668e-01
3.503999999999999915e+01,2.269336914758356416e-01
3.507999999999999829e+01,1.793027167517667053e-01
3.511999999999999744e+01,1.205974428021128891e-01
3.515999999999999659e+01,1.701547884510892783e-01
3.520000000000000284e+01,1.735749223140047592e-01
3.524000000000000199e+01,1.394697856024831040e-01
3.528000000000000114e+01,1.545739426214762513e-01
3.532000000000000028e+01,1.832093435375716228e-01
3.535999999999999943e+01,1.927736323399282525e-01
3.539999999999999858e+01,2.552380429851526245e-01
3.543999999999999773e+01,2.094362176788952812e-01
3.547999999999999687e+01,2.054620134710911372e-01
3.552000000000000313e+01,2.414700125766190419e-01
3.556000000000000227e+01,2.461041168202311724e-01
3.560000000000000142e+01,2.575029281102426126e-01
3.564000000000000057e+01,3.045779668872518609e-01
3.567999999999999972e+01,2.729134214600035802e-01
3.571999999999999886e+01,3.193696752880909595e-01
3.575999999999999801e+01,3.799722953704386952e-01
3.579999999999999716e+01,4.295005908703795061e-01
3.584000000000000341e+01,4.470398423028452695e-01
3.588000000000000256e+01,5.322425280275908666e-01
3.592000000000000171e+01,5.596203385921013629e-01
3.596000000000000085e+01,6.749611596947111547e-01
3.600000000000000000e+01,6.943384992540378997e-01
3.603999999999999915e+01,7.266319170975519270e-01
3.607999999999999829e+01,8.364309820076868407e-01
3.611999999999999744e+01,9.142409924093023443e-01
3.615999999999999659e+01,9.434532001689321934e-01
3.620000000000000284e+01,9.105345509756820332e-01
3.624000000000000199e+01,9.815725097568603896e-01
3.628000000000000114e+01,9.504955889085670018e-01
3.632000000000000028e+01,1.000000000000000000e+00
3.635999999999999943e+01,9.012541211402259611e-01
3.639999999999999858e+01,8.357238863694140818e-01
3.643999999999999773e+01,7.351288913348886789e-01
3.647999999999999687e+01,7.268028587995513101e-01
3.652000000000000313e+01,6.286647129755638108e-01
3.656000000000000227e+01,5.889628946193170567e-01
3.660000000000000142e+01,5.357261667910493408e-01
3.664000000000000057e+01,5.544588162666835851e-01
3.667999999999999972e+01,4.286319964455753140e-01
3.671999999999999886e+01,3.913832975871019415e-01
3.675999999999999801e+01,3.196849652968069000e-01
3.679999999999999716e+01,3.119592004054154710e-01
3.684000000000000341e+01,2.408722771668704021e-01
3.688000000000000256e+01,2.245308368763572482e-01
3.692000000000000171e+01,2.008058628263448275e-01
3.696000000000000085e+01,2.158327608638344886e-01
3.700000000000000000e+01,1.699590496459167377e-01
3.703999999999999915e+01,1.800610929387487513e-01
3.707999999999999829e+01,1.877007066218850106e-01
3.711999999999999744e+01,1.621209509780282554e-01
3.715999999999999659e+01,1.094732121607445013e-01
3.720000000000000284e+01,1.300251072943022501e-01
3.724000000000000199e+01,1.345815140325365977e-01
3.728000000000000114e+01,1.009974353613513759e-01
3.732000000000000028e+01,1.836726996822820313e-01
3.735999999999999943e+01,9.964347382712888945e-02
3.739999999999999858e+01,1.072680374003602416e-01
3.743999999999999773e+01,6.137364048500100477e-02
3.747999999999999687e+01,1.292780255373888465e-01
3.752000000000000313e+01,6.184999143761574919e-02
3.756000000000000227e+01,1.180629565546645054e-01
3.760000000000000142e+01,1.127601512781242488e-01
3.764000000000000057e+01,8.838614886791054670e-02
3.767999999999999972e+01,9.353691022908268426e-02
3.771999999999999886e+01,9.745549564434323464e-02
3.775999999999999801e+01,7.984232439313905527e-02
3.779999999999999716e+01,3.024003598714797986e-02
3.784000000000000341e+01,9.136082230213171673e-02
3.788000000000000256e+01,5.098180808904626687e-02
3.792000000000000171e+01,7.642073580422914514e-02
3.796000000000000085e+01,4.218929599516591661e-02
3.800000000000000000e+01,5.470649343126929298e-02
3.803999999999999915e+01,8.013969457266953422e-02
3.807999999999999829e+01,5.328418888926323566e-02
3.811999999999999744e+01,1.100856418471536785e-01
3.815999999999999659e+01,8.445658553587631623e-02
3.820000000000000284e+01,7.297380449261381408e-02
3.824000000000000199e+01,6.764049328710076969e-02
3.828000000000000114e+01,7.645345436644662707e-02
3.832000000000000028e+01,5.450755642952281876e-02
3.835999999999999943e+01,5.901070308459028385e-02
3.839999999999999858e+01,5.674539955629374910e-02
3.843999999999999773e+01,5.263275446917089345e-02
3.847999999999999687e+01,6.205123544450335399e-02
3.852000000000000313e+01,5.608931905853696553e-02
3.856000000000000227e+01,7.596130104215853551e-02
3.860000000000000142e+01,6.076844221686505954e-02
3.864000000000000057e+01,1.329233552294431242e-01
3.867999999999999972e+01,1.244931558758853724e-01
3.871999999999999886e+01,1.142156045224563266e-01
3.875999999999999801e+01,1.002452833840352664e-01
3.879999999999999716e+01,1.514777325946563002e-01
3.884000000000000341e+01,1.430397814663197098e-01
3.888000000000000256e+01,1.918077937651827269e-01
3.892000000000000171e+01,2.473403893094870409e-01
3.896000000000000085e+01,2.179818906950100055e-01
3.900000000000000000e+01,1.886214459331604087e-01
3.903999999999999915e+01,1.666407187065332141e-01
3.907999999999999829e+01,1.206676305333162086e-01
3.911999999999999744e+01,1.079100850217705465e-01
3.915999999999999659e+01,1.037625300997426503e-01
3.920000000000000284e+01,1.051492704530826994e-01
3.924000000000000199e+01,8.746475400963685254e-02
3.928000000000000114e+01,8.269619503257616411e-02
3.932000000000000028e+01,1.129885875528410938e-01
3.935999999999999943e+01,1.100615272177556392e-01
3.939999999999999858e+01,8.375723276797261696e-02
3.943999999999999773e+01,5.929639205700428656e-02
3.947999999999999687e+01,3.052761594812890625e-02
3.952000000000000313e+01,9.095199515595668582e-02
3.956000000000000227e+01,6.525498030230736379e-02
3.960000000000000142e+01,5.862529862756456212e-02
3.964000000000000057e+01,6.060558964340587162e-02
3.967999999999999972e+01,5.335682768733598230e-02
3.971999999999999886e+01,7.132678208058314262e-02
3.975999999999999801e+01,4.438963217692847713e-02
3.979999999999999716e+01,5.312855463618010310e-02
3.984000000000000341e+01,4.956272433463726479e-02
3.988000000000000256e+01,4.291922124843832592e-02
3.992000000000000171e+01,7.687289616652726032e-02
3.996000000000000085e+01,5.853779415565264072e-02
4.000000000000000000e+01,4.819751264664745571e-02
4.003999999999999915e+01,1.509511192221402176e-02
4.007999999999999829e+01,8.594917598074017229e-02
4.011999999999999744e+01,3.438863798935047622e-02
4.015999999999999659e+01,9.539650450096608114e-02
4.020000000000000284e+01,6.536184296974466290e-02
4.024000000000000199e+01,7.038809862955903995e-02
4.028000000000000114e+01,5.265222612447855582e-02
4.032000000000000028e+01,4.721713354024575232e-02
4.035999999999999943e+01,3.070754633373585368e-02
4.039999999999999858e+01,4.310748270680685168e-02
4.043999999999999773e+01,6.411736193890571478e-02
4.047999999999999687e+01,3.960497126118801836e-02
4.052000000000000313e+01,7.229848285597982593e-02
4.056000000000000227e+01,6.869680302551539608e-02
4.060000000000000142e+01,7.924130896839723381e-02
4.064000000000000057e+01,9.470491772533158603e-02
4.067999999999999972e+01,4.496180865009972993e-02
4.071999999999999886e+01,1.428599098959600078e-02
4.075999999999999801e+01,7.649411499396981118e-02
4.079999999999999716e+01,6.857440657532880290e-02
4.084000000000000341e+01,5.327101822256340158e-02
4.088000000000000256e+01,6.810741307947389134e-02
4.092000000000000171e+01,4.295777049984169510e-02
4.096000000000000085e+01,1.002347031304531150e-01
4.100000000000000000e+01,7.446588182535862632e-02
4.103999999999999915e+01,6.714920123785522721e-02
4.107999999999999829e+01,4.076119524098708452e-02
4.111999999999999744e+01,5.004921238495770724e-02
4.115999999999999659e+01,7.901964330081502619e-02
4.120000000000000284e+01,3.724708811336480824e-02
4.124000000000000199e+01,4.283818811779348257e-02
4.128000000000000114e+01,2.751253896142530353e-02
4.132000000000000028e+01,3.556013019771871175e-02
4.135999999999999943e+01,7.559290303829774293e-02
4.139999999999999858e+01,5.534004131442517294e-02
4.143999999999999773e+01,5.661499921493761550e-02
4.147999999999999687e+01,1.421306620973165208e-02
4.152000000000000313e+01,8.622490328742882237e-02
4.156000000000000227e+01,6.042763519898509961e-02
4.160000000000000142e+01,6.538526223633131518e-02
4.164000000000000057e+01,4.204446151450772634e-02
4.167999999999999972e+01,7.037327092880756030e-02
4.171999999999999886e+01,3.534074002346145049e-02
4.175999999999999801e+01,3.844476345176692927e-02
4.179999999999999716e+01,6.676742566734344964e-02
4.184000000000000341e+01,4.464665714334294100e-02
4.188000000000000256e+01,8.157715647174974827e-02
4.192000000000000171e+01,6.867936084193831947e-02
4.196000000000000085e+01,4.716756598479528856e-02
4.200000000000000000e+01,5.702579010217827260e-02
4.203999999999999915e+01,9.333292158639473757e-02
4.207999999999999829e+01,5.151536897841926116e-02
4.211999999999999744e+01,7.736101797658602452e-02
4.215999999999999659e+01,9.459266028953206007e-02
4.220000000000000284e+01,5.522947079355663980e-02
4.224000000000000199e+01,8.537489472253324829e-02
4.228000000000000114e+01,6.138603891749056657e-02
4.232000000000000028e+01,8.414565926721140343e-02
4.235999999999999943e+01,7.184029859970358922e-02
4.239999999999999858e+01,1.161256313360340964e-01
4.243999999999999773e+01,9.643445813980387749e-02
4.247999999999999687e+01,7.182009891281675162e-02
4.252000000000000313e+01,8.841795950207480270e-02
4.256000000000000227e+01,8.040819061295972903e-02
4.260000000000000142e+01,1.117652222633911813e-01
4.264000000000000057e+01,9.821504222331883804e-02
4.267999999999999972e+01,1.154197170364355401e-01
4.271999999999999886e+01,1.504613311563612610e-01
4.275999999999999801e+01,1.547439206948810486e-01
4.279999999999999716e+01,1.664060875603096401e-01
4.284000000000000341e+01,1.577665858579213043e-01
4.288000000000000256e+01,2.395503917087294377e-01
4.292000000000000171e+01,3.004173872440505932e-01
4.296000000000000085e+01,3.729699254915702089e-01
4.300000000000000000e+01,4.424446746113647189e-01
4.303999999999999915e+01,5.672798157407237252e-01
4.307999999999999829e+01,5.740062157950105437e-01
4.311999999999999744e+01,6.164085644112455853e-01
4.315999999999999659e+01,6.243610409432103214e-01
4.320000000000000284e+01,5.880214236670964212e-01
4.324000000000000199e+01,5.166167925590424703e-01
4.328000000000000114e+01,4.790426877530820637e-01
4.332000000000000028e+01,3.147478902193812100e-01
4.335999999999999943e+01,2.254979132270831521e-01
4.339999999999999858e+01,2.051413676394662489e-01
4.343999999999999773e+01,1.626377148168221543e-01
4.347999999999999687e+01,1.072140347352891071e-01
4.352000000000000313e+01,1.483650259868516119e-01
4.356000000000000227e+01,1.015490577256132343e-01
4.360000000000000142e+01,1.187054032950518312e-01
4.364000000000000057e+01,1.051026914683728525e-01
4.367999999999999972e+01,1.154882707957793908e-01
4.371999999999999886e+01,7.789090433750989195e-02
4.375999999999999801e+01,9.196307045331794661e-02
4.379999999999999716e+01,4.451923498097744292e-02
4.384000000000000341e+01,8.011700608979348270e-02
4.388000000000000256e+01,7.695890691433769637e-02
4.392000000000000171e+01,7.010784554035306981e-02
4.396000000000000085e+01,2.757660472151321485e-02
4.400000000000000000e+01,5.332363416917290655e-02
4.403999999999999915e+01,3.600881601464899634e-02
4.407999999999999829e+01,5.560018815323513469e-02
4.411999999999999744e+01,3.089943217745320589e-02
4.415999999999999659e+01,8.062832814700383877e-02
4.420000000000000284e+01,5.346273849976775766e-02
4.424000000000000199e+01,6.074277812127291953e-02
4.428000000000000114e+01,4.587567918461690070e-02
4.432000000000000028e+01,8.513864699800723079e-02
4.435999999999999943e+01,4.074059681864129756e-02
4.439999999999999858e+01,7.446302222222739298e-02
4.443999999999999773e+01,3.190609182407454225e-02
4.447999999999999687e+01,5.332144244188689181e-02
4.452000000000000313e+01,7.904061242619035699e-02
4.456000000000000227e+01,1.152149879305514185e-01
4.460000000000000142e+01,6.403750390560278283e-02
4.464000000000000057e+01,4.792077299813181368e-02
4.467999999999999972e+01,6.809507124558930591e-02
4.471999999999999886e+01,5.443457800175648814e-02
4.475999999999999801e+01,5.368983787814936987e-02
4.479999999999999716e+01,3.018280104135550451e-02
4.484000000000000341e+01,7.556914191244171186e-02
4.488000000000000256e+01,2.929764146157348703e-02
4.492000000000000171e+01,2.915938144839702248e-02
4.496000000000000085e+01,2.963409180726948866e-02
4.500000000000000000e+01,3.256718734015630334e-02
4.503999999999999915e+01,7.179129860377131411e-02
4.507999999999999829e+01,8.210171506801088037e-02
4.511999999999999744e+01,6.042274141872534116e-02
4.515999999999999659e+01,6.150172620611791402e-02
4.520000000000000284e+01,3.489728924843032293e-02
4.524000000000000199e+01,6.488343979255711824e-02
4.528000000000000114e+01,7.764352460519273469e-02
4.532000000000000028e+01,5.287796296578475830e-02
4.535999999999999943e+01,8.101215176637113768e-02
4.539999999999999858e+01,6.669958101564309183e-02
4.543999999999999773e+01,5.361510150254455986e-02
4.547999999999999687e+01,6.021287467092979739e-02
4.552000000000000313e+01,6.250248721315959655e-02
4.556000000000000227e+01,2.788158311839316825e-02
4.560000000000000142e+01,4.431500422061114552e-02
4.564000000000000057e+01,8.658205968314562628e-02
4.567999999999999972e+01,4.272749287279884595e-02
4.571999999999999886e+01,3.454877767184320880e-02
4.575999999999999801e+01,5.589452494355692108e-02
4.579999999999999716e+01,7.785321126418576210e-02
4.584000000000000341e+01,4.444720757134190681e-02
4.588000000000000256e+01,3.625969052483331984e-02
4.592000000000000171e+01,9.758064967811851120e-02
4.596000000000000085e+01,7.401025364650662408e-02
4.600000000000000000e+01,4.859223414786329603e-02
4.603999999999999915e+01,6.254088691307491121e-02
4.607999999999999829e+01,4.142441994432217306e-02
4.611999999999999744e+01,7.320767507558555154e-02
4.615999999999999659e+01,9.945246818641967357e-02
4.620000000000000284e+01,8.202019438535454454e-02
4.624000000000000199e+01,5.166779040653180638e-02
4.628000000000000114e+01,4.960955198083833589e-02
4.632000000000000028e+01,8.384228155538323013e-02
4.635999999999999943e+01,1.193030680612683081e-01
4.639999999999999858e+01,7.971470320713090751e-02
4.643999999999999773e+01,5.796313894306667769e-02
4.647999999999999687e+01,7.496309177098724186e-02
4.652000000000000313e+01,8.334887533170658169e-02
4.656000000000000227e+01,7.635396172398815906e-02
4.660000000000000142e+01,5.766918204334113562e-02
4.664000000000000057e+01,9.188410507219857415e-02
4.667999999999999972e+01,1.414752646836049954e-01
4.671999999999999886e+01,8.587546154116094954e-02
4.675999999999999801e+01,1.071657684495495588e-01
4.679999999999999716e+01,8.293356977882848646e-02
4.684000000000000341e+01,1.054496787145792619e-01
4.688000000000000256e+01,1.119699397847557093e-01
4.692000000000000171e+01,1.283301796073845480e-01
4.696000000000000085e+01,7.948346742013182031e-02
4.700000000000000000e+01,1.185993540955041642e-01
4.703999999999999915e+01,1.183441138874439247e-01
4.707999999999999829e+01,8.794482677208916022e-02
4.711999999999999744e+01,1.116755019963343171e-01
4.715999999999999659e+01,1.218708739720179984e-01
4.720000000000000284e+01,1.425213530236240644e-01
4.724000000000000199e+01,1.422548606693402329e-01
4.728000000000000114e+01,1.469072235271934868e-01
4.732000000000000028e+01,1.238760855863432625e-01
4.735999999999999943e+01,9.776699593578704051e-02
4.739999999999999858e+01,1.497782699998475853e-01
4.743999999999999773e+01,1.427339618002368971e-01
4.747999999999999687e+01,1.535264154096764866e-01
4.752000000000000313e+01,1.138752264754907817e-01
4.756000000000000227e+01,1.412718975283512868e-01
4.760000000000000142e+01,1.742025506252408984e-01
4.764000000000000057e+01,1.320840061231959850e-01
4.767999999999999972e+01,1.317926277883737229e-01
4.771999999999999886e+01,1.438017534325054247e-01
4.775999999999999801e+01,1.133640315222320671e-01
4.779999999999999716e+01,1.795008213462293556e-01
4.784000000000000341e+01,1.509039656489422343e-01
4.788000000000000256e+01,1.290713590836682911e-01
4.792000000000000171e+01,1.281511917426607916e-01
4.796000000000000085e+01,1.413769357246836000e-01
4.800000000000000000e+01,1.041590192641474039e-01
4.803999999999999915e+01,1.315283898336664370e-01
4.807999999999999829e+01,1.029178480968411802e-01
4.811999999999999744e+01,1.112133460037676713e-01
4.815999999999999659e+01,1.305790539532633576e-01
4.820000000000000284e+01,9.396484512168161440e-02
4.824000000000000199e+01,6.780570458499919628e-02
4.828000000000000114e+01,1.246880050643368459e-01
4.832000000000000028e+01,7.207331177511114295e-02
4.835999999999999943e+01,9.511839134457716893e-02
4.839999999999999858e+01,9.540103995885398924e-02
4.843999999999999773e+01,8.522403141665162163e-02
4.847999999999999687e+01,1.014956900972559667e-01
4.852000000000000313e+01,1.054622723446825144e-01
4.856000000000000227e+01,6.329114461906147626e-02
4.860000000000000142e+01,7.278936898660391674e-02
4.864000000000000057e+01,7.920959391395099303e-02
4.867999999999999972e+01,6.471279373860723549e-02
4.871999999999999886e+01,8.097062318820433258e-02
4.875999999999999801e+01,6.708434308423921744e-02
4.879999999999999716e+01,7.411046938982872312e-02
4.884000000000000341e+01,8.174942138442017892e-02
4.888000000000000256e+01,1.029191116312380416e-01
4.892000000000000171e+01,8.041163353886583709e-02
4.896000000000000085e+01,7.512572330265072929e-02
4.900000000000000000e+01,7.291318784718386903e-02
4.903999999999999915e+01,5.039875262934057770e-02
4.907999999999999829e+01,4.633615832194973999e-02
4.911999999999999744e+01,8.164012142692309015e-02
4.915999999999999659e+01,9.356648647221459114e-02
4.920000000000000284e+01,4.766748115344018877e-02
4.924000000000000199e+01,4.728641641744048274e-02
4.928000000000000114e+01,6.781774019206181225e-02
4.932000000000000028e+01,5.820493353103165651e-02
4.935999999999999943e+01,8.488298151032701300e-02
4.939999999999999858e+01,6.911412078052722729e-02
4.943999999999999773e+01,5.641861842411986794e-02
4.947999999999999687e+01,6.032952576884391405e-02
4.952000000000000313e+01,5.993212332963202688e-02
4.956000000000000227e+01,9.890126189542844393e-02
4.960000000000000142e+01,4.928807695566125857e-02
4.964000000000000057e+01,8.271628231826877453e-02
4.967999999999999972e+01,6.200993200496310309e-02
4.971999999999999886e+01,8.005497796584032377e-02
4.975999999999999801e+01,4.765629785473504687e-02
4.979999999999999716e+01,8.476594926037661626e-02
4.984000000000000341e+01,1.003433935430568108e-01
4.988000000000000256e+01,4.579266681456052590e-02
4.992000000000000171e+01,4.475665925070336504e-02
4.996000000000000085e+01,8.677801036316303007e-02
5.000000000000000000e+01,4.636841069942473914e-02
5.003999999999999915e+01,4.471019537724689463e-02
5.007999999999999829e+01,8.057308537602260456e-02
5.011999999999999744e+01,6.168626452701503338e-02
5.015999999999999659e+01,6.494207690294558077e-02
5.020000000000000284e+01,3.559317097045541778e-02
5.024000000000000199e+01,4.930161327323734355e-02
5.028000000000000114e+01,4.885949721987453698e-02
5.032000000000000028e+01,5.579667807679341424e-02
5.035999999999999943e+01,4.366218747829691410e-02
5.039999999999999858e+01,1.430144022635046648e-02
5.043999999999999773e+01,9.873899167094252194e-02
5.047999999999999687e+01,6.629780362759708778e-02
5.052000000000000313e+01,7.814423090750773071e-02
5.056000000000000227e+01,9.798508491274755816e-02
5.060000000000000142e+01,1.122873113324217992e-01
5.064000000000000057e+01,9.583021932986270086e-02
5.067999999999999972e+01,5.291977876509312145e-02
5.071999999999999886e+01,7.459652529466587190e-02
5.075999999999999801e+01,7.781672421755961300e-02
5.079999999999999716e+01,7.180745550991241011e-02
5.084000000000000341e+01,7.194718679300658726e-02
5.088000000000000256e+01,6.593314128497620996e-02
5.092000000000000171e+01,1.072823900069959785e-01
5.096000000000000085e+01,5.697357068723486739e-02
5.100000000000000000e+01,5.771887520145445316e-02
5.103999999999999915e+01,8.060678012590065389e-02
5.107999999999999829e+01,4.443896705309548917e-02
5.111999999999999744e+01,4.517708175570654683e-02
5.115999999999999659e+01,3.976140922614863904e-02
5.120000000000000284e+01,4.664611090827552875e-02
5.124000000000000199e+01,6.706146283953844101e-02
5.128000000000000114e+01,3.334219943177614554e-02
5.132000000000000028e+01,7.097662715434724379e-02
5.135999999999999943e+01,4.217366126444962310e-02
5.139999999999999858e+01,3.428300483154927275e-02
5.143999999999999773e+01,5.407118277372697374e-02
5.147999999999999687e+01,8.246889189945891263e-02
5.152000000000000313e+01,6.718933573344312848e-02
5.156000000000000227e+01,8.573999711291591108e-02
5.160000000000000142e+01,6.737991662714420960e-02
5.164000000000000057e+01,4.901741865541356380e-02
5.167999999999999972e+01,4.234013823191979525e-02
5.171999999999999886e+01,6.580223680051719426e-02
5.175999999999999801e+01,7.757427688264875720e-02
5.179999999999999716e+01,5.366584517067542193e-02
5.184000000000000341e+01,6.297248179863172701e-02
5.188000000000000256e+01,5.320739029121592661e-02
5.192000000000000171e+01,6.989083773091579743e-02
5.196000000000000085e+01,7.734477428431855983e-02
5.200000000000000000e+01,7.495405969533205925e-02
5.203999999999999915e+01,4.918563965306152475e-02
5.207999999999999829e+01,5.355658517868175372e-02
5.211999999999999744e+01,5.730995655489532631e-02
5.215999999999999659e+01,4.445214441274984718e-02
5.220000000000000284e+01,7.588188494759284808e-02
5.224000000000000199e+01,7.163113728097506017e-02
5.228000000000000114e+01,7.229905837926874079e-02
5.232000000000000028e+01,3.544107199940285668e-02
5.235999999999999943e+01,4.533118738827172922e-02
5.239999999999999858e+01,6.690649347697712190e-02
5.243999999999999773e+01,8.109768707399486742e-02
5.247999999999999687e+01,3.131200035242279883e-02
5.252000000000000313e+01,5.780107012996526378e-02
5.256000000000000227e+01,2.707978301542079969e-02
5.260000000000000142e+01,5.971533536203274539e-02
5.264000000000000057e+01,7.204885370426594715e-02
5.267999999999999972e+01,8.191936072145976355e-02
5.271999999999999886e+01,5.733963916728792437e-02
5.275999999999999801e+01,7.212633929190005733e-02
5.279999999999999716e+01,4.938711403941915129e-02
5.284000000000000341e+01,8.446847041799833422e-02
5.288000000000000256e+01,4.819126638803697404e-02
5.292000000000000171e+01,5.989242077374997558e-02
5.296000000000000085e+01,7.466680227400854242e-02
5.300000000000000000e+01,5.806663858442884241e-02
5.303999999999999915e+01,7.529663725195902269e-02
5.307999999999999829e+01,6.545805909809600254e-02
5.311999999999999744e+01,6.176839591503931887e-02
5.315999999999999659e+01,5.500056474349546837e-02
5.320000000000000284e+01,6.852983714343337251e-02
5.324000000000000199e+01,9.374426892007391154e-02
5.328000000000000114e+01,6.912998213039964202e-02
5.332000000000000028e+01,5.989168432135879433e-02
5.335999999999999943e+01,6.664451276588763406e-02
5.339999999999999858e+01,5.986180527571760557e-02
5.343999999999999773e+01,8.014271881722119517e-02
5.347999999999999687e+01,6.228254286029442921e-02
5.352000000000000313e+01,7.456167877445736558e-02
5.356000000000000227e+01,9.421999078109981329e-02
5.360000000000000142e+01,6.281929475977601762e-02
5.364000000000000057e+01,3.633721678971852526e-02
5.367999999999999972e+01,6.152430148244329711e-02
5.371999999999999886e+01,6.640931189818861935e-02
5.375999999999999801e+01,7.990376847755305267e-02
5.379999999999999716e+01,5.956309497746538340e-02
5.384000000000000341e+01,6.997686018035950695e-02
5.388000000000000256e+01,1.092996463011144115e-01
5.392000000000000171e+01,1.166327141612270302e-01
5.396000000000000085e+01,1.122756414980948941e-01
5.400000000000000000e+01,1.251399487523163767e-01
5.403999999999999915e+01,1.349260552033389182e-01
5.407999999999999829e+01,1.213343801306095981e-01
5.411999999999999744e+01,1.181975540908423716e-01
5.415999999999999659e+01,1.255155755924592942e-01
5.420000000000000284e+01,1.223737251503933393e-01
5.424000000000000199e+01,9.708436474729323362e-02
5.428000000000000114e+01,1.480696952138840228e-01
5.432000000000000028e+01,1.037059997590719512e-01
5.435999999999999943e+01,9.993894384896057081e-02
5.439999999999999858e+01,8.386659224373389787e-02
5.443999999999999773e+01,9.977893449685062977e-02
5.447999999999999687e+01,6.463223590728973955e-02
5.452000000000000313e+01,8.115466865737738789e-02
5.456000000000000227e+01,9.705943627181209954e-02
5.460000000000000142e+01,7.851390521072434958e-02
5.464000000000000057e+01,5.996584479534265710e-02
5.467999999999999972e+01,5.494830635340561958e-02
5.471999999999999886e+01,5.177365186756207466e-02
5.475999999999999801e+01,5.843868378492132754e-02
5.479999999999999716e+01,6.571631914618961123e-02
5.484000000000000341e+01,8.221849916299055205e-02
5.488000000000000256e+01,7.411259029545497201e-02
5.492000000000000171e+01,6.169817028097994427e-02
5.496000000000000085e+01,7.757759214725024055e-02
5.500000000000000000e+01,7.315489200605126974e-02
5.503999999999999915e+01,7.057506388832356092e-02
5.507999999999999829e+01,5.138394336705700421e-02
5.511999999999999744e+01,7.586512787308472006e-02
5.515999999999999659e+01,6.958682540858728005e-02
5.520000000000000284e+01,9.529318846245492247e-02
5.524000000000000199e+01,7.117075986269534582e-02
5.528000000000000114e+01,8.579952020780379218e-02
5.532000000000000028e+01,5.675087356127336141e-02
5.535999999999999943e+01,5.415063758616723427e-02
5.539999999999999858e+01,6.323548044256220579e-02
5.543999999999999773e+01,7.969942928727988263e-02
5.547999999999999687e+01,8.877915228039671980e-02
5.552000000000000313e+01,9.785631310450763898e-02
5.556000000000000227e+01,6.510147428105637901e-02
5.560000000000000142e+01,5.079823324087538033e-02
5.564000000000000057e+01,6.663422501816045063e-02
5.567999999999999972e+01,7.570112225047043175e-02
5.571999999999999886e+01,1.093710004364611132e-01
5.575999999999999801e+01,9.813317769442836402e-02
5.579999999999999716e+01,8.996847616491714106e-02
5.584000000000000341e+01,1.082521674078967683e-01
5.588000000000000256e+01,7.916759819006186083e-02
5.592000000000000171e+01,1.226668261001417209e-01
5.596000000000000085e+01,1.101858478630500515e-01
5.600000000000000000e+01,1.284592277837385554e-01
5.603999999999999915e+01,1.331969733255931598e-01
5.607999999999999829e+01,1.133265852357770026e-01
5.611999999999999744e+01,1.285165221806083558e-01
5.615999999999999659e+01,1.498552607363330125e-01
5.620000000000000284e+01,1.158289229599338138e-01
5.624000000000000199e+01,1.814524760174600626e-01
5.628000000000000114e+01,2.033985862854802706e-01
5.632000000000000028e+01,1.835126685659597412e-01
5.635999999999999943e+01,2.091444259283648244e-01
5.639999999999999858e+01,2.132437315490484375e-01
5.643999999999999773e+01,2.296432159847247023e-01
5.647999999999999687e+01,2.300464945761536706e-01
5.652000000000000313e+01,2.839642462218839869e-01
5.656000000000000227e+01,3.212706502756969007e-01
5.660000000000000142e+01,2.976757142009782142e-01
5.664000000000000057e+01,3.429737158186875745e-01
5.667999999999999972e+01,3.126070439763641295e-01
5.671999999999999886e+01,2.834680427467294317e-01
5.675999999999999801e+01,2.936953140380985094e-01
5.679999999999999716e+01,2.694722046171657004e-01
5.684000000000000341e+01,2.790791158534512983e-01
5.688000000000000256e+01,2.296300928137040009e-01
5.692000000000000171e+01,2.380014992640807070e-01
5.696000000000000085e+01,2.168436291519596770e-01
5.700000000000000000e+01,1.796895338050799318e-01
5.703999999999999915e+01,1.548355948995256692e-01
5.707999999999999829e+01,1.582754188210933055e-01
5.711999999999999744e+01,1.457190130331687261e-01
5.715999999999999659e+01,1.639169221472683846e-01
5.720000000000000284e+01,1.089106934688810896e-01
5.724000000000000199e+01,1.172611312286252344e-01
5.728000000000000114e+01,9.362172543519173273e-02
5.732000000000000028e+01,1.056577386935859814e-01
5.735999999999999943e+01,1.244576475800537735e-01
5.739999999999999858e+01,1.124979859676393801e-01
5.743999999999999773e+01,8.208152765505256909e-02
5.747999999999999687e+01,1.082552004214718117e-01
5.752000000000000313e+01,1.153569347400490164e-01
5.756000000000000227e+01,8.185687236120223198e-02
5.760000000000000142e+01,9.387443882536893047e-02
5.764000000000000057e+01,1.077347803604494642e-01
5.767999999999999972e+01,8.714470836851678781e-02
5.771999999999999886e+01,1.003846242190905569e-01
5.775999999999999801e+01,9.578287020138413765e-02
5.779999999999999716e+01,6.165180829804614571e-02
5.784000000000000341e+01,6.073559099796689564e-02
5.788000000000000256e+01,9.303421680956881767e-02
5.792000000000000171e+01,7.673422856085954091e-02
5.796000000000000085e+01,7.888575009233005086e-02
5.800000000000000000e+01,7.795892315439896525e-02
5.803999999999999915e+01,7.702944007806032667e-02
5.807999999999999829e+01,7.794271566527984085e-02
5.811999999999999744e+01,9.054096865670972771e-02
5.815999999999999659e+01,4.408323964161657560e-02
5.820000000000000284e+01,9.727532837313700165e-02
5.824000000000000199e+01,6.249991018280221661e-02
5.828000000000000114e+01,6.893612412705761583e-02
5.832000000000000028e+01,5.383981473385724553e-02
5.835999999999999943e+01,7.441888561146169090e-02
5.839999999999999858e+01,6.362320993622434806e-02
5.843999999999999773e+01,3.744639409394152213e-02
5.847999999999999687e+01,4.632981528321608589e-02
5.852000000000000313e+01,9.396430459955623649e-02
5.856000000000000227e+01,6.962488293879326440e-02
5.860000000000000142e+01,6.435208595748001525e-02
5.864000000000000057e+01,5.415550034797682322e-02
5.867999999999999972e+01,7.532831172505544126e-02
5.871999999999999886e+01,8.111997249404419297e-02
5.875999999999999801e+01,6.537909351822099313e-02
5.879999999999999716e+01,6.255344411881430533e-02
5.884000000000000341e+01,6.464621886555926844e-02
5.888000000000000256e+01,6.489088985721976066e-02
5.892000000000000171e+01,4.052732131518512609e-02
5.896000000000000085e+01,5.060883314125968341e-02
5.900000000000000000e+01,1.043625053115817269e-01
5.903999999999999915e+01,7.937572219620830927e-02
5.907999999999999829e+01,6.668901945169253276e-02
5.911999999999999744e+01,3.308490230267927684e-02
5.915999999999999659e+01,6.406765752509133161e-02
5.920000000000000284e+01,6.121508130504776934e-02
5.924000000000000199e+01,4.913272273154693087e-02
5.928000000000000114e+01,8.441334664833487211e-02
5.932000000000000028e+01,6.740447171250210645e-02
5.935999999999999943e+01,8.114982964191404247e-02
5.939999999999999858e+01,6.905665260966858954e-02
5.943999999999999773e+01,3.912174306287497655e-02
5.947999999999999687e+01,7.869480407099967156e-02
5.952000000000000313e+01,8.504766046856085393e-02
5.956000000000000227e+01,6.002572705752360488e-02
5.960000000000000142e+01,3.992218945265988556e-02
5.964000000000000057e+01,3.765496021719402092e-02
5.967999999999999972e+01,6.614195191435029431e-02
5.971999999999999886e+01,7.617206189139939798e-02
5.975999999999999801e+01,5.421223583744697039e-02
5.979999999999999716e+01,7.469426276715705748e-02
5.984000000000000341e+01,8.471620744071363396e-02
5.988000000000000256e+01,6.336335037304972884e-02
5.992000000000000171e+01,8.383720304980037119e-02
5.996000000000000085e+01,6.432430829897306523e-02
