2.003999999999999915e+01,1.672644624900526400e-01
2.007999999999999829e+01,1.951824507264393882e-01
2.012000000000000099e+01,1.589846589437494961e-01
2.016000000000000014e+01,1.818972612410585665e-01
2.019999999999999929e+01,2.373715228269028532e-01
2.023999999999999844e+01,1.671168994174488664e-01
2.028000000000000114e+01,2.195894220436900302e-01
2.032000000000000028e+01,2.329921104277006272e-01
2.035999999999999943e+01,1.852845046275600482e-01
2.039999999999999858e+01,1.826615181996183446e-01
2.044000000000000128e+01,2.191121128892384584e-01
2.048000000000000043e+01,2.094799808608209246e-01
2.051999999999999957e+01,1.913340740720311517e-01
2.055999999999999872e+01,1.120778474895643556e-01
2.060000000000000142e+01,1.685726310884693990e-01
2.064000000000000057e+01,1.880012171808126131e-01
2.067999999999999972e+01,2.104371548628985733e-01
2.071999999999999886e+01,1.902967710896086018e-01
2.076000000000000156e+01,1.821802783613474530e-01
2.080000000000000071e+01,1.991115766771288653e-01
2.083999999999999986e+01,2.290685946495844283e-01
2.087999999999999901e+01,2.074327209799460281e-01
2.092000000000000171e+01,1.176736094312972186e-01
2.096000000000000085e+01,1.987298219078068029e-01
2.100000000000000000e+01,2.236848525269585497e-01
2.103999999999999915e+01,2.025570847213992165e-01
2.107999999999999829e+01,2.225064937938298903e-01
2.112000000000000099e+01,1.618096536845336497e-01
2.116000000000000014e+01,2.268453634953838949e-01
2.119999999999999929e+01,2.102329750252418250e-01
2.123999999999999844e+01,1.530478762258671577e-01
2.128000000000000114e+01,1.720042886358888468e-01
2.132000000000000028e+01,1.734302741483382260e-01
2.135999999999999943e+01,1.317789368272008765e-01
2.139999999999999858e+01,1.597571427892855445e-01
2.144000000000000128e+01,1.852324893199107092e-01
2.148000000000000043e+01,1.976856633148906250e-01
2.151999999999999957e+01,1.976175790800479559e-01
2.155999999999999872e+01,1.524684686911824405e-01
2.160000000000000142e+01,1.343707246191655491e-01
2.164000000000000057e+01,1.603556022848319773e-01
2.167999999999999972e+01,1.592925378289532790e-01
2.171999999999999886e+01,1.782679523360216900e-01
2.176000000000000156e+01,1.686926561945523151e-01
2.180000000000000071e+01,2.152220275686078654e-01
2.183999999999999986e+01,1.745931050061839962e-01
2.187999999999999901e+01,1.660247071845491473e-01
2.192000000000000171e+01,1.564561467517743554e-01
2.196000000000000085e+01,1.734379871109746618e-01
2.200000000000000000e+01,1.483442615415603572e-01
2.203999999999999915e+01,1.988910304376169391e-01
2.207999999999999829e+01,1.908318820462371057e-01
2.212000000000000099e+01,1.822734648619200870e-01
2.216000000000000014e+01,1.677056600577562784e-01
2.219999999999999929e+01,9.503284202816841830e-02
2.223999999999999844e+01,1.696319710195746122e-01
2.228000000000000114e+01,1.044762098221444224e-01
2.232000000000000028e+01,1.560363003105135760e-01
2.235999999999999943e+01,1.715318119058531487e-01
2.239999999999999858e+01,1.699976777399069550e-01
2.244000000000000128e+01,1.519348121184983247e-01
2.248000000000000043e+01,1.263597596188184569e-01
2.251999999999999957e+01,1.438653773194518704e-01
2.255999999999999872e+01,1.368275373552648722e-01
2.260000000000000142e+01,1.142627843034495910e-01
2.264000000000000057e+01,1.978945339799117742e-01
2.267999999999999972e+01,1.452777782425792030e-01
2.271999999999999886e+01,1.217159231196607017e-01
2.276000000000000156e+01,1.587668874360907423e-01
2.280000000000000071e+01,2.093442398635685653e-01
2.283999999999999986e+01,8.860870644869747736e-02
2.287999999999999901e+01,1.632333031661886147e-01
2.292000000000000171e+01,1.542059036498538427e-01
2.296000000000000085e+01,1.572021134737631998e-01
2.300000000000000000e+01,1.236327430264320126e-01
2.303999999999999915e+01,1.546835115869341359e-01
2.307999999999999829e+01,1.196144433964563131e-01
2.312000000000000099e+01,1.551765371027329643e-01
2.316000000000000014e+01,1.146003952596666015e-01
2.319999999999999929e+01,1.125965616949766573e-01
2.323999999999999844e+01,1.571797421303998965e-01
2.328000000000000114e+01,1.451605293321418799e-01
2.332000000000000028e+01,6.952604619011051867e-02
2.335999999999999943e+01,1.456716415052769220e-01
2.339999999999999858e+01,1.416716151178481209e-01
2.344000000000000128e+01,1.256510040768753222e-01
2.348000000000000043e+01,1.441953100391213938e-01
2.351999999999999957e+01,1.306822439949086867e-01
2.355999999999999872e+01,1.256862744682684385e-01
2.360000000000000142e+01,1.081687803727360841e-01
2.364000000000000057e+01,1.362364102028093826e-01
2.367999999999999972e+01,1.117089510019703830e-01
2.371999999999999886e+01,1.182399420788260991e-01
2.376000000000000156e+01,1.443082314737365590e-01
2.380000000000000071e+01,1.308053215929370905e-01
2.383999999999999986e+01,1.178047615327318109e-01
2.387999999999999901e+01,1.328571146962351235e-01
2.392000000000000171e+01,1.263713526165069212e-01
2.396000000000000085e+01,1.093676975816504915e-01
2.400000000000000000e+01,1.334408455257043158e-01
2.403999999999999915e+01,9.640322807033022134e-02
2.407999999999999829e+01,1.575472181110045278e-01
2.412000000000000099e+01,1.475620439538880557e-01
2.416000000000000014e+01,1.245543540934783144e-01
2.419999999999999929e+01,1.306013753369907604e-01
2.423999999999999844e+01,1.090992072292992637e-01
2.428000000000000114e+01,9.260760745079400780e-02
2.432000000000000028e+01,9.014312057866624706e-02
2.435999999999999943e+01,1.157314854673843624e-01
2.439999999999999858e+01,8.972650798635252445e-02
2.444000000000000128e+01,1.278405708187441703e-01
2.448000000000000043e+01,1.168658781762133975e-01
2.451999999999999957e+01,1.459660830723708558e-01
2.455999999999999872e+01,1.014324702911416909e-01
2.460000000000000142e+01,1.009811002266114283e-01
2.464000000000000057e+01,1.140558826654895913e-01
2.467999999999999972e+01,1.101007273944866055e-01
2.471999999999999886e+01,1.196717143830822172e-01
2.476000000000000156e+01,8.366034603751199006e-02
2.480000000000000071e+01,1.017495833536666977e-01
2.483999999999999986e+01,1.148309287377823340e-01
2.487999999999999901e+01,8.333174227747210117e-02
2.492000000000000171e+01,1.059331461131713947e-01
2.496000000000000085e+01,6.892642502880544364e-02
2.500000000000000000e+01,9.804235026210160464e-02
2.503999999999999915e+01,4.801428265014551916e-02
2.507999999999999829e+01,8.564838650432804457e-02
2.512000000000000099e+01,1.162708848622248936e-01
2.516000000000000014e+01,1.153367206432774628e-01
2.519999999999999929e+01,1.134019738169652902e-01
2.523999999999999844e+01,6.037469648862116983e-02
2.528000000000000114e+01,8.549209589006542820e-02
2.532000000000000028e+01,9.007303963705258487e-02
2.535999999999999943e+01,8.113039459586318669e-02
2.539999999999999858e+01,1.287928755264593494e-01
2.544000000000000128e+01,1.338784306168673555e-01
2.548000000000000043e+01,1.179265901374692976e-01
2.551999999999999957e+01,9.045481809318484112e-02
2.555999999999999872e+01,7.550724189303475997e-02
2.560000000000000142e+01,5.705443472782992936e-02
2.564000000000000057e+01,7.817546226024005285e-02
2.567999999999999972e+01,1.103179119878860276e-01
2.571999999999999886e+01,1.048925942992835619e-01
2.576000000000000156e+01,7.492340919344550598e-02
2.580000000000000071e+01,9.655010456306473143e-02
2.583999999999999986e+01,5.856856233070467654e-02
2.587999999999999901e+01,8.069852060136131766e-02
2.592000000000000171e+01,8.780206009398620892e-02
2.596000000000000085e+01,9.540767794623042364e-02
2.600000000000000000e+01,1.070218050302819968e-01
2.603999999999999915e+01,1.266517916460574433e-01
2.607999999999999829e+01,8.617259050069479842e-02
2.612000000000000099e+01,1.133186505428312868e-01
2.616000000000000014e+01,6.081965489864272351e-02
2.619999999999999929e+01,6.542660221586331371e-02
2.623999999999999844e+01,8.355949716028483742e-02
2.628000000000000114e+01,7.213926382542730498e-02
2.632000000000000028e+01,6.773301531350169047e-02
2.635999999999999943e+01,8.386557105124815836e-02
2.639999999999999858e+01,9.098267968083227630e-02
2.644000000000000128e+01,3.899239330758681038e-02
2.648000000000000043e+01,7.817053512789241820e-02
2.651999999999999957e+01,7.427069338884220717e-02
2.655999999999999872e+01,7.888756402447515137e-02
2.660000000000000142e+01,6.797700938196063469e-02
2.664000000000000057e+01,4.354270205030444374e-02
2.667999999999999972e+01,9.575013389857189861e-02
2.671999999999999886e+01,1.018740400115918376e-01
2.676000000000000156e+01,7.343556210519396055e-02
2.680000000000000071e+01,6.804042924614954468e-02
2.683999999999999986e+01,8.919507230664659725e-02
2.687999999999999901e+01,8.981305995838333167e-02
2.692000000000000171e+01,5.286312653671657036e-02
2.696000000000000085e+01,5.147950336797225274e-02
2.700000000000000000e+01,4.659046996749178354e-02
2.703999999999999915e+01,1.288624376320686993e-01
2.707999999999999829e+01,6.987614219600363219e-02
2.712000000000000099e+01,9.604715987027476198e-02
2.716000000000000014e+01,7.312907890197545280e-02
2.719999999999999929e+01,5.271659522514574731e-02
2.723999999999999844e+01,9.041176019564489685e-02
2.728000000000000114e+01,1.039184955917464050e-02
2.732000000000000028e+01,5.359910293081348448e-02
2.735999999999999943e+01,6.875584801491618769e-02
2.739999999999999858e+01,6.037035453912581451e-02
2.744000000000000128e+01,7.252352702156762698e-02
2.748000000000000043e+01,6.614364497758194739e-02
2.751999999999999957e+01,7.679598265392481582e-02
2.755999999999999872e+01,1.094897292059674038e-01
2.760000000000000142e+01,9.008880420811615775e-02
2.764000000000000057e+01,5.365756247940024759e-02
2.767999999999999972e+01,5.679989423113468439e-02
2.771999999999999886e+01,5.493396527365636273e-02
2.776000000000000156e+01,5.857907846734052709e-02
2.780000000000000071e+01,5.521224299709052985e-02
2.783999999999999986e+01,7.288494169374876153e-02
2.787999999999999901e+01,7.452913178356575241e-02
2.792000000000000171e+01,5.012641959008425074e-02
2.796000000000000085e+01,2.372093252232468363e-02
2.800000000000000000e+01,5.943035220751697462e-02
2.803999999999999915e+01,1.026544559014448549e-01
2.807999999999999829e+01,8.927555173306948866e-02
2.812000000000000099e+01,5.736351108778339064e-02
2.816000000000000014e+01,2.845786423596953843e-02
2.819999999999999929e+01,9.172226419123855057e-02
2.823999999999999844e+01,7.884777811520571333e-02
2.828000000000000114e+01,6.897967046692905779e-02
2.832000000000000028e+01,9.117126293270610971e-02
2.835999999999999943e+01,5.375429511647703690e-02
2.839999999999999858e+01,2.184828750092667957e-02
2.844000000000000128e+01,4.604609716463964331e-02
2.848000000000000043e+01,8.627416476750121577e-02
2.851999999999999957e+01,4.234859964208289446e-02
2.855999999999999872e+01,2.547350962201052130e-02
2.860000000000000142e+01,5.919210268857664353e-02
2.864000000000000057e+01,3.680853561389377943e-02
2.867999999999999972e+01,8.455449906341609700e-02
2.871999999999999886e+01,5.465875673559175002e-02
2.876000000000000156e+01,4.379875305994512802e-02
2.880000000000000071e+01,6.299471032457903963e-02
2.883999999999999986e+01,6.866663319528548692e-02
2.887999999999999901e+01,2.474831775377081891e-02
2.892000000000000171e+01,3.342732213456373058e-02
2.896000000000000085e+01,2.457492133389250349e-02
2.900000000000000000e+01,5.329224727989026467e-02
2.903999999999999915e+01,2.690920072104229996e-02
2.907999999999999829e+01,6.314184205143352768e-02
2.912000000000000099e+01,2.123180695769799620e-02
2.916000000000000014e+01,2.941446381620109810e-02
2.919999999999999929e+01,3.359050931045470118e-02
2.923999999999999844e+01,7.283165368130779804e-02
2.928000000000000114e+01,5.647147538815669443e-02
2.932000000000000028e+01,4.962949491368578298e-02
2.935999999999999943e+01,5.130386828053525028e-02
2.939999999999999858e+01,5.398079895088562369e-02
2.944000000000000128e+01,6.968234806829418093e-02
2.948000000000000043e+01,2.827979062898964072e-02
2.951999999999999957e+01,5.099562302114987733e-02
2.955999999999999872e+01,2.412113002870097667e-02
2.960000000000000142e+01,3.431536752661530632e-02
2.964000000000000057e+01,1.545696593294220225e-02
2.967999999999999972e+01,7.875003308130749946e-02
2.971999999999999886e+01,4.185989215695328641e-02
2.976000000000000156e+01,5.972262438953130671e-03
2.980000000000000071e+01,6.175355522410078818e-02
2.983999999999999986e+01,2.486541598672731279e-02
2.987999999999999901e+01,0.000000000000000000e+00
2.992000000000000171e+01,3.825108377023079403e-02
2.996000000000000085e+01,2.791362979225526716e-02
3.000000000000000000e+01,4.262278882012847381e-02
3.003999999999999915e+01,3.228661295918310026e-02
3.007999999999999829e+01,4.048508729981710463e-02
3.012000000000000099e+01,5.569705988238984884e-02
3.016000000000000014e+01,4.636460163815607494e-02
3.019999999999999929e+01,7.660539419434614361e-02
3.023999999999999844e+01,4.623554688353057052e-02
3.028000000000000114e+01,2.488285503794379627e-02
3.032000000000000028e+01,3.158225178932963506e-02
3.035999999999999943e+01,6.933924858214877973e-02
3.039999999999999858e+01,5.299753758080106431e-02
3.044000000000000128e+01,2.162882902613527669e-02
3.048000000000000043e+01,3.534344912356059826e-02
3.051999999999999957e+01,6.358530765978701038e-02
3.055999999999999872e+01,3.121648535376673680e-02
3.060000000000000142e+01,5.495120374412944958e-02
3.064000000000000057e+01,9.120946749666726527e-02
3.067999999999999972e+01,8.088277901761620203e-02
3.071999999999999886e+01,7.606675366874299238e-02
3.076000000000000156e+01,9.379264687088176289e-02
3.080000000000000071e+01,6.994276675299221369e-02
3.083999999999999986e+01,6.613019780366588551e-02
3.087999999999999901e+01,9.838435658828179053e-02
3.092000000000000171e+01,7.653974099396311515e-02
3.096000000000000085e+01,9.376735945614189660e-02
3.100000000000000000e+01,1.210138800447107948e-01
3.103999999999999915e+01,1.482609090832125165e-01
3.107999999999999829e+01,6.430432849421076347e-02
3.112000000000000099e+01,1.471544155446281310e-01
3.116000000000000014e+01,1.228082381455523758e-01
3.119999999999999929e+01,1.535636857588266180e-01
3.123999999999999844e+01,1.462497397052084647e-01
3.128000000000000114e+01,2.175806215233282992e-01
3.132000000000000028e+01,1.641830384338675564e-01
3.135999999999999943e+01,2.084652112259834655e-01
3.139999999999999858e+01,2.357165858281465576e-01
3.144000000000000128e+01,1.597790155493011011e-01
3.148000000000000043e+01,2.872151850368444559e-01
3.151999999999999957e+01,2.914256222904639260e-01
3.155999999999999872e+01,3.597541881583838919e-01
3.160000000000000142e+01,3.910151531177202822e-01
3.164000000000000057e+01,4.753740090375390137e-01
3.167999999999999972e+01,5.757627131440914425e-01
3.171999999999999886e+01,6.025166827522283608e-01
3.176000000000000156e+01,6.633335897014828175e-01
3.180000000000000071e+01,6.725562067285266732e-01
3.183999999999999986e+01,6.727626800683021990e-01
3.187999999999999901e+01,6.158647395370531186e-01
3.192000000000000171e+01,6.571474026084358488e-01
3.196000000000000085e+01,5.641840496949305228e-01
3.200000000000000000e+01,4.762302765829092288e-01
3.203999999999999915e+01,4.248440020973072162e-01
3.207999999999999829e+01,3.554250034939089309e-01
3.211999999999999744e+01,3.376010761049478281e-01
3.215999999999999659e+01,2.872177509502789050e-01
3.220000000000000284e+01,2.553688045362142445e-01
3.224000000000000199e+01,2.580836534281323313e-01
3.228000000000000114e+01,2.482758662977316289e-01
3.232000000000000028e+01,2.625125562472235830e-01
3.235999999999999943e+01,2.792541827624150375e-01
3.239999999999999858e+01,2.393922482495417225e-01
3.243999999999999773e+01,2.085471926190168579e-01
3.247999999999999687e+01,1.716914279171064539e-01
3.252000000000000313e+01,1.658929866737492431e-01
3.256000000000000227e+01,1.305406130119979857e-01
3.260000000000000142e+01,1.432768131077284957e-01
3.264000000000000057e+01,1.344737813848965458e-01
3.267999999999999972e+01,1.507170195002654478e-01
3.271999999999999886e+01,1.359035464264369275e-01
3.275999999999999801e+01,1.486409300856370297e-01
3.279999999999999716e+01,1.318243505950120464e-01
3.284000000000000341e+01,1.285328736172318687e-01
3.288000000000000256e+01,9.518650381808867189e-02
3.292000000000000171e+01,1.580169318630370856e-01
3.296000000000000085e+01,1.216655758164007922e-01
3.300000000000000000e+01,1.379110171577428712e-01
3.303999999999999915e+01,9.053994353235073067e-02
3.307999999999999829e+01,1.248189838593282419e-01
3.311999999999999744e+01,9.798609611439949851e-02
3.315999999999999659e+01,7.015160650297305733e-02
3.320000000000000284e+01,1.169543434900144202e-01
3.324000000000000199e+01,9.262674848488124113e-02
3.328000000000000114e+01,1.158867207371138824e-01
3.332000000000000028e+01,1.226165683756721692e-01
3.335999999999999943e+01,8.526571775363167571e-02
3.339999999999999858e+01,9.750609673415221168e-02
3.343999999999999773e+01,1.518239087794138464e-01
3.347999999999999687e+01,8.592125418376340973e-02
3.352000000000000313e+01,1.462504862672836248e-01
3.356000000000000227e+01,1.214236014070147751e-01
3.360000000000000142e+01,1.081180440324816389e-01
3.364000000000000057e+01,1.363889746854362595e-01
3.367999999999999972e+01,1.260892798075545773e-01
3.371999999999999886e+01,1.137860725010474555e-01
3.375999999999999801e+01,1.255271578858460080e-01
3.379999999999999716e+01,1.507932228577646139e-01
3.384000000000000341e+01,1.960962148553576923e-01
3.388000000000000256e+01,1.938120060134913558e-01
3.392000000000000171e+01,2.025481642543916216e-01
3.396000000000000085e+01,2.333249118661611388e-01
3.400000000000000000e+01,2.375530592373154282e-01
3.403999999999999915e+01,2.112252458241287156e-01
3.407999999999999829e+01,2.820759205752382259e-01
3.411999999999999744e+01,3.088457997495507312e-01
3.415999999999999659e+01,3.436304987088326657e-01
3.420000000000000284e+01,3.658923157943472781e-01
3.424000000000000199e+01,3.811413595891927630e-01
3.428000000000000114e+01,4.034033689478371265e-01
3.432000000000000028e+01,3.690615714269678826e-01
3.435999999999999943e+01,3.973347857038532771e-01
3.439999999999999858e+01,4.095786565033514015e-01
3.443999999999999773e+01,3.932701930103671972e-01
3.447999999999999687e+01,4.180371905571337865e-01
3.452000000000000313e+01,4.372941372430781404e-01
3.456000000000000227e+01,4.144739097221785684e-01
3.460000000000000142e+01,3.901509765184670853e-01
3.464000000000000057e+01,3.217471811531908421e-01
3.467999999999999972e+01,3.084445651945131317e-01
3.471999999999999886e+01,3.096686498745917504e-01
3.475999999999999801e+01,3.254194300715213539e-01
3.479999999999999716e+01,3.111150715956386148e-01
3.484000000000000341e+01,2.407077590832027714e-01
3.488000000000000256e+01,2.254016003678393776e-01
3.492000000000000171e+01,2.301322303867099905e-01
3.496000000000000085e+01,1.802626492864944086e-01
3.500000000000000000e+01,2.641385567708719462e-01
3.503999999999999915e+01,1.957349544854673218e-01
3.507999999999999829e+01,1.969591437917102839e-01
3.511999999999999744e+01,2.132109019453852228e-01
3.515999999999999659e+01,2.214479301491165397e-01
3.520000000000000284e+01,2.532281472278389844e-01
3.524000000000000199e+01,2.289053590509558811e-01
3.528000000000000114e+01,2.656947065848249689e-01
3.532000000000000028e+01,2.073093232565240140e-01
3.535999999999999943e+01,2.471041030470087496e-01
3.539999999999999858e+01,2.643574587520174379e-01
3.543999999999999773e+01,2.400344469959959648e-01
3.547999999999999687e+01,2.683079150698311488e-01
3.552000000000000313e+01,2.795500573974787906e-01
3.556000000000000227e+01,2.802728214174928234e-01
3.560000000000000142e+01,3.260782584857336297e-01
3.564000000000000057e+01,3.333128190497837706e-01
3.567999999999999972e+01,3.089893699759246881e-01
3.571999999999999886e+01,3.542936305432301536e-01
3.575999999999999801e+01,3.910821649042867110e-01
3.579999999999999716e+01,4.243641622144647130e-01
3.584000000000000341e+01,4.210789351218370280e-01
3.588000000000000256e+01,5.299995485396002959e-01
3.592000000000000171e+01,6.058593633048406923e-01
3.596000000000000085e+01,5.965627538119804285e-01
3.600000000000000000e+01,6.443708324137576993e-01
3.603999999999999915e+01,7.192284283246107579e-01
3.607999999999999829e+01,7.780564656380586364e-01
3.611999999999999744e+01,8.383871192026631780e-01
3.615999999999999659e+01,8.861946399201457991e-01
3.620000000000000284e+01,8.819063878781193688e-01
3.624000000000000199e+01,9.677834754293223041e-01
3.628000000000000114e+01,9.995611022662954648e-01
3.632000000000000028e+01,9.642153581462156176e-01
3.635999999999999943e+01,1.000000000000000000e+00
3.639999999999999858e+01,9.120573653197001640e-01
3.643999999999999773e+01,8.817202818208085269e-01
3.647999999999999687e+01,7.962818731427059316e-01
3.652000000000000313e+01,7.018267215144279314e-01
3.656000000000000227e+01,6.775000913950331993e-01
3.660000000000000142e+01,6.115969452793574845e-01
3.664000000000000057e+01,5.852662253373697165e-01
3.667999999999999972e+01,5.228690928602948151e-01
3.671999999999999886e+01,5.005452957408249581e-01
3.675999999999999801e+01,4.386486398483641636e-01
3.679999999999999716e+01,4.233372616301571689e-01
3.684000000000000341e+01,4.065228909024476422e-01
3.688000000000000256e+01,4.117487356465283632e-01
3.692000000000000171e+01,3.879210091122770043e-01
3.696000000000000085e+01,3.856325683782782510e-01
3.700000000000000000e+01,3.653107735321445282e-01
3.703999999999999915e+01,2.753609183960264439e-01
3.707999999999999829e+01,3.391930626145361338e-01
3.711999999999999744e+01,3.013382929246832820e-01
3.715999999999999659e+01,3.281018542101318824e-01
3.720000000000000284e+01,2.601913633315943719e-01
3.724000000000000199e+01,2.984755056859403344e-01
3.728000000000000114e+01,2.966858032547999291e-01
3.732000000000000028e+01,2.663433977540032305e-01
3.735999999999999943e+01,2.705641319553250823e-01
3.739999999999999858e+01,2.642652522413747040e-01
3.743999999999999773e+01,2.780028385816313841e-01
3.747999999999999687e+01,2.476591991050549613e-01
3.752000000000000313e+01,2.879448776393647158e-01
3.756000000000000227e+01,2.931658698121281659e-01
3.760000000000000142e+01,3.064012412860150913e-01
3.764000000000000057e+01,2.735516887445376688e-01
3.767999999999999972e+01,3.123332725817809519e-01
3.771999999999999886e+01,3.190556661362228263e-01
3.775999999999999801e+01,3.322896602209845507e-01
3.779999999999999716e+01,2.894203212482088783e-01
3.784000000000000341e+01,3.702777186502054230e-01
3.788000000000000256e+01,4.225823412758730746e-01
3.792000000000000171e+01,4.663709611124113308e-01
3.796000000000000085e+01,4.911242650556352229e-01
3.800000000000000000e+01,5.444295936177631079e-01
3.803999999999999915e+01,6.768798038773792269e-01
3.807999999999999829e+01,7.422064178161137393e-01
3.811999999999999744e+01,8.250648135980294118e-01
3.815999999999999659e+01,8.062361623020475321e-01
3.820000000000000284e+01,8.129539934490780384e-01
3.824000000000000199e+01,8.211741693862898428e-01
3.828000000000000114e+01,8.334012821304164209e-01
3.832000000000000028e+01,7.384312136040207530e-01
3.835999999999999943e+01,7.797108005608204273e-01
3.839999999999999858e+01,7.443492810946723548e-01
3.843999999999999773e+01,6.709174460186979605e-01
3.847999999999999687e+01,6.290430906651309773e-01
3.852000000000000313e+01,6.207298876229770945e-01
3.856000000000000227e+01,5.292636051097954208e-01
3.860000000000000142e+01,4.883897252069552275e-01
3.864000000000000057e+01,4.490181388752446656e-01
3.867999999999999972e+01,4.301837792464078269e-01
3.871999999999999886e+01,4.253746886380808112e-01
3.875999999999999801e+01,4.080421322587945987e-01
3.879999999999999716e+01,3.431217450457106910e-01
3.884000000000000341e+01,3.227826965788054836e-01
3.888000000000000256e+01,2.804026978484008281e-01
3.892000000000000171e+01,2.780957527708159405e-01
3.896000000000000085e+01,2.878103682713991640e-01
3.900000000000000000e+01,2.739812598595844362e-01
3.903999999999999915e+01,2.736764600653101565e-01
3.907999999999999829e+01,2.443178124098238091e-01
3.911999999999999744e+01,2.760708087621913109e-01
3.915999999999999659e+01,2.507184590567897442e-01
3.920000000000000284e+01,2.338812032040316069e-01
3.924000000000000199e+01,2.355774246365644753e-01
3.928000000000000114e+01,2.843595256129570203e-01
3.932000000000000028e+01,2.549976440793996213e-01
3.935999999999999943e+01,2.276388833504062181e-01
3.939999999999999858e+01,2.804266690295797448e-01
3.943999999999999773e+01,2.405437934289870738e-01
3.947999999999999687e+01,2.778019374263852037e-01
3.952000000000000313e+01,2.394206704429455435e-01
3.956000000000000227e+01,2.055470957931820053e-01
3.960000000000000142e+01,2.628402693520671130e-01
3.964000000000000057e+01,2.329728697266636450e-01
3.967999999999999972e+01,2.341618767387844413e-01
3.971999999999999886e+01,2.433649915910537642e-01
3.975999999999999801e+01,2.615840480170215643e-01
3.979999999999999716e+01,2.597657140865810010e-01
3.984000000000000341e+01,2.659614726305734034e-01
3.988000000000000256e+01,2.561271859961677388e-01
3.992000000000000171e+01,2.663290478578477227e-01
3.996000000000000085e+01,2.745265982736926902e-01
4.000000000000000000e+01,2.942446566704430277e-01
4.003999999999999915e+01,2.693802420207007664e-01
4.007999999999999829e+01,2.595427611021469128e-01
4.011999999999999744e+01,2.917818578901674731e-01
4.015999999999999659e+01,2.694200777114274525e-01
4.020000000000000284e+01,2.700999267418023320e-01
4.024000000000000199e+01,2.993315135643903058e-01
4.028000000000000114e+01,3.070228902845249519e-01
4.032000000000000028e+01,2.581096918393674944e-01
4.035999999999999943e+01,3.294164710948619956e-01
4.039999999999999858e+01,3.195736129826007854e-01
4.043999999999999773e+01,3.027171876843661735e-01
4.047999999999999687e+01,3.134106305914584611e-01
4.052000000000000313e+01,3.441401451660586197e-01
4.056000000000000227e+01,2.967255184516476851e-01
4.060000000000000142e+01,3.314609621991588817e-01
4.064000000000000057e+01,3.431533914638867921e-01
4.067999999999999972e+01,3.653644027816767004e-01
4.071999999999999886e+01,3.454974511192238085e-01
4.075999999999999801e+01,3.005837918973616185e-01
4.079999999999999716e+01,3.834038454511085048e-01
4.084000000000000341e+01,3.339804236679256855e-01
4.088000000000000256e+01,3.366518708296712958e-01
4.092000000000000171e+01,3.678749687112419231e-01
4.096000000000000085e+01,3.715467362852394873e-01
4.100000000000000000e+01,3.476671684297586440e-01
4.103999999999999915e+01,3.428217668015626218e-01
4.107999999999999829e+01,3.815555782373996063e-01
4.111999999999999744e+01,3.777104560462140048e-01
4.115999999999999659e+01,3.748663853184035499e-01
4.120000000000000284e+01,3.890527826193467265e-01
4.124000000000000199e+01,3.877098800248431898e-01
4.128000000000000114e+01,3.347714736165992022e-01
4.132000000000000028e+01,2.988635198713934793e-01
4.135999999999999943e+01,3.385935867114518438e-01
4.139999999999999858e+01,3.157079069620465916e-01
4.143999999999999773e+01,2.792965794185792161e-01
4.147999999999999687e+01,3.290425650769403521e-01
4.152000000000000313e+01,3.056534807978425472e-01
4.156000000000000227e+01,2.962893018839858339e-01
4.160000000000000142e+01,2.703939381220804017e-01
4.164000000000000057e+01,2.915841517116287140e-01
4.167999999999999972e+01,3.017532839143218237e-01
4.171999999999999886e+01,2.803636330714222580e-01
4.175999999999999801e+01,2.309216300551179823e-01
4.179999999999999716e+01,2.165431176371836464e-01
4.184000000000000341e+01,2.347234935570761960e-01
4.188000000000000256e+01,2.193413882328447417e-01
4.192000000000000171e+01,2.305071278698982706e-01
4.196000000000000085e+01,2.411710582490401711e-01
4.200000000000000000e+01,2.072522646083349296e-01
4.203999999999999915e+01,2.013840588463820802e-01
4.207999999999999829e+01,1.589478296644134536e-01
4.211999999999999744e+01,1.851366517633238618e-01
4.215999999999999659e+01,1.967978950184234022e-01
4.220000000000000284e+01,2.029481040069041065e-01
4.224000000000000199e+01,1.790422216482073225e-01
4.228000000000000114e+01,1.826859770091040502e-01
4.232000000000000028e+01,1.577763890621958487e-01
4.235999999999999943e+01,1.443870069037871684e-01
4.239999999999999858e+01,1.480279391169764258e-01
4.243999999999999773e+01,1.125962046743651107e-01
4.247999999999999687e+01,1.898703850555165107e-01
4.252000000000000313e+01,1.489266189560934928e-01
4.256000000000000227e+01,1.455508432774799132e-01
4.260000000000000142e+01,1.451796123845650877e-01
4.264000000000000057e+01,1.177577554917867697e-01
4.267999999999999972e+01,1.153808879609117821e-01
4.271999999999999886e+01,1.064910807231953249e-01
4.275999999999999801e+01,1.276554468808482334e-01
4.279999999999999716e+01,1.062406642914606875e-01
4.284000000000000341e+01,1.218929168418186743e-01
4.288000000000000256e+01,9.747060753996396321e-02
4.292000000000000171e+01,1.346603750926977927e-01
4.296000000000000085e+01,1.237608597057665155e-01
4.300000000000000000e+01,9.432630249319455540e-02
4.303999999999999915e+01,1.054651908049355630e-01
4.307999999999999829e+01,1.140984487345090698e-01
4.311999999999999744e+01,1.001892940509053337e-01
4.315999999999999659e+01,1.198406975377124956e-01
4.320000000000000284e+01,1.014211759079758218e-01
4.324000000000000199e+01,9.151623081845851326e-02
4.328000000000000114e+01,1.061552788345394571e-01
4.332000000000000028e+01,9.975464691109985071e-02
4.335999999999999943e+01,1.304209835426384245e-01
4.339999999999999858e+01,1.099924643271893154e-01
4.343999999999999773e+01,8.004539664423941658e-02
4.347999999999999687e+01,1.307452723628548252e-01
4.352000000000000313e+01,1.303502768687668234e-01
4.356000000000000227e+01,7.886040504007038598e-02
4.360000000000000142e+01,1.125257360967721332e-01
4.364000000000000057e+01,1.296596210882605682e-01
4.367999999999999972e+01,1.257537800430820751e-01
4.371999999999999886e+01,1.153348712434321410e-01
4.375999999999999801e+01,1.099240364051409236e-01
4.379999999999999716e+01,1.110240286894861039e-01
4.384000000000000341e+01,1.101192127031928591e-01
4.388000000000000256e+01,1.212353273007293758e-01
4.392000000000000171e+01,1.113116851301678145e-01
4.396000000000000085e+01,1.339466598364578431e-01
4.400000000000000000e+01,1.340391092476564960e-01
4.403999999999999915e+01,1.100862699586757643e-01
4.407999999999999829e+01,1.352223732958425517e-01
4.411999999999999744e+01,1.398196136831127423e-01
4.415999999999999659e+01,1.614469430781526049e-01
4.420000000000000284e+01,1.895850483767770045e-01
4.424000000000000199e+01,1.175380863510979007e-01
4.428000000000000114e+01,1.466756618257127609e-01
4.432000000000000028e+01,1.267219413604309119e-01
4.435999999999999943e+01,1.543543693847774512e-01
4.439999999999999858e+01,1.719672065881710787e-01
4.443999999999999773e+01,1.665365427277886445e-01
4.447999999999999687e+01,1.165228372894371589e-01
4.452000000000000313e+01,1.296237621126495321e-01
4.456000000000000227e+01,1.211839287895531692e-01
4.460000000000000142e+01,1.548200995196500895e-01
4.464000000000000057e+01,1.483814830337060464e-01
4.467999999999999972e+01,1.284168038793794264e-01
4.471999999999999886e+01,1.445170802797992871e-01
4.475999999999999801e+01,1.080195684052718402e-01
4.479999999999999716e+01,1.030787269921320803e-01
4.484000000000000341e+01,1.091568543816423542e-01
4.488000000000000256e+01,9.669969921596797968e-02
4.492000000000000171e+01,7.873116149412169584e-02
4.496000000000000085e+01,9.532479031240806422e-02
4.500000000000000000e+01,1.008969126257082821e-01
4.503999999999999915e+01,9.945487873393828171e-02
4.507999999999999829e+01,8.448673095473406558e-02
4.511999999999999744e+01,5.749522244937305127e-02
4.515999999999999659e+01,7.157780743507746735e-02
4.520000000000000284e+01,9.116920142128143167e-02
4.524000000000000199e+01,8.120503934514640421e-02
4.528000000000000114e+01,7.023772346524145838e-02
4.532000000000000028e+01,4.925069896056431806e-02
4.535999999999999943e+01,7.785337260879640620e-02
4.539999999999999858e+01,7.690046970706865270e-02
4.543999999999999773e+01,6.542692338712541300e-02
4.547999999999999687e+01,5.194835879843113374e-02
4.552000000000000313e+01,5.850522563909578422e-02
4.556000000000000227e+01,6.556166110583694362e-02
4.560000000000000142e+01,6.009375495583162835e-02
4.564000000000000057e+01,6.163735974855132083e-02
4.567999999999999972e+01,5.967316237981129534e-02
4.571999999999999886e+01,6.772598227635184820e-02
4.575999999999999801e+01,8.379213660535723973e-02
4.579999999999999716e+01,8.432840714172445962e-02
4.584000000000000341e+01,6.482651391399940621e-02
4.588000000000000256e+01,8.138942770577066443e-02
4.592000000000000171e+01,8.342428119464302683e-02
4.596000000000000085e+01,1.029899126332790710e-01
4.600000000000000000e+01,5.593185304153401594e-02
4.603999999999999915e+01,5.796248510258211056e-02
4.607999999999999829e+01,3.795124495719656016e-02
4.611999999999999744e+01,4.749282853941683147e-02
4.615999999999999659e+01,4.150448223185201208e-02
4.620000000000000284e+01,6.406711055262750976e-02
4.624000000000000199e+01,6.609060446253135768e-02
4.628000000000000114e+01,8.764851305786791613e-02
4.632000000000000028e+01,9.067095470943302427e-02
4.635999999999999943e+01,8.717999056078414022e-02
4.639999999999999858e+01,7.717561549001634991e-02
4.643999999999999773e+01,7.768908491796343296e-02
4.647999999999999687e+01,7.619740802952951197e-02
4.652000000000000313e+01,1.022548259387391217e-01
4.656000000000000227e+01,6.870135309908140253e-02
4.660000000000000142e+01,8.674109734418251894e-02
4.664000000000000057e+01,9.275728623072952705e-02
4.667999999999999972e+01,6.470945981680228942e-02
4.671999999999999886e+01,7.422909114554479548e-02
4.675999999999999801e+01,7.573250717183874214e-02
4.679999999999999716e+01,1.022803850038017520e-01
4.684000000000000341e+01,6.170354481764685900e-02
4.688000000000000256e+01,7.672724128473537575e-02
4.692000000000000171e+01,9.325217108857918047e-02
4.696000000000000085e+01,9.324522970907896113e-02
4.700000000000000000e+01,1.122716913929904525e-01
4.703999999999999915e+01,1.122616745111094105e-01
4.707999999999999829e+01,9.221333508607536256e-02
4.711999999999999744e+01,1.007158524855623211e-01
4.715999999999999659e+01,9.719474794172767995e-02
4.720000000000000284e+01,1.227254094063312262e-01
4.724000000000000199e+01,1.327260026897096601e-01
4.728000000000000114e+01,1.136716981213119343e-01
4.732000000000000028e+01,1.066378836528977664e-01
4.735999999999999943e+01,1.201401844339314851e-01
4.739999999999999858e+01,1.401528513661344233e-01
4.743999999999999773e+01,1.281050833925748700e-01
4.747999999999999687e+01,1.290796238868333334e-01
4.752000000000000313e+01,1.240415294733550194e-01
4.756000000000000227e+01,1.230091835847872406e-01
4.760000000000000142e+01,1.244798228160419462e-01
4.764000000000000057e+01,1.434810248770423680e-01
4.767999999999999972e+01,1.294199224453938535e-01
4.771999999999999886e+01,1.148562732014865445e-01
4.775999999999999801e+01,1.498820147961769378e-01
4.779999999999999716e+01,1.393224508393126060e-01
4.784000000000000341e+01,1.142345807281004849e-01
4.788000000000000256e+01,1.121873564202067186e-01
4.792000000000000171e+01,9.460997685869963758e-02
4.796000000000000085e+01,1.271228819539920174e-01
4.800000000000000000e+01,1.065366644722892386e-01
4.803999999999999915e+01,1.195103802885641997e-01
4.807999999999999829e+01,1.174548397913325465e-01
4.811999999999999744e+01,7.081579162275992989e-02
4.815999999999999659e+01,7.576976078464361941e-02
4.820000000000000284e+01,9.675146278641742759e-02
4.824000000000000199e+01,7.565423888977274025e-02
4.828000000000000114e+01,1.066509363855963760e-01
4.832000000000000028e+01,8.755398689554914904e-02
4.835999999999999943e+01,3.940200126228578237e-02
4.839999999999999858e+01,6.838989304215620235e-02
4.843999999999999773e+01,8.184756298364576077e-02
4.847999999999999687e+01,9.430166936895015284e-02
4.852000000000000313e+01,1.027466905097987465e-01
4.856000000000000227e+01,1.056798630011032136e-01
4.860000000000000142e+01,6.803682178002520842e-02
4.864000000000000057e+01,8.599409184836227793e-02
4.867999999999999972e+01,7.790180136460732319e-02
4.871999999999999886e+01,7.331419144278479572e-02
4.875999999999999801e+01,8.425332322645223693e-02
4.879999999999999716e+01,8.266770364095785140e-02
4.884000000000000341e+01,5.803801958211645545e-02
4.888000000000000256e+01,6.596632240578854944e-02
4.892000000000000171e+01,8.090571617596037379e-02
4.896000000000000085e+01,6.127988326933438840e-02
4.900000000000000000e+01,7.872029672905490882e-02
4.903999999999999915e+01,6.510190926226058772e-02
4.907999999999999829e+01,9.255711333982329092e-02
4.911999999999999744e+01,9.145810338569887454e-02
4.915999999999999659e+01,1.073885422011953000e-01
4.920000000000000284e+01,6.721418821617537731e-02
4.924000000000000199e+01,8.063639098108218994e-02
4.928000000000000114e+01,4.797217925621437284e-02
4.932000000000000028e+01,5.037049521154109144e-02
4.935999999999999943e+01,7.631018688742187417e-02
4.939999999999999858e+01,8.822229208238009657e-02
4.943999999999999773e+01,6.156175371585733552e-02
4.947999999999999687e+01,5.593797856553492376e-02
4.952000000000000313e+01,7.836383349769446283e-02
4.956000000000000227e+01,4.769036609855650116e-02
4.960000000000000142e+01,1.021713332990384498e-01
4.964000000000000057e+01,7.850699653803165645e-02
4.967999999999999972e+01,7.838399452233733855e-02
4.971999999999999886e+01,6.773980104457238971e-02
4.975999999999999801e+01,5.659279953738390045e-02
4.979999999999999716e+01,5.596321228887429083e-02
4.984000000000000341e+01,3.930230450757458971e-02
4.988000000000000256e+01,8.174798523072231149e-02
4.992000000000000171e+01,7.359889466406402403e-02
4.996000000000000085e+01,8.348098928437817923e-02
5.000000000000000000e+01,7.783266231200901275e-02
5.003999999999999915e+01,8.470539657779817266e-02
5.007999999999999829e+01,7.805137671800416177e-02
5.011999999999999744e+01,7.991105243073710895e-02
5.015999999999999659e+01,8.427338546136028952e-02
5.020000000000000284e+01,8.312365984432669441e-02
5.024000000000000199e+01,6.193520705363028678e-02
5.028000000000000114e+01,7.580915901740364893e-02
5.032000000000000028e+01,8.417103696780471600e-02
5.035999999999999943e+01,8.852359406611111370e-02
5.039999999999999858e+01,4.528683497811487879e-02
5.043999999999999773e+01,7.868877265835999557e-02
5.047999999999999687e+01,2.993794339528655854e-02
5.052000000000000313e+01,8.587728860939067288e-02
5.056000000000000227e+01,1.002383302823029038e-01
5.060000000000000142e+01,5.148152789983028582e-02
5.064000000000000057e+01,8.236891324243891810e-02
5.067999999999999972e+01,5.614947741858385827e-02
5.071999999999999886e+01,8.653192540052916104e-02
5.075999999999999801e+01,8.335075507539840833e-02
5.079999999999999716e+01,5.411975273720066176e-02
5.084000000000000341e+01,6.445935829634878711e-02
5.088000000000000256e+01,7.629969012363856107e-02
5.092000000000000171e+01,6.209017457214568991e-02
5.096000000000000085e+01,6.991907158181655257e-02
5.100000000000000000e+01,6.973121036708862519e-02
5.103999999999999915e+01,8.807531547562066909e-02
5.107999999999999829e+01,6.133461446410000406e-02
5.111999999999999744e+01,8.919206832841723720e-02
5.115999999999999659e+01,9.300332179343136219e-02
5.120000000000000284e+01,8.178491943633416084e-02
5.124000000000000199e+01,5.453501727976530628e-02
5.128000000000000114e+01,6.234739183003665947e-02
5.132000000000000028e+01,6.514848374703342826e-02
5.135999999999999943e+01,5.843001305930210082e-02
5.139999999999999858e+01,9.178299798997137382e-02
5.143999999999999773e+01,1.010897466680012180e-01
5.147999999999999687e+01,6.531163800692647847e-02
5.152000000000000313e+01,7.160864730944732637e-02
5.156000000000000227e+01,6.888698782544161459e-02
5.160000000000000142e+01,8.369538410256796568e-02
5.164000000000000057e+01,6.494004939070399662e-02
5.167999999999999972e+01,8.224877902208359293e-02
5.171999999999999886e+01,9.404525537340928387e-02
5.175999999999999801e+01,8.630372934640240246e-02
5.179999999999999716e+01,9.258579747690830197e-02
5.184000000000000341e+01,8.734456382891327142e-02
5.188000000000000256e+01,6.807542614187392371e-02
5.192000000000000171e+01,8.086296664482599261e-02
5.196000000000000085e+01,9.014190084720347107e-02
5.200000000000000000e+01,8.288831850618295916e-02
5.203999999999999915e+01,8.515002474169548752e-02
5.207999999999999829e+01,1.009343698536568912e-01
5.211999999999999744e+01,1.016889413396876440e-01
5.215999999999999659e+01,7.188523181832641440e-02
5.220000000000000284e+01,6.662437321770597887e-02
5.224000000000000199e+01,7.538705243364132724e-02
5.228000000000000114e+01,1.041842974769585928e-01
5.232000000000000028e+01,1.139443878629981116e-01
5.235999999999999943e+01,7.310939452301506991e-02
5.239999999999999858e+01,8.286503673608316967e-02
5.243999999999999773e+01,7.358350892615807270e-02
5.247999999999999687e+01,9.285215160545845503e-02
5.252000000000000313e+01,8.757350031295159376e-02
5.256000000000000227e+01,9.080823215675504212e-02
5.260000000000000142e+01,8.352140376131413080e-02
5.264000000000000057e+01,9.526725624065325582e-02
5.267999999999999972e+01,1.195338319124079757e-01
5.271999999999999886e+01,7.316850065188872099e-02
5.275999999999999801e+01,5.785790116589662607e-02
5.279999999999999716e+01,4.605145980750776497e-02
5.284000000000000341e+01,5.277675428664505702e-02
5.288000000000000256e+01,9.556595945187024155e-02
5.292000000000000171e+01,8.375265376257913508e-02
5.296000000000000085e+01,9.047106854509889828e-02
5.300000000000000000e+01,7.314304732067661297e-02
5.303999999999999915e+01,1.013963854215463450e-01
5.307999999999999829e+01,8.656833901801419540e-02
5.311999999999999744e+01,7.724808747775392670e-02
5.315999999999999659e+01,8.145033652250251166e-02
5.320000000000000284e+01,1.056870335908136060e-01
5.324000000000000199e+01,8.734324509482968568e-02
5.328000000000000114e+01,9.254033037269132622e-02
5.332000000000000028e+01,7.519369695155234123e-02
5.335999999999999943e+01,1.114430927241055885e-01
5.339999999999999858e+01,1.071156601556535609e-01
5.343999999999999773e+01,9.026288207703775379e-02
5.347999999999999687e+01,8.242428875864052373e-02
5.352000000000000313e+01,1.016329744767510701e-01
5.356000000000000227e+01,8.627584449896699703e-02
5.360000000000000142e+01,9.145403075342117827e-02
5.364000000000000057e+01,9.212155673182755022e-02
5.367999999999999972e+01,1.033060001441093445e-01
5.371999999999999886e+01,1.029669010483464237e-01
5.375999999999999801e+01,8.859965718399530343e-02
5.379999999999999716e+01,1.067897702078192818e-01
5.384000000000000341e+01,1.019351785201475791e-01
5.388000000000000256e+01,1.040910426627321556e-01
5.392000000000000171e+01,1.132573575136677779e-01
5.396000000000000085e+01,9.036240258829501826e-02
5.400000000000000000e+01,7.147237156109728651e-02
5.403999999999999915e+01,1.187012683483938263e-01
5.407999999999999829e+01,1.063183114686475916e-01
5.411999999999999744e+01,9.693842426590545958e-02
5.415999999999999659e+01,1.010809096005422791e-01
5.420000000000000284e+01,9.870898524154808618e-02
5.424000000000000199e+01,8.481345178974172838e-02
5.428000000000000114e+01,1.044770526187033394e-01
5.432000000000000028e+01,9.007565986329936492e-02
5.435999999999999943e+01,8.969753346347612843e-02
5.439999999999999858e+01,9.482703802595879305e-02
5.443999999999999773e+01,8.242187475337170444e-02
5.447999999999999687e+01,1.055794978629372299e-01
5.452000000000000313e+01,1.061932486163465611e-01
5.456000000000000227e+01,1.118136904167133655e-01
5.460000000000000142e+01,1.044077187439382964e-01
5.464000000000000057e+01,9.850199188021714625e-02
5.467999999999999972e+01,1.091240875354731327e-01
5.471999999999999886e+01,7.816734697139747501e-02
5.475999999999999801e+01,1.173367974493437493e-01
5.479999999999999716e+01,1.054099323373231673e-01
5.484000000000000341e+01,1.100108692566590107e-01
5.488000000000000256e+01,1.040899539881547514e-01
5.492000000000000171e+01,9.616281168127467638e-02
5.496000000000000085e+01,1.162846028777706486e-01
5.500000000000000000e+01,1.088532659779718886e-01
5.503999999999999915e+01,9.290373411362280731e-02
5.507999999999999829e+01,1.215334615019455639e-01
5.511999999999999744e+01,1.040760266023361413e-01
5.515999999999999659e+01,1.281923241452226914e-01
5.520000000000000284e+01,1.022140937345456663e-01
5.524000000000000199e+01,1.042847609739083886e-01
5.528000000000000114e+01,9.833812194501723170e-02
5.532000000000000028e+01,1.134274983341687776e-01
5.535999999999999943e+01,1.104811696567035290e-01
5.539999999999999858e+01,1.195542964543735986e-01
5.543999999999999773e+01,1.045806748088852489e-01
5.547999999999999687e+01,1.056338538165426250e-01
5.552000000000000313e+01,9.866969582451493026e-02
5.556000000000000227e+01,1.167488779409198291e-01
5.560000000000000142e+01,1.273116322415568658e-01
5.564000000000000057e+01,1.053119822181398657e-01
5.567999999999999972e+01,1.213795620583581897e-01
5.571999999999999886e+01,1.154040353129918706e-01
5.575999999999999801e+01,1.334699842110770862e-01
5.579999999999999716e+01,1.199753471529427518e-01
5.584000000000000341e+01,1.089826401021618540e-01
5.588000000000000256e+01,1.300461041727586364e-01
5.592000000000000171e+01,1.270627583373346581e-01
5.596000000000000085e+01,1.245776494326380351e-01
5.600000000000000000e+01,1.406238717349578282e-01
5.603999999999999915e+01,1.321223493378136660e-01
5.607999999999999829e+01,1.231172096502261282e-01
5.611999999999999744e+01,1.421608549307640801e-01
5.615999999999999659e+01,1.501815646947682326e-01
5.620000000000000284e+01,1.952675988821848674e-01
5.624000000000000199e+01,1.712240336928534390e-01
5.628000000000000114e+01,1.852476215385792657e-01
5.632000000000000028e+01,1.657068791324077528e-01
5.635999999999999943e+01,1.967562652106734644e-01
5.639999999999999858e+01,1.877293582327723420e-01
5.643999999999999773e+01,2.483275077491476357e-01
5.647999999999999687e+01,2.578291265555381906e-01
5.652000000000000313e+01,2.232470815182253931e-01
5.656000000000000227e+01,2.713139827303914231e-01
5.660000000000000142e+01,2.747962904273162921e-01
5.664000000000000057e+01,2.993144445194125258e-01
5.667999999999999972e+01,2.837562697020056812e-01
5.671999999999999886e+01,2.857274950418665638e-01
5.675999999999999801e+01,2.781784663197987006e-01
5.679999999999999716e+01,2.936689412161919699e-01
5.684000000000000341e+01,2.265049153586139175e-01
5.688000000000000256e+01,2.294668090820827233e-01
5.692000000000000171e+01,2.404406082264686217e-01
5.696000000000000085e+01,2.313748197171196785e-01
5.700000000000000000e+01,2.137905852698661902e-01
5.703999999999999915e+01,2.062219185887245454e-01
5.707999999999999829e+01,1.746062934663117072e-01
5.711999999999999744e+01,1.740448418307604661e-01
5.715999999999999659e+01,1.759851511796914347e-01
5.720000000000000284e+01,1.498711312998145251e-01
5.724000000000000199e+01,1.488002364083521878e-01
5.728000000000000114e+01,1.582457979792984137e-01
5.732000000000000028e+01,1.461489675161803392e-01
5.735999999999999943e+01,1.425649055607497717e-01
5.739999999999999858e+01,1.379761378642770098e-01
5.743999999999999773e+01,1.569277112635099614e-01
5.747999999999999687e+01,1.478249195805987626e-01
5.752000000000000313e+01,1.236916628145565272e-01
5.756000000000000227e+01,1.351207980439672052e-01
5.760000000000000142e+01,1.400350882178058032e-01
5.764000000000000057e+01,1.294179785150701978e-01
5.767999999999999972e+01,1.428420986043366925e-01
5.771999999999999886e+01,1.407348085732184895e-01
5.775999999999999801e+01,1.291071364325416804e-01
5.779999999999999716e+01,1.144710296208603095e-01
5.784000000000000341e+01,1.399055538008440458e-01
5.788000000000000256e+01,1.407920976737252194e-01
5.792000000000000171e+01,1.326591583771547789e-01
5.796000000000000085e+01,1.165085696446826469e-01
5.800000000000000000e+01,1.113752646080531927e-01
5.803999999999999915e+01,1.177601575730888445e-01
5.807999999999999829e+01,1.346614045624291156e-01
5.811999999999999744e+01,1.375339484955157288e-01
5.815999999999999659e+01,1.358952533772679605e-01
5.820000000000000284e+01,1.016938261330342375e-01
5.824000000000000199e+01,1.175813672159662093e-01
5.828000000000000114e+01,8.587858309727314232e-02
5.832000000000000028e+01,9.725188507374894764e-02
5.835999999999999943e+01,1.236497800707415107e-01
5.839999999999999858e+01,9.794905965084503563e-02
5.843999999999999773e+01,1.078106185444874104e-01
5.847999999999999687e+01,1.306930773820207670e-01
5.852000000000000313e+01,1.134989717024121048e-01
5.856000000000000227e+01,1.128321917169773647e-01
5.860000000000000142e+01,9.112377522423997789e-02
5.864000000000000057e+01,1.134932427068849198e-01
5.867999999999999972e+01,1.032999166006814962e-01
5.871999999999999886e+01,1.011182654296617356e-01
5.875999999999999801e+01,9.793173437282308436e-02
5.879999999999999716e+01,1.042596262905405163e-01
5.884000000000000341e+01,1.211037749163640237e-01
5.888000000000000256e+01,1.118970569042723739e-01
5.892000000000000171e+01,1.122047465010210798e-01
5.896000000000000085e+01,1.225277580124327359e-01
5.900000000000000000e+01,1.303431006234115896e-01
5.903999999999999915e+01,9.257169842747736688e-02
5.907999999999999829e+01,9.236617130550937860e-02
5.911999999999999744e+01,8.815020163421044552e-02
5.915999999999999659e+01,1.009624002562349715e-01
5.920000000000000284e+01,1.157751792178493000e-01
5.924000000000000199e+01,1.220692254148684069e-01
5.928000000000000114e+01,7.927006007944986665e-02
5.932000000000000028e+01,9.407351619567129453e-02
5.935999999999999943e+01,1.068701767420408427e-01
5.939999999999999858e+01,1.016306149093696987e-01
5.943999999999999773e+01,1.023989581066780397e-01
5.947999999999999687e+01,1.051678457902400637e-01
5.952000000000000313e+01,1.009207231390532727e-01
5.956000000000000227e+01,9.266310159757819298e-02
5.960000000000000142e+01,8.991244517073440634e-02
5.964000000000000057e+01,9.667610415843776173e-02
5.967999999999999972e+01,9.892832946240959213e-02
5.971999999999999886e+01,9.616819653301715565e-02
5.975999999999999801e+01,1.069297190742771464e-01
5.979999999999999716e+01,6.809704407060455933e-02
5.984000000000000341e+01,1.129147341756403800e-01
5.988000000000000256e+01,9.761890850965332378e-02
5.992000000000000171e+01,9.133644297714943461e-02
5.996000000000000085e+01,1.110985929989623811e-01
