2.003999999999999915e+01,1.425765758714538610e-02
2.007999999999999829e+01,1.535451392738535793e-02
2.012000000000000099e+01,1.447229119776909448e-02
2.016000000000000014e+01,1.556878707351434799e-02
2.019999999999999929e+01,7.455611796946521805e-03
2.023999999999999844e+01,2.156681260747003379e-02
2.028000000000000114e+01,1.520384096742744690e-02
2.032000000000000028e+01,1.858296020202093030e-02
2.035999999999999943e+01,1.267629660589924406e-02
2.039999999999999858e+01,1.384782148021411648e-02
2.044000000000000128e+01,1.463860830453557298e-02
2.048000000000000043e+01,7.437507569158448122e-03
2.051999999999999957e+01,1.804631591030195562e-02
2.055999999999999872e+01,1.031207332914559245e-02
2.060000000000000142e+01,8.590458063793217705e-03
2.064000000000000057e+01,1.227257811120272164e-02
2.067999999999999972e+01,4.461681615876772651e-03
2.071999999999999886e+01,1.255790660142483590e-02
2.076000000000000156e+01,6.344989650762536404e-03
2.080000000000000071e+01,1.071138946445723307e-02
2.083999999999999986e+01,1.873095998454255007e-02
2.087999999999999901e+01,1.289805739842006353e-02
2.092000000000000171e+01,1.178388635173300940e-02
2.096000000000000085e+01,1.219176402375933554e-02
2.100000000000000000e+01,1.343668691681925743e-02
2.103999999999999915e+01,8.973066446134431509e-03
2.107999999999999829e+01,1.493653942894374899e-02
2.112000000000000099e+01,1.404979653656161960e-02
2.116000000000000014e+01,1.141230786376886547e-02
2.119999999999999929e+01,1.501578030157666929e-02
2.123999999999999844e+01,9.942360855066313674e-03
2.128000000000000114e+01,1.544825762161989267e-02
2.132000000000000028e+01,1.699617507950691372e-02
2.135999999999999943e+01,1.352055225785927205e-02
2.139999999999999858e+01,1.522032939217972218e-02
2.144000000000000128e+01,1.402768800493734043e-02
2.148000000000000043e+01,1.549876715873863692e-02
2.151999999999999957e+01,1.095685641895165902e-02
2.155999999999999872e+01,1.844037996875607863e-02
2.160000000000000142e+01,9.864196240921390899e-03
2.164000000000000057e+01,1.255233176441949636e-02
2.167999999999999972e+01,1.113026457650585083e-02
2.171999999999999886e+01,1.183913719152599429e-02
2.176000000000000156e+01,8.818364476440403166e-03
2.180000000000000071e+01,1.302800161312829726e-02
2.183999999999999986e+01,1.145298297261200353e-02
2.187999999999999901e+01,8.812221176484147031e-03
2.192000000000000171e+01,1.408687254604523535e-02
2.196000000000000085e+01,1.730633123782326227e-02
2.200000000000000000e+01,1.070722475283775871e-02
2.203999999999999915e+01,1.270853474745665956e-02
2.207999999999999829e+01,9.610192140963601942e-03
2.212000000000000099e+01,1.290503257770122918e-02
2.216000000000000014e+01,1.262245021419740147e-02
2.219999999999999929e+01,1.485136457552246013e-02
2.223999999999999844e+01,9.697281312841896789e-03
2.228000000000000114e+01,6.065245252818621431e-03
2.232000000000000028e+01,1.765532538428682061e-02
2.235999999999999943e+01,1.501237323653851000e-02
2.239999999999999858e+01,1.107534285203148720e-02
2.244000000000000128e+01,1.490150204670392595e-02
2.248000000000000043e+01,1.423690013795450918e-02
2.251999999999999957e+01,9.766540531581045445e-03
2.255999999999999872e+01,1.701716808772093040e-02
2.260000000000000142e+01,1.216588493885171519e-02
2.264000000000000057e+01,1.119610491293676451e-02
2.267999999999999972e+01,1.228115209273164185e-02
2.271999999999999886e+01,9.560441345196891288e-03
2.276000000000000156e+01,7.752885291925138735e-03
2.280000000000000071e+01,1.256684598479839571e-02
2.283999999999999986e+01,1.075892331092606104e-02
2.287999999999999901e+01,9.331374731029963912e-03
2.292000000000000171e+01,1.467756574873077362e-02
2.296000000000000085e+01,5.942946787373977816e-03
2.300000000000000000e+01,7.559307579701073088e-03
2.303999999999999915e+01,1.389439747658556892e-02
2.307999999999999829e+01,9.954251988471113019e-03
2.312000000000000099e+01,9.667274588104859956e-03
2.316000000000000014e+01,8.162329572736741132e-03
2.319999999999999929e+01,1.579058016714485202e-02
2.323999999999999844e+01,1.276303771960136252e-02
2.328000000000000114e+01,1.270365972430299341e-02
2.332000000000000028e+01,1.332910129617941898e-02
2.335999999999999943e+01,1.441102790537658433e-02
2.339999999999999858e+01,1.237219925798427322e-02
2.344000000000000128e+01,1.642210615921596215e-02
2.348000000000000043e+01,1.445902091574566631e-02
2.351999999999999957e+01,1.181074810626706745e-02
2.355999999999999872e+01,1.608843714860322405e-02
2.360000000000000142e+01,1.351590746740010882e-02
2.364000000000000057e+01,1.018207858772779244e-02
2.367999999999999972e+01,1.453532636842335725e-02
2.371999999999999886e+01,1.196224379311864802e-02
2.376000000000000156e+01,2.006161848046715546e-03
2.380000000000000071e+01,1.092554613725260464e-02
2.383999999999999986e+01,1.543027925567712691e-02
2.387999999999999901e+01,4.560305929558815946e-03
2.392000000000000171e+01,9.445227419751763345e-03
2.396000000000000085e+01,1.204661945119391876e-02
2.400000000000000000e+01,1.008113713881505537e-02
2.403999999999999915e+01,9.485477018410013936e-03
2.407999999999999829e+01,5.997395344329854543e-03
2.412000000000000099e+01,7.228041534397502965e-03
2.416000000000000014e+01,1.104629369281796142e-02
2.419999999999999929e+01,1.242879312756583164e-02
2.423999999999999844e+01,9.168306448208415893e-03
2.428000000000000114e+01,9.637098018945132114e-03
2.432000000000000028e+01,8.507363169200051964e-03
2.435999999999999943e+01,1.019356854201516720e-02
2.439999999999999858e+01,1.050958188637927428e-02
2.444000000000000128e+01,9.303180167075816159e-03
2.448000000000000043e+01,1.129327600569758443e-02
2.451999999999999957e+01,1.282651761369663426e-02
2.455999999999999872e+01,4.617302599339748181e-03
2.460000000000000142e+01,9.727413791890940700e-03
2.464000000000000057e+01,1.263010623933046896e-02
2.467999999999999972e+01,8.910913206734025205e-03
2.471999999999999886e+01,1.478158300597793608e-02
2.476000000000000156e+01,4.973099371424537750e-03
2.480000000000000071e+01,7.113934810596156746e-03
2.483999999999999986e+01,8.036800705239922210e-03
2.487999999999999901e+01,1.322172462332491666e-02
2.492000000000000171e+01,9.958086914423996266e-03
2.496000000000000085e+01,1.552319681534050817e-02
2.500000000000000000e+01,9.366950727970330473e-03
2.503999999999999915e+01,1.234389813708604115e-02
2.507999999999999829e+01,1.121063892979693062e-02
2.512000000000000099e+01,1.106664320088388866e-02
2.516000000000000014e+01,1.297747182933281333e-02
2.519999999999999929e+01,1.176754313384300796e-02
2.523999999999999844e+01,1.383022261803521294e-02
2.528000000000000114e+01,1.307659066495703987e-02
2.532000000000000028e+01,1.072443114286968785e-02
2.535999999999999943e+01,5.860406070180377430e-03
2.539999999999999858e+01,6.780668316450827460e-03
2.544000000000000128e+01,7.396298264728683354e-03
2.548000000000000043e+01,1.387232693472178688e-02
2.551999999999999957e+01,1.189979328861251288e-02
2.555999999999999872e+01,9.927073185237975800e-03
2.560000000000000142e+01,1.038973440706152801e-02
2.564000000000000057e+01,5.067735487276904885e-03
2.567999999999999972e+01,8.193925877181790218e-03
2.571999999999999886e+01,1.329882848663566965e-02
2.576000000000000156e+01,9.879057009702972916e-03
2.580000000000000071e+01,7.067990756959541612e-03
2.583999999999999986e+01,1.742402629767504305e-02
2.587999999999999901e+01,5.479207084767696162e-03
2.592000000000000171e+01,1.065928729459435752e-02
2.596000000000000085e+01,7.999696640067761530e-03
2.600000000000000000e+01,1.158106158321038810e-02
2.603999999999999915e+01,1.227000272156422364e-02
2.607999999999999829e+01,8.848736094985923048e-03
2.612000000000000099e+01,1.926153614635526829e-03
2.616000000000000014e+01,3.680094376594405040e-03
2.619999999999999929e+01,3.150503107101228304e-03
2.623999999999999844e+01,4.523511965285228510e-03
2.628000000000000114e+01,9.778019765783824147e-03
2.632000000000000028e+01,1.153121148280484773e-02
2.635999999999999943e+01,1.039197902750836969e-02
2.639999999999999858e+01,8.110886730618946730e-03
2.644000000000000128e+01,2.100143728515754728e-03
2.648000000000000043e+01,9.180390290176277182e-03
2.651999999999999957e+01,8.116519365757671536e-03
2.655999999999999872e+01,6.748014856995856320e-03
2.660000000000000142e+01,9.641566396208126055e-03
2.664000000000000057e+01,9.262135968326977095e-03
2.667999999999999972e+01,7.131953420164103934e-03
2.671999999999999886e+01,8.959380803601518090e-03
2.676000000000000156e+01,9.340501953425662390e-03
2.680000000000000071e+01,1.063477315746218579e-02
2.683999999999999986e+01,1.577693163399262024e-03
2.687999999999999901e+01,4.469929854124514261e-03
2.692000000000000171e+01,6.144194611384936992e-03
2.696000000000000085e+01,2.109909205618727430e-03
2.700000000000000000e+01,7.969929991601117786e-03
2.703999999999999915e+01,7.284174081660542074e-03
2.707999999999999829e+01,1.032769320593749339e-02
2.712000000000000099e+01,8.195442445886816016e-03
2.716000000000000014e+01,4.769107982087213496e-03
2.719999999999999929e+01,6.289832328884057550e-03
2.723999999999999844e+01,8.723706224541273938e-03
2.728000000000000114e+01,7.732374428772320792e-03
2.732000000000000028e+01,9.785313939835504904e-03
2.735999999999999943e+01,6.358037312374000341e-03
2.739999999999999858e+01,1.480396527782878828e-02
2.744000000000000128e+01,8.636297656359747180e-03
2.748000000000000043e+01,1.046014830940516366e-02
2.751999999999999957e+01,1.076158036131882705e-02
2.755999999999999872e+01,3.527785689786015495e-03
2.760000000000000142e+01,2.230498799728019947e-03
2.764000000000000057e+01,1.425253462505493389e-02
2.767999999999999972e+01,8.768737791581155197e-03
2.771999999999999886e+01,5.872542837702764487e-03
2.776000000000000156e+01,8.303963524433676316e-03
2.780000000000000071e+01,7.462400911779431580e-03
2.783999999999999986e+01,7.001206696405702472e-03
2.787999999999999901e+01,8.518722219761781095e-03
2.792000000000000171e+01,9.046599145038677903e-03
2.796000000000000085e+01,8.813171910208205534e-03
2.800000000000000000e+01,5.763430114112910903e-03
2.803999999999999915e+01,6.823519722837012580e-03
2.807999999999999829e+01,1.153677172261364202e-02
2.812000000000000099e+01,7.649235430841436201e-03
2.816000000000000014e+01,8.708756847079482735e-03
2.819999999999999929e+01,7.560855429448309385e-03
2.823999999999999844e+01,5.879984014035092091e-03
2.828000000000000114e+01,7.319494297505331308e-03
2.832000000000000028e+01,9.139372426962938736e-03
2.835999999999999943e+01,2.815130957051056784e-03
2.839999999999999858e+01,3.036288306893277986e-03
2.844000000000000128e+01,4.018370838087729699e-03
2.848000000000000043e+01,4.086925622665292523e-03
2.851999999999999957e+01,3.165841120047245983e-03
2.855999999999999872e+01,8.942378242694129509e-03
2.860000000000000142e+01,2.997555242355847901e-03
2.864000000000000057e+01,8.925935410759894273e-03
2.867999999999999972e+01,7.699645042555046046e-03
2.871999999999999886e+01,7.234279534114792035e-03
2.876000000000000156e+01,4.409267559354794822e-03
2.880000000000000071e+01,7.368538998561524264e-03
2.883999999999999986e+01,6.217599502900586494e-03
2.887999999999999901e+01,8.948155963383152070e-03
2.892000000000000171e+01,4.219595633059663314e-03
2.896000000000000085e+01,4.438092091924471759e-03
2.900000000000000000e+01,6.787519992443736237e-03
2.903999999999999915e+01,4.493956265926398429e-03
2.907999999999999829e+01,9.811351503091494952e-03
2.912000000000000099e+01,1.246465388191640364e-02
2.916000000000000014e+01,4.005487451681917846e-03
2.919999999999999929e+01,5.973405148899318430e-03
2.923999999999999844e+01,8.093355151545966741e-03
2.928000000000000114e+01,1.112645236005720129e-02
2.932000000000000028e+01,4.036530006033989260e-03
2.935999999999999943e+01,1.095093184366738477e-02
2.939999999999999858e+01,6.143972639493695126e-03
2.944000000000000128e+01,6.588515651765700955e-03
2.948000000000000043e+01,6.195641263531102318e-03
2.951999999999999957e+01,4.965349428848758566e-03
2.955999999999999872e+01,1.263991141539560527e-02
2.960000000000000142e+01,5.776986828837170351e-03
2.964000000000000057e+01,1.002614931611735608e-02
2.967999999999999972e+01,8.186201043188168908e-03
2.971999999999999886e+01,7.639956943959738331e-03
2.976000000000000156e+01,7.321856047564002934e-03
2.980000000000000071e+01,7.993013254436230966e-03
2.983999999999999986e+01,7.598418163419043934e-03
2.987999999999999901e+01,3.778614394804494236e-03
2.992000000000000171e+01,6.047538732356534663e-03
2.996000000000000085e+01,7.707379602021736595e-03
3.000000000000000000e+01,8.758136957859029639e-03
3.003999999999999915e+01,1.239649352870815339e-02
3.007999999999999829e+01,1.314242165471793226e-02
3.012000000000000099e+01,6.353120117051165062e-03
3.016000000000000014e+01,5.348100431353893305e-03
3.019999999999999929e+01,7.082902766179396264e-03
3.023999999999999844e+01,6.305833945589363158e-03
3.028000000000000114e+01,4.843569794946083612e-03
3.032000000000000028e+01,6.577796494828124126e-03
3.035999999999999943e+01,8.235719729875851450e-03
3.039999999999999858e+01,6.468433690091980950e-03
3.044000000000000128e+01,5.157624556055079995e-03
3.048000000000000043e+01,1.715501464144289544e-03
3.051999999999999957e+01,7.482677069426974664e-03
3.055999999999999872e+01,1.066186965712771426e-02
3.060000000000000142e+01,4.403044663917782785e-03
3.064000000000000057e+01,5.298507874861717835e-03
3.067999999999999972e+01,1.228269831909149269e-02
3.071999999999999886e+01,1.188388139980357285e-02
3.076000000000000156e+01,7.831520308301309630e-03
3.080000000000000071e+01,6.823426526755939706e-03
3.083999999999999986e+01,9.849049439515712365e-03
3.087999999999999901e+01,5.567776299631067329e-03
3.092000000000000171e+01,6.157446203183427995e-03
3.096000000000000085e+01,4.920247576119332784e-03
3.100000000000000000e+01,8.021211438146554074e-03
3.103999999999999915e+01,1.036086760260208038e-02
3.107999999999999829e+01,6.611411398909966888e-03
3.112000000000000099e+01,1.111197975474657179e-03
3.116000000000000014e+01,8.778080235332592560e-03
3.119999999999999929e+01,8.985843085742087344e-03
3.123999999999999844e+01,1.582263491486772923e-03
3.128000000000000114e+01,1.236913808878572878e-02
3.132000000000000028e+01,9.531862073164034180e-03
3.135999999999999943e+01,1.049996767070033102e-02
3.139999999999999858e+01,1.283788700704902551e-02
3.144000000000000128e+01,5.128895840622912060e-03
3.148000000000000043e+01,4.726414902862984858e-03
3.151999999999999957e+01,1.231544759956691541e-02
3.155999999999999872e+01,2.036095591566714977e-02
3.160000000000000142e+01,1.653287767392485827e-02
3.164000000000000057e+01,1.308516346505901075e-02
3.167999999999999972e+01,1.214893509298256222e-02
3.171999999999999886e+01,1.745365574899872957e-02
3.176000000000000156e+01,1.050423219021973976e-02
3.180000000000000071e+01,1.352522080489561296e-02
3.183999999999999986e+01,1.000042721071718252e-02
3.187999999999999901e+01,1.028101463246254392e-02
3.192000000000000171e+01,9.191401388830983121e-03
3.196000000000000085e+01,8.177705831996593538e-03
3.200000000000000000e+01,1.584052681007172558e-02
3.203999999999999915e+01,1.764256880132583638e-02
3.207999999999999829e+01,1.076770645822515242e-02
3.211999999999999744e+01,7.926559339314610819e-03
3.215999999999999659e+01,7.977454979088447612e-03
3.220000000000000284e+01,1.190984276189494852e-02
3.224000000000000199e+01,8.002552467596310212e-03
3.228000000000000114e+01,1.140177148314196892e-02
3.232000000000000028e+01,1.282189741679866032e-02
3.235999999999999943e+01,1.332849114755223045e-02
3.239999999999999858e+01,1.033376181178182439e-02
3.243999999999999773e+01,9.469959966731771039e-03
3.247999999999999687e+01,7.388179802404751077e-03
3.252000000000000313e+01,5.915097144163074944e-03
3.256000000000000227e+01,8.475729204759479760e-03
3.260000000000000142e+01,0.000000000000000000e+00
3.264000000000000057e+01,5.224145241176762940e-03
3.267999999999999972e+01,8.849754460182889665e-03
3.271999999999999886e+01,6.538472416731807083e-03
3.275999999999999801e+01,7.423678421399255295e-03
3.279999999999999716e+01,6.938682749985715728e-03
3.284000000000000341e+01,1.406464172379171158e-02
3.288000000000000256e+01,1.472092878891258401e-02
3.292000000000000171e+01,1.491810285165791339e-01
3.296000000000000085e+01,2.134661352319730809e-01
3.300000000000000000e+01,7.240223441270342286e-02
3.303999999999999915e+01,1.338632976456047979e-02
3.307999999999999829e+01,1.495497975378840515e-02
3.311999999999999744e+01,9.064508128395317582e-03
3.315999999999999659e+01,1.131777124315650265e-02
3.320000000000000284e+01,8.623591974456636805e-03
3.324000000000000199e+01,8.440896750843411567e-03
3.328000000000000114e+01,4.985211933915057944e-03
3.332000000000000028e+01,8.912146727000145111e-03
3.335999999999999943e+01,6.369409060106996125e-03
3.339999999999999858e+01,8.697611588302990582e-03
3.343999999999999773e+01,6.002259962753702521e-03
3.347999999999999687e+01,9.700078333164214098e-03
3.352000000000000313e+01,1.119046775953993524e-02
3.356000000000000227e+01,7.885637378260071731e-03
3.360000000000000142e+01,7.472848101785182530e-03
3.364000000000000057e+01,8.201535507508480802e-03
3.367999999999999972e+01,8.016689194272536012e-03
3.371999999999999886e+01,8.288316019613809274e-03
3.375999999999999801e+01,9.853642378605254049e-03
3.379999999999999716e+01,1.233211075211756817e-02
3.384000000000000341e+01,1.031980497493712422e-02
3.388000000000000256e+01,4.501728452861659610e-03
3.392000000000000171e+01,7.436277755160776610e-03
3.396000000000000085e+01,1.075118842575288093e-02
3.400000000000000000e+01,3.562516685514275933e-03
3.403999999999999915e+01,6.192031556753939577e-03
3.407999999999999829e+01,7.146897303247016185e-03
3.411999999999999744e+01,9.091016191369850896e-03
3.415999999999999659e+01,1.400328703575996932e-02
3.420000000000000284e+01,9.020867196715059294e-03
3.424000000000000199e+01,1.545497512683335906e-02
3.428000000000000114e+01,1.214661527090970215e-02
3.432000000000000028e+01,7.011383025317610360e-03
3.435999999999999943e+01,8.878211722082328394e-03
3.439999999999999858e+01,9.907617367585722784e-03
3.443999999999999773e+01,5.685133226903589868e-03
3.447999999999999687e+01,1.356418003147690822e-02
3.452000000000000313e+01,7.514626569291436853e-03
3.456000000000000227e+01,8.314910830481999152e-03
3.460000000000000142e+01,1.124612010157379632e-02
3.464000000000000057e+01,8.164324410398146603e-03
3.467999999999999972e+01,1.178014331550000099e-02
3.471999999999999886e+01,9.687403145002777827e-03
3.475999999999999801e+01,1.208504413440925768e-02
3.479999999999999716e+01,1.440637655951991850e-02
3.484000000000000341e+01,1.178026471758464484e-02
3.488000000000000256e+01,1.113285457468763534e-02
3.492000000000000171e+01,8.430236869092848709e-03
3.496000000000000085e+01,1.105522653471035892e-02
3.500000000000000000e+01,9.569998190531588469e-03
3.503999999999999915e+01,1.272737367394416452e-02
3.507999999999999829e+01,1.390565290553220749e-02
3.511999999999999744e+01,1.074537950558778800e-02
3.515999999999999659e+01,8.041577590341164247e-03
3.520000000000000284e+01,8.610372415443962035e-03
3.524000000000000199e+01,1.153842599930339149e-02
3.528000000000000114e+01,1.111737619815527517e-02
3.532000000000000028e+01,1.328391954779454230e-02
3.535999999999999943e+01,1.126413297953002962e-02
3.539999999999999858e+01,1.152749349162015928e-02
3.543999999999999773e+01,8.289527445663075547e-03
3.547999999999999687e+01,8.780826786293589523e-03
3.552000000000000313e+01,1.338194894075882616e-02
3.556000000000000227e+01,1.090450415138447503e-02
3.560000000000000142e+01,1.459189243917894362e-02
3.564000000000000057e+01,1.942075511211682065e-02
3.567999999999999972e+01,1.176713458411935212e-02
3.571999999999999886e+01,1.248558033995898243e-02
3.575999999999999801e+01,1.571550724659630249e-02
3.579999999999999716e+01,1.719467155838234548e-02
3.584000000000000341e+01,1.806474564894058540e-02
3.588000000000000256e+01,1.657516509566420854e-02
3.592000000000000171e+01,1.561816664884247211e-02
3.596000000000000085e+01,1.968432844615508950e-02
3.600000000000000000e+01,1.682414578355137871e-02
3.603999999999999915e+01,1.982434971421384584e-02
3.607999999999999829e+01,1.757266197510592293e-02
3.611999999999999744e+01,2.293192511404771455e-02
3.615999999999999659e+01,1.832038382380317409e-02
3.620000000000000284e+01,1.880811399668405604e-02
3.624000000000000199e+01,2.097009832805542262e-02
3.628000000000000114e+01,2.069631606154360287e-02
3.632000000000000028e+01,1.996566601178613454e-02
3.635999999999999943e+01,2.182260791834757935e-02
3.639999999999999858e+01,2.139600607847779931e-02
3.643999999999999773e+01,2.142587425319079919e-02
3.647999999999999687e+01,2.617445609625336511e-02
3.652000000000000313e+01,2.011500665564566401e-02
3.656000000000000227e+01,1.907871677005588268e-02
3.660000000000000142e+01,2.481615077020868365e-02
3.664000000000000057e+01,1.723387402582580649e-02
3.667999999999999972e+01,2.259035214095219887e-02
3.671999999999999886e+01,1.881325162473098875e-02
3.675999999999999801e+01,2.363655068179133789e-02
3.679999999999999716e+01,3.013410325416684618e-02
3.684000000000000341e+01,2.551917819679277652e-02
3.688000000000000256e+01,2.273072955212697768e-02
3.692000000000000171e+01,2.077930784393901623e-02
3.696000000000000085e+01,2.643883604903781576e-02
3.700000000000000000e+01,2.136644391381087651e-02
3.703999999999999915e+01,2.200221423404749230e-02
3.707999999999999829e+01,2.446446073728687776e-02
3.711999999999999744e+01,2.433871668860480494e-02
3.715999999999999659e+01,2.634389470959389024e-02
3.720000000000000284e+01,2.987110279721192155e-02
3.724000000000000199e+01,3.385477998059080451e-02
3.728000000000000114e+01,3.334767906234283041e-02
3.732000000000000028e+01,2.903480344826565862e-02
3.735999999999999943e+01,3.834568536443792169e-02
3.739999999999999858e+01,4.636247181594094213e-02
3.743999999999999773e+01,4.760513514292348536e-02
3.747999999999999687e+01,4.542258106350067354e-02
3.752000000000000313e+01,5.397154753433255209e-02
3.756000000000000227e+01,5.216915049485158773e-02
3.760000000000000142e+01,6.627385554910267262e-02
3.764000000000000057e+01,7.687723151854639059e-02
3.767999999999999972e+01,8.679540365883434139e-02
3.771999999999999886e+01,8.902611441736246745e-02
3.775999999999999801e+01,1.190373202493302390e-01
3.779999999999999716e+01,1.297160059280969557e-01
3.784000000000000341e+01,1.678707406098706445e-01
3.788000000000000256e+01,2.200297896978476997e-01
3.792000000000000171e+01,2.683069519062414310e-01
3.796000000000000085e+01,3.831814712235662168e-01
3.800000000000000000e+01,5.404498923091110019e-01
3.803999999999999915e+01,7.261077001036089218e-01
3.807999999999999829e+01,9.147336553521471236e-01
3.811999999999999744e+01,1.000000000000000000e+00
3.815999999999999659e+01,9.481893418767517456e-01
3.820000000000000284e+01,8.176030858288940717e-01
3.824000000000000199e+01,6.496458848933623909e-01
3.828000000000000114e+01,4.919635346673789655e-01
3.832000000000000028e+01,3.709667237442637600e-01
3.835999999999999943e+01,2.769131807644577004e-01
3.839999999999999858e+01,2.158918252530310222e-01
3.843999999999999773e+01,1.728325812257897609e-01
3.847999999999999687e+01,1.408093026247675128e-01
3.852000000000000313e+01,1.199742123932984045e-01
3.856000000000000227e+01,1.038578334412419424e-01
3.860000000000000142e+01,9.253627721729468236e-02
3.864000000000000057e+01,7.649560684581037384e-02
3.867999999999999972e+01,6.783754992823282093e-02
3.871999999999999886e+01,6.039707535297206276e-02
3.875999999999999801e+01,5.463085204191284183e-02
3.879999999999999716e+01,5.297444777751854350e-02
3.884000000000000341e+01,4.880616248037334542e-02
3.888000000000000256e+01,4.037543172787040613e-02
3.892000000000000171e+01,3.947953714290295540e-02
3.896000000000000085e+01,3.508231195707196826e-02
3.900000000000000000e+01,3.776325387906842579e-02
3.903999999999999915e+01,3.747564557078267300e-02
3.907999999999999829e+01,3.300170307207136999e-02
3.911999999999999744e+01,2.906033900452709498e-02
3.915999999999999659e+01,2.930490506481556526e-02
3.920000000000000284e+01,2.346034943091413263e-02
3.924000000000000199e+01,2.271506176861495460e-02
3.928000000000000114e+01,2.318735580545720071e-02
3.932000000000000028e+01,2.175666021535654915e-02
3.935999999999999943e+01,2.040187381295054114e-02
3.939999999999999858e+01,2.597303106968574388e-02
3.943999999999999773e+01,1.951836977484853325e-02
3.947999999999999687e+01,2.181632791857371703e-02
3.952000000000000313e+01,1.848183296840612277e-02
3.956000000000000227e+01,2.108383206332605994e-02
3.960000000000000142e+01,1.896671590812268327e-02
3.964000000000000057e+01,1.327215687641955175e-02
3.967999999999999972e+01,1.343798025734300496e-02
3.971999999999999886e+01,1.687639518727215154e-02
3.975999999999999801e+01,1.498680272621251593e-02
3.979999999999999716e+01,1.416256837778483851e-02
3.984000000000000341e+01,1.341424266575863902e-02
3.988000000000000256e+01,1.411183244767038290e-02
3.992000000000000171e+01,1.206920547250877815e-02
3.996000000000000085e+01,1.520195713664729449e-02
4.000000000000000000e+01,1.909562070516171092e-02
4.003999999999999915e+01,2.047740186269239593e-02
4.007999999999999829e+01,1.363893846547518766e-02
4.011999999999999744e+01,1.243252249161959366e-02
4.015999999999999659e+01,1.381369410967890794e-02
4.020000000000000284e+01,1.321576359545355989e-02
4.024000000000000199e+01,1.063873090300247910e-02
4.028000000000000114e+01,9.355390255803123362e-03
4.032000000000000028e+01,1.233408989878238479e-02
4.035999999999999943e+01,1.668259298976880814e-02
4.039999999999999858e+01,1.973699717050388797e-02
4.043999999999999773e+01,1.624560926504932737e-02
4.047999999999999687e+01,1.587458904644437410e-02
4.052000000000000313e+01,1.481836173686592283e-02
4.056000000000000227e+01,9.271352558490840445e-03
4.060000000000000142e+01,1.506475235000727386e-02
4.064000000000000057e+01,1.142012302939823983e-02
4.067999999999999972e+01,1.500588187636597501e-02
4.071999999999999886e+01,1.136084486381760787e-02
4.075999999999999801e+01,1.639231432507896880e-02
4.079999999999999716e+01,1.533466025450668305e-02
4.084000000000000341e+01,1.519014011282258589e-02
4.088000000000000256e+01,1.207706762756590065e-02
4.092000000000000171e+01,1.566160257177590803e-02
4.096000000000000085e+01,1.467924369314069916e-02
4.100000000000000000e+01,1.628447144165740684e-02
4.103999999999999915e+01,1.164835239341857273e-02
4.107999999999999829e+01,1.332928311769386587e-02
4.111999999999999744e+01,1.143276926564889412e-02
4.115999999999999659e+01,1.029716598568806984e-02
4.120000000000000284e+01,7.030236435639937789e-03
4.124000000000000199e+01,1.380981971158595258e-02
4.128000000000000114e+01,1.358694096875348589e-02
4.132000000000000028e+01,1.024328638772110771e-02
4.135999999999999943e+01,8.345545600806159384e-03
4.139999999999999858e+01,1.063373236902263527e-02
4.143999999999999773e+01,8.278913268463101299e-03
4.147999999999999687e+01,1.125169405071743678e-02
4.152000000000000313e+01,1.460482751839782545e-02
4.156000000000000227e+01,1.658774924889748134e-02
4.160000000000000142e+01,1.255765802337925445e-02
4.164000000000000057e+01,1.575795386285147245e-02
4.167999999999999972e+01,9.976888363555593345e-03
4.171999999999999886e+01,1.058898339635397541e-02
4.175999999999999801e+01,9.450308989077936886e-03
4.179999999999999716e+01,7.702537515350991668e-03
4.184000000000000341e+01,9.531801134302289244e-03
4.188000000000000256e+01,1.486198830535310697e-02
4.192000000000000171e+01,9.764695463874099174e-03
4.196000000000000085e+01,1.090833988956745222e-02
4.200000000000000000e+01,1.593346520272525754e-02
4.203999999999999915e+01,1.311890118320973957e-02
4.207999999999999829e+01,1.494693290565285437e-02
4.211999999999999744e+01,1.137084303194492441e-02
4.215999999999999659e+01,6.424540731939869243e-03
4.220000000000000284e+01,1.144863866070501730e-02
4.224000000000000199e+01,1.495030108201554457e-02
4.228000000000000114e+01,1.228672677703423338e-02
4.232000000000000028e+01,1.228684907778637876e-02
4.235999999999999943e+01,1.434177598122971312e-02
4.239999999999999858e+01,1.274314534360009889e-02
4.243999999999999773e+01,9.622078968810387004e-03
4.247999999999999687e+01,1.205694581222005977e-02
4.252000000000000313e+01,1.715550903165767929e-02
4.256000000000000227e+01,1.684995014959222992e-02
4.260000000000000142e+01,1.441306338950116943e-02
4.264000000000000057e+01,1.182374756602208761e-02
4.267999999999999972e+01,1.440980725784870090e-02
4.271999999999999886e+01,1.341842053571125522e-02
4.275999999999999801e+01,1.600406784960687820e-02
4.279999999999999716e+01,1.851339741098771002e-02
4.284000000000000341e+01,1.516193558145197302e-02
4.288000000000000256e+01,1.394138925201085684e-02
4.292000000000000171e+01,1.660232275338898583e-02
4.296000000000000085e+01,1.903471532921265086e-02
4.300000000000000000e+01,2.017300600861384602e-02
4.303999999999999915e+01,1.826663036898569861e-02
4.307999999999999829e+01,1.506615274105283300e-02
4.311999999999999744e+01,2.115107083350624070e-02
4.315999999999999659e+01,1.779795691954521447e-02
4.320000000000000284e+01,1.794576504162756839e-02
4.324000000000000199e+01,2.304061355192739413e-02
4.328000000000000114e+01,2.250300464987151083e-02
4.332000000000000028e+01,2.249796935516774204e-02
4.335999999999999943e+01,1.998104783636938178e-02
4.339999999999999858e+01,2.317228146840050185e-02
4.343999999999999773e+01,2.727664604314864599e-02
4.347999999999999687e+01,2.947801621308002509e-02
4.352000000000000313e+01,2.635137467355971180e-02
4.356000000000000227e+01,2.596453981023652199e-02
4.360000000000000142e+01,3.235142079296431800e-02
4.364000000000000057e+01,3.363862441233005790e-02
4.367999999999999972e+01,3.789396905398256105e-02
4.371999999999999886e+01,3.195016609966888632e-02
4.375999999999999801e+01,4.122845471241994714e-02
4.379999999999999716e+01,4.867986004746311518e-02
4.384000000000000341e+01,4.760657053074492107e-02
4.388000000000000256e+01,5.285032757066419201e-02
4.392000000000000171e+01,5.504941728085004787e-02
4.396000000000000085e+01,6.965447302680247144e-02
4.400000000000000000e+01,8.479210159910838263e-02
4.403999999999999915e+01,9.444949487545306610e-02
4.407999999999999829e+01,1.096628195323533783e-01
4.411999999999999744e+01,1.209942501888007504e-01
4.415999999999999659e+01,1.403171799623260108e-01
4.420000000000000284e+01,1.610099087735133716e-01
4.424000000000000199e+01,1.772879629839609894e-01
4.428000000000000114e+01,1.942508126884497643e-01
4.432000000000000028e+01,1.911961312996002527e-01
4.435999999999999943e+01,2.039724327458001529e-01
4.439999999999999858e+01,1.905661719411307631e-01
4.443999999999999773e+01,1.639924144226874714e-01
4.447999999999999687e+01,1.365051107811894038e-01
4.452000000000000313e+01,1.213476610376448828e-01
4.456000000000000227e+01,1.093866857895960110e-01
4.460000000000000142e+01,8.874879182762962504e-02
4.464000000000000057e+01,7.747240333492559639e-02
4.467999999999999972e+01,6.954471218916916109e-02
4.471999999999999886e+01,5.880068727877030277e-02
4.475999999999999801e+01,5.422148492502957412e-02
4.479999999999999716e+01,4.492316134882325812e-02
4.484000000000000341e+01,3.653796710739563858e-02
4.488000000000000256e+01,3.545926770436747671e-02
4.492000000000000171e+01,3.476091708177235506e-02
4.496000000000000085e+01,3.215957035453993751e-02
4.500000000000000000e+01,2.803578494991736808e-02
4.503999999999999915e+01,2.817403441442422815e-02
4.507999999999999829e+01,2.344093934560256484e-02
4.511999999999999744e+01,1.528261809562640218e-02
4.515999999999999659e+01,1.701858218014180510e-02
4.520000000000000284e+01,2.164657404654472816e-02
4.524000000000000199e+01,1.637986254977046377e-02
4.528000000000000114e+01,1.666908105531893225e-02
4.532000000000000028e+01,1.300029268754398191e-02
4.535999999999999943e+01,1.755133654252702055e-02
4.539999999999999858e+01,9.467663043613398777e-03
4.543999999999999773e+01,1.348550790209526208e-02
4.547999999999999687e+01,1.286034225175054432e-02
4.552000000000000313e+01,1.489886953185167590e-02
4.556000000000000227e+01,1.138104827559234360e-02
4.560000000000000142e+01,1.159248078282365535e-02
4.564000000000000057e+01,1.020536238296962904e-02
4.567999999999999972e+01,1.018804132095716200e-02
4.571999999999999886e+01,9.333284206353617204e-03
4.575999999999999801e+01,1.129444273582460093e-02
4.579999999999999716e+01,1.135260419589534039e-02
4.584000000000000341e+01,6.539420249756715091e-03
4.588000000000000256e+01,1.063107138088062627e-02
4.592000000000000171e+01,1.167805288521638063e-02
4.596000000000000085e+01,9.528141727547593740e-03
4.600000000000000000e+01,8.367470067003416820e-03
4.603999999999999915e+01,8.043814868367466300e-03
4.607999999999999829e+01,9.470514021350360037e-03
4.611999999999999744e+01,9.907553673055903912e-03
4.615999999999999659e+01,9.811602745368857778e-03
4.620000000000000284e+01,8.193211762058817682e-03
4.624000000000000199e+01,9.695181850080749481e-03
4.628000000000000114e+01,1.020749225306097005e-02
4.632000000000000028e+01,9.730142925058384712e-03
4.635999999999999943e+01,1.343871545549145917e-02
4.639999999999999858e+01,1.189538446335165756e-02
4.643999999999999773e+01,6.698491290088344832e-03
4.647999999999999687e+01,7.133638235552587289e-03
4.652000000000000313e+01,8.481912586269565318e-03
4.656000000000000227e+01,9.068861414270075819e-03
4.660000000000000142e+01,6.839474318396754175e-03
4.664000000000000057e+01,6.284329436329286027e-03
4.667999999999999972e+01,1.181789341110973945e-02
4.671999999999999886e+01,7.913421290718329962e-03
4.675999999999999801e+01,7.509867117612861222e-03
4.679999999999999716e+01,5.888318178318524033e-03
4.684000000000000341e+01,6.473791685588057253e-03
4.688000000000000256e+01,6.069604818699466872e-03
4.692000000000000171e+01,7.872440306492553205e-03
4.696000000000000085e+01,7.315608424767771657e-03
4.700000000000000000e+01,9.041910300480128851e-03
4.703999999999999915e+01,1.160522748957335502e-02
4.707999999999999829e+01,6.176626568140020437e-03
4.711999999999999744e+01,8.587298374868320566e-03
4.715999999999999659e+01,7.801076141359219139e-03
4.720000000000000284e+01,1.013521387659583814e-02
4.724000000000000199e+01,8.739677017249409749e-03
4.728000000000000114e+01,6.278367829696238772e-03
4.732000000000000028e+01,5.871857548138534853e-03
4.735999999999999943e+01,8.661818546199788471e-03
4.739999999999999858e+01,1.099489903533216843e-02
4.743999999999999773e+01,6.249398936119836788e-03
4.747999999999999687e+01,7.059826312470035906e-03
4.752000000000000313e+01,3.379463826273116853e-03
4.756000000000000227e+01,6.016143670132959378e-03
4.760000000000000142e+01,8.728723237821946895e-03
4.764000000000000057e+01,1.090831052629782916e-02
4.767999999999999972e+01,9.053776736288059526e-03
4.771999999999999886e+01,7.655700005472339253e-03
4.775999999999999801e+01,7.399083739648328571e-03
4.779999999999999716e+01,8.816708355338442188e-03
4.784000000000000341e+01,1.069078989239932373e-02
4.788000000000000256e+01,9.900757024746601950e-03
4.792000000000000171e+01,7.892728104554352919e-03
4.796000000000000085e+01,5.808375505446095738e-03
4.800000000000000000e+01,6.539935977711098039e-03
4.803999999999999915e+01,4.074601399034649685e-03
4.807999999999999829e+01,4.272956810573951339e-03
4.811999999999999744e+01,4.775545832621092696e-03
4.815999999999999659e+01,5.658479913872583623e-03
4.820000000000000284e+01,6.465090040561524351e-03
4.824000000000000199e+01,4.531473854429365206e-03
4.828000000000000114e+01,5.109324439532224142e-03
4.832000000000000028e+01,6.295854383987992478e-03
4.835999999999999943e+01,6.721056738378039692e-03
4.839999999999999858e+01,5.319370531834304375e-03
4.843999999999999773e+01,7.799157816238759013e-03
4.847999999999999687e+01,6.929826555074404884e-03
4.852000000000000313e+01,6.440839939644587252e-03
4.856000000000000227e+01,8.311096784586843866e-03
4.860000000000000142e+01,7.517238397875776468e-03
4.864000000000000057e+01,8.473731422553488699e-03
4.867999999999999972e+01,4.482764284566483418e-03
4.871999999999999886e+01,4.601604799852912660e-03
4.875999999999999801e+01,9.286921890297521534e-03
4.879999999999999716e+01,7.426437292863676161e-03
4.884000000000000341e+01,6.174631457548512836e-03
4.888000000000000256e+01,6.216507790149692660e-03
4.892000000000000171e+01,6.714839803712088426e-03
4.896000000000000085e+01,4.244610193600766718e-03
4.900000000000000000e+01,8.319755743579713286e-03
4.903999999999999915e+01,5.392430362207793412e-03
4.907999999999999829e+01,5.128793822524276534e-03
4.911999999999999744e+01,5.093278250183583614e-03
4.915999999999999659e+01,9.243681320401915189e-03
4.920000000000000284e+01,8.066066157533082273e-03
4.924000000000000199e+01,6.659902856357964238e-03
4.928000000000000114e+01,8.221874145716309354e-03
4.932000000000000028e+01,5.978056956917064506e-03
4.935999999999999943e+01,1.073628348256407822e-02
4.939999999999999858e+01,1.115594097570778848e-02
4.943999999999999773e+01,1.180371906866554792e-02
4.947999999999999687e+01,8.036816542600180510e-03
4.952000000000000313e+01,4.878591997654903832e-03
4.956000000000000227e+01,8.341853464262204837e-03
4.960000000000000142e+01,5.944315775907919007e-03
4.964000000000000057e+01,5.221016855777389255e-03
4.967999999999999972e+01,6.248068152567151472e-03
4.971999999999999886e+01,6.209344318743431276e-03
4.975999999999999801e+01,7.083744168943760348e-03
4.979999999999999716e+01,9.784605592878721850e-03
4.984000000000000341e+01,6.320221607654994897e-03
4.988000000000000256e+01,5.291191061384857910e-03
4.992000000000000171e+01,6.849736897402495563e-03
4.996000000000000085e+01,5.668054445131972575e-03
5.000000000000000000e+01,6.388944831528263479e-03
5.003999999999999915e+01,8.327404558911521287e-03
5.007999999999999829e+01,8.438973795835007924e-03
5.011999999999999744e+01,6.723652496357644323e-03
5.015999999999999659e+01,9.650917658737783247e-03
5.020000000000000284e+01,5.727933546750592873e-03
5.024000000000000199e+01,7.969765697491552545e-03
5.028000000000000114e+01,9.526379547631852809e-03
5.032000000000000028e+01,7.505538255000112138e-03
5.035999999999999943e+01,9.822837215969843633e-03
5.039999999999999858e+01,4.757106210403266519e-03
5.043999999999999773e+01,4.333961345106547396e-03
5.047999999999999687e+01,7.411730154573976936e-03
5.052000000000000313e+01,1.048928383953295733e-02
5.056000000000000227e+01,5.727138406365446174e-03
5.060000000000000142e+01,5.759801918978662422e-03
5.064000000000000057e+01,6.553365115636578669e-03
5.067999999999999972e+01,8.564496918223953037e-03
5.071999999999999886e+01,6.617615645440103576e-03
5.075999999999999801e+01,4.746630467138896955e-03
5.079999999999999716e+01,4.473771230132051954e-03
5.084000000000000341e+01,1.006128158818637292e-02
5.088000000000000256e+01,8.494095912324160780e-03
5.092000000000000171e+01,4.795572802688638329e-03
5.096000000000000085e+01,9.012429505507308508e-03
5.100000000000000000e+01,3.562910713544008897e-03
5.103999999999999915e+01,8.007670502731370141e-03
5.107999999999999829e+01,6.211071963948436130e-03
5.111999999999999744e+01,5.479818536467602128e-03
5.115999999999999659e+01,1.159838376680850588e-02
5.120000000000000284e+01,6.908900853097393879e-03
5.124000000000000199e+01,9.525905473151652716e-03
5.128000000000000114e+01,9.707126267412180889e-03
5.132000000000000028e+01,1.087758044863170945e-02
5.135999999999999943e+01,9.764473701450619020e-03
5.139999999999999858e+01,6.215582990652489606e-03
5.143999999999999773e+01,8.450949691161457195e-03
5.147999999999999687e+01,1.121888062703922315e-02
5.152000000000000313e+01,8.049898708145193302e-03
5.156000000000000227e+01,4.956811964911917064e-03
5.160000000000000142e+01,6.962978997482605938e-03
5.164000000000000057e+01,5.620023855138001241e-03
5.167999999999999972e+01,2.602399373965137968e-03
5.171999999999999886e+01,5.673477961062262445e-03
5.175999999999999801e+01,6.537106654985432204e-03
5.179999999999999716e+01,8.542191173849770711e-03
5.184000000000000341e+01,1.047094755751190945e-02
5.188000000000000256e+01,6.234456189019488628e-03
5.192000000000000171e+01,9.076117089380919198e-03
5.196000000000000085e+01,9.025324415124149832e-03
5.200000000000000000e+01,1.224710918595703184e-02
5.203999999999999915e+01,7.933639117393422382e-03
5.207999999999999829e+01,1.016554067145579963e-02
5.211999999999999744e+01,8.591650531483942949e-03
5.215999999999999659e+01,9.681445695736179066e-03
5.220000000000000284e+01,4.986550213493310020e-03
5.224000000000000199e+01,9.120371009241286936e-03
5.228000000000000114e+01,9.828957400378830062e-03
5.232000000000000028e+01,9.623988664006986535e-03
5.235999999999999943e+01,9.951583152299834159e-03
5.239999999999999858e+01,9.974514378302263076e-03
5.243999999999999773e+01,8.398886887233230833e-03
5.247999999999999687e+01,7.508045472280906740e-03
5.252000000000000313e+01,4.257530301998578744e-03
5.256000000000000227e+01,8.237389654787831070e-03
5.260000000000000142e+01,9.933686655002509427e-03
5.264000000000000057e+01,1.018364769771558376e-02
5.267999999999999972e+01,9.748387683362336187e-03
5.271999999999999886e+01,1.045458243730505200e-02
5.275999999999999801e+01,6.441646826504317767e-03
5.279999999999999716e+01,8.365190054288755561e-03
5.284000000000000341e+01,7.624613180663817810e-03
5.288000000000000256e+01,1.000438975214913880e-02
5.292000000000000171e+01,9.111154173241806098e-03
5.296000000000000085e+01,1.080549148509904640e-02
5.300000000000000000e+01,8.617924597580293306e-03
5.303999999999999915e+01,6.201805207351251958e-03
5.307999999999999829e+01,1.071161376440899274e-02
5.311999999999999744e+01,1.126340648962983505e-02
5.315999999999999659e+01,9.074967251274950256e-03
5.320000000000000284e+01,6.810198315720646621e-03
5.324000000000000199e+01,5.230214583402224490e-03
5.328000000000000114e+01,9.282263159825256127e-03
5.332000000000000028e+01,8.310734749778949174e-03
5.335999999999999943e+01,6.349538523117163359e-03
5.339999999999999858e+01,9.030925037084183357e-03
5.343999999999999773e+01,8.287075814149056849e-03
5.347999999999999687e+01,8.989126465179655273e-03
5.352000000000000313e+01,7.255390717715218436e-03
5.356000000000000227e+01,1.145813293595513566e-02
5.360000000000000142e+01,9.038956458747563275e-03
5.364000000000000057e+01,9.131240596668333334e-03
5.367999999999999972e+01,9.832197937835320672e-03
5.371999999999999886e+01,1.334906178079900939e-02
5.375999999999999801e+01,9.102334324986241162e-03
5.379999999999999716e+01,8.508739720102024423e-03
5.384000000000000341e+01,7.534368704410337840e-03
5.388000000000000256e+01,1.211591781370601091e-02
5.392000000000000171e+01,6.650530601331631174e-03
5.396000000000000085e+01,9.024408261191673580e-03
5.400000000000000000e+01,8.277495519524783602e-03
5.403999999999999915e+01,8.519813040822441993e-03
5.407999999999999829e+01,1.279582056464920702e-02
5.411999999999999744e+01,1.318992260274933978e-02
5.415999999999999659e+01,6.429324839763199233e-03
5.420000000000000284e+01,4.691866371772197494e-03
5.424000000000000199e+01,1.079367245442797163e-02
5.428000000000000114e+01,1.034967055527529108e-02
5.432000000000000028e+01,1.013378365112310373e-02
5.435999999999999943e+01,1.189657607269606170e-02
5.439999999999999858e+01,6.580779912173812321e-03
5.443999999999999773e+01,6.592568749550690652e-03
5.447999999999999687e+01,9.344151721205831360e-03
5.452000000000000313e+01,7.148267822796432365e-03
5.456000000000000227e+01,1.005163430054995671e-02
5.460000000000000142e+01,1.006254417157304189e-02
5.464000000000000057e+01,7.028774400649325134e-03
5.467999999999999972e+01,1.061648476081804814e-02
5.471999999999999886e+01,9.713396989042617780e-03
5.475999999999999801e+01,8.733977728365076992e-03
5.479999999999999716e+01,4.633767147338672086e-03
5.484000000000000341e+01,7.840039965379137776e-03
5.488000000000000256e+01,8.077744360463868373e-03
5.492000000000000171e+01,6.716887190129267743e-03
5.496000000000000085e+01,1.045527993654667143e-02
5.500000000000000000e+01,1.099676963827211050e-02
5.503999999999999915e+01,1.115748155095724024e-02
5.507999999999999829e+01,8.958516768082252016e-03
5.511999999999999744e+01,8.433784459501034170e-03
5.515999999999999659e+01,1.262774436477814149e-02
5.520000000000000284e+01,8.905888328124111908e-03
5.524000000000000199e+01,8.608829004606277299e-03
5.528000000000000114e+01,1.051878243408135329e-02
5.532000000000000028e+01,1.280907269930480798e-02
5.535999999999999943e+01,8.781888226223201477e-03
5.539999999999999858e+01,5.515597970195998748e-03
5.543999999999999773e+01,9.784124908032175438e-03
5.547999999999999687e+01,1.245408963727369887e-02
5.552000000000000313e+01,1.108992428357500649e-02
5.556000000000000227e+01,6.757189725921972090e-03
5.560000000000000142e+01,7.447592855325741064e-03
5.564000000000000057e+01,1.011667384033962738e-02
5.567999999999999972e+01,9.817185483575890242e-03
5.571999999999999886e+01,1.248582432082937128e-02
5.575999999999999801e+01,1.051144084239493889e-02
5.579999999999999716e+01,8.004055712764079900e-03
5.584000000000000341e+01,1.112869995164462826e-02
5.588000000000000256e+01,1.212200106005609061e-02
5.592000000000000171e+01,1.341952682046188526e-02
5.596000000000000085e+01,1.281404384242938906e-02
5.600000000000000000e+01,1.152333599421968661e-02
5.603999999999999915e+01,1.076518714409397878e-02
5.607999999999999829e+01,1.168126966567577599e-02
5.611999999999999744e+01,9.552670845490239537e-03
5.615999999999999659e+01,9.402749283680577469e-03
5.620000000000000284e+01,1.024205550401638756e-02
5.624000000000000199e+01,1.389726533185989786e-02
5.628000000000000114e+01,1.450779363417172355e-02
5.632000000000000028e+01,1.154085990254726315e-02
5.635999999999999943e+01,1.489095839393872467e-02
5.639999999999999858e+01,1.397859130777294109e-02
5.643999999999999773e+01,1.085876895332514060e-02
5.647999999999999687e+01,1.146818786639020211e-02
5.652000000000000313e+01,1.436072960291182379e-02
5.656000000000000227e+01,1.169691016927193634e-02
5.660000000000000142e+01,1.732902154358008373e-02
5.664000000000000057e+01,1.146807507410854340e-02
5.667999999999999972e+01,1.337027885823934177e-02
5.671999999999999886e+01,9.868344277719522106e-03
5.675999999999999801e+01,9.715093169936713305e-03
5.679999999999999716e+01,1.428053239242731143e-02
5.684000000000000341e+01,1.093015378940186480e-02
5.688000000000000256e+01,1.488625624244745843e-02
5.692000000000000171e+01,1.534100746707797031e-02
5.696000000000000085e+01,1.252274190126526771e-02
5.700000000000000000e+01,9.932588252399714851e-03
5.703999999999999915e+01,1.069111775468346674e-02
5.707999999999999829e+01,1.068830965174285240e-02
5.711999999999999744e+01,1.456696507053284462e-02
5.715999999999999659e+01,1.441148852279775482e-02
5.720000000000000284e+01,1.494079263013015600e-02
5.724000000000000199e+01,1.189263364688109351e-02
5.728000000000000114e+01,8.311471312615116916e-03
5.732000000000000028e+01,1.043844814167765866e-02
5.735999999999999943e+01,1.142352957073995701e-02
5.739999999999999858e+01,1.012504313429632256e-02
5.743999999999999773e+01,1.179468191640284554e-02
5.747999999999999687e+01,1.239853665532348638e-02
5.752000000000000313e+01,1.094715787482783073e-02
5.756000000000000227e+01,1.040889381984274296e-02
5.760000000000000142e+01,1.367598124065750806e-02
5.764000000000000057e+01,1.131059475626356066e-02
5.767999999999999972e+01,9.629988375644009738e-03
5.771999999999999886e+01,1.084139539734930470e-02
5.775999999999999801e+01,9.084230688340034707e-03
5.779999999999999716e+01,1.227408964498976143e-02
5.784000000000000341e+01,1.356093770396967456e-02
5.788000000000000256e+01,1.058531848557185510e-02
5.792000000000000171e+01,1.400284119312493296e-02
5.796000000000000085e+01,1.110288617620174695e-02
5.800000000000000000e+01,1.147550171320396717e-02
5.803999999999999915e+01,1.207622797268487376e-02
5.807999999999999829e+01,1.183950398377641572e-02
5.811999999999999744e+01,1.487535041097007120e-02
5.815999999999999659e+01,1.288761429282190771e-02
5.820000000000000284e+01,1.158465768121390294e-02
5.824000000000000199e+01,9.520362132089767171e-03
5.828000000000000114e+01,1.126141727776685392e-02
5.832000000000000028e+01,1.087112649056811570e-02
5.835999999999999943e+01,1.139394951005805526e-02
5.839999999999999858e+01,9.785426504789959679e-03
5.843999999999999773e+01,9.166128708966004776e-03
5.847999999999999687e+01,9.612167571282749859e-03
5.852000000000000313e+01,1.028631660478503476e-02
5.856000000000000227e+01,1.194969070990818498e-02
5.860000000000000142e+01,1.429784386216055060e-02
5.864000000000000057e+01,1.002407253038747545e-02
5.867999999999999972e+01,9.403428444729413152e-03
5.871999999999999886e+01,1.091368166649245644e-02
5.875999999999999801e+01,1.097759190176635959e-02
5.879999999999999716e+01,1.530352120243311936e-02
5.884000000000000341e+01,7.831944154009420206e-03
5.888000000000000256e+01,1.147242059648404672e-02
5.892000000000000171e+01,1.145932052421358600e-02
5.896000000000000085e+01,9.543208267922688448e-03
5.900000000000000000e+01,1.333523324543435355e-02
5.903999999999999915e+01,1.499591146313044958e-02
5.907999999999999829e+01,1.026299917536200278e-02
5.911999999999999744e+01,1.154266996212343147e-02
5.915999999999999659e+01,1.000599039950721657e-02
5.920000000000000284e+01,1.006742713055547474e-02
5.924000000000000199e+01,1.111808815222599389e-02
5.928000000000000114e+01,1.087462857944843618e-02
5.932000000000000028e+01,1.177261619468621644e-02
5.935999999999999943e+01,7.951465864899904742e-03
5.939999999999999858e+01,1.333958106283666435e-02
5.943999999999999773e+01,9.746314524159253173e-03
5.947999999999999687e+01,1.056728925915135717e-02
5.952000000000000313e+01,1.275804543636627035e-02
5.956000000000000227e+01,1.129522436377856237e-02
5.960000000000000142e+01,1.013662371660449014e-02
5.964000000000000057e+01,1.293559519150972587e-02
5.967999999999999972e+01,9.340975471833996846e-03
5.971999999999999886e+01,1.069337721264467661e-02
5.975999999999999801e+01,1.196944172191642675e-02
5.979999999999999716e+01,1.012470916820251698e-02
5.984000000000000341e+01,1.383588989425283550e-02
5.988000000000000256e+01,1.062069873355328715e-02
5.992000000000000171e+01,9.460292007404346587e-03
5.996000000000000085e+01,9.060774261024988688e-03
