2.003999999999999915e+01,2.293409926958565534e-02
2.007999999999999829e+01,2.462208086465164647e-02
2.012000000000000099e+01,2.922405743835472525e-02
2.016000000000000014e+01,3.652417993234988863e-02
2.019999999999999929e+01,1.716704332582894357e-02
2.023999999999999844e+01,2.090574082200398476e-02
2.028000000000000114e+01,3.284672109995605271e-02
2.032000000000000028e+01,2.859909608062958380e-02
2.035999999999999943e+01,3.082696435028037599e-02
2.039999999999999858e+01,3.122015574987906106e-02
2.044000000000000128e+01,2.826772984497116434e-02
2.048000000000000043e+01,3.006400724058064938e-02
2.051999999999999957e+01,2.268675514787059713e-02
2.055999999999999872e+01,2.815252646504178696e-02
2.060000000000000142e+01,2.379722161451826648e-02
2.064000000000000057e+01,2.375892095650167582e-02
2.067999999999999972e+01,2.533951696177050295e-02
2.071999999999999886e+01,3.091334332419847300e-02
2.076000000000000156e+01,3.314154841683841779e-02
2.080000000000000071e+01,3.288752599476987837e-02
2.083999999999999986e+01,2.712939568474381780e-02
2.087999999999999901e+01,1.975243111942852001e-02
2.092000000000000171e+01,2.575810690976538045e-02
2.096000000000000085e+01,2.431703626099995796e-02
2.100000000000000000e+01,3.248125512958038169e-02
2.103999999999999915e+01,3.028477097149191027e-02
2.107999999999999829e+01,2.387926732759431889e-02
2.112000000000000099e+01,2.923753734091114401e-02
2.116000000000000014e+01,3.459583384945445761e-02
2.119999999999999929e+01,2.732701544049657288e-02
2.123999999999999844e+01,3.462800051667634660e-02
2.128000000000000114e+01,3.761203934740391108e-02
2.132000000000000028e+01,4.210704262951152355e-02
2.135999999999999943e+01,2.695985072421768283e-02
2.139999999999999858e+01,4.106016258399493996e-02
2.144000000000000128e+01,6.034086297381532904e-02
2.148000000000000043e+01,7.152726479289663042e-02
2.151999999999999957e+01,6.123675665911392646e-02
2.155999999999999872e+01,5.288890712812009676e-02
2.160000000000000142e+01,3.990033454236528720e-02
2.164000000000000057e+01,4.547475889481736311e-02
2.167999999999999972e+01,4.403412501165387960e-02
2.171999999999999886e+01,4.086672218299524512e-02
2.176000000000000156e+01,3.402991284901686619e-02
2.180000000000000071e+01,3.194179045877037354e-02
2.183999999999999986e+01,3.632914301807473739e-02
2.187999999999999901e+01,2.819729651499749967e-02
2.192000000000000171e+01,3.096581950519156773e-02
2.196000000000000085e+01,3.513737473486058110e-02
2.200000000000000000e+01,2.171728819207200886e-02
2.203999999999999915e+01,2.437793516001214578e-02
2.207999999999999829e+01,2.876538572447409625e-02
2.212000000000000099e+01,2.451890838092185901e-02
2.216000000000000014e+01,2.577658348955702908e-02
2.219999999999999929e+01,1.937164823093970312e-02
2.223999999999999844e+01,2.095312290406603842e-02
2.228000000000000114e+01,2.620403575957760273e-02
2.232000000000000028e+01,1.677725847359648123e-02
2.235999999999999943e+01,2.245989220098061970e-02
2.239999999999999858e+01,3.289120543719392664e-02
2.244000000000000128e+01,2.292484013378397190e-02
2.248000000000000043e+01,2.979467285823797842e-02
2.251999999999999957e+01,3.008113406358278036e-02
2.255999999999999872e+01,2.033064625119950994e-02
2.260000000000000142e+01,2.277561088197412736e-02
2.264000000000000057e+01,2.921378207821976117e-02
2.267999999999999972e+01,1.913954588920945346e-02
2.271999999999999886e+01,3.324035588538917091e-02
2.276000000000000156e+01,2.791480190874634504e-02
2.280000000000000071e+01,3.197866658205662099e-02
2.283999999999999986e+01,3.604253693286615240e-02
2.287999999999999901e+01,4.107773099759683133e-02
2.292000000000000171e+01,5.129329525294437642e-02
2.296000000000000085e+01,5.492548253692080412e-02
2.300000000000000000e+01,6.190332623737188761e-02
2.303999999999999915e+01,6.683061179151479625e-02
2.307999999999999829e+01,8.103938824464713975e-02
2.312000000000000099e+01,6.891464225809809663e-02
2.316000000000000014e+01,6.283365773894453166e-02
2.319999999999999929e+01,5.999040287662230769e-02
2.323999999999999844e+01,5.088754041733521000e-02
2.328000000000000114e+01,3.994996540046365230e-02
2.332000000000000028e+01,4.034443965412727595e-02
2.335999999999999943e+01,2.433442237765449934e-02
2.339999999999999858e+01,3.314698854820357504e-02
2.344000000000000128e+01,2.069846953688545682e-02
2.348000000000000043e+01,1.310654093291433939e-02
2.351999999999999957e+01,2.418551025246453573e-02
2.355999999999999872e+01,2.760185235231649159e-02
2.360000000000000142e+01,2.983102361735745500e-02
2.364000000000000057e+01,1.565569988264078546e-02
2.367999999999999972e+01,1.874825643135287837e-02
2.371999999999999886e+01,1.979024640753371256e-02
2.376000000000000156e+01,1.996883641029021869e-02
2.380000000000000071e+01,2.478816429242758704e-02
2.383999999999999986e+01,2.097354295316328568e-02
2.387999999999999901e+01,1.737476296691872757e-02
2.392000000000000171e+01,1.744540084099232419e-02
2.396000000000000085e+01,2.668959442818917907e-02
2.400000000000000000e+01,2.222739558824835329e-02
2.403999999999999915e+01,2.855761569024728441e-02
2.407999999999999829e+01,2.074974524841839696e-02
2.412000000000000099e+01,1.671921446994918681e-02
2.416000000000000014e+01,1.204112732413882732e-02
2.419999999999999929e+01,1.470188013466898654e-02
2.423999999999999844e+01,1.207433148881198633e-02
2.428000000000000114e+01,9.770543520715468597e-03
2.432000000000000028e+01,1.534521542869117516e-02
2.435999999999999943e+01,1.865346427088809128e-02
2.439999999999999858e+01,1.947944098896107340e-02
2.444000000000000128e+01,1.275070386415439079e-02
2.448000000000000043e+01,1.530344029023128147e-02
2.451999999999999957e+01,1.591352451191599404e-02
2.455999999999999872e+01,1.619982025368528478e-02
2.460000000000000142e+01,2.350117815116590722e-02
2.464000000000000057e+01,2.270819832075385986e-02
2.467999999999999972e+01,2.213104993015809971e-02
2.471999999999999886e+01,1.561804844719834502e-02
2.476000000000000156e+01,1.763104707610376604e-02
2.480000000000000071e+01,8.096128991517228743e-03
2.483999999999999986e+01,8.598149966269782313e-03
2.487999999999999901e+01,1.471221396966065041e-02
2.492000000000000171e+01,1.186854252479790928e-02
2.496000000000000085e+01,2.143614284182785920e-02
2.500000000000000000e+01,1.513885271336675581e-02
2.503999999999999915e+01,9.704935251835099252e-03
2.507999999999999829e+01,2.186265356965349724e-02
2.512000000000000099e+01,1.632076717217846931e-02
2.516000000000000014e+01,2.167921011950098634e-02
2.519999999999999929e+01,1.764821702357887573e-02
2.523999999999999844e+01,1.922926249535348436e-02
2.528000000000000114e+01,8.506915336316854884e-03
2.532000000000000028e+01,1.213847254239561538e-02
2.535999999999999943e+01,1.156095722702700154e-02
2.539999999999999858e+01,1.400529574449546968e-02
2.544000000000000128e+01,7.923589495497981167e-03
2.548000000000000043e+01,1.155504153124950646e-02
2.551999999999999957e+01,1.799249735017270993e-02
2.555999999999999872e+01,1.072354141121156096e-02
2.560000000000000142e+01,1.716094067968975193e-02
2.564000000000000057e+01,1.194248854447002052e-02
2.567999999999999972e+01,1.740851074778052357e-02
2.571999999999999886e+01,3.771905143443144825e-03
2.576000000000000156e+01,1.776388505708133975e-02
2.580000000000000071e+01,1.697020742544965224e-02
2.583999999999999986e+01,1.185952704310603428e-02
2.587999999999999901e+01,1.969972842918349745e-02
2.592000000000000171e+01,1.491275640985960556e-02
2.596000000000000085e+01,1.714082969380130439e-02
2.600000000000000000e+01,1.677868674586970379e-02
2.603999999999999915e+01,2.105725392034935375e-02
2.607999999999999829e+01,1.465128277095117428e-02
2.612000000000000099e+01,2.130411469735539118e-02
2.616000000000000014e+01,2.417956131447874732e-02
2.619999999999999929e+01,1.205349686704548090e-02
2.623999999999999844e+01,2.971449761651495311e-02
2.628000000000000114e+01,1.629326839008140432e-02
2.632000000000000028e+01,1.420405125967021467e-02
2.635999999999999943e+01,1.470497894088209669e-02
2.639999999999999858e+01,2.092585509698822663e-02
2.644000000000000128e+01,1.937614406452131677e-02
2.648000000000000043e+01,2.311468339025846835e-02
2.651999999999999957e+01,1.919055881744471254e-02
2.655999999999999872e+01,7.495845569077403368e-03
2.660000000000000142e+01,2.440102596190424356e-02
2.664000000000000057e+01,1.594395882903675704e-02
2.667999999999999972e+01,2.076153639541422971e-02
2.671999999999999886e+01,2.342058593340527045e-02
2.676000000000000156e+01,1.604263440935025167e-02
2.680000000000000071e+01,1.449255068493026516e-02
2.683999999999999986e+01,9.272997506348820348e-03
2.687999999999999901e+01,2.164505780240982141e-02
2.692000000000000171e+01,2.246917511498971662e-02
2.696000000000000085e+01,1.638609304615396001e-02
2.700000000000000000e+01,1.559125489194013343e-02
2.703999999999999915e+01,2.289069147159179113e-02
2.707999999999999829e+01,1.626784889558760203e-02
2.712000000000000099e+01,2.615737400684023037e-02
2.716000000000000014e+01,1.230350936895317424e-02
2.719999999999999929e+01,1.183220726807134200e-02
2.723999999999999844e+01,2.582271002195907911e-02
2.728000000000000114e+01,1.909170141731539663e-02
2.732000000000000028e+01,2.336891967316240271e-02
2.735999999999999943e+01,2.246572209247135396e-02
2.739999999999999858e+01,2.933302194067695032e-02
2.744000000000000128e+01,2.821387364612033127e-02
2.748000000000000043e+01,2.806599206456516366e-02
2.751999999999999957e+01,3.288257511002223160e-02
2.755999999999999872e+01,4.093683378535210859e-02
2.760000000000000142e+01,4.715632637179906911e-02
2.764000000000000057e+01,6.384442044674296102e-02
2.767999999999999972e+01,6.477551514830680313e-02
2.771999999999999886e+01,8.124765157014278427e-02
2.776000000000000156e+01,8.476881894218213365e-02
2.780000000000000071e+01,7.490731964339483739e-02
2.783999999999999986e+01,6.450614265787317503e-02
2.787999999999999901e+01,4.946416479894346491e-02
2.792000000000000171e+01,5.320095462225878091e-02
2.796000000000000085e+01,4.571356141895602937e-02
2.800000000000000000e+01,4.513326395890755044e-02
2.803999999999999915e+01,5.329477452927511988e-02
2.807999999999999829e+01,6.814753128889175504e-02
2.812000000000000099e+01,7.533760432355064707e-02
2.816000000000000014e+01,7.303028035476986923e-02
2.819999999999999929e+01,7.428439692932643779e-02
2.823999999999999844e+01,9.636783856635330880e-02
2.828000000000000114e+01,9.956446923616625588e-02
2.832000000000000028e+01,1.035165076474321016e-01
2.835999999999999943e+01,1.114616817447646180e-01
2.839999999999999858e+01,9.361288938198533693e-02
2.844000000000000128e+01,9.443493397652641397e-02
2.848000000000000043e+01,8.219807631804525172e-02
2.851999999999999957e+01,6.370154563545663007e-02
2.855999999999999872e+01,5.524190791581122528e-02
2.860000000000000142e+01,6.275499813728396825e-02
2.864000000000000057e+01,4.274733042320475601e-02
2.867999999999999972e+01,2.867543149407486905e-02
2.871999999999999886e+01,2.658306060941176968e-02
2.876000000000000156e+01,2.664910767139177378e-02
2.880000000000000071e+01,1.872868973816362373e-02
2.883999999999999986e+01,2.181647983033969257e-02
2.887999999999999901e+01,1.227705983826174289e-02
2.892000000000000171e+01,2.281148651303392325e-02
2.896000000000000085e+01,2.007115642417700227e-02
2.900000000000000000e+01,1.463264864759151844e-02
2.903999999999999915e+01,1.232387388011007071e-02
2.907999999999999829e+01,1.325275590741487736e-02
2.912000000000000099e+01,1.493703576296919258e-02
2.916000000000000014e+01,1.122502891459290983e-02
2.919999999999999929e+01,1.096652593670722868e-02
2.923999999999999844e+01,1.340605636425483416e-02
2.928000000000000114e+01,1.476626985458961983e-02
2.932000000000000028e+01,2.044337997917414218e-02
2.935999999999999943e+01,1.867363957602054952e-02
2.939999999999999858e+01,5.463849739797677768e-03
2.944000000000000128e+01,1.049318734402098288e-02
2.948000000000000043e+01,1.250056846856636983e-02
2.951999999999999957e+01,7.600718489445190337e-03
2.955999999999999872e+01,1.522000755263945224e-02
2.960000000000000142e+01,8.053591982847507075e-03
2.964000000000000057e+01,1.556480009089980174e-02
2.967999999999999972e+01,9.261621106727650418e-03
2.971999999999999886e+01,7.922879488258226244e-03
2.976000000000000156e+01,8.202922018215343808e-03
2.980000000000000071e+01,5.784776947240530091e-03
2.983999999999999986e+01,6.604279253508666542e-03
2.987999999999999901e+01,8.718791377195471079e-03
2.992000000000000171e+01,1.983430376449732500e-03
2.996000000000000085e+01,6.687960647993187492e-03
3.000000000000000000e+01,1.290334781265963654e-02
3.003999999999999915e+01,8.649996145776186335e-03
3.007999999999999829e+01,1.087201732244847362e-02
3.012000000000000099e+01,1.287810540378393070e-02
3.016000000000000014e+01,1.283354711130064649e-02
3.019999999999999929e+01,1.117003907470822191e-02
3.023999999999999844e+01,1.274417345875710969e-02
3.028000000000000114e+01,8.706158697705657437e-03
3.032000000000000028e+01,6.934466833893013042e-03
3.035999999999999943e+01,9.371734435823241699e-03
3.039999999999999858e+01,8.006373385498460199e-04
3.044000000000000128e+01,0.000000000000000000e+00
3.048000000000000043e+01,6.646049080486260245e-03
3.051999999999999957e+01,6.924476072513912998e-03
3.055999999999999872e+01,1.400204280420259441e-02
3.060000000000000142e+01,1.503575930013973869e-02
3.064000000000000057e+01,6.248275217679163940e-03
3.067999999999999972e+01,9.332370610994558321e-03
3.071999999999999886e+01,8.639024189769500817e-03
3.076000000000000156e+01,6.650493929220280091e-03
3.080000000000000071e+01,1.254034324779562323e-02
3.083999999999999986e+01,6.342579601480815774e-03
3.087999999999999901e+01,1.287978720338073084e-02
3.092000000000000171e+01,1.402068629230249913e-02
3.096000000000000085e+01,1.721205178521542298e-02
3.100000000000000000e+01,1.533088061785722704e-02
3.103999999999999915e+01,8.485096575910218084e-03
3.107999999999999829e+01,1.005731005017878460e-02
3.112000000000000099e+01,1.767318635546872088e-02
3.116000000000000014e+01,1.169050579179278966e-02
3.119999999999999929e+01,1.488129122674914859e-02
3.123999999999999844e+01,1.558971977969229178e-02
3.128000000000000114e+01,1.910408074074245247e-02
3.132000000000000028e+01,1.808552248295241388e-02
3.135999999999999943e+01,2.170760842477073918e-02
3.139999999999999858e+01,2.673260963026366510e-02
3.144000000000000128e+01,2.981487288215481368e-02
3.148000000000000043e+01,2.696119927511314573e-02
3.151999999999999957e+01,2.896401644772410300e-02
3.155999999999999872e+01,3.064295839988960546e-02
3.160000000000000142e+01,2.746520481956636617e-02
3.164000000000000057e+01,3.702241306991456427e-02
3.167999999999999972e+01,3.945651488826205922e-02
3.171999999999999886e+01,3.876070818861956924e-02
3.176000000000000156e+01,4.691458770433958730e-02
3.180000000000000071e+01,4.740573789436613311e-02
3.183999999999999986e+01,4.433528095405228631e-02
3.187999999999999901e+01,4.698470458318922127e-02
3.192000000000000171e+01,4.736761146677502532e-02
3.196000000000000085e+01,5.875868771427154164e-02
3.200000000000000000e+01,4.349235864150138853e-02
3.203999999999999915e+01,4.106891072414337734e-02
3.207999999999999829e+01,3.422045845174440104e-02
3.211999999999999744e+01,3.535829368302674525e-02
3.215999999999999659e+01,2.753830375156456414e-02
3.220000000000000284e+01,2.274008339071034029e-02
3.224000000000000199e+01,1.697043369513306921e-02
3.228000000000000114e+01,2.447535930637677673e-02
3.232000000000000028e+01,1.956888076927666351e-02
3.235999999999999943e+01,2.049020113504773297e-02
3.239999999999999858e+01,1.741821030586624894e-02
3.243999999999999773e+01,1.520950044648257567e-02
3.247999999999999687e+01,1.828896659627727087e-02
3.252000000000000313e+01,1.521663443728978569e-02
3.256000000000000227e+01,1.721662873347539618e-02
3.260000000000000142e+01,1.144595950942162849e-02
3.264000000000000057e+01,9.668372935796049755e-03
3.267999999999999972e+01,9.725382890089395715e-03
3.271999999999999886e+01,9.242654687107410352e-03
3.275999999999999801e+01,1.674620605724401121e-02
3.279999999999999716e+01,1.939304702508670014e-02
3.284000000000000341e+01,5.959051835359821178e-03
3.288000000000000256e+01,1.745544690253670456e-02
3.292000000000000171e+01,1.136006488202926691e-02
3.296000000000000085e+01,1.152417145486022906e-02
3.300000000000000000e+01,1.201193065153437212e-02
3.303999999999999915e+01,1.455013047787077907e-02
3.307999999999999829e+01,1.600896627927805849e-02
3.311999999999999744e+01,1.304278483847985844e-02
3.315999999999999659e+01,6.622904191898123898e-03
3.320000000000000284e+01,7.325903415433480947e-03
3.324000000000000199e+01,9.863492227645334620e-03
3.328000000000000114e+01,1.045832028588752904e-02
3.332000000000000028e+01,1.752848103921151104e-02
3.335999999999999943e+01,1.100005766226021774e-02
3.339999999999999858e+01,1.526393724276866974e-02
3.343999999999999773e+01,1.780090264935165617e-02
3.347999999999999687e+01,1.548114922741780988e-02
3.352000000000000313e+01,2.060804455434704294e-02
3.356000000000000227e+01,2.109406862412399955e-02
3.360000000000000142e+01,2.654448198056718472e-02
3.364000000000000057e+01,2.411629464826407429e-02
3.367999999999999972e+01,2.222760007626609427e-02
3.371999999999999886e+01,2.195764058233765081e-02
3.375999999999999801e+01,2.449358276558562947e-02
3.379999999999999716e+01,2.800071334752804453e-02
3.384000000000000341e+01,1.909642094604013102e-02
3.388000000000000256e+01,1.882593992724073892e-02
3.392000000000000171e+01,1.920287297612793126e-02
3.396000000000000085e+01,1.936382534630185295e-02
3.400000000000000000e+01,2.546048057862242142e-02
3.403999999999999915e+01,2.162796882008827248e-02
3.407999999999999829e+01,2.632134168459937182e-02
3.411999999999999744e+01,2.378365360049682423e-02
3.415999999999999659e+01,2.513110505039353390e-02
3.420000000000000284e+01,2.194560159391771917e-02
3.424000000000000199e+01,2.523541943233976320e-02
3.428000000000000114e+01,1.913568871265840243e-02
3.432000000000000028e+01,2.587881089575947216e-02
3.435999999999999943e+01,2.852067331521715085e-02
3.439999999999999858e+01,3.073070104101478101e-02
3.443999999999999773e+01,2.193231400593142338e-02
3.447999999999999687e+01,2.025679097983967836e-02
3.452000000000000313e+01,3.444599825581830255e-02
3.456000000000000227e+01,1.895588861169046624e-02
3.460000000000000142e+01,2.591388944020251231e-02
3.464000000000000057e+01,2.186347302953276645e-02
3.467999999999999972e+01,2.180611399062247144e-02
3.471999999999999886e+01,2.757652461063327815e-02
3.475999999999999801e+01,2.438907784998841505e-02
3.479999999999999716e+01,1.774791156149298915e-02
3.484000000000000341e+01,2.653977448441677961e-02
3.488000000000000256e+01,2.108548875392401989e-02
3.492000000000000171e+01,3.063253411816026922e-02
3.496000000000000085e+01,3.251681099954949888e-02
3.500000000000000000e+01,2.792548599719852850e-02
3.503999999999999915e+01,2.948569953251466147e-02
3.507999999999999829e+01,3.136953991734502123e-02
3.511999999999999744e+01,3.368493093737190414e-02
3.515999999999999659e+01,3.848243344244182962e-02
3.520000000000000284e+01,4.327978846601809870e-02
3.524000000000000199e+01,5.001963257660477918e-02
3.528000000000000114e+01,6.237139084418522050e-02
3.532000000000000028e+01,7.547847011268871142e-02
3.535999999999999943e+01,7.487901618656589431e-02
3.539999999999999858e+01,7.373979089393623010e-02
3.543999999999999773e+01,7.033400523766038248e-02
3.547999999999999687e+01,6.455373444073561617e-02
3.552000000000000313e+01,6.168726779328218002e-02
3.556000000000000227e+01,5.838895207802374115e-02
3.560000000000000142e+01,5.314784686050569307e-02
3.564000000000000057e+01,4.887790724131425152e-02
3.567999999999999972e+01,5.572401517098016926e-02
3.571999999999999886e+01,3.958209724962692688e-02
3.575999999999999801e+01,4.092375848501565022e-02
3.579999999999999716e+01,4.744563030844606982e-02
3.584000000000000341e+01,5.450696812653237078e-02
3.588000000000000256e+01,5.153119187205368323e-02
3.592000000000000171e+01,5.136129052910213405e-02
3.596000000000000085e+01,5.119123228711369017e-02
3.600000000000000000e+01,5.425874509070188756e-02
3.603999999999999915e+01,6.930569523294553835e-02
3.607999999999999829e+01,5.672387096550286778e-02
3.611999999999999744e+01,6.324448561399741153e-02
3.615999999999999659e+01,7.354229073214028911e-02
3.620000000000000284e+01,7.596146343928579514e-02
3.624000000000000199e+01,7.945971859119785319e-02
3.628000000000000114e+01,7.993593300120281631e-02
3.632000000000000028e+01,7.393652917068199715e-02
3.635999999999999943e+01,8.520484849931557469e-02
3.639999999999999858e+01,7.920512046185737565e-02
3.643999999999999773e+01,7.255768388938543811e-02
3.647999999999999687e+01,6.450706831684248355e-02
3.652000000000000313e+01,6.411891288133463040e-02
3.656000000000000227e+01,4.851326944260095364e-02
3.660000000000000142e+01,5.513986313081369744e-02
3.664000000000000057e+01,6.068704868034208860e-02
3.667999999999999972e+01,4.335412076434966289e-02
3.671999999999999886e+01,4.609494286147404474e-02
3.675999999999999801e+01,3.825901857479736823e-02
3.679999999999999716e+01,3.970441517567145640e-02
3.684000000000000341e+01,4.007040115956034959e-02
3.688000000000000256e+01,3.622717187187256965e-02
3.692000000000000171e+01,3.702451788702944280e-02
3.696000000000000085e+01,3.706622464224795105e-02
3.700000000000000000e+01,3.883455011274441343e-02
3.703999999999999915e+01,4.017100817600953444e-02
3.707999999999999829e+01,3.438429289315083487e-02
3.711999999999999744e+01,3.895813734598610467e-02
3.715999999999999659e+01,3.414239755318562025e-02
3.720000000000000284e+01,3.914759509804648097e-02
3.724000000000000199e+01,4.199413425589585552e-02
3.728000000000000114e+01,3.577486052515631287e-02
3.732000000000000028e+01,3.635464276750886153e-02
3.735999999999999943e+01,3.704217504406095984e-02
3.739999999999999858e+01,3.902462395391947947e-02
3.743999999999999773e+01,3.884841199846564286e-02
3.747999999999999687e+01,4.320484412527156315e-02
3.752000000000000313e+01,4.227281023651358050e-02
3.756000000000000227e+01,3.993758396485988516e-02
3.760000000000000142e+01,3.824972616015703819e-02
3.764000000000000057e+01,4.886505871173018462e-02
3.767999999999999972e+01,4.480251078830493894e-02
3.771999999999999886e+01,4.419336115975389112e-02
3.775999999999999801e+01,4.110177385658175808e-02
3.779999999999999716e+01,4.049226532488135050e-02
3.784000000000000341e+01,4.085389513019811736e-02
3.788000000000000256e+01,4.175496565150203787e-02
3.792000000000000171e+01,3.963397510883191061e-02
3.796000000000000085e+01,3.902374282291073276e-02
3.800000000000000000e+01,3.830540407794146701e-02
3.803999999999999915e+01,4.643667372968786344e-02
3.807999999999999829e+01,4.345155923413524662e-02
3.811999999999999744e+01,5.276962914693655859e-02
3.815999999999999659e+01,5.787846792703572191e-02
3.820000000000000284e+01,5.964146932951228108e-02
3.824000000000000199e+01,6.701634821012994458e-02
3.828000000000000114e+01,7.331179862999620545e-02
3.832000000000000028e+01,8.597459550608040069e-02
3.835999999999999943e+01,8.557836770108021018e-02
3.839999999999999858e+01,9.737739655347024681e-02
3.843999999999999773e+01,1.195369687847686740e-01
3.847999999999999687e+01,1.447182327680281710e-01
3.852000000000000313e+01,1.678487467844931580e-01
3.856000000000000227e+01,2.066280924786662865e-01
3.860000000000000142e+01,2.656970134526132066e-01
3.864000000000000057e+01,3.636184856015760025e-01
3.867999999999999972e+01,4.942408243933747447e-01
3.871999999999999886e+01,6.651187290263210761e-01
3.875999999999999801e+01,8.395579433483194576e-01
3.879999999999999716e+01,9.820513783020415888e-01
3.884000000000000341e+01,1.000000000000000000e+00
3.888000000000000256e+01,9.377606875782833473e-01
3.892000000000000171e+01,8.077447328956144368e-01
3.896000000000000085e+01,6.197732450584966246e-01
3.900000000000000000e+01,4.471268106027977973e-01
3.903999999999999915e+01,3.479766166764417523e-01
3.907999999999999829e+01,2.536828198499661013e-01
3.911999999999999744e+01,1.864778215842565479e-01
3.915999999999999659e+01,1.694574175909387970e-01
3.920000000000000284e+01,1.407809941651250174e-01
3.924000000000000199e+01,1.252711355199199184e-01
3.928000000000000114e+01,9.993996923372028274e-02
3.932000000000000028e+01,9.921534055910939676e-02
3.935999999999999943e+01,9.104373744171763427e-02
3.939999999999999858e+01,8.902361883503424889e-02
3.943999999999999773e+01,8.786669445761875752e-02
3.947999999999999687e+01,8.131335549594843892e-02
3.952000000000000313e+01,8.296206090351269935e-02
3.956000000000000227e+01,8.482641336530961917e-02
3.960000000000000142e+01,8.485585104017223657e-02
3.964000000000000057e+01,7.430850664370153291e-02
3.967999999999999972e+01,7.034434041368783919e-02
3.971999999999999886e+01,8.256861289394967773e-02
3.975999999999999801e+01,8.453987465992493511e-02
3.979999999999999716e+01,9.320223738671926106e-02
3.984000000000000341e+01,9.506516541086527938e-02
3.988000000000000256e+01,1.014607077776608079e-01
3.992000000000000171e+01,1.115254697407059847e-01
3.996000000000000085e+01,1.214821009573547744e-01
4.000000000000000000e+01,1.359713450296724524e-01
4.003999999999999915e+01,1.563962171194510087e-01
4.007999999999999829e+01,1.945204633973578734e-01
4.011999999999999744e+01,2.064189008613531162e-01
4.015999999999999659e+01,2.411970770265942920e-01
4.020000000000000284e+01,2.727373153125467464e-01
4.024000000000000199e+01,2.989890538780435869e-01
4.028000000000000114e+01,3.379756472116147714e-01
4.032000000000000028e+01,3.383251368985911722e-01
4.035999999999999943e+01,3.559423001787047625e-01
4.039999999999999858e+01,3.419374371081628228e-01
4.043999999999999773e+01,3.158448421142895368e-01
4.047999999999999687e+01,2.921263684013140627e-01
4.052000000000000313e+01,2.627956186542345640e-01
4.056000000000000227e+01,2.160888457110628769e-01
4.060000000000000142e+01,1.660362056506582695e-01
4.064000000000000057e+01,1.498715750405081315e-01
4.067999999999999972e+01,1.190290267808468277e-01
4.071999999999999886e+01,1.020005706504227005e-01
4.075999999999999801e+01,8.238171538952217265e-02
4.079999999999999716e+01,7.377091995163466420e-02
4.084000000000000341e+01,5.738935888751245384e-02
4.088000000000000256e+01,5.903093494234258609e-02
4.092000000000000171e+01,4.847684884457695992e-02
4.096000000000000085e+01,4.666441067899207429e-02
4.100000000000000000e+01,5.024796722831153389e-02
4.103999999999999915e+01,4.347057292087654068e-02
4.107999999999999829e+01,3.982276242883400069e-02
4.111999999999999744e+01,3.185775984389417614e-02
4.115999999999999659e+01,3.997325384412127314e-02
4.120000000000000284e+01,3.761987072361078210e-02
4.124000000000000199e+01,2.965420264711303780e-02
4.128000000000000114e+01,3.625808973000728408e-02
4.132000000000000028e+01,3.703384230290904244e-02
4.135999999999999943e+01,3.403202121566480803e-02
4.139999999999999858e+01,3.362015857181938766e-02
4.143999999999999773e+01,3.461108678094552971e-02
4.147999999999999687e+01,2.729162002656200514e-02
4.152000000000000313e+01,2.774247573303467024e-02
4.156000000000000227e+01,3.175460643234757213e-02
4.160000000000000142e+01,3.090991768412887711e-02
4.164000000000000057e+01,2.855406171433460399e-02
4.167999999999999972e+01,2.738514506086597161e-02
4.171999999999999886e+01,2.287034741167964791e-02
4.175999999999999801e+01,2.850020343892253200e-02
4.179999999999999716e+01,2.355325062918279741e-02
4.184000000000000341e+01,2.529737350159331349e-02
4.188000000000000256e+01,2.347976483296050285e-02
4.192000000000000171e+01,2.198569825595270144e-02
4.196000000000000085e+01,2.416082599652584484e-02
4.200000000000000000e+01,2.137120505162324463e-02
4.203999999999999915e+01,3.369075125528166875e-02
4.207999999999999829e+01,2.755501261433693228e-02
4.211999999999999744e+01,2.476469346430508825e-02
4.215999999999999659e+01,2.262168627596457607e-02
4.220000000000000284e+01,2.058636914694289555e-02
4.224000000000000199e+01,2.588966843152452554e-02
4.228000000000000114e+01,1.824181874166742184e-02
4.232000000000000028e+01,1.847220588080554157e-02
4.235999999999999943e+01,1.924197822199164715e-02
4.239999999999999858e+01,2.249377233372982718e-02
4.243999999999999773e+01,2.358684362263424941e-02
4.247999999999999687e+01,1.475064333638784544e-02
4.252000000000000313e+01,1.929681574930111956e-02
4.256000000000000227e+01,1.639597406661975204e-02
4.260000000000000142e+01,2.288430568210678834e-02
4.264000000000000057e+01,1.955128802114482200e-02
4.267999999999999972e+01,1.913198578648351786e-02
4.271999999999999886e+01,1.633810869668235466e-02
4.275999999999999801e+01,1.429946041501240460e-02
4.279999999999999716e+01,1.344773757118329464e-02
4.284000000000000341e+01,1.831575948591805322e-02
4.288000000000000256e+01,1.411789911963998168e-02
4.292000000000000171e+01,1.974090521161874640e-02
4.296000000000000085e+01,1.705349800066150931e-02
4.300000000000000000e+01,1.598471087461413379e-02
4.303999999999999915e+01,1.664246761915886066e-02
4.307999999999999829e+01,2.258826902293661551e-02
4.311999999999999744e+01,1.903648804637060946e-02
4.315999999999999659e+01,1.785879514147100180e-02
4.320000000000000284e+01,2.412763103567297160e-02
4.324000000000000199e+01,3.018037125800203738e-02
4.328000000000000114e+01,3.126834693372985280e-02
4.332000000000000028e+01,2.803910325525102790e-02
4.335999999999999943e+01,3.009790076638401909e-02
4.339999999999999858e+01,3.118513065360615372e-02
4.343999999999999773e+01,3.734455217643485592e-02
4.347999999999999687e+01,4.954748337129206287e-02
4.352000000000000313e+01,4.912302307027259507e-02
4.356000000000000227e+01,5.301528294848199818e-02
4.360000000000000142e+01,5.172692575212388399e-02
4.364000000000000057e+01,6.695073153537187127e-02
4.367999999999999972e+01,7.731769209675939947e-02
4.371999999999999886e+01,7.948215421901014266e-02
4.375999999999999801e+01,7.862448291090178010e-02
4.379999999999999716e+01,8.564503009236233699e-02
4.384000000000000341e+01,8.295213740891116405e-02
4.388000000000000256e+01,8.425218809538011222e-02
4.392000000000000171e+01,7.929237492857565961e-02
4.396000000000000085e+01,6.591421178598841357e-02
4.400000000000000000e+01,6.429953878299765613e-02
4.403999999999999915e+01,5.113671065397255855e-02
4.407999999999999829e+01,5.362264580155207822e-02
4.411999999999999744e+01,4.607136477057129781e-02
4.415999999999999659e+01,4.305264504660168828e-02
4.420000000000000284e+01,5.028647304513333277e-02
4.424000000000000199e+01,4.510874918859011928e-02
4.428000000000000114e+01,3.690888545810565302e-02
4.432000000000000028e+01,3.345742961467660509e-02
4.435999999999999943e+01,3.259589553579367305e-02
4.439999999999999858e+01,3.583522266459109734e-02
4.443999999999999773e+01,3.896636353305284878e-02
4.447999999999999687e+01,2.893047960308156932e-02
4.452000000000000313e+01,3.832070334443896803e-02
4.456000000000000227e+01,4.188275242733002085e-02
4.460000000000000142e+01,3.486795797702640226e-02
4.464000000000000057e+01,3.109062750970249117e-02
4.467999999999999972e+01,3.141415478043775578e-02
4.471999999999999886e+01,2.299554981381958865e-02
4.475999999999999801e+01,3.260003388711718575e-02
4.479999999999999716e+01,3.335446045039856117e-02
4.484000000000000341e+01,2.946787598035948905e-02
4.488000000000000256e+01,3.097723814618813867e-02
4.492000000000000171e+01,2.741389116200606754e-02
4.496000000000000085e+01,2.449782144330338307e-02
4.500000000000000000e+01,3.053919815778899025e-02
4.503999999999999915e+01,2.611165016816054119e-02
4.507999999999999829e+01,3.204456327785207281e-02
4.511999999999999744e+01,3.398400757265656463e-02
4.515999999999999659e+01,3.117451258751673115e-02
4.520000000000000284e+01,3.300549030356608737e-02
4.524000000000000199e+01,3.807392456769253392e-02
4.528000000000000114e+01,3.968850944100361933e-02
4.532000000000000028e+01,4.195036711885246489e-02
4.535999999999999943e+01,4.021875300785331814e-02
4.539999999999999858e+01,5.489135578607030885e-02
4.543999999999999773e+01,5.046108639617499780e-02
4.547999999999999687e+01,6.211126006014810325e-02
4.552000000000000313e+01,6.491136729222195256e-02
4.556000000000000227e+01,7.990664245851543390e-02
4.560000000000000142e+01,8.842618439112337470e-02
4.564000000000000057e+01,9.252055393989228049e-02
4.567999999999999972e+01,1.134508340336259358e-01
4.571999999999999886e+01,1.372947918834872827e-01
4.575999999999999801e+01,1.480796333551324950e-01
4.579999999999999716e+01,1.555185432737226092e-01
4.584000000000000341e+01,1.583164297674878873e-01
4.588000000000000256e+01,1.493502897721660505e-01
4.592000000000000171e+01,1.432978250546710075e-01
4.596000000000000085e+01,1.172790874747418333e-01
4.600000000000000000e+01,1.105785149453725330e-01
4.603999999999999915e+01,8.067394012197505460e-02
4.607999999999999829e+01,7.105884788989921819e-02
4.611999999999999744e+01,6.921402111775985799e-02
4.615999999999999659e+01,5.377045160409043428e-02
4.620000000000000284e+01,4.922695071796844707e-02
4.624000000000000199e+01,4.004242145041990442e-02
4.628000000000000114e+01,3.474288153183879152e-02
4.632000000000000028e+01,3.721360459489331945e-02
4.635999999999999943e+01,3.666216200967763877e-02
4.639999999999999858e+01,2.693686924401161517e-02
4.643999999999999773e+01,2.778786928790454372e-02
4.647999999999999687e+01,2.475330794580719168e-02
4.652000000000000313e+01,2.506411157200388873e-02
4.656000000000000227e+01,2.656179404398534630e-02
4.660000000000000142e+01,2.320259511091387825e-02
4.664000000000000057e+01,1.757669702934817196e-02
4.667999999999999972e+01,1.939728462444922572e-02
4.671999999999999886e+01,1.830362639168101047e-02
4.675999999999999801e+01,2.087910299727322241e-02
4.679999999999999716e+01,1.309355737104631219e-02
4.684000000000000341e+01,7.250357090380182314e-03
4.688000000000000256e+01,2.018568954903786697e-02
4.692000000000000171e+01,1.304681296807485950e-02
4.696000000000000085e+01,1.605252562771879166e-02
4.700000000000000000e+01,1.992133883685824960e-02
4.703999999999999915e+01,2.335816072372357693e-02
4.707999999999999829e+01,1.632603262780610992e-02
4.711999999999999744e+01,1.900679466448512364e-02
4.715999999999999659e+01,2.147141245459438866e-02
4.720000000000000284e+01,2.479912831589831460e-02
4.724000000000000199e+01,2.262240915353181184e-02
4.728000000000000114e+01,1.494125447183467480e-02
4.732000000000000028e+01,1.664921460040575535e-02
4.735999999999999943e+01,1.814102800410626048e-02
4.739999999999999858e+01,1.941669418727600543e-02
4.743999999999999773e+01,1.378490721102249537e-02
4.747999999999999687e+01,1.851355159447865342e-02
4.752000000000000313e+01,8.240420726506972673e-03
4.756000000000000227e+01,1.296846432465021369e-02
4.760000000000000142e+01,1.208414415683903287e-02
4.764000000000000057e+01,1.702743354971363726e-02
4.767999999999999972e+01,1.884061665618995060e-02
4.771999999999999886e+01,1.547313163510112555e-02
4.775999999999999801e+01,1.307666202730703095e-02
4.779999999999999716e+01,1.532063290279099890e-02
4.784000000000000341e+01,1.724052682413990470e-02
4.788000000000000256e+01,1.797294904495384815e-02
4.792000000000000171e+01,1.633073197480567826e-02
4.796000000000000085e+01,1.188217799266542106e-02
4.800000000000000000e+01,1.455632048637886880e-02
4.803999999999999915e+01,1.151016948053354937e-02
4.807999999999999829e+01,1.429162258311210583e-02
4.811999999999999744e+01,1.718069238730421042e-02
4.815999999999999659e+01,1.791096848925806742e-02
4.820000000000000284e+01,1.130208488887562111e-02
4.824000000000000199e+01,8.470242068769711502e-03
4.828000000000000114e+01,1.912862485410127614e-02
4.832000000000000028e+01,1.586446528822616289e-02
4.835999999999999943e+01,1.270791945000352557e-02
4.839999999999999858e+01,1.462350378552624598e-02
4.843999999999999773e+01,1.470406379321689827e-02
4.847999999999999687e+01,1.100696191325109541e-02
4.852000000000000313e+01,1.173444303199539136e-02
4.856000000000000227e+01,8.252564146393056091e-03
4.860000000000000142e+01,1.480732989798820912e-02
4.864000000000000057e+01,1.110897489873884092e-02
4.867999999999999972e+01,1.604424788791466300e-02
4.871999999999999886e+01,1.051055057224071533e-02
4.875999999999999801e+01,1.587689016186322535e-02
4.879999999999999716e+01,9.910864204575925776e-03
4.884000000000000341e+01,1.225469140904581096e-02
4.888000000000000256e+01,1.772800577517472803e-02
4.892000000000000171e+01,1.089763457533126680e-02
4.896000000000000085e+01,1.388805498905883173e-02
4.900000000000000000e+01,1.623061123047896126e-02
4.903999999999999915e+01,1.490342292634270344e-02
4.907999999999999829e+01,1.519477936677025159e-02
4.911999999999999744e+01,1.937108996429305618e-02
4.915999999999999659e+01,1.523691043155329071e-02
4.920000000000000284e+01,1.380051696982141987e-02
4.924000000000000199e+01,1.776001611699864688e-02
4.928000000000000114e+01,1.772599490063109240e-02
4.932000000000000028e+01,1.985013686157861834e-02
4.935999999999999943e+01,1.420340762067501782e-02
4.939999999999999858e+01,1.006729487771141143e-02
4.943999999999999773e+01,1.726290773919119531e-02
4.947999999999999687e+01,1.506878369170246840e-02
4.952000000000000313e+01,1.416942609248834223e-02
4.956000000000000227e+01,1.639954722871036358e-02
4.960000000000000142e+01,1.064294562643531075e-02
4.964000000000000057e+01,1.513882433687823749e-02
4.967999999999999972e+01,1.456193491375007247e-02
4.971999999999999886e+01,2.089187209040339541e-02
4.975999999999999801e+01,2.139357017276809908e-02
4.979999999999999716e+01,1.962852994948507263e-02
4.984000000000000341e+01,1.635222089429138811e-02
4.988000000000000256e+01,2.440763199127918281e-02
4.992000000000000171e+01,2.015934513079030779e-02
4.996000000000000085e+01,2.260203333343695220e-02
5.000000000000000000e+01,1.867685806112165045e-02
5.003999999999999915e+01,2.262982395538857411e-02
5.007999999999999829e+01,1.363154422148335661e-02
5.011999999999999744e+01,1.823139157399021257e-02
5.015999999999999659e+01,1.516828209278498450e-02
5.020000000000000284e+01,1.437124916571352364e-02
5.024000000000000199e+01,1.271048813818440384e-02
5.028000000000000114e+01,1.353165123615361447e-02
5.032000000000000028e+01,1.262569099160518876e-02
5.035999999999999943e+01,1.916617082298776795e-02
5.039999999999999858e+01,1.264747677957439240e-02
5.043999999999999773e+01,1.422276750882642618e-02
5.047999999999999687e+01,1.417885719426256914e-02
5.052000000000000313e+01,1.629309518720866573e-02
5.056000000000000227e+01,2.034963242931961055e-02
5.060000000000000142e+01,1.577188885337446958e-02
5.064000000000000057e+01,1.367606494198613486e-02
5.067999999999999972e+01,1.427800876217932835e-02
5.071999999999999886e+01,1.854903835037601326e-02
5.075999999999999801e+01,1.504917938861558696e-02
5.079999999999999716e+01,1.111728251252493832e-02
5.084000000000000341e+01,8.048438602553388901e-03
5.088000000000000256e+01,1.566375676520427584e-02
5.092000000000000171e+01,1.518441155123003219e-02
5.096000000000000085e+01,1.653943634847648142e-02
5.100000000000000000e+01,1.605940509563989413e-02
5.103999999999999915e+01,1.406809014108750810e-02
5.107999999999999829e+01,1.401906799211775564e-02
5.111999999999999744e+01,1.213498830608447307e-02
5.115999999999999659e+01,2.212223431781947316e-02
5.120000000000000284e+01,1.851067513484283555e-02
5.124000000000000199e+01,1.662555821212322038e-02
5.128000000000000114e+01,1.268953320701451254e-02
5.132000000000000028e+01,2.008521051032108318e-02
5.135999999999999943e+01,2.122093176756243565e-02
5.139999999999999858e+01,1.890272779798216757e-02
5.143999999999999773e+01,1.528908373276929682e-02
5.147999999999999687e+01,2.365468568138583139e-02
5.152000000000000313e+01,1.982449412746125489e-02
5.156000000000000227e+01,2.365657634234748230e-02
5.160000000000000142e+01,2.295548803868671314e-02
5.164000000000000057e+01,2.171442713048963788e-02
5.167999999999999972e+01,2.295527299968493432e-02
5.171999999999999886e+01,2.559878233718784410e-02
5.175999999999999801e+01,3.255891024358450320e-02
5.179999999999999716e+01,3.509378943447577504e-02
5.184000000000000341e+01,3.341926797688638678e-02
5.188000000000000256e+01,3.638513644523762303e-02
5.192000000000000171e+01,3.870310455808892436e-02
5.196000000000000085e+01,4.123656607051977285e-02
5.200000000000000000e+01,3.804968501303491318e-02
5.203999999999999915e+01,3.119302223548081274e-02
5.207999999999999829e+01,3.437296097268929818e-02
5.211999999999999744e+01,3.507028409327525575e-02
5.215999999999999659e+01,2.767292847177076423e-02
5.220000000000000284e+01,2.448426168555567842e-02
5.224000000000000199e+01,2.809446599118881754e-02
5.228000000000000114e+01,1.875339740734043026e-02
5.232000000000000028e+01,1.944892736429360003e-02
5.235999999999999943e+01,1.517958025978669197e-02
5.239999999999999858e+01,2.332116489429506695e-02
5.243999999999999773e+01,1.732430756191420326e-02
5.247999999999999687e+01,1.791046978473560813e-02
5.252000000000000313e+01,1.040194880452503280e-02
5.256000000000000227e+01,1.573605470605885306e-02
5.260000000000000142e+01,1.761622051096595892e-02
5.264000000000000057e+01,1.787715850640797174e-02
5.267999999999999972e+01,2.191508226384750874e-02
5.271999999999999886e+01,1.462059189968048685e-02
5.275999999999999801e+01,2.006080165761456313e-02
5.279999999999999716e+01,1.999650749511444267e-02
5.284000000000000341e+01,1.561487601128689652e-02
5.288000000000000256e+01,1.501022781115603395e-02
5.292000000000000171e+01,1.570030392818520804e-02
5.296000000000000085e+01,1.779302814805665961e-02
5.300000000000000000e+01,2.074877856839795962e-02
5.303999999999999915e+01,1.712077928091943618e-02
5.307999999999999829e+01,1.716183651749427636e-02
5.311999999999999744e+01,1.644705424742159972e-02
5.315999999999999659e+01,1.713491760189038079e-02
5.320000000000000284e+01,1.922542608524041574e-02
5.324000000000000199e+01,1.656689516529152861e-02
5.328000000000000114e+01,1.660609975901305643e-02
5.332000000000000028e+01,1.912719080805992330e-02
5.335999999999999943e+01,1.830225662427926309e-02
5.339999999999999858e+01,2.006713218584604136e-02
5.343999999999999773e+01,1.751466299118288258e-02
5.347999999999999687e+01,1.755200255054679970e-02
5.352000000000000313e+01,1.694142192800394964e-02
5.356000000000000227e+01,1.481952637715451028e-02
5.360000000000000142e+01,2.035987931644710897e-02
5.364000000000000057e+01,2.082741505181169572e-02
5.367999999999999972e+01,1.740930018235512661e-02
5.371999999999999886e+01,2.014249237726572356e-02
5.375999999999999801e+01,1.305419750219968290e-02
5.379999999999999716e+01,1.708172564193344289e-02
5.384000000000000341e+01,1.970585966508189499e-02
5.388000000000000256e+01,7.975685314890006150e-03
5.392000000000000171e+01,1.912507915884517629e-02
5.396000000000000085e+01,1.635186076350955003e-02
5.400000000000000000e+01,1.660014180398860367e-02
5.403999999999999915e+01,1.404201059212951963e-02
5.407999999999999829e+01,1.515292351281953206e-02
5.411999999999999744e+01,1.583175737938515362e-02
5.415999999999999659e+01,1.251701041186507359e-02
5.420000000000000284e+01,1.643280737421463217e-02
5.424000000000000199e+01,1.905312954471965678e-02
5.428000000000000114e+01,1.519761092328195465e-02
5.432000000000000028e+01,1.824886190070602876e-02
5.435999999999999943e+01,1.730652956574358498e-02
5.439999999999999858e+01,1.895399458462427786e-02
5.443999999999999773e+01,1.768711811322268984e-02
5.447999999999999687e+01,1.620400668944002934e-02
5.452000000000000313e+01,2.108804097950603418e-02
5.456000000000000227e+01,1.496341119162495140e-02
5.460000000000000142e+01,1.833573028520340750e-02
5.464000000000000057e+01,1.739068975274678241e-02
5.467999999999999972e+01,1.827997313511491029e-02
5.471999999999999886e+01,1.549944158818235794e-02
5.475999999999999801e+01,2.156831125201390947e-02
5.479999999999999716e+01,2.278019790045738430e-02
5.484000000000000341e+01,1.816378250577052253e-02
5.488000000000000256e+01,1.721640133042934284e-02
5.492000000000000171e+01,2.080144812951331343e-02
5.496000000000000085e+01,2.125629843204784181e-02
5.500000000000000000e+01,2.354546868412575253e-02
5.503999999999999915e+01,2.313613857370374824e-02
5.507999999999999829e+01,2.693546161103882799e-02
5.511999999999999744e+01,2.728081332515639931e-02
5.515999999999999659e+01,2.535936031516335815e-02
5.520000000000000284e+01,2.505637621372793986e-02
5.524000000000000199e+01,2.086772217672466095e-02
5.528000000000000114e+01,2.671563000167033464e-02
5.532000000000000028e+01,3.072842824523446328e-02
5.535999999999999943e+01,2.330085537227829032e-02
5.539999999999999858e+01,2.094532593253750630e-02
5.543999999999999773e+01,2.754711355868039516e-02
5.547999999999999687e+01,2.573040845891121781e-02
5.552000000000000313e+01,2.251028842482951861e-02
5.556000000000000227e+01,1.756298011674777004e-02
5.560000000000000142e+01,2.276015398667598916e-02
5.564000000000000057e+01,2.202109161892798483e-02
5.567999999999999972e+01,1.534579251784364169e-02
5.571999999999999886e+01,1.946251979584346162e-02
5.575999999999999801e+01,1.936979785066586177e-02
5.579999999999999716e+01,1.528347474933557798e-02
5.584000000000000341e+01,2.263672222816375326e-02
5.588000000000000256e+01,2.221901771253291177e-02
5.592000000000000171e+01,2.255637893283693809e-02
5.596000000000000085e+01,2.429635108147047001e-02
5.600000000000000000e+01,2.096347678222585872e-02
5.603999999999999915e+01,1.881736385730549063e-02
5.607999999999999829e+01,2.185121022072003191e-02
5.611999999999999744e+01,2.035183005598822231e-02
5.615999999999999659e+01,2.155014971739450946e-02
5.620000000000000284e+01,2.447485017719664910e-02
5.624000000000000199e+01,2.642782390617294183e-02
5.628000000000000114e+01,2.525058478181416502e-02
5.632000000000000028e+01,1.975596521369311909e-02
5.635999999999999943e+01,2.365034843664160988e-02
5.639999999999999858e+01,2.063716747228852219e-02
5.643999999999999773e+01,3.111411099869797886e-02
5.647999999999999687e+01,2.745256249654093317e-02
5.652000000000000313e+01,2.627286079689549261e-02
5.656000000000000227e+01,2.390557983845800066e-02
5.660000000000000142e+01,2.553108463000620595e-02
5.664000000000000057e+01,2.704825198486655521e-02
5.667999999999999972e+01,2.791746000066661418e-02
5.671999999999999886e+01,2.943379955785568880e-02
5.675999999999999801e+01,3.051802734734905195e-02
5.679999999999999716e+01,3.030674862274684855e-02
5.684000000000000341e+01,2.653355298019732453e-02
5.688000000000000256e+01,2.383918402176599463e-02
5.692000000000000171e+01,2.502967256669649115e-02
5.696000000000000085e+01,2.600389542831532674e-02
5.700000000000000000e+01,2.568260929753777427e-02
5.703999999999999915e+01,2.374204083467625070e-02
5.707999999999999829e+01,2.752104067535766918e-02
5.711999999999999744e+01,2.547171022027900147e-02
5.715999999999999659e+01,2.266649019687556194e-02
5.720000000000000284e+01,2.612045839674676656e-02
5.724000000000000199e+01,2.450156478327458059e-02
5.728000000000000114e+01,2.050791589436025061e-02
5.732000000000000028e+01,2.687457643275342409e-02
5.735999999999999943e+01,2.579403948128863866e-02
5.739999999999999858e+01,2.525270136364752421e-02
5.743999999999999773e+01,2.665357724162179323e-02
5.747999999999999687e+01,2.729855958598989205e-02
5.752000000000000313e+01,3.042537634136536703e-02
5.756000000000000227e+01,2.437820462710266547e-02
5.760000000000000142e+01,2.340304908474596587e-02
5.764000000000000057e+01,2.361463509030663210e-02
5.767999999999999972e+01,2.641597780557642522e-02
5.771999999999999886e+01,2.230973997675898129e-02
5.775999999999999801e+01,2.262797064915206616e-02
5.779999999999999716e+01,2.564388082561622553e-02
5.784000000000000341e+01,2.337107319114949816e-02
5.788000000000000256e+01,2.638612682165245027e-02
5.792000000000000171e+01,2.540755302601365243e-02
5.796000000000000085e+01,2.367307974884663366e-02
5.800000000000000000e+01,2.463628349744980198e-02
5.803999999999999915e+01,2.257717686501281920e-02
5.807999999999999829e+01,2.569800473790222889e-02
5.811999999999999744e+01,2.665991548917077958e-02
5.815999999999999659e+01,2.762139425000744233e-02
5.820000000000000284e+01,2.480509067776607776e-02
5.824000000000000199e+01,2.738456819089527677e-02
5.828000000000000114e+01,2.510701956620155217e-02
5.832000000000000028e+01,2.822525103555808407e-02
5.835999999999999943e+01,2.454381831160711014e-02
5.839999999999999858e+01,3.003551453737202115e-02
5.843999999999999773e+01,3.174942545609786559e-02
5.847999999999999687e+01,2.968555057212448819e-02
5.852000000000000313e+01,2.977972486362679208e-02
5.856000000000000227e+01,3.149232642823234646e-02
5.860000000000000142e+01,2.759242792033642089e-02
5.864000000000000057e+01,2.768528988375741282e-02
5.867999999999999972e+01,2.853318338256150000e-02
5.871999999999999886e+01,3.434515489344432126e-02
5.875999999999999801e+01,3.130689590891121837e-02
5.879999999999999716e+01,2.977913694217789245e-02
5.884000000000000341e+01,3.105696887369362863e-02
5.888000000000000256e+01,2.747776723248386913e-02
5.892000000000000171e+01,2.961811109444916629e-02
5.896000000000000085e+01,3.197386161546406091e-02
5.900000000000000000e+01,2.601900007381432664e-02
5.903999999999999915e+01,2.966895667668755301e-02
5.907999999999999829e+01,3.062036285538355038e-02
5.911999999999999744e+01,2.973661236498182162e-02
5.915999999999999659e+01,2.906826605532880983e-02
5.920000000000000284e+01,3.142135474566822712e-02
5.924000000000000199e+01,2.665099549414903790e-02
5.928000000000000114e+01,2.792395012889073089e-02
5.932000000000000028e+01,2.757759417891869277e-02
5.935999999999999943e+01,2.118703161353206743e-02
5.939999999999999858e+01,2.494090413843919746e-02
5.943999999999999773e+01,2.556452465285771053e-02
5.947999999999999687e+01,1.992808850219618053e-02
5.952000000000000313e+01,2.206175176531385146e-02
5.956000000000000227e+01,2.300779859512660022e-02
5.960000000000000142e+01,2.460094127879605685e-02
5.964000000000000057e+01,2.403514800575816401e-02
5.967999999999999972e+01,2.174211540572255907e-02
5.971999999999999886e+01,2.419729986357646925e-02
5.975999999999999801e+01,1.769431715316773998e-02
5.979999999999999716e+01,1.982482463765667530e-02
5.984000000000000341e+01,2.476091062889038477e-02
5.988000000000000256e+01,2.343693499844238040e-02
5.992000000000000171e+01,1.898270140958369448e-02
5.996000000000000085e+01,2.316195603298195141e-02
