2.003999999999999915e+01,3.420852576799062600e-02
2.007999999999999829e+01,5.158662270054830551e-02
2.012000000000000099e+01,4.461994122183049472e-02
2.016000000000000014e+01,3.503168060502389464e-02
2.019999999999999929e+01,4.248508143607494791e-02
2.023999999999999844e+01,2.915181002971580643e-02
2.028000000000000114e+01,5.102528745598151200e-02
2.032000000000000028e+01,6.447184191101289208e-02
2.035999999999999943e+01,4.327381594672580212e-02
2.039999999999999858e+01,2.657042319208268583e-02
2.044000000000000128e+01,3.983024235162072046e-02
2.048000000000000043e+01,4.934485711455683515e-02
2.051999999999999957e+01,3.357833432199344020e-02
2.055999999999999872e+01,3.990972235186187461e-02
2.060000000000000142e+01,4.624128113056188288e-02
2.064000000000000057e+01,3.702968458935506496e-02
2.067999999999999972e+01,4.804330486898952812e-02
2.071999999999999886e+01,5.549898115175797703e-02
2.076000000000000156e+01,6.126940172469640122e-02
2.080000000000000071e+01,3.595333662307370615e-02
2.083999999999999986e+01,5.895282836285811734e-02
2.087999999999999901e+01,3.813154150421633332e-02
2.092000000000000171e+01,5.064429090430694336e-02
2.096000000000000085e+01,5.660278419062048788e-02
2.100000000000000000e+01,7.136307560305091280e-02
2.103999999999999915e+01,7.938183907285942253e-02
2.107999999999999829e+01,7.260650739400646703e-02
2.112000000000000099e+01,6.171141051719913895e-02
2.116000000000000014e+01,7.628504452145898340e-02
2.119999999999999929e+01,6.876108920001014480e-02
2.123999999999999844e+01,8.839128264645854105e-02
2.128000000000000114e+01,1.089579674127198472e-01
2.132000000000000028e+01,1.044307550222770831e-01
2.135999999999999943e+01,1.028999897816123554e-01
2.139999999999999858e+01,1.176617672433770273e-01
2.144000000000000128e+01,1.350454510545076037e-01
2.148000000000000043e+01,1.181590523875738069e-01
2.151999999999999957e+01,1.158797713930465600e-01
2.155999999999999872e+01,1.047989851963537083e-01
2.160000000000000142e+01,9.671463757760702384e-02
2.164000000000000057e+01,1.011774446581089754e-01
2.167999999999999972e+01,8.429172115550903621e-02
2.171999999999999886e+01,7.658230800666608606e-02
2.176000000000000156e+01,8.741265236131490202e-02
2.180000000000000071e+01,8.981602088510147464e-02
2.183999999999999986e+01,7.143266002593411101e-02
2.187999999999999901e+01,6.110198997656456077e-02
2.192000000000000171e+01,5.545316782013969686e-02
2.196000000000000085e+01,7.602212385827976371e-02
2.200000000000000000e+01,4.415588860400945087e-02
2.203999999999999915e+01,5.854520864474625774e-02
2.207999999999999829e+01,4.559337672583596568e-02
2.212000000000000099e+01,3.245439229592338853e-02
2.216000000000000014e+01,3.635699931057679440e-02
2.219999999999999929e+01,5.112132027943131624e-02
2.223999999999999844e+01,6.082949119061340643e-02
2.228000000000000114e+01,4.300923402738814766e-02
2.232000000000000028e+01,3.605068653244802857e-02
2.235999999999999943e+01,5.118998557120270354e-02
2.239999999999999858e+01,2.625383115461392067e-02
2.244000000000000128e+01,3.783523122513774567e-02
2.248000000000000043e+01,3.986601734853824353e-02
2.251999999999999957e+01,3.740245032849862789e-02
2.255999999999999872e+01,2.164288707270913686e-02
2.260000000000000142e+01,4.333721744731527936e-02
2.264000000000000057e+01,4.536840369560039832e-02
2.267999999999999972e+01,3.709989296729934716e-02
2.271999999999999886e+01,5.411278843159261775e-02
2.276000000000000156e+01,2.468307254950106999e-02
2.280000000000000071e+01,4.675241602217241471e-02
2.283999999999999986e+01,1.769742100199490215e-02
2.287999999999999901e+01,1.748193691963935079e-02
2.292000000000000171e+01,2.588091341718039284e-02
2.296000000000000085e+01,3.109640385722886244e-02
2.300000000000000000e+01,3.930828287287282258e-02
2.303999999999999915e+01,1.343729266511452768e-02
2.307999999999999829e+01,3.719266209597443806e-02
2.312000000000000099e+01,3.959944951274287084e-02
2.316000000000000014e+01,3.957181961509564222e-02
2.319999999999999929e+01,2.137917736272674021e-02
2.323999999999999844e+01,1.292459809055059548e-02
2.328000000000000114e+01,4.529472965012826952e-02
2.332000000000000028e+01,2.597869865849174523e-02
2.335999999999999943e+01,2.932228539928737054e-02
2.339999999999999858e+01,2.929510139599846366e-02
2.344000000000000128e+01,3.713328351403461652e-02
2.348000000000000043e+01,8.266815091699476412e-03
2.351999999999999957e+01,0.000000000000000000e+00
2.355999999999999872e+01,1.869998184359161070e-02
2.360000000000000142e+01,3.515279962931058128e-02
2.364000000000000057e+01,3.362785831685081300e-02
2.367999999999999972e+01,4.502453678620609717e-02
2.371999999999999886e+01,3.357446003935116163e-02
2.376000000000000156e+01,2.025175146320417480e-02
2.380000000000000071e+01,1.910158249668654495e-02
2.383999999999999986e+01,3.087302759742965169e-02
2.387999999999999901e+01,4.807532647409613891e-02
2.392000000000000171e+01,1.359144136996919862e-02
2.396000000000000085e+01,3.266653287732802780e-02
2.400000000000000000e+01,1.522422424358127122e-02
2.403999999999999915e+01,3.710844752491528759e-02
2.407999999999999829e+01,4.045308907834380824e-02
2.412000000000000099e+01,3.462159605360133618e-02
2.416000000000000014e+01,3.871540212193131519e-02
2.419999999999999929e+01,4.749097465080594216e-02
2.423999999999999844e+01,3.622880796468083003e-02
2.428000000000000114e+01,2.421760470636653492e-02
2.432000000000000028e+01,1.894812230992325500e-02
2.435999999999999943e+01,2.547662157903410676e-02
2.439999999999999858e+01,2.413985907047624599e-02
2.444000000000000128e+01,2.055590250263505600e-02
2.448000000000000043e+01,2.876992331443227122e-02
2.451999999999999957e+01,9.268167076493239592e-03
2.455999999999999872e+01,1.972947560295980687e-02
2.460000000000000142e+01,2.007828754975506461e-02
2.464000000000000057e+01,2.042712595288357497e-02
2.467999999999999972e+01,1.403430640727810867e-02
2.471999999999999886e+01,3.498278030957924223e-02
2.476000000000000156e+01,3.289719287949938176e-02
2.480000000000000071e+01,4.373318522935375902e-02
2.483999999999999986e+01,2.797700292976796829e-02
2.487999999999999901e+01,2.120974914992250493e-02
2.492000000000000171e+01,2.137146377393660604e-02
2.496000000000000085e+01,1.984777268106805923e-02
2.500000000000000000e+01,3.068384731023851911e-02
2.503999999999999915e+01,2.391665078201429470e-02
2.507999999999999829e+01,1.640038910882893677e-02
2.512000000000000099e+01,4.090713088635104105e-02
2.516000000000000014e+01,3.245454155203027907e-02
2.519999999999999929e+01,3.280360033677353487e-02
2.523999999999999844e+01,4.045615403940239219e-02
2.528000000000000114e+01,2.376374503637620691e-02
2.532000000000000028e+01,2.916907684778865736e-02
2.535999999999999943e+01,2.127831241874938301e-02
2.539999999999999858e+01,2.181465102244625753e-02
2.544000000000000128e+01,1.766926322051772316e-02
2.548000000000000043e+01,2.700723782636996542e-02
2.551999999999999957e+01,2.492180019289074594e-02
2.555999999999999872e+01,2.508358381586689792e-02
2.560000000000000142e+01,2.561989755098494775e-02
2.564000000000000057e+01,2.802889174214623705e-02
2.567999999999999972e+01,4.407488197159100882e-03
2.571999999999999886e+01,1.131091490076060503e-02
2.576000000000000156e+01,3.169769401167259887e-02
2.580000000000000071e+01,1.631608457901211062e-02
2.583999999999999986e+01,3.220837699529449649e-02
2.587999999999999901e+01,2.413022321947758467e-02
2.592000000000000171e+01,1.567751224042391450e-02
2.596000000000000085e+01,1.097016000397944141e-02
2.600000000000000000e+01,2.630056560787528627e-02
2.603999999999999915e+01,1.316606398749826413e-02
2.607999999999999829e+01,2.512557958250601770e-02
2.612000000000000099e+01,2.341443384979369560e-02
2.616000000000000014e+01,2.807040531844205017e-02
2.619999999999999929e+01,2.617193352165705228e-02
2.623999999999999844e+01,3.195145886992788870e-02
2.628000000000000114e+01,2.162582054554725713e-02
2.632000000000000028e+01,1.523279707759566705e-02
2.635999999999999943e+01,2.119949075797089577e-02
2.639999999999999858e+01,1.817723739934255789e-02
2.644000000000000128e+01,4.399436782970111287e-02
2.648000000000000043e+01,1.437984341504660625e-02
2.651999999999999957e+01,3.345521091825339605e-02
2.655999999999999872e+01,2.219296290921092193e-02
2.660000000000000142e+01,1.711054741493700168e-02
2.664000000000000057e+01,3.712212913510761630e-02
2.667999999999999972e+01,1.406180099052515252e-02
2.671999999999999886e+01,4.100224042158323590e-02
2.676000000000000156e+01,3.048883627763529156e-02
2.680000000000000071e+01,2.802794722093759211e-02
2.683999999999999986e+01,1.807624718275173750e-02
2.687999999999999901e+01,2.853681149799191033e-02
2.692000000000000171e+01,1.671231322063658833e-02
2.696000000000000085e+01,3.222902838742649351e-02
2.700000000000000000e+01,1.197731215148603069e-02
2.703999999999999915e+01,2.468487564943751614e-02
2.707999999999999829e+01,3.383426799698622395e-02
2.712000000000000099e+01,2.219674238128606023e-02
2.716000000000000014e+01,1.617722236471186639e-02
2.719999999999999929e+01,3.506441059007410488e-02
2.723999999999999844e+01,3.971909057113336139e-02
2.728000000000000114e+01,4.081559225859662798e-02
2.732000000000000028e+01,2.955227256015423645e-02
2.735999999999999943e+01,2.877594457839893413e-02
2.739999999999999858e+01,1.807428898383790436e-02
2.744000000000000128e+01,3.209206408781440506e-02
2.748000000000000043e+01,3.768266049424786462e-02
2.751999999999999957e+01,3.184977322941994621e-02
2.755999999999999872e+01,2.170962178425612718e-02
2.760000000000000142e+01,3.179444000545617738e-02
2.764000000000000057e+01,3.738472221747547036e-02
2.767999999999999972e+01,2.949155635643697926e-02
2.771999999999999886e+01,3.152356243963578414e-02
2.776000000000000156e+01,4.010989755021882736e-02
2.780000000000000071e+01,5.019429802722582407e-02
2.783999999999999986e+01,2.394843018538933901e-02
2.787999999999999901e+01,2.092382555452611606e-02
2.792000000000000171e+01,2.932253749724689565e-02
2.796000000000000085e+01,3.266489508697587724e-02
2.800000000000000000e+01,1.578211019810931218e-02
2.803999999999999915e+01,2.811318989582056033e-02
2.807999999999999829e+01,3.482610403992176390e-02
2.812000000000000099e+01,2.655740262340100521e-02
2.816000000000000014e+01,2.540482286258080938e-02
2.819999999999999929e+01,3.305378407292980381e-02
2.823999999999999844e+01,2.216301497695899458e-02
2.828000000000000114e+01,4.853866767313565894e-02
2.832000000000000028e+01,3.315323473134907523e-02
2.835999999999999943e+01,4.361081345881719779e-02
2.839999999999999858e+01,4.320668399967719092e-02
2.844000000000000128e+01,9.468568337194439161e-03
2.848000000000000043e+01,4.033813717251651804e-02
2.851999999999999957e+01,3.675010311781375799e-02
2.855999999999999872e+01,3.372376242756434245e-02
2.860000000000000142e+01,2.470469966826807987e-02
2.864000000000000057e+01,3.778325914640676131e-02
2.867999999999999972e+01,4.917628004427342103e-02
2.871999999999999886e+01,3.940778789021250061e-02
2.876000000000000156e+01,3.975169950735275848e-02
2.880000000000000071e+01,4.309179254749181259e-02
2.883999999999999986e+01,4.680629998004647713e-02
2.887999999999999901e+01,4.022088899703235576e-02
2.892000000000000171e+01,5.142590390493140956e-02
2.896000000000000085e+01,4.952196296647237705e-02
2.900000000000000000e+01,4.368524435982283627e-02
2.903999999999999915e+01,3.148125002596694616e-02
2.907999999999999829e+01,4.212393810079154838e-02
2.912000000000000099e+01,4.490119581859281644e-02
2.916000000000000014e+01,5.685449816337207612e-02
2.919999999999999929e+01,6.412593981049781455e-02
2.923999999999999844e+01,5.716480178139066171e-02
2.928000000000000114e+01,6.424869735409968752e-02
2.932000000000000028e+01,5.635093450702879231e-02
2.935999999999999943e+01,7.467068555638249616e-02
2.939999999999999858e+01,8.137961681689336035e-02
2.944000000000000128e+01,8.321940983635178757e-02
2.948000000000000043e+01,7.513380095379743051e-02
2.951999999999999957e+01,9.270389333841094759e-02
2.955999999999999872e+01,1.059666501107585646e-01
2.960000000000000142e+01,9.769332445799443210e-02
2.964000000000000057e+01,1.025286746914620406e-01
2.967999999999999972e+01,1.266525754442490437e-01
2.971999999999999886e+01,1.146334097037459282e-01
2.976000000000000156e+01,1.314535091752261631e-01
2.980000000000000071e+01,1.405954229743944794e-01
2.983999999999999986e+01,1.765166404410265788e-01
2.987999999999999901e+01,1.746093649557070304e-01
2.992000000000000171e+01,2.153992528638090653e-01
2.996000000000000085e+01,2.078735825549040128e-01
3.000000000000000000e+01,2.183255685352373521e-01
3.003999999999999915e+01,2.684784100779968319e-01
3.007999999999999829e+01,2.774319100373973113e-01
3.012000000000000099e+01,3.103556690902794513e-01
3.016000000000000014e+01,3.593843890021709009e-01
3.019999999999999929e+01,3.943677639220704578e-01
3.023999999999999844e+01,4.312236550045746020e-01
3.028000000000000114e+01,4.798773163141203391e-01
3.032000000000000028e+01,5.510030778014149977e-01
3.035999999999999943e+01,5.605171698040263273e-01
3.039999999999999858e+01,6.129156770279634570e-01
3.044000000000000128e+01,6.643776586978000775e-01
3.048000000000000043e+01,7.012324784604722083e-01
3.051999999999999957e+01,7.517577495940293009e-01
3.055999999999999872e+01,7.537801721094327112e-01
3.060000000000000142e+01,7.237794140759812311e-01
3.064000000000000057e+01,6.699953088140050417e-01
3.067999999999999972e+01,6.611555674601267141e-01
3.071999999999999886e+01,5.560593840238358121e-01
3.076000000000000156e+01,5.412266527576931052e-01
3.080000000000000071e+01,4.921235061406926681e-01
3.083999999999999986e+01,4.203606189813793859e-01
3.087999999999999901e+01,3.656390118234182363e-01
3.092000000000000171e+01,3.534272633713461120e-01
3.096000000000000085e+01,3.311027911860656148e-01
3.100000000000000000e+01,2.767551241655443750e-01
3.103999999999999915e+01,2.486249110386266059e-01
3.107999999999999829e+01,2.244271427601449154e-01
3.112000000000000099e+01,1.912402588633053124e-01
3.116000000000000014e+01,1.706001896497282289e-01
3.119999999999999929e+01,1.591360922025606695e-01
3.123999999999999844e+01,1.469227096000879362e-01
3.128000000000000114e+01,1.253456677215679660e-01
3.132000000000000028e+01,1.286751869352091571e-01
3.135999999999999943e+01,1.260118855037403451e-01
3.139999999999999858e+01,1.196029896573326395e-01
3.144000000000000128e+01,9.409244229881479071e-02
3.148000000000000043e+01,9.405025723260619641e-02
3.151999999999999957e+01,8.670436300576084276e-02
3.155999999999999872e+01,7.992005499547392977e-02
3.160000000000000142e+01,7.725544223288891010e-02
3.164000000000000057e+01,6.560169527964419822e-02
3.167999999999999972e+01,8.147626216275766220e-02
3.171999999999999886e+01,7.300563632940197667e-02
3.176000000000000156e+01,5.966578939395499742e-02
3.180000000000000071e+01,5.194378233555668745e-02
3.183999999999999986e+01,6.894104882545010193e-02
3.187999999999999901e+01,4.717340607362472543e-02
3.192000000000000171e+01,4.825234429713930184e-02
3.196000000000000085e+01,5.738361331352512251e-02
3.200000000000000000e+01,5.602758350896415440e-02
3.203999999999999915e+01,4.849143980086959016e-02
3.207999999999999829e+01,3.177887721552334621e-02
3.211999999999999744e+01,4.690179909756254928e-02
3.215999999999999659e+01,4.217396786572714246e-02
3.220000000000000284e+01,4.250215530985192169e-02
3.224000000000000199e+01,4.020833216703204038e-02
3.228000000000000114e+01,3.566703495176386240e-02
3.232000000000000028e+01,3.412179343929790803e-02
3.235999999999999943e+01,3.426172340002322375e-02
3.239999999999999858e+01,3.908312695038081153e-02
3.243999999999999773e+01,2.180653972758399978e-02
3.247999999999999687e+01,3.748903794383009330e-02
3.252000000000000313e+01,1.759017657678674587e-02
3.256000000000000227e+01,3.158674264934643872e-02
3.260000000000000142e+01,4.033951967526958754e-02
3.264000000000000057e+01,3.242509896030187216e-02
3.267999999999999972e+01,1.683238971104324827e-02
3.271999999999999886e+01,1.884270166046353792e-02
3.275999999999999801e+01,3.115254348879271246e-02
3.279999999999999716e+01,3.466047866751038875e-02
3.284000000000000341e+01,4.228806480613341023e-02
3.288000000000000256e+01,3.268663771733151813e-02
3.292000000000000171e+01,2.907754844683246506e-02
3.296000000000000085e+01,3.352075425323973457e-02
3.300000000000000000e+01,3.890003278835091338e-02
3.303999999999999915e+01,3.903550656180090894e-02
3.307999999999999829e+01,4.535058141056681064e-02
3.311999999999999744e+01,3.293848268753645642e-02
3.315999999999999659e+01,3.738031356189058102e-02
3.320000000000000284e+01,2.253316109246895210e-02
3.324000000000000199e+01,2.716170096509910176e-02
3.328000000000000114e+01,1.531028921018832110e-02
3.332000000000000028e+01,1.937645648027026823e-02
3.335999999999999943e+01,1.688792475860990613e-02
3.339999999999999858e+01,3.256419686347466341e-02
3.343999999999999773e+01,1.396995932733453329e-02
3.347999999999999687e+01,1.354052276044240971e-02
3.352000000000000313e+01,2.434693378616316697e-02
3.356000000000000227e+01,2.934771456321856944e-02
3.360000000000000142e+01,2.648290497572785770e-02
3.364000000000000057e+01,3.991020092725598711e-02
3.367999999999999972e+01,2.431050986983687018e-02
3.371999999999999886e+01,2.069573514810753995e-02
3.375999999999999801e+01,1.314801275019454076e-02
3.379999999999999716e+01,4.267924602073512597e-02
3.384000000000000341e+01,2.501839632572943131e-02
3.388000000000000256e+01,1.185169838916048241e-02
3.392000000000000171e+01,3.295491726161724200e-02
3.396000000000000085e+01,2.802744266973589138e-02
3.400000000000000000e+01,3.171403292485988623e-02
3.403999999999999915e+01,2.622413429944086757e-02
3.407999999999999829e+01,3.084644943628963090e-02
3.411999999999999744e+01,3.752841112936639023e-02
3.415999999999999659e+01,4.083921777457594215e-02
3.420000000000000284e+01,3.216449525117610897e-02
3.424000000000000199e+01,6.150505753904267348e-02
3.428000000000000114e+01,1.762313409846009288e-02
3.432000000000000028e+01,3.553965200093527760e-02
3.435999999999999943e+01,4.858685593981048462e-02
3.439999999999999858e+01,3.728877144343035327e-02
3.443999999999999773e+01,1.737599069482375150e-02
3.447999999999999687e+01,5.027273493948190841e-02
3.452000000000000313e+01,3.916094444838464500e-02
3.456000000000000227e+01,5.201925447188473356e-02
3.460000000000000142e+01,5.457744178449667333e-02
3.464000000000000057e+01,4.777184981541928582e-02
3.467999999999999972e+01,5.126571915059815326e-02
3.471999999999999886e+01,6.786808293490671773e-02
3.475999999999999801e+01,7.323397343593544828e-02
3.479999999999999716e+01,7.092149968482762412e-02
3.484000000000000341e+01,6.261608099705189001e-02
3.488000000000000256e+01,8.483516539962610015e-02
3.492000000000000171e+01,8.289621176621066179e-02
3.496000000000000085e+01,8.882221280620429538e-02
3.500000000000000000e+01,1.046731257782104463e-01
3.503999999999999915e+01,1.077894036939268108e-01
3.507999999999999829e+01,1.249505080588628747e-01
3.511999999999999744e+01,1.235716363916403576e-01
3.515999999999999659e+01,1.446646920368965805e-01
3.520000000000000284e+01,1.754953834994048556e-01
3.524000000000000199e+01,1.939659707055652604e-01
3.528000000000000114e+01,2.038218316580885925e-01
3.532000000000000028e+01,2.350260003791314056e-01
3.535999999999999943e+01,2.448811499226719590e-01
3.539999999999999858e+01,2.573577072207078875e-01
3.543999999999999773e+01,2.947406784611293351e-01
3.547999999999999687e+01,3.147072746410496946e-01
3.552000000000000313e+01,3.711909581432614735e-01
3.556000000000000227e+01,4.147527190453141888e-01
3.560000000000000142e+01,4.371527211696006887e-01
3.564000000000000057e+01,4.691030744245472395e-01
3.567999999999999972e+01,4.338234990388527557e-01
3.571999999999999886e+01,3.856219953384451005e-01
3.575999999999999801e+01,3.797429085070886390e-01
3.579999999999999716e+01,3.386568828872127956e-01
3.584000000000000341e+01,2.691056000266077719e-01
3.588000000000000256e+01,2.229625636208240336e-01
3.592000000000000171e+01,2.049094965304095184e-01
3.596000000000000085e+01,1.552075953967031741e-01
3.600000000000000000e+01,1.442699921004347297e-01
3.603999999999999915e+01,1.102979245957006749e-01
3.607999999999999829e+01,1.130301933838852302e-01
3.611999999999999744e+01,8.710992595930296123e-02
3.615999999999999659e+01,8.478516396063920380e-02
3.620000000000000284e+01,6.279677352716993288e-02
3.624000000000000199e+01,6.889834097996125339e-02
3.628000000000000114e+01,5.233997359559038748e-02
3.632000000000000028e+01,5.319722986085717586e-02
3.635999999999999943e+01,5.461590090605075026e-02
3.639999999999999858e+01,2.981652236838438705e-02
3.643999999999999773e+01,4.565411566880611671e-02
3.647999999999999687e+01,3.714634624476545466e-02
3.652000000000000313e+01,3.687801372036340897e-02
3.656000000000000227e+01,5.046718581398550174e-02
3.660000000000000142e+01,4.401817724328119935e-02
3.664000000000000057e+01,2.820531795895767080e-02
3.667999999999999972e+01,4.347870439094968231e-02
3.671999999999999886e+01,2.597961580611153273e-02
3.675999999999999801e+01,3.937950110874424009e-02
3.679999999999999716e+01,3.292846757542508551e-02
3.684000000000000341e+01,3.958585277338997482e-02
3.688000000000000256e+01,3.800299251530887129e-02
3.692000000000000171e+01,3.492156834897200413e-02
3.696000000000000085e+01,2.977977193103845815e-02
3.700000000000000000e+01,4.055542310334663003e-02
3.703999999999999915e+01,4.103086441781223642e-02
3.707999999999999829e+01,3.064428753109425460e-02
3.711999999999999744e+01,3.954599543691667690e-02
3.715999999999999659e+01,3.215488210882173903e-02
3.720000000000000284e+01,4.049394025620801918e-02
3.724000000000000199e+01,3.179109842612990594e-02
3.728000000000000114e+01,4.106565287306549600e-02
3.732000000000000028e+01,4.771801529595457586e-02
3.735999999999999943e+01,4.650465306226939100e-02
3.739999999999999858e+01,7.450482111373030181e-02
3.743999999999999773e+01,6.711072283092180124e-02
3.747999999999999687e+01,9.436095215143880388e-02
3.752000000000000313e+01,9.970027823326695071e-02
3.756000000000000227e+01,1.374367014023337719e-01
3.760000000000000142e+01,2.060720684574608441e-01
3.764000000000000057e+01,2.647817421683014150e-01
3.767999999999999972e+01,3.440905634717142947e-01
3.771999999999999886e+01,3.883796463835225143e-01
3.775999999999999801e+01,4.485861497414391219e-01
3.779999999999999716e+01,4.496152145182701898e-01
3.784000000000000341e+01,4.126282330725014602e-01
3.788000000000000256e+01,3.861278676114686115e-01
3.792000000000000171e+01,2.935211073354382916e-01
3.796000000000000085e+01,2.432366853533365347e-01
3.800000000000000000e+01,1.745994534486646210e-01
3.803999999999999915e+01,1.407937981179454012e-01
3.807999999999999829e+01,1.079240340788281960e-01
3.811999999999999744e+01,1.106349196426562459e-01
3.815999999999999659e+01,8.488046510471652928e-02
3.820000000000000284e+01,5.669105608424861165e-02
3.824000000000000199e+01,6.932582358469932537e-02
3.828000000000000114e+01,4.488087400536287103e-02
3.832000000000000028e+01,5.470568408480644407e-02
3.835999999999999943e+01,4.692674727020237913e-02
3.839999999999999858e+01,4.738718020922296631e-02
3.843999999999999773e+01,3.567466357237535080e-02
3.847999999999999687e+01,4.680849361413773335e-02
3.852000000000000313e+01,3.659319161594881686e-02
3.856000000000000227e+01,3.648994337250478087e-02
3.860000000000000142e+01,3.170449870133693060e-02
3.864000000000000057e+01,3.028942195120785594e-02
3.867999999999999972e+01,3.018475300623684257e-02
3.871999999999999886e+01,3.232683529562267732e-02
3.875999999999999801e+01,3.091032927213513068e-02
3.879999999999999716e+01,2.874426808064764471e-02
3.884000000000000341e+01,4.249558876202640112e-02
3.888000000000000256e+01,3.414868865943663373e-02
3.892000000000000171e+01,2.748672573330819546e-02
3.896000000000000085e+01,3.131134021867363476e-02
3.900000000000000000e+01,2.146483335469080017e-02
3.903999999999999915e+01,3.839730157129443017e-02
3.907999999999999829e+01,3.828780409305822252e-02
3.911999999999999744e+01,3.218520881382406357e-02
3.915999999999999659e+01,3.188745951370414861e-02
3.920000000000000284e+01,3.458552019054771109e-02
3.924000000000000199e+01,2.810690626383063537e-02
3.928000000000000114e+01,3.979288615376493088e-02
3.932000000000000028e+01,3.855680915151200178e-02
3.935999999999999943e+01,3.994199846853330876e-02
3.939999999999999858e+01,3.046508672333234080e-02
3.943999999999999773e+01,4.757986680076450176e-02
3.947999999999999687e+01,4.016190803427194256e-02
3.952000000000000313e+01,4.809949993908706894e-02
3.956000000000000227e+01,4.199141255047861288e-02
3.960000000000000142e+01,4.393538308476939436e-02
3.964000000000000057e+01,3.614085781441118278e-02
3.967999999999999972e+01,3.658565658124246500e-02
3.971999999999999886e+01,5.482049550656557801e-02
3.975999999999999801e+01,6.032053079624437320e-02
3.979999999999999716e+01,5.851656119709686826e-02
3.984000000000000341e+01,6.064472357453272455e-02
3.988000000000000256e+01,6.913951313029037538e-02
3.992000000000000171e+01,6.583583819368668544e-02
3.996000000000000085e+01,8.238215353098538030e-02
4.000000000000000000e+01,7.889016676967688935e-02
4.003999999999999915e+01,8.869375342013219310e-02
4.007999999999999829e+01,1.029912703900416338e-01
4.011999999999999744e+01,1.064266605822341144e-01
4.015999999999999659e+01,1.343937581943226711e-01
4.020000000000000284e+01,1.687274715556243698e-01
4.024000000000000199e+01,2.186039788443063236e-01
4.028000000000000114e+01,3.034992516747470059e-01
4.032000000000000028e+01,3.850231494469765203e-01
4.035999999999999943e+01,5.358360317005342877e-01
4.039999999999999858e+01,6.654869837396940602e-01
4.043999999999999773e+01,7.722905833917101948e-01
4.047999999999999687e+01,8.667338916357221201e-01
4.052000000000000313e+01,9.705401077449177238e-01
4.056000000000000227e+01,1.000000000000000000e+00
4.060000000000000142e+01,9.459373873655239073e-01
4.064000000000000057e+01,8.898142710447001225e-01
4.067999999999999972e+01,8.230162769167865822e-01
4.071999999999999886e+01,6.859918705946893569e-01
4.075999999999999801e+01,5.712519226040995157e-01
4.079999999999999716e+01,4.548260031557426752e-01
4.084000000000000341e+01,3.833440847412800112e-01
4.088000000000000256e+01,3.178542198460392321e-01
4.092000000000000171e+01,2.789559939138033795e-01
4.096000000000000085e+01,2.059742587280738446e-01
4.100000000000000000e+01,1.736293325156323120e-01
4.103999999999999915e+01,1.382875434726197339e-01
4.107999999999999829e+01,1.158667527536324654e-01
4.111999999999999744e+01,1.254683940299137490e-01
4.115999999999999659e+01,9.761567742129395597e-02
4.120000000000000284e+01,9.785274154774870059e-02
4.124000000000000199e+01,7.524242471428770063e-02
4.128000000000000114e+01,7.510381661159992728e-02
4.132000000000000028e+01,7.159379773473606434e-02
4.135999999999999943e+01,7.332673934716113506e-02
4.139999999999999858e+01,7.262461218597017487e-02
4.143999999999999773e+01,6.180938698825846206e-02
4.147999999999999687e+01,5.623711799391985927e-02
4.152000000000000313e+01,5.909137629096267857e-02
4.156000000000000227e+01,4.827442180578707387e-02
4.160000000000000142e+01,5.674559210562891975e-02
4.164000000000000057e+01,5.641454002672926377e-02
4.167999999999999972e+01,4.671945722574710746e-02
4.171999999999999886e+01,5.743610875327148646e-02
4.175999999999999801e+01,5.279611961127718411e-02
4.179999999999999716e+01,4.553377843771346661e-02
4.184000000000000341e+01,4.913244975679951360e-02
4.188000000000000256e+01,5.010876618703902913e-02
4.192000000000000171e+01,4.902453321449574269e-02
4.196000000000000085e+01,4.082348717820938333e-02
4.200000000000000000e+01,4.142348923277625744e-02
4.203999999999999915e+01,4.483193085939880113e-02
4.207999999999999829e+01,2.202212003648065797e-02
4.211999999999999744e+01,4.003634715653714427e-02
4.215999999999999659e+01,3.014689822566858982e-02
4.220000000000000284e+01,3.093117995813495294e-02
4.224000000000000199e+01,2.722040422833265153e-02
4.228000000000000114e+01,1.995091446546043770e-02
4.232000000000000028e+01,2.354242005157485690e-02
4.235999999999999943e+01,1.889348445815545660e-02
4.239999999999999858e+01,3.072361050346958042e-02
4.243999999999999773e+01,2.888249233651600870e-02
4.247999999999999687e+01,3.471879128734776943e-02
4.252000000000000313e+01,1.752039459026120613e-02
4.256000000000000227e+01,2.822446108296935291e-02
4.260000000000000142e+01,1.926467055869652070e-02
4.264000000000000057e+01,2.116586395430150244e-02
4.267999999999999972e+01,3.392803984114576427e-02
4.271999999999999886e+01,2.028467144866424876e-02
4.275999999999999801e+01,3.098564864300262095e-02
4.279999999999999716e+01,2.108641681932963211e-02
4.284000000000000341e+01,2.523173428898845688e-02
4.288000000000000256e+01,5.405998395144277942e-03
4.292000000000000171e+01,2.771515467247512993e-02
4.296000000000000085e+01,2.099699249670409010e-02
4.300000000000000000e+01,2.251803578111897727e-02
4.303999999999999915e+01,1.860764817265592869e-02
4.307999999999999829e+01,2.518369082591116401e-02
4.311999999999999744e+01,2.557922384274143035e-02
4.315999999999999659e+01,2.915769437288158461e-02
4.320000000000000284e+01,2.037577634759297693e-02
4.324000000000000199e+01,2.245482081260324891e-02
4.328000000000000114e+01,2.603137776090034411e-02
4.332000000000000028e+01,2.867094913346860882e-02
4.335999999999999943e+01,2.157189183799841994e-02
4.339999999999999858e+01,1.746849451243896040e-02
4.343999999999999773e+01,2.946958373787451207e-02
4.347999999999999687e+01,1.824867405649804181e-02
4.352000000000000313e+01,2.912485515899832650e-02
4.356000000000000227e+01,2.632975204735035768e-02
4.360000000000000142e+01,2.016315672912623314e-02
4.364000000000000057e+01,2.017578532562828986e-02
4.367999999999999972e+01,2.112410520432873168e-02
4.371999999999999886e+01,1.870092859053732598e-02
4.375999999999999801e+01,1.590255760069484228e-02
4.379999999999999716e+01,2.733597058842536162e-02
4.384000000000000341e+01,3.015435159385899261e-02
4.388000000000000256e+01,3.690472028337759419e-02
4.392000000000000171e+01,2.754929527062333766e-02
4.396000000000000085e+01,2.025316536900224201e-02
4.400000000000000000e+01,2.906150201743575370e-02
4.403999999999999915e+01,2.607122702373249057e-02
4.407999999999999829e+01,2.532751182681394764e-02
4.411999999999999744e+01,2.851577574214886682e-02
4.415999999999999659e+01,1.522369944024432389e-02
4.420000000000000284e+01,3.095764158335695751e-02
4.424000000000000199e+01,2.047325413044456116e-02
4.428000000000000114e+01,1.036272961544930371e-02
4.432000000000000028e+01,1.598212227826497495e-02
4.435999999999999943e+01,2.759344416874467271e-02
4.439999999999999858e+01,2.965336921814979224e-02
4.443999999999999773e+01,1.766744068022240918e-02
4.447999999999999687e+01,2.122415463398415886e-02
4.452000000000000313e+01,2.478018501069652324e-02
4.456000000000000227e+01,1.803573694551000375e-02
4.460000000000000142e+01,1.672140262145340936e-02
4.464000000000000057e+01,2.439529106967019273e-02
4.467999999999999972e+01,2.888491770963615840e-02
4.471999999999999886e+01,2.269952225001390864e-02
4.475999999999999801e+01,1.651343464151069224e-02
4.479999999999999716e+01,1.276115008586496506e-02
4.484000000000000341e+01,2.361515030632360679e-02
4.488000000000000256e+01,3.334484026258064532e-02
4.492000000000000171e+01,3.502126657800103821e-02
4.496000000000000085e+01,2.414997250632702416e-02
4.500000000000000000e+01,2.900857132560780149e-02
4.503999999999999915e+01,3.424100593867234615e-02
4.507999999999999829e+01,2.842386765126645939e-02
4.511999999999999744e+01,3.271854882187539421e-02
4.515999999999999659e+01,3.233079926803066745e-02
4.520000000000000284e+01,2.651154167482378671e-02
4.524000000000000199e+01,3.698397531544254241e-02
4.528000000000000114e+01,4.895385000741817733e-02
4.532000000000000028e+01,4.519241893790507808e-02
4.535999999999999943e+01,4.704834343695607490e-02
4.539999999999999858e+01,3.654380080545555770e-02
4.543999999999999773e+01,5.843607381938996370e-02
4.547999999999999687e+01,4.118841391134759472e-02
4.552000000000000313e+01,5.015769072973656068e-02
4.556000000000000227e+01,5.669175019609540289e-02
4.560000000000000142e+01,6.172693573962299146e-02
4.564000000000000057e+01,4.522546597396142481e-02
4.567999999999999972e+01,6.561525859952253847e-02
4.571999999999999886e+01,5.341952373613666899e-02
4.575999999999999801e+01,5.901361330681444833e-02
4.579999999999999716e+01,5.580533192033654971e-02
4.584000000000000341e+01,5.165997495389820782e-02
4.588000000000000256e+01,3.403051988384041271e-02
4.592000000000000171e+01,5.141962891749893988e-02
4.596000000000000085e+01,2.873244302768011155e-02
4.600000000000000000e+01,2.832952831771261976e-02
4.603999999999999915e+01,3.616571049139760685e-02
4.607999999999999829e+01,3.051778741827013489e-02
4.611999999999999744e+01,3.535618603032762708e-02
4.615999999999999659e+01,3.438850437256156523e-02
4.620000000000000284e+01,3.735272753784189825e-02
4.624000000000000199e+01,1.896754293592160800e-02
4.628000000000000114e+01,3.822267518191497376e-02
4.632000000000000028e+01,2.639041028192204777e-02
4.635999999999999943e+01,3.103706558544156238e-02
4.639999999999999858e+01,3.530843222276259380e-02
4.643999999999999773e+01,3.377370858978998719e-02
4.647999999999999687e+01,2.418566559907553426e-02
4.652000000000000313e+01,3.182561298358893564e-02
4.656000000000000227e+01,3.085043123838086473e-02
4.660000000000000142e+01,2.762726396810668769e-02
4.664000000000000057e+01,2.140703385785784965e-02
4.667999999999999972e+01,2.998029177790549268e-02
4.671999999999999886e+01,2.076223524687119404e-02
4.675999999999999801e+01,2.689947080355850617e-02
4.679999999999999716e+01,1.487085110875188514e-02
4.684000000000000341e+01,3.149361762567993300e-02
4.688000000000000256e+01,2.189796025643562030e-02
4.692000000000000171e+01,2.278859599960428306e-02
4.696000000000000085e+01,1.543862626980046712e-02
4.700000000000000000e+01,1.745133296572767487e-02
4.703999999999999915e+01,2.395772139799304604e-02
4.707999999999999829e+01,2.690522436055685362e-02
4.711999999999999744e+01,1.524497110229983132e-02
4.715999999999999659e+01,2.305991301986271003e-02
4.720000000000000284e+01,2.113608912008176771e-02
4.724000000000000199e+01,2.127144318306893600e-02
4.728000000000000114e+01,2.496412555272535874e-02
4.732000000000000028e+01,2.884329331219802339e-02
4.735999999999999943e+01,2.729087588582424992e-02
4.739999999999999858e+01,2.330317539004495703e-02
4.743999999999999773e+01,2.512002514519013491e-02
4.747999999999999687e+01,2.244163028641045499e-02
4.752000000000000313e+01,2.182240338992868373e-02
4.756000000000000227e+01,2.625864657218577800e-02
4.760000000000000142e+01,2.301606833795519919e-02
4.764000000000000057e+01,1.827454332032485765e-02
4.767999999999999972e+01,1.540491157887057157e-02
4.771999999999999886e+01,3.369587575640310695e-02
4.775999999999999801e+01,2.183573621479729249e-02
4.779999999999999716e+01,2.364543087220232973e-02
4.784000000000000341e+01,2.245801983047484435e-02
4.788000000000000256e+01,2.220615006389310003e-02
4.792000000000000171e+01,2.288982014381851088e-02
4.796000000000000085e+01,2.263633892593775593e-02
4.800000000000000000e+01,1.713851863556049154e-02
4.803999999999999915e+01,2.156514454101311068e-02
4.807999999999999829e+01,3.235810475387507212e-02
4.811999999999999744e+01,1.955436239471273346e-02
4.815999999999999659e+01,1.648779297389699541e-02
4.820000000000000284e+01,2.016209151770982991e-02
4.824000000000000199e+01,2.664460819459567656e-02
4.828000000000000114e+01,2.039201693581603816e-02
4.832000000000000028e+01,2.874558616158285826e-02
4.835999999999999943e+01,2.099320310619252894e-02
4.839999999999999858e+01,2.447613618985698680e-02
4.843999999999999773e+01,1.878206608308351580e-02
4.847999999999999687e+01,3.275041297862372330e-02
4.852000000000000313e+01,2.855284319121028508e-02
4.856000000000000227e+01,2.323083170484426668e-02
4.860000000000000142e+01,2.127883240850631658e-02
4.864000000000000057e+01,3.730382365582049498e-02
4.867999999999999972e+01,2.317767832530855457e-02
4.871999999999999886e+01,3.002482422625105465e-02
4.875999999999999801e+01,3.799474894385762580e-02
4.879999999999999716e+01,2.517698137609573200e-02
4.884000000000000341e+01,3.333250075387251404e-02
4.888000000000000256e+01,2.894015973797228053e-02
4.892000000000000171e+01,3.278681274374559834e-02
4.896000000000000085e+01,4.037800302493452925e-02
4.900000000000000000e+01,2.849237667853437780e-02
4.903999999999999915e+01,3.383465070313046441e-02
4.907999999999999829e+01,3.280893325258305709e-02
4.911999999999999744e+01,3.946039576581378966e-02
4.915999999999999659e+01,4.236562954856842866e-02
4.920000000000000284e+01,2.953941899189033160e-02
4.924000000000000199e+01,5.360434367759974589e-02
4.928000000000000114e+01,3.721831691969333666e-02
4.932000000000000028e+01,4.386551865090452390e-02
4.935999999999999943e+01,3.965026358888281560e-02
4.939999999999999858e+01,3.543415065590277413e-02
4.943999999999999773e+01,3.608617168408007059e-02
4.947999999999999687e+01,3.692460095558933175e-02
4.952000000000000313e+01,3.682582321238716400e-02
4.956000000000000227e+01,3.223172656605305386e-02
4.960000000000000142e+01,4.112013085842543963e-02
4.964000000000000057e+01,4.701136516292844097e-02
4.967999999999999972e+01,3.754567592747048294e-02
4.971999999999999886e+01,3.070088299389004197e-02
4.975999999999999801e+01,5.531640655493871850e-02
4.979999999999999716e+01,4.697171896276857578e-02
4.984000000000000341e+01,4.255880618753242473e-02
4.988000000000000256e+01,4.263947371529402258e-02
4.992000000000000171e+01,3.466669902239442186e-02
4.996000000000000085e+01,4.991439893196235322e-02
5.000000000000000000e+01,5.935588142240146026e-02
5.003999999999999915e+01,5.587492414550937481e-02
5.007999999999999829e+01,6.063291945977142966e-02
5.011999999999999744e+01,5.789927232488172731e-02
5.015999999999999659e+01,6.059554035035692038e-02
5.020000000000000284e+01,6.160550118799468927e-02
5.024000000000000199e+01,6.748356741401784209e-02
5.028000000000000114e+01,8.160057908800218140e-02
5.032000000000000028e+01,7.624072698932370107e-02
5.035999999999999943e+01,8.511242457148825158e-02
5.039999999999999858e+01,7.862717289819708133e-02
5.043999999999999773e+01,9.142973028079343090e-02
5.047999999999999687e+01,9.674063235649059400e-02
5.052000000000000313e+01,8.781819472022103779e-02
5.056000000000000227e+01,1.242139489018014853e-01
5.060000000000000142e+01,1.137915594613983783e-01
5.064000000000000057e+01,1.222824339905548563e-01
5.067999999999999972e+01,1.268397565294010210e-01
5.071999999999999886e+01,1.458158848629104165e-01
5.075999999999999801e+01,1.631056860076419146e-01
5.079999999999999716e+01,1.541769232596185424e-01
5.084000000000000341e+01,1.630378035085569277e-01
5.088000000000000256e+01,1.943700496150052859e-01
5.092000000000000171e+01,1.860003615899251117e-01
5.096000000000000085e+01,1.965439261052957798e-01
5.100000000000000000e+01,1.849888369592028736e-01
5.103999999999999915e+01,1.846689696620172627e-01
5.107999999999999829e+01,1.879062949508343017e-01
5.111999999999999744e+01,1.776593349843755831e-01
5.115999999999999659e+01,1.619806541114036103e-01
5.120000000000000284e+01,1.640916033776460836e-01
5.124000000000000199e+01,1.485983457282126774e-01
5.128000000000000114e+01,1.443403013558550441e-01
5.132000000000000028e+01,1.164854401203853224e-01
5.135999999999999943e+01,1.150345760016792396e-01
5.139999999999999858e+01,1.100246721203030353e-01
5.143999999999999773e+01,1.007066511613482901e-01
5.147999999999999687e+01,1.039347191372486934e-01
5.152000000000000313e+01,9.555117728716197578e-02
5.156000000000000227e+01,9.091207985098212485e-02
5.160000000000000142e+01,8.327574242364164936e-02
5.164000000000000057e+01,7.507666020687897568e-02
5.167999999999999972e+01,7.586554932199650325e-02
5.171999999999999886e+01,4.893768991313168781e-02
5.175999999999999801e+01,6.283352414533958930e-02
5.179999999999999716e+01,6.043601426190354370e-02
5.184000000000000341e+01,5.672667655958252286e-02
5.188000000000000256e+01,5.488908212638486661e-02
5.192000000000000171e+01,5.473596056210446731e-02
5.196000000000000085e+01,4.990016540480882168e-02
5.200000000000000000e+01,4.393980568564127137e-02
5.203999999999999915e+01,4.022572146417762590e-02
5.207999999999999829e+01,4.812135989015275256e-02
5.211999999999999744e+01,5.676511918401488943e-02
5.215999999999999659e+01,4.574468001627121638e-02
5.220000000000000284e+01,4.521034538064570840e-02
5.224000000000000199e+01,5.179127236028537723e-02
5.228000000000000114e+01,4.301518293845526392e-02
5.232000000000000028e+01,4.435065581969256654e-02
5.235999999999999943e+01,3.987982699212383464e-02
5.239999999999999858e+01,4.327332995153576611e-02
5.243999999999999773e+01,4.797674926442824922e-02
5.247999999999999687e+01,4.275394520811458265e-02
5.252000000000000313e+01,5.588253106064407227e-02
5.256000000000000227e+01,5.852308377198773420e-02
5.260000000000000142e+01,4.374664996551071161e-02
5.264000000000000057e+01,5.125425018487789891e-02
5.267999999999999972e+01,7.205697236621209922e-02
5.271999999999999886e+01,7.974989008986155259e-02
5.275999999999999801e+01,8.706729199377565009e-02
5.279999999999999716e+01,8.558207292877963168e-02
5.284000000000000341e+01,1.005755426278432119e-01
5.288000000000000256e+01,9.777747786548098008e-02
5.292000000000000171e+01,1.105217541520639030e-01
5.296000000000000085e+01,1.204560108453412298e-01
5.300000000000000000e+01,1.204640255971107243e-01
5.303999999999999915e+01,1.068004175473842993e-01
5.307999999999999829e+01,1.099900276330208343e-01
5.311999999999999744e+01,1.268492819087348178e-01
5.315999999999999659e+01,1.066282876511034372e-01
5.320000000000000284e+01,8.977714129006149346e-02
5.324000000000000199e+01,8.397386923123656421e-02
5.328000000000000114e+01,7.798233175194199673e-02
5.332000000000000028e+01,7.142798948040418594e-02
5.335999999999999943e+01,5.869277184096045180e-02
5.339999999999999858e+01,4.689289832453601842e-02
5.343999999999999773e+01,5.868791306215616344e-02
5.347999999999999687e+01,4.295338538726303085e-02
5.352000000000000313e+01,3.733037715627947339e-02
5.356000000000000227e+01,4.013346619645963981e-02
5.360000000000000142e+01,3.806655409787456507e-02
5.364000000000000057e+01,3.993128109555674904e-02
5.367999999999999972e+01,4.142045941481576482e-02
5.371999999999999886e+01,3.504332876431436039e-02
5.375999999999999801e+01,3.765409515648608652e-02
5.379999999999999716e+01,3.895296372648145156e-02
5.384000000000000341e+01,4.025081584663429968e-02
5.388000000000000256e+01,3.611684991284931645e-02
5.392000000000000171e+01,2.954736804156743446e-02
5.396000000000000085e+01,3.159123812663081760e-02
5.400000000000000000e+01,1.921437523660205621e-02
5.403999999999999915e+01,3.324141374455085590e-02
5.407999999999999829e+01,3.172410259072555583e-02
5.411999999999999744e+01,2.852034424248028194e-02
5.415999999999999659e+01,2.718824773095834466e-02
5.420000000000000284e+01,3.521857049021988317e-02
5.424000000000000199e+01,3.575710365055412288e-02
5.428000000000000114e+01,2.899111475488988857e-02
5.432000000000000028e+01,2.128774740788249437e-02
5.435999999999999943e+01,2.556855921904887738e-02
5.439999999999999858e+01,3.172102429510695321e-02
5.443999999999999773e+01,3.206711337315190646e-02
5.447999999999999687e+01,3.185035622843435804e-02
5.452000000000000313e+01,2.620175817156146156e-02
5.456000000000000227e+01,2.298661457972828864e-02
5.460000000000000142e+01,2.314126888213363653e-02
5.464000000000000057e+01,3.284559571186541904e-02
5.467999999999999972e+01,3.206181368256576236e-02
5.471999999999999886e+01,3.034063891553705553e-02
5.475999999999999801e+01,2.749480101057321171e-02
5.479999999999999716e+01,2.670787105568259157e-02
5.484000000000000341e+01,2.610715790655190535e-02
5.488000000000000256e+01,2.307089453259804704e-02
5.492000000000000171e+01,3.033336957177025159e-02
5.496000000000000085e+01,2.504776706419867965e-02
5.500000000000000000e+01,2.837547936836883403e-02
5.503999999999999915e+01,3.413662899391559091e-02
5.507999999999999829e+01,3.334230387696177078e-02
5.511999999999999744e+01,2.486888875946403205e-02
5.515999999999999659e+01,4.242479709492827378e-02
5.520000000000000284e+01,3.057841187074489264e-02
5.524000000000000199e+01,2.434902934139211023e-02
5.528000000000000114e+01,2.785656545271567031e-02
5.532000000000000028e+01,3.398479785651309371e-02
5.535999999999999943e+01,3.168485580166509330e-02
5.539999999999999858e+01,2.264215860364033467e-02
5.543999999999999773e+01,3.157620908070616489e-02
5.547999999999999687e+01,3.470384641515536495e-02
5.552000000000000313e+01,3.595771758126618117e-02
5.556000000000000227e+01,3.046882788964587127e-02
5.560000000000000142e+01,3.471684540959308479e-02
5.564000000000000057e+01,3.578020967431385507e-02
5.567999999999999972e+01,4.002606428846357950e-02
5.571999999999999886e+01,3.322196598427591685e-02
5.575999999999999801e+01,3.503115534769656036e-02
5.579999999999999716e+01,3.571564442857858013e-02
5.584000000000000341e+01,4.070623197373995222e-02
5.588000000000000256e+01,4.419757843595047142e-02
5.592000000000000171e+01,4.319337884149212353e-02
5.596000000000000085e+01,3.525913513134917854e-02
5.600000000000000000e+01,4.136897069243958974e-02
5.603999999999999915e+01,4.167237310997298078e-02
5.607999999999999829e+01,3.916564450039036055e-02
5.611999999999999744e+01,4.826849424574815306e-02
5.615999999999999659e+01,4.014149929601754097e-02
5.620000000000000284e+01,4.006596938416835674e-02
5.624000000000000199e+01,2.837866106697757573e-02
5.628000000000000114e+01,4.122248442832829318e-02
5.632000000000000028e+01,3.009477440360729811e-02
5.635999999999999943e+01,3.132571004826509298e-02
5.639999999999999858e+01,2.525204791907878499e-02
5.643999999999999773e+01,2.460807665399764033e-02
5.647999999999999687e+01,3.145375351162527783e-02
5.652000000000000313e+01,3.754924231435443488e-02
5.656000000000000227e+01,2.304403064739479409e-02
5.660000000000000142e+01,2.689006316814135378e-02
5.664000000000000057e+01,3.803846912547476089e-02
5.667999999999999972e+01,2.446625295271930706e-02
5.671999999999999886e+01,3.055615948272646931e-02
5.675999999999999801e+01,3.252502789778917436e-02
5.679999999999999716e+01,3.355642928591572732e-02
5.684000000000000341e+01,2.821956204301096990e-02
5.688000000000000256e+01,3.037232863642898642e-02
5.692000000000000171e+01,2.522047888370113761e-02
5.696000000000000085e+01,2.624737730904659963e-02
5.700000000000000000e+01,2.165507727507620314e-02
5.703999999999999915e+01,2.642509507854890610e-02
5.707999999999999829e+01,2.108145624780928887e-02
5.711999999999999744e+01,2.566193931193800487e-02
5.715999999999999659e+01,2.537229408846641485e-02
5.720000000000000284e+01,2.657966418204975312e-02
5.724000000000000199e+01,2.460232387486277136e-02
5.728000000000000114e+01,2.693103060096567122e-02
5.732000000000000028e+01,3.113128630134267064e-02
5.735999999999999943e+01,3.495586188854557519e-02
5.739999999999999858e+01,3.803021799080093940e-02
5.743999999999999773e+01,2.574737339720746185e-02
5.747999999999999687e+01,3.649746585045771791e-02
5.752000000000000313e+01,2.102875439966879478e-02
5.756000000000000227e+01,2.540940462179945222e-02
5.760000000000000142e+01,2.679260055697989945e-02
5.764000000000000057e+01,2.536560974813897515e-02
5.767999999999999972e+01,2.955553448717422246e-02
5.771999999999999886e+01,2.119728310340246794e-02
5.775999999999999801e+01,2.669577915919836564e-02
5.779999999999999716e+01,1.945882726334261653e-02
5.784000000000000341e+01,3.619114441442061736e-02
5.788000000000000256e+01,2.108657565668793643e-02
5.792000000000000171e+01,2.395866599845286604e-02
5.796000000000000085e+01,2.888955142784178573e-02
5.800000000000000000e+01,3.606649948778364867e-02
5.803999999999999915e+01,2.807349439386519832e-02
5.807999999999999829e+01,3.374995633883813573e-02
5.811999999999999744e+01,2.912545553342778606e-02
5.815999999999999659e+01,2.618520472931354717e-02
5.820000000000000284e+01,2.979819575861105893e-02
5.824000000000000199e+01,2.648106123982390744e-02
5.828000000000000114e+01,2.840628289619902616e-02
5.832000000000000028e+01,2.602314174915688200e-02
5.835999999999999943e+01,3.637311278269855092e-02
5.839999999999999858e+01,2.762046940171571097e-02
5.843999999999999773e+01,3.253728020187682257e-02
5.847999999999999687e+01,3.614202602914582535e-02
5.852000000000000313e+01,2.307864978635157382e-02
5.856000000000000227e+01,2.780464081326986317e-02
5.860000000000000142e+01,2.560049343435615715e-02
5.864000000000000057e+01,2.526784788464285156e-02
5.867999999999999972e+01,4.478452400596842631e-02
5.871999999999999886e+01,4.257680868171613564e-02
5.875999999999999801e+01,2.819541803318829573e-02
5.879999999999999716e+01,2.673439282178716875e-02
5.884000000000000341e+01,3.594650396006456028e-02
5.888000000000000256e+01,4.122477023711928340e-02
5.892000000000000171e+01,4.125830742334041235e-02
5.896000000000000085e+01,3.417442437441465392e-02
5.900000000000000000e+01,3.326921664299380826e-02
5.903999999999999915e+01,4.622071063470543223e-02
5.907999999999999829e+01,3.351515192017492234e-02
5.911999999999999744e+01,4.702604419495275828e-02
5.915999999999999659e+01,3.431807399150883786e-02
5.920000000000000284e+01,5.026104855047307252e-02
5.924000000000000199e+01,3.755066114356134938e-02
5.928000000000000114e+01,3.888423585951796685e-02
5.932000000000000028e+01,4.677101240700559659e-02
5.935999999999999943e+01,3.967505762712670442e-02
5.939999999999999858e+01,4.343948816755344167e-02
5.943999999999999773e+01,4.439366767522189700e-02
5.947999999999999687e+01,4.609570518127546063e-02
5.952000000000000313e+01,4.217845422378157377e-02
5.956000000000000227e+01,3.769817560642324539e-02
5.960000000000000142e+01,4.782365459752696557e-02
5.964000000000000057e+01,3.809739900003976387e-02
5.967999999999999972e+01,3.380071854693137562e-02
5.971999999999999886e+01,4.691882598988122988e-02
5.975999999999999801e+01,4.748868444945569117e-02
5.979999999999999716e+01,4.599735490479441719e-02
5.984000000000000341e+01,5.143374656249732196e-02
5.988000000000000256e+01,5.218718175674276483e-02
5.992000000000000171e+01,5.387572820591617073e-02
5.996000000000000085e+01,4.488870824419580879e-02
