2.003999999999999915e+01,8.283708474748292805e-02
2.007999999999999829e+01,7.682868169628746802e-02
2.012000000000000099e+01,4.153732530480230833e-02
2.016000000000000014e+01,6.106567874643068633e-02
2.019999999999999929e+01,1.045148081565647029e-02
2.023999999999999844e+01,4.428019492437638288e-02
2.028000000000000114e+01,4.303750577922835219e-02
2.032000000000000028e+01,2.136476617364733641e-02
2.035999999999999943e+01,2.522901789595575345e-02
2.039999999999999858e+01,5.531125233969427790e-02
2.044000000000000128e+01,4.419313699647490351e-02
2.048000000000000043e+01,3.579873393756213829e-02
2.051999999999999957e+01,6.656117960500847197e-02
2.055999999999999872e+01,7.961753669522507459e-02
2.060000000000000142e+01,5.181403323607733369e-02
2.064000000000000057e+01,5.601694395714936631e-02
2.067999999999999972e+01,5.715511520346912289e-02
2.071999999999999886e+01,4.331116344671990387e-02
2.076000000000000156e+01,4.070332654366509706e-02
2.080000000000000071e+01,2.038938999050654219e-02
2.083999999999999986e+01,6.579102372162692891e-02
2.087999999999999901e+01,3.560212879504651151e-02
2.092000000000000171e+01,4.082460132542888726e-02
2.096000000000000085e+01,5.455920652603352128e-02
2.100000000000000000e+01,5.944061495638992138e-02
2.103999999999999915e+01,4.865889238082587304e-02
2.107999999999999829e+01,7.362902649981846459e-02
2.112000000000000099e+01,1.687968173706263370e-02
2.116000000000000014e+01,4.525419980680289722e-02
2.119999999999999929e+01,6.341352540086118983e-02
2.123999999999999844e+01,8.055106540051852615e-02
2.128000000000000114e+01,6.874609516050571301e-02
2.132000000000000028e+01,5.591933563513398764e-02
2.135999999999999943e+01,9.484776100291855694e-02
2.139999999999999858e+01,7.486996807774762286e-02
2.144000000000000128e+01,7.361918426233969581e-02
2.148000000000000043e+01,1.023317961550342103e-01
2.151999999999999957e+01,7.690513689147115972e-02
2.155999999999999872e+01,5.828809951839631492e-02
2.160000000000000142e+01,7.337991513159319856e-02
2.164000000000000057e+01,2.990599799846999432e-02
2.167999999999999972e+01,4.193271380927673236e-02
2.171999999999999886e+01,6.179053398718504370e-02
2.176000000000000156e+01,6.087774064790636708e-02
2.180000000000000071e+01,4.838774067272143958e-02
2.183999999999999986e+01,6.007267726466399699e-02
2.187999999999999901e+01,4.690103536886651436e-02
2.192000000000000171e+01,7.867462013932639830e-02
2.196000000000000085e+01,7.469573090677950056e-02
2.200000000000000000e+01,6.220409538651863746e-02
2.203999999999999915e+01,6.809894467432578424e-02
2.207999999999999829e+01,5.935210483228726269e-02
2.212000000000000099e+01,9.112402637548563944e-02
2.216000000000000014e+01,7.011863371280015189e-02
2.219999999999999929e+01,5.115588073980436440e-02
2.223999999999999844e+01,1.550845153798863403e-02
2.228000000000000114e+01,4.012858027105291325e-02
2.232000000000000028e+01,7.019630935246568004e-02
2.235999999999999943e+01,3.182387050315648586e-02
2.239999999999999858e+01,7.517027108139741343e-02
2.244000000000000128e+01,5.177898313550628739e-02
2.248000000000000043e+01,3.758075097065411568e-02
2.251999999999999957e+01,7.139218736546031063e-02
2.255999999999999872e+01,2.722954125587959823e-02
2.260000000000000142e+01,3.005507015647034333e-02
2.264000000000000057e+01,4.377613055373213991e-02
2.267999999999999972e+01,1.902071077328799584e-02
2.271999999999999886e+01,5.248984891039643746e-02
2.276000000000000156e+01,1.104936489130936561e-02
2.280000000000000071e+01,3.055740805489434372e-02
2.283999999999999986e+01,7.424034164863070606e-02
2.287999999999999901e+01,4.063017121316710861e-02
2.292000000000000171e+01,6.183958327276489059e-02
2.296000000000000085e+01,4.082703942169736699e-02
2.300000000000000000e+01,9.939716667901355232e-03
2.303999999999999915e+01,5.123729846772145241e-02
2.307999999999999829e+01,1.962398850070409210e-03
2.312000000000000099e+01,3.917325811448185008e-02
2.316000000000000014e+01,2.633072999211134857e-02
2.319999999999999929e+01,3.493910273450432508e-02
2.323999999999999844e+01,6.363638801814278101e-02
2.328000000000000114e+01,1.640253729582975828e-02
2.332000000000000028e+01,6.144287875984816294e-02
2.335999999999999943e+01,3.702151629764016683e-02
2.339999999999999858e+01,4.087342955951872234e-03
2.344000000000000128e+01,4.061408275701203219e-02
2.348000000000000043e+01,4.683622433901714344e-02
2.351999999999999957e+01,3.909760359295094689e-02
2.355999999999999872e+01,5.893880625351040348e-02
2.360000000000000142e+01,4.370845248544285438e-02
2.364000000000000057e+01,3.835209421854160472e-02
2.367999999999999972e+01,4.218873636830847151e-02
2.371999999999999886e+01,7.394569116229453287e-02
2.376000000000000156e+01,3.760291005330252539e-02
2.380000000000000071e+01,3.530937704874505950e-02
2.383999999999999986e+01,4.118734722041068191e-02
2.387999999999999901e+01,2.901857902057820848e-02
2.392000000000000171e+01,4.204614128149248425e-02
2.396000000000000085e+01,6.358569780170252039e-02
2.400000000000000000e+01,4.664871324339901065e-02
2.403999999999999915e+01,1.575094236579686197e-02
2.407999999999999829e+01,4.375865989847976117e-02
2.412000000000000099e+01,3.090635447964465432e-02
2.416000000000000014e+01,2.758752395123877793e-02
2.419999999999999929e+01,4.674103800914968659e-02
2.423999999999999844e+01,3.593041540341383039e-02
2.428000000000000114e+01,7.073035971389493234e-03
2.432000000000000028e+01,3.167318796462225555e-02
2.435999999999999943e+01,4.026955915766604333e-02
2.439999999999999858e+01,6.793329951453511151e-02
2.444000000000000128e+01,2.749727259528273252e-02
2.448000000000000043e+01,2.417493198290853254e-02
2.451999999999999957e+01,3.486816710390895201e-03
2.455999999999999872e+01,3.455373869270787768e-02
2.460000000000000142e+01,2.067465614364253843e-02
2.464000000000000057e+01,4.493074237806828075e-02
2.467999999999999972e+01,3.888217502906828743e-02
2.471999999999999886e+01,4.985798236300338637e-02
2.476000000000000156e+01,3.155062228108391348e-02
2.480000000000000071e+01,3.401309600574748543e-02
2.483999999999999986e+01,1.910978030643550526e-02
2.487999999999999901e+01,2.770026767882573585e-02
2.492000000000000171e+01,3.765227600931297242e-02
2.496000000000000085e+01,5.339225950604305909e-02
2.500000000000000000e+01,3.337962874336090902e-02
2.503999999999999915e+01,6.920797252388072307e-02
2.507999999999999829e+01,4.851340456394265255e-02
2.512000000000000099e+01,5.029113874430353459e-02
2.516000000000000014e+01,5.343038280988710031e-02
2.519999999999999929e+01,3.716084112512609006e-02
2.523999999999999844e+01,2.906273802482230162e-02
2.528000000000000114e+01,2.777408518545819438e-02
2.532000000000000028e+01,4.997921511752740492e-02
2.535999999999999943e+01,3.438873446381520566e-02
2.539999999999999858e+01,5.386891795390574139e-02
2.544000000000000128e+01,4.678987561107544185e-02
2.548000000000000043e+01,2.983593994581732953e-02
2.551999999999999957e+01,6.752571927258203995e-03
2.555999999999999872e+01,3.712667812410665874e-02
2.560000000000000142e+01,4.979446321336832709e-02
2.564000000000000057e+01,3.964847605692004007e-02
2.567999999999999972e+01,1.520113029702347546e-02
2.571999999999999886e+01,2.888890349268438684e-02
2.576000000000000156e+01,5.006709804255569940e-02
2.580000000000000071e+01,5.183647915989747501e-02
2.583999999999999986e+01,2.704661598952788279e-02
2.587999999999999901e+01,4.345633396838612106e-02
2.592000000000000171e+01,5.884405043179805062e-02
2.596000000000000085e+01,3.779811510528232471e-02
2.600000000000000000e+01,4.569387708921031355e-02
2.603999999999999915e+01,8.321232777712239681e-02
2.607999999999999829e+01,4.888547270966722702e-02
2.612000000000000099e+01,7.005904573797065715e-02
2.616000000000000014e+01,5.854442056355685375e-02
2.619999999999999929e+01,9.640128064277056485e-02
2.623999999999999844e+01,6.207233096519090138e-02
2.628000000000000114e+01,4.647016709441284532e-02
2.632000000000000028e+01,5.095677366299583566e-02
2.635999999999999943e+01,4.761142602567066534e-02
2.639999999999999858e+01,7.116477752694091996e-02
2.644000000000000128e+01,5.113402608283279527e-02
2.648000000000000043e+01,7.162183486674801591e-02
2.651999999999999957e+01,6.895533418490513988e-02
2.655999999999999872e+01,9.148504216219360829e-02
2.660000000000000142e+01,4.216942039288734678e-02
2.664000000000000057e+01,4.188476695742948674e-02
2.667999999999999972e+01,5.317645186428032050e-02
2.671999999999999886e+01,6.889404425825876310e-02
2.676000000000000156e+01,6.315979921115294493e-02
2.680000000000000071e+01,4.857208979934064808e-02
2.683999999999999986e+01,5.577560993321008936e-02
2.687999999999999901e+01,5.140168905533813726e-02
2.692000000000000171e+01,4.260075432994776118e-02
2.696000000000000085e+01,4.163068221390715112e-02
2.700000000000000000e+01,8.049815309564338495e-02
2.703999999999999915e+01,9.212533108627836420e-02
2.707999999999999829e+01,5.165596111612930086e-02
2.712000000000000099e+01,5.851505423653214494e-02
2.716000000000000014e+01,7.660996693398589019e-02
2.719999999999999929e+01,4.941825852441146527e-02
2.723999999999999844e+01,5.968060570317234442e-02
2.728000000000000114e+01,4.678860835207362956e-02
2.732000000000000028e+01,6.590271698619758201e-02
2.735999999999999943e+01,5.471204838980144036e-02
2.739999999999999858e+01,6.122662406826537285e-02
2.744000000000000128e+01,7.761501992738864542e-02
2.748000000000000043e+01,6.778459245367027264e-02
2.751999999999999957e+01,6.203953893798946212e-02
2.755999999999999872e+01,6.106085077388628130e-02
2.760000000000000142e+01,6.825349231097777025e-02
2.764000000000000057e+01,4.786531665527329199e-02
2.767999999999999972e+01,4.075591630245031100e-02
2.771999999999999886e+01,3.500790772419257874e-02
2.776000000000000156e+01,3.640973160668466158e-02
2.780000000000000071e+01,2.997953484602372889e-02
2.783999999999999986e+01,3.921158234289574829e-02
2.787999999999999901e+01,4.571905479830098984e-02
2.792000000000000171e+01,6.482429824469450319e-02
2.796000000000000085e+01,7.405453394896073516e-02
2.800000000000000000e+01,5.706592232915814328e-02
2.803999999999999915e+01,4.586514377371411766e-02
2.807999999999999829e+01,6.020100036870823512e-02
2.812000000000000099e+01,5.546843311289884754e-02
2.816000000000000014e+01,3.132694354129767628e-02
2.819999999999999929e+01,2.080470190085999260e-02
2.823999999999999844e+01,4.262902041913749218e-02
2.828000000000000114e+01,3.142454630480023825e-02
2.832000000000000028e+01,3.860626725832502770e-02
2.835999999999999943e+01,7.166510706344426940e-02
2.839999999999999858e+01,3.117605097786481719e-02
2.844000000000000128e+01,4.414433623320294237e-02
2.848000000000000043e+01,3.463921483332983720e-02
2.851999999999999957e+01,6.837653249812723766e-02
2.855999999999999872e+01,6.806355475342779071e-02
2.860000000000000142e+01,4.493666819757056313e-02
2.864000000000000057e+01,5.347533010661909697e-02
2.867999999999999972e+01,3.443312684041657801e-02
2.871999999999999886e+01,2.322170498248700421e-02
2.876000000000000156e+01,3.482291394577523985e-02
2.880000000000000071e+01,4.710447161667561528e-02
2.883999999999999986e+01,8.594411923244191231e-02
2.887999999999999901e+01,2.229363615344179261e-02
2.892000000000000171e+01,2.946579986460256748e-02
2.896000000000000085e+01,6.319604798419210800e-02
2.900000000000000000e+01,5.879002095989975529e-02
2.903999999999999915e+01,4.553042622407577761e-02
2.907999999999999829e+01,5.576444078465683796e-02
2.912000000000000099e+01,9.119454589371181474e-02
2.916000000000000014e+01,7.418751045756422080e-02
2.919999999999999929e+01,8.476003821550008588e-02
2.923999999999999844e+01,7.251862763461396078e-02
2.928000000000000114e+01,7.117244220088105033e-02
2.932000000000000028e+01,8.991488879558262592e-02
2.935999999999999943e+01,8.550289489551526900e-02
2.939999999999999858e+01,7.836625582577855242e-02
2.944000000000000128e+01,6.407851368726805164e-02
2.948000000000000043e+01,8.213727449762291133e-02
2.951999999999999957e+01,8.895896911413023189e-02
2.955999999999999872e+01,1.053138894813990534e-01
2.960000000000000142e+01,9.715237180298631758e-02
2.964000000000000057e+01,1.332547313743603079e-01
2.967999999999999972e+01,1.703778956723177029e-01
2.971999999999999886e+01,2.180557681976493523e-01
2.976000000000000156e+01,2.446221614904799391e-01
2.980000000000000071e+01,2.286257866762228808e-01
2.983999999999999986e+01,3.018388336596298793e-01
2.987999999999999901e+01,2.633682950845345760e-01
2.992000000000000171e+01,2.715450971774400757e-01
2.996000000000000085e+01,2.739327586883832377e-01
3.000000000000000000e+01,2.446535346891522411e-01
3.003999999999999915e+01,2.535092303337442288e-01
3.007999999999999829e+01,2.708766378793414642e-01
3.012000000000000099e+01,2.736019853538093627e-01
3.016000000000000014e+01,2.950539396236137035e-01
3.019999999999999929e+01,3.420424312334682249e-01
3.023999999999999844e+01,3.754103470942853904e-01
3.028000000000000114e+01,4.370387695602717670e-01
3.032000000000000028e+01,4.792581700545989198e-01
3.035999999999999943e+01,4.955991109611046497e-01
3.039999999999999858e+01,5.177277760487063452e-01
3.044000000000000128e+01,5.711814099351478768e-01
3.048000000000000043e+01,5.238473224052102584e-01
3.051999999999999957e+01,5.398448822170606176e-01
3.055999999999999872e+01,4.799109701457773824e-01
3.060000000000000142e+01,4.216788135940794380e-01
3.064000000000000057e+01,3.137334211705321563e-01
3.067999999999999972e+01,2.970403915066471279e-01
3.071999999999999886e+01,2.486804431139654770e-01
3.076000000000000156e+01,2.309644555172724045e-01
3.080000000000000071e+01,1.843055184569017957e-01
3.083999999999999986e+01,1.611401094918593346e-01
3.087999999999999901e+01,1.379739600305005531e-01
3.092000000000000171e+01,9.812273387137435132e-02
3.096000000000000085e+01,1.164956854611222670e-01
3.100000000000000000e+01,1.127356107499905002e-01
3.103999999999999915e+01,1.219136597019927215e-01
3.107999999999999829e+01,8.410242543795348746e-02
3.112000000000000099e+01,9.702443591166011461e-02
3.116000000000000014e+01,7.623652763924322617e-02
3.119999999999999929e+01,8.404958014548771783e-02
3.123999999999999844e+01,9.526684174120125803e-02
3.128000000000000114e+01,7.720063510797940676e-02
3.132000000000000028e+01,7.377502231708679692e-02
3.135999999999999943e+01,7.034864688412963141e-02
3.139999999999999858e+01,5.943058133441706664e-02
3.144000000000000128e+01,1.067366713878301621e-01
3.148000000000000043e+01,1.046699834338443436e-01
3.151999999999999957e+01,1.090719612265610150e-01
3.155999999999999872e+01,1.066632347596254415e-01
3.160000000000000142e+01,8.007847459256696443e-02
3.164000000000000057e+01,1.209112695279994376e-01
3.167999999999999972e+01,1.116902839896182914e-01
3.171999999999999886e+01,1.184718603168148088e-01
3.176000000000000156e+01,1.099303076692227793e-01
3.180000000000000071e+01,1.378211103668284532e-01
3.183999999999999986e+01,1.197440846428201311e-01
3.187999999999999901e+01,8.498193792954791825e-02
3.192000000000000171e+01,9.652654299081585287e-02
3.196000000000000085e+01,8.661907069872674947e-02
3.200000000000000000e+01,7.875378595396682890e-02
3.203999999999999915e+01,6.441827142331592315e-02
3.207999999999999829e+01,1.058435316885996888e-02
3.211999999999999744e+01,6.536805883181327770e-02
3.215999999999999659e+01,4.524170865100098082e-02
3.220000000000000284e+01,6.018570888255767720e-02
3.224000000000000199e+01,4.652718983270174441e-02
3.228000000000000114e+01,5.125468314828453276e-02
3.232000000000000028e+01,5.734335600834487151e-02
3.235999999999999943e+01,4.572539587486395413e-02
3.239999999999999858e+01,4.364053046313405571e-02
3.243999999999999773e+01,7.866898410795682139e-02
3.247999999999999687e+01,6.296262713036623881e-02
3.252000000000000313e+01,4.793644723083895914e-02
3.256000000000000227e+01,4.005987833457896885e-02
3.260000000000000142e+01,4.988831380090623380e-02
3.264000000000000057e+01,8.286969769649578377e-02
3.267999999999999972e+01,5.762533611306479980e-02
3.271999999999999886e+01,5.927938208254428937e-02
3.275999999999999801e+01,5.105819885241405509e-02
3.279999999999999716e+01,5.679654794286980585e-02
3.284000000000000341e+01,9.760521791803022928e-02
3.288000000000000256e+01,8.359309938187139966e-02
3.292000000000000171e+01,6.617518003486989875e-02
3.296000000000000085e+01,5.794983295340352253e-02
3.300000000000000000e+01,6.402450558463754215e-02
3.303999999999999915e+01,5.034953413212926027e-02
3.307999999999999829e+01,3.803570715999710777e-02
3.311999999999999744e+01,7.305006645656343667e-02
3.315999999999999659e+01,6.652299248433335421e-02
3.320000000000000284e+01,7.259344589986062302e-02
3.324000000000000199e+01,8.989943837962748041e-02
3.328000000000000114e+01,5.783256980543918097e-02
3.332000000000000028e+01,9.692864163822893786e-02
3.335999999999999943e+01,8.358737915051876743e-02
3.339999999999999858e+01,5.662539512092863714e-02
3.343999999999999773e+01,3.272702205995155211e-02
3.347999999999999687e+01,4.968738288767864802e-02
3.352000000000000313e+01,4.485509776885726607e-02
3.356000000000000227e+01,5.568479300406870003e-02
3.360000000000000142e+01,3.042098058236860150e-02
3.364000000000000057e+01,2.184063468227232657e-02
3.367999999999999972e+01,6.433391202877415671e-02
3.371999999999999886e+01,3.259805479684796392e-02
3.375999999999999801e+01,4.853085092546552404e-02
3.379999999999999716e+01,3.177509636487306499e-02
3.384000000000000341e+01,3.817223486917212250e-02
3.388000000000000256e+01,2.039323448104415903e-02
3.392000000000000171e+01,2.644811670586911384e-02
3.396000000000000085e+01,8.221462278090047038e-02
3.400000000000000000e+01,5.898502868601570442e-02
3.403999999999999915e+01,6.776123053587819467e-02
3.407999999999999829e+01,2.478105808563763404e-02
3.411999999999999744e+01,6.692415053268993552e-02
3.415999999999999659e+01,4.913894612044970855e-02
3.420000000000000284e+01,3.509831085174063697e-02
3.424000000000000199e+01,4.216757047607524317e-02
3.428000000000000114e+01,3.561606795799116681e-02
3.432000000000000028e+01,6.515630790041687659e-02
3.435999999999999943e+01,4.498314034144422491e-02
3.439999999999999858e+01,5.375128254232078295e-02
3.443999999999999773e+01,7.784086787718207112e-02
3.447999999999999687e+01,1.785412860122839451e-01
3.452000000000000313e+01,2.506390796736691073e-01
3.456000000000000227e+01,2.723424633672414941e-01
3.460000000000000142e+01,2.504613676377147602e-01
3.464000000000000057e+01,3.317498336482646581e-01
3.467999999999999972e+01,3.309776985401682303e-01
3.471999999999999886e+01,3.363335849209430073e-01
3.475999999999999801e+01,2.943595216820967253e-01
3.479999999999999716e+01,2.837102260848767821e-01
3.484000000000000341e+01,2.376483588599152541e-01
3.488000000000000256e+01,2.069079144686690463e-01
3.492000000000000171e+01,1.291780096953952517e-01
3.496000000000000085e+01,1.140985541767187417e-01
3.500000000000000000e+01,1.436232252331496040e-01
3.503999999999999915e+01,1.425022681075784614e-01
3.507999999999999829e+01,1.584052076858757374e-01
3.511999999999999744e+01,1.763501908641384730e-01
3.515999999999999659e+01,1.602445741288658076e-01
3.520000000000000284e+01,1.720587403853330866e-01
3.524000000000000199e+01,1.794455089346454479e-01
3.528000000000000114e+01,1.824048779313239554e-01
3.532000000000000028e+01,1.819583353884184906e-01
3.535999999999999943e+01,1.726579335482958111e-01
3.539999999999999858e+01,1.650590657702757091e-01
3.543999999999999773e+01,1.104707136190007516e-01
3.547999999999999687e+01,1.059344118092391401e-01
3.552000000000000313e+01,1.119525506323935382e-01
3.556000000000000227e+01,1.159267533211284368e-01
3.560000000000000142e+01,8.142387974243345261e-02
3.564000000000000057e+01,6.871182970403554024e-02
3.567999999999999972e+01,8.562202360917749167e-02
3.571999999999999886e+01,6.882208838358741532e-02
3.575999999999999801e+01,5.372367061078858058e-02
3.579999999999999716e+01,5.530861970372635134e-02
3.584000000000000341e+01,1.637350173930215633e-02
3.588000000000000256e+01,5.438964860286249481e-02
3.592000000000000171e+01,6.720807259603674144e-02
3.596000000000000085e+01,5.482877187334558866e-02
3.600000000000000000e+01,4.278899105253324703e-02
3.603999999999999915e+01,4.334660659046760123e-02
3.607999999999999829e+01,2.755940398335019609e-02
3.611999999999999744e+01,3.152002305372385293e-02
3.615999999999999659e+01,2.628624929779026231e-02
3.620000000000000284e+01,5.048148479877581814e-03
3.624000000000000199e+01,4.373646490515627899e-02
3.628000000000000114e+01,3.884022439721708519e-02
3.632000000000000028e+01,2.679256339811226725e-02
3.635999999999999943e+01,4.164314201332681986e-02
3.639999999999999858e+01,3.095547899289724861e-02
3.643999999999999773e+01,4.069661612514590548e-02
3.647999999999999687e+01,2.115404511618633465e-02
3.652000000000000313e+01,6.153787843206515173e-02
3.656000000000000227e+01,2.667095628197625745e-02
3.660000000000000142e+01,5.207093138527739418e-02
3.664000000000000057e+01,4.716570110692521606e-02
3.667999999999999972e+01,5.077187822553974605e-02
3.671999999999999886e+01,2.305135641301404512e-02
3.675999999999999801e+01,3.891339011598986264e-02
3.679999999999999716e+01,4.183553865038804054e-02
3.684000000000000341e+01,5.803603987297173417e-02
3.688000000000000256e+01,5.891317589945217065e-02
3.692000000000000171e+01,6.932319810855401554e-02
3.696000000000000085e+01,8.518014522068270700e-02
3.700000000000000000e+01,9.422613708801208521e-02
3.703999999999999915e+01,7.807435441154261802e-02
3.707999999999999829e+01,1.184439840281087813e-01
3.711999999999999744e+01,8.935127487366485710e-02
3.715999999999999659e+01,9.771216362875877193e-02
3.720000000000000284e+01,7.985378059960884789e-02
3.724000000000000199e+01,7.186876560875780917e-02
3.728000000000000114e+01,6.422321146445678086e-02
3.732000000000000028e+01,6.474853856994837453e-02
3.735999999999999943e+01,6.595381945054162864e-02
3.739999999999999858e+01,8.179941366065252017e-02
3.743999999999999773e+01,1.228407145596010913e-01
3.747999999999999687e+01,2.701159157452024395e-01
3.752000000000000313e+01,4.616546306212228612e-01
3.756000000000000227e+01,4.345934670807422573e-01
3.760000000000000142e+01,4.177461515887589405e-01
3.764000000000000057e+01,3.345009429101251652e-01
3.767999999999999972e+01,2.015421735553340754e-01
3.771999999999999886e+01,1.431511077999251813e-01
3.775999999999999801e+01,8.918544017943365321e-02
3.779999999999999716e+01,9.889158064305769713e-02
3.784000000000000341e+01,5.854365642909886702e-02
3.788000000000000256e+01,9.682253272253997164e-03
3.792000000000000171e+01,5.207287884336855854e-02
3.796000000000000085e+01,5.087886997114628163e-02
3.800000000000000000e+01,3.946889352205271845e-02
3.803999999999999915e+01,3.248430228952343957e-02
3.807999999999999829e+01,3.196807414513714446e-02
3.811999999999999744e+01,2.532183232155830674e-02
3.815999999999999659e+01,2.582494313418363246e-02
3.820000000000000284e+01,2.156002305469701882e-02
3.824000000000000199e+01,2.853041135457228678e-02
3.828000000000000114e+01,5.422703181754245233e-02
3.832000000000000028e+01,3.157204855472965643e-02
3.835999999999999943e+01,3.513421939326579618e-02
3.839999999999999858e+01,4.175977236101648116e-02
3.843999999999999773e+01,2.420897605173148726e-02
3.847999999999999687e+01,3.764228098049338112e-02
3.852000000000000313e+01,0.000000000000000000e+00
3.856000000000000227e+01,3.658488724431967209e-02
3.860000000000000142e+01,3.196858685420554680e-02
3.864000000000000057e+01,1.781728259857516886e-02
3.867999999999999972e+01,5.507986752417494414e-02
3.871999999999999886e+01,2.424202633764234449e-02
3.875999999999999801e+01,3.290068895854444259e-02
3.879999999999999716e+01,1.363752287849376646e-02
3.884000000000000341e+01,2.093198537355329611e-02
3.888000000000000256e+01,1.732944645218392407e-02
3.892000000000000171e+01,4.028453241496688514e-02
3.896000000000000085e+01,4.042523158752533291e-02
3.900000000000000000e+01,3.750034605593954851e-02
3.903999999999999915e+01,5.159917452579909636e-02
3.907999999999999829e+01,8.204072191260565472e-02
3.911999999999999744e+01,5.221324698121142943e-02
3.915999999999999659e+01,5.030537233913393025e-02
3.920000000000000284e+01,4.873686996061339649e-02
3.924000000000000199e+01,6.419207235614309004e-02
3.928000000000000114e+01,1.055238897874946485e-01
3.932000000000000028e+01,8.011723990256697236e-02
3.935999999999999943e+01,1.057839512062166282e-01
3.939999999999999858e+01,2.114662345112836017e-01
3.943999999999999773e+01,4.989725772056710640e-01
3.947999999999999687e+01,6.271253646952416050e-01
3.952000000000000313e+01,6.960306012703498801e-01
3.956000000000000227e+01,8.503993483771140616e-01
3.960000000000000142e+01,1.000000000000000000e+00
3.964000000000000057e+01,8.976320085295310669e-01
3.967999999999999972e+01,8.497423296789032854e-01
3.971999999999999886e+01,7.592894250423908309e-01
3.975999999999999801e+01,5.500020500043552030e-01
3.979999999999999716e+01,3.825946071278670813e-01
3.984000000000000341e+01,2.955432125720368064e-01
3.988000000000000256e+01,1.792079530092815509e-01
3.992000000000000171e+01,1.534436366615152814e-01
3.996000000000000085e+01,1.276781608936947976e-01
4.000000000000000000e+01,1.083809596310243845e-01
4.003999999999999915e+01,1.057669296133141035e-01
4.007999999999999829e+01,5.786568424433061186e-02
4.011999999999999744e+01,6.103776499982273285e-02
4.015999999999999659e+01,6.557066358590434019e-02
4.020000000000000284e+01,3.911719930368041942e-02
4.024000000000000199e+01,3.888080238529146443e-02
4.028000000000000114e+01,5.566806225849817158e-02
4.032000000000000028e+01,5.100285907323234141e-02
4.035999999999999943e+01,3.680257266685218326e-02
4.039999999999999858e+01,4.677636652533315870e-02
4.043999999999999773e+01,1.725137095489348918e-02
4.047999999999999687e+01,2.654180659727138972e-02
4.052000000000000313e+01,4.842943190474551657e-02
4.056000000000000227e+01,4.341663716871862339e-02
4.060000000000000142e+01,2.784725828017450833e-02
4.064000000000000057e+01,3.304698238852088465e-02
4.067999999999999972e+01,5.424885497514374960e-02
4.071999999999999886e+01,2.914199282430018217e-02
4.075999999999999801e+01,3.672160981674744973e-02
4.079999999999999716e+01,2.931817737565695428e-02
4.084000000000000341e+01,1.612510238231002271e-02
4.088000000000000256e+01,2.744658212758549140e-02
4.092000000000000171e+01,2.310401366386690900e-02
4.096000000000000085e+01,1.433378358949336309e-02
4.100000000000000000e+01,1.271277512231355246e-02
4.103999999999999915e+01,4.445922611909063765e-02
4.107999999999999829e+01,4.249530069094674400e-02
4.111999999999999744e+01,2.963427049954863585e-02
4.115999999999999659e+01,4.162827874792945915e-02
4.120000000000000284e+01,3.863921910798229220e-02
4.124000000000000199e+01,2.986049846098846189e-02
4.128000000000000114e+01,9.503672429805076413e-03
4.132000000000000028e+01,3.953912391970742374e-02
4.135999999999999943e+01,4.233362183701868536e-02
4.139999999999999858e+01,3.389050545321306562e-02
4.143999999999999773e+01,3.123460389829333522e-02
4.147999999999999687e+01,4.764528348765643267e-02
4.152000000000000313e+01,4.396543113221477311e-02
4.156000000000000227e+01,5.152073398137631960e-02
4.160000000000000142e+01,2.434414655586068787e-02
4.164000000000000057e+01,4.483584893152139927e-02
4.167999999999999972e+01,4.183204578536497964e-02
4.171999999999999886e+01,3.746501554003891371e-02
4.175999999999999801e+01,3.275624620859310387e-02
4.179999999999999716e+01,1.340487792614378226e-02
4.184000000000000341e+01,3.184738825169617510e-02
4.188000000000000256e+01,4.756467761812430833e-02
4.192000000000000171e+01,2.548559237045627465e-02
4.196000000000000085e+01,3.643342752121798978e-02
4.200000000000000000e+01,1.843779647417614562e-02
4.203999999999999915e+01,2.734014298343265606e-02
4.207999999999999829e+01,2.125938100382268603e-02
4.211999999999999744e+01,3.594765373837945088e-02
4.215999999999999659e+01,5.063466555153585402e-02
4.220000000000000284e+01,3.195174588586829206e-02
4.224000000000000199e+01,3.710232497351703684e-02
4.228000000000000114e+01,4.088965112528984008e-02
4.232000000000000028e+01,2.322442194463903223e-02
4.235999999999999943e+01,1.475133134195304695e-02
4.239999999999999858e+01,1.478938423273355382e-02
4.243999999999999773e+01,2.401957201052092733e-02
4.247999999999999687e+01,3.903692663473957297e-02
4.252000000000000313e+01,4.315711190393827640e-02
4.256000000000000227e+01,3.876360230920543326e-02
4.260000000000000142e+01,3.607129459035124386e-02
4.264000000000000057e+01,4.563558210669553528e-02
4.267999999999999972e+01,1.570097684729394177e-02
4.271999999999999886e+01,2.730567240996180020e-02
4.275999999999999801e+01,3.312063683738018793e-02
4.279999999999999716e+01,3.076239194750245501e-02
4.284000000000000341e+01,4.644917559709199617e-02
4.288000000000000256e+01,2.127507076550198134e-02
4.292000000000000171e+01,4.240721020172125849e-02
4.296000000000000085e+01,2.438094056335134152e-02
4.300000000000000000e+01,2.337820222400345191e-02
4.303999999999999915e+01,1.284025701644694352e-02
4.307999999999999829e+01,4.928954193380279125e-02
4.311999999999999744e+01,2.615061322407493533e-02
4.315999999999999659e+01,3.263358335330989596e-02
4.320000000000000284e+01,2.413339332026571624e-02
4.324000000000000199e+01,6.602539222531422780e-02
4.328000000000000114e+01,4.083824449215105179e-02
4.332000000000000028e+01,2.926964709908130499e-02
4.335999999999999943e+01,3.540555763474191597e-02
4.339999999999999858e+01,3.813518384405609196e-02
4.343999999999999773e+01,4.120398669615086412e-02
4.347999999999999687e+01,2.077720097987247397e-02
4.352000000000000313e+01,3.303676706883244829e-02
4.356000000000000227e+01,3.303712934227922421e-02
4.360000000000000142e+01,4.257006960335091295e-02
4.364000000000000057e+01,3.507684968481641907e-02
4.367999999999999972e+01,2.451782914109210121e-02
4.371999999999999886e+01,6.128650581412550119e-02
4.375999999999999801e+01,4.459587848358415735e-02
4.379999999999999716e+01,2.415845175239666326e-02
4.384000000000000341e+01,9.508129121353766158e-03
4.388000000000000256e+01,1.801023633996807344e-02
4.392000000000000171e+01,2.685149805561478503e-02
4.396000000000000085e+01,3.058396651066065675e-02
4.400000000000000000e+01,5.917134237647480449e-02
4.403999999999999915e+01,5.200522553486232324e-02
4.407999999999999829e+01,1.351207019396982040e-02
4.411999999999999744e+01,2.098460713700624203e-02
4.415999999999999659e+01,3.833019285047065822e-02
4.420000000000000284e+01,4.648101479634450528e-02
4.424000000000000199e+01,3.386018606582082840e-02
4.428000000000000114e+01,4.200829239359668565e-02
4.432000000000000028e+01,5.287901110018216472e-02
4.435999999999999943e+01,3.616814120374024083e-02
4.439999999999999858e+01,4.533365012180547160e-02
4.443999999999999773e+01,5.756226250175291298e-02
4.447999999999999687e+01,4.765722665439010852e-02
4.452000000000000313e+01,4.285827029500932639e-02
4.456000000000000227e+01,4.418688143666038570e-02
4.460000000000000142e+01,3.121326106328597277e-02
4.464000000000000057e+01,5.126643744124687041e-02
4.467999999999999972e+01,6.246532452537842395e-02
4.471999999999999886e+01,4.335863344109436301e-02
4.475999999999999801e+01,4.876631808396757195e-02
4.479999999999999716e+01,2.591140058452497466e-02
4.484000000000000341e+01,3.165681455539733069e-02
4.488000000000000256e+01,4.965872041464284431e-02
4.492000000000000171e+01,5.233689013650181382e-02
4.496000000000000085e+01,3.628635568039870890e-02
4.500000000000000000e+01,2.806585152260643659e-02
4.503999999999999915e+01,3.720928116391586382e-02
4.507999999999999829e+01,4.226535572974070981e-02
4.511999999999999744e+01,6.196138744763206307e-02
4.515999999999999659e+01,6.020473280408929900e-02
4.520000000000000284e+01,4.857227501696088912e-02
4.524000000000000199e+01,3.966238716262467101e-02
4.528000000000000114e+01,4.947840851255449340e-02
4.532000000000000028e+01,5.895252652873164689e-02
4.535999999999999943e+01,4.765494219509881085e-02
4.539999999999999858e+01,6.291468377801669176e-02
4.543999999999999773e+01,6.693662466643630904e-02
4.547999999999999687e+01,4.371742189792572619e-02
4.552000000000000313e+01,5.897292119236621083e-02
4.556000000000000227e+01,5.209472243156287180e-02
4.560000000000000142e+01,4.998205671129835048e-02
4.564000000000000057e+01,7.408620921520077396e-02
4.567999999999999972e+01,5.188139814223811236e-02
4.571999999999999886e+01,6.066035427561924931e-02
4.575999999999999801e+01,4.832709298489048372e-02
4.579999999999999716e+01,4.382382508289213441e-02
4.584000000000000341e+01,3.353068394375953443e-02
4.588000000000000256e+01,3.753696827308247025e-02
4.592000000000000171e+01,3.847734863039027620e-02
4.596000000000000085e+01,4.656672175549304848e-02
4.600000000000000000e+01,4.614224130546849129e-02
4.603999999999999915e+01,3.652291219581820653e-02
4.607999999999999829e+01,2.758313454684272956e-02
4.611999999999999744e+01,4.826511917138236879e-02
4.615999999999999659e+01,4.851586115604109017e-02
4.620000000000000284e+01,2.765436541632074197e-02
4.624000000000000199e+01,5.582293372572780937e-02
4.628000000000000114e+01,6.628422681489411217e-02
4.632000000000000028e+01,5.120682058961886773e-02
4.635999999999999943e+01,3.919242924323271954e-02
4.639999999999999858e+01,2.683608473516030032e-02
4.643999999999999773e+01,3.320559591246237396e-02
4.647999999999999687e+01,3.923315023712017208e-02
4.652000000000000313e+01,3.708732361493286694e-02
4.656000000000000227e+01,3.936648912227814351e-02
4.660000000000000142e+01,3.994170576250350574e-02
4.664000000000000057e+01,1.804267790004180846e-02
4.667999999999999972e+01,4.279021744987100001e-02
4.671999999999999886e+01,3.893456965488167193e-02
4.675999999999999801e+01,3.814191828399116774e-02
4.679999999999999716e+01,3.734779191613387533e-02
4.684000000000000341e+01,2.803977321808971690e-02
4.688000000000000256e+01,5.924937355376766468e-02
4.692000000000000171e+01,4.653342943929833497e-02
4.696000000000000085e+01,3.381600294594593742e-02
4.700000000000000000e+01,5.003930488655096431e-02
4.703999999999999915e+01,3.663791485997638236e-02
4.707999999999999829e+01,3.276894226435166785e-02
4.711999999999999744e+01,4.183735144929422861e-02
4.715999999999999659e+01,6.043817437422858291e-02
4.720000000000000284e+01,3.307046021360461607e-02
4.724000000000000199e+01,4.724183833592052878e-02
4.728000000000000114e+01,5.289930382778029044e-02
4.732000000000000028e+01,4.425441231204108733e-02
4.735999999999999943e+01,4.377993883086004484e-02
4.739999999999999858e+01,4.262296943150754858e-02
4.743999999999999773e+01,3.942151579046599547e-02
4.747999999999999687e+01,3.485656930127564723e-02
4.752000000000000313e+01,5.787034077677685046e-02
4.756000000000000227e+01,5.977181178161208863e-02
4.760000000000000142e+01,2.796260554844575905e-02
4.764000000000000057e+01,5.063134468479543043e-02
4.767999999999999972e+01,4.571834204335894353e-02
4.771999999999999886e+01,5.544517659785259261e-02
4.775999999999999801e+01,5.904155271270930538e-02
4.779999999999999716e+01,5.174051586931522478e-02
4.784000000000000341e+01,4.545944590502861565e-02
4.788000000000000256e+01,4.121983083289929711e-02
4.792000000000000171e+01,4.651259443666051763e-02
4.796000000000000085e+01,5.282531938309208835e-02
4.800000000000000000e+01,5.845552072916690434e-02
4.803999999999999915e+01,6.476518310744450169e-02
4.807999999999999829e+01,5.506997031647338503e-02
4.811999999999999744e+01,3.856328923753495758e-02
4.815999999999999659e+01,6.700062419061526831e-02
4.820000000000000284e+01,5.457682521380630841e-02
4.824000000000000199e+01,5.270688000758446540e-02
4.828000000000000114e+01,5.083539152167192154e-02
4.832000000000000028e+01,4.385490861794514444e-02
4.835999999999999943e+01,5.049274352395519139e-02
4.839999999999999858e+01,4.487115131149054664e-02
4.843999999999999773e+01,5.661333603241072709e-02
4.847999999999999687e+01,5.779857304144622732e-02
4.852000000000000313e+01,5.353430978576279031e-02
4.856000000000000227e+01,5.028998019056442337e-02
4.860000000000000142e+01,4.602260269331420739e-02
4.864000000000000057e+01,3.290075319981160262e-02
4.867999999999999972e+01,7.085183489827397152e-02
4.871999999999999886e+01,5.602437699278235012e-02
4.875999999999999801e+01,3.881187732528432188e-02
4.879999999999999716e+01,6.892684049870816121e-02
4.884000000000000341e+01,5.647815711703017133e-02
4.888000000000000256e+01,4.096343319788935122e-02
4.892000000000000171e+01,7.209517334421414181e-02
4.896000000000000085e+01,5.589630872586498489e-02
4.900000000000000000e+01,4.003636422871242884e-02
4.903999999999999915e+01,5.754351009971245268e-02
4.907999999999999829e+01,5.155480903527622644e-02
4.911999999999999744e+01,5.714141099941765639e-02
4.915999999999999659e+01,4.263712853226112737e-02
4.920000000000000284e+01,5.639247975869655927e-02
4.924000000000000199e+01,5.414290229699175033e-02
4.928000000000000114e+01,4.916776246254352112e-02
4.932000000000000028e+01,7.074976768770201152e-02
4.935999999999999943e+01,4.636313617143490023e-02
4.939999999999999858e+01,4.649066630675847966e-02
4.943999999999999773e+01,8.475222102857940532e-02
4.947999999999999687e+01,5.389136334588218863e-02
4.952000000000000313e+01,7.001743866597495702e-02
4.956000000000000227e+01,5.958317532929641169e-02
4.960000000000000142e+01,5.119028752917724467e-02
4.964000000000000057e+01,7.548346917600619321e-02
4.967999999999999972e+01,4.597657706885553697e-02
4.971999999999999886e+01,5.256071691279124575e-02
4.975999999999999801e+01,5.573827899921610790e-02
4.979999999999999716e+01,5.721174458019923081e-02
4.984000000000000341e+01,6.208856110290623259e-02
4.988000000000000256e+01,7.513567939499304904e-02
4.992000000000000171e+01,6.468691199658413438e-02
4.996000000000000085e+01,4.197864550601870803e-02
5.000000000000000000e+01,5.025394875554171914e-02
5.003999999999999915e+01,6.635904977301891605e-02
5.007999999999999829e+01,6.305421715219990120e-02
5.011999999999999744e+01,7.404861437906011534e-02
5.015999999999999659e+01,8.095542215460001245e-02
5.020000000000000284e+01,7.730520286265726848e-02
5.024000000000000199e+01,8.727321464293744113e-02
5.028000000000000114e+01,5.876347286498648931e-02
5.032000000000000028e+01,8.575304266798605690e-02
5.035999999999999943e+01,9.707812872894240608e-02
5.039999999999999858e+01,9.444121229992469280e-02
5.043999999999999773e+01,1.139349332034756412e-01
5.047999999999999687e+01,1.228716141211909640e-01
5.052000000000000313e+01,1.243157227831782480e-01
5.056000000000000227e+01,1.250771897341514116e-01
5.060000000000000142e+01,1.782734857721350596e-01
5.064000000000000057e+01,1.524729139209293760e-01
5.067999999999999972e+01,1.624228331098037659e-01
5.071999999999999886e+01,1.893959274202492993e-01
5.075999999999999801e+01,1.601854218122142348e-01
5.079999999999999716e+01,1.657039118492933116e-01
5.084000000000000341e+01,1.797331559837653525e-01
5.088000000000000256e+01,1.546036256388017283e-01
5.092000000000000171e+01,1.356013693637055095e-01
5.096000000000000085e+01,1.274933379861326321e-01
5.100000000000000000e+01,1.139356919241413107e-01
5.103999999999999915e+01,1.265946149466490311e-01
5.107999999999999829e+01,1.096286596085960102e-01
5.111999999999999744e+01,1.062808947422272526e-01
5.115999999999999659e+01,9.544052809246629521e-02
5.120000000000000284e+01,1.132001994818556401e-01
5.124000000000000199e+01,9.758952231416209711e-02
5.128000000000000114e+01,9.355404851917899223e-02
5.132000000000000028e+01,8.202596555888744256e-02
5.135999999999999943e+01,6.981520397800131117e-02
5.139999999999999858e+01,7.054162671142699681e-02
5.143999999999999773e+01,7.433082994790607412e-02
5.147999999999999687e+01,5.190010256413059991e-02
5.152000000000000313e+01,6.215535788978895221e-02
5.156000000000000227e+01,6.491799297726479068e-02
5.160000000000000142e+01,5.610204654696345633e-02
5.164000000000000057e+01,7.384313813848539243e-02
5.167999999999999972e+01,4.323200961423104977e-02
5.171999999999999886e+01,7.050360441572886550e-02
5.175999999999999801e+01,5.282794160558872132e-02
5.179999999999999716e+01,6.647626210849073847e-02
5.184000000000000341e+01,5.833109143545231468e-02
5.188000000000000256e+01,8.900082601371001045e-02
5.192000000000000171e+01,1.114969305054547416e-01
5.196000000000000085e+01,1.271813895432459540e-01
5.200000000000000000e+01,1.166458939695553532e-01
5.203999999999999915e+01,1.561616847090628868e-01
5.207999999999999829e+01,1.500492098340810709e-01
5.211999999999999744e+01,1.589168657718466049e-01
5.215999999999999659e+01,1.470125056283683174e-01
5.220000000000000284e+01,1.204650667093407346e-01
5.224000000000000199e+01,1.293275502372018271e-01
5.228000000000000114e+01,9.869069807435192077e-02
5.232000000000000028e+01,7.894800806273846727e-02
5.235999999999999943e+01,6.328954596668985577e-02
5.239999999999999858e+01,7.146411387228611412e-02
5.243999999999999773e+01,8.099893304641188341e-02
5.247999999999999687e+01,4.967242082439302098e-02
5.252000000000000313e+01,7.112114572590134964e-02
5.256000000000000227e+01,8.439621101323215024e-02
5.260000000000000142e+01,7.315377710444394277e-02
5.264000000000000057e+01,6.361208185629993461e-02
5.267999999999999972e+01,7.654141721340895765e-02
5.271999999999999886e+01,7.755162275981851427e-02
5.275999999999999801e+01,7.583610537680983421e-02
5.279999999999999716e+01,3.496172493137259668e-02
5.284000000000000341e+01,5.026753304072658496e-02
5.288000000000000256e+01,5.399470057697461356e-02
5.292000000000000171e+01,5.635812427992700768e-02
5.296000000000000085e+01,6.382723807478764277e-02
5.300000000000000000e+01,6.210118209667277872e-02
5.303999999999999915e+01,3.790058633922746556e-02
5.307999999999999829e+01,4.195944526390887885e-02
5.311999999999999744e+01,4.022809507427410614e-02
5.315999999999999659e+01,5.109335137836468199e-02
5.320000000000000284e+01,5.548740163816173743e-02
5.324000000000000199e+01,4.251435218387773773e-02
5.328000000000000114e+01,5.643876170628693567e-02
5.332000000000000028e+01,6.048699345286917550e-02
5.335999999999999943e+01,6.930040021705981268e-02
5.339999999999999858e+01,4.338137229026176045e-02
5.343999999999999773e+01,2.801595822177818662e-02
5.347999999999999687e+01,5.350835530248765348e-02
5.352000000000000313e+01,5.890966679468589290e-02
5.356000000000000227e+01,4.966783676504814976e-02
5.360000000000000142e+01,6.596146447023269743e-02
5.364000000000000057e+01,4.377718359694836303e-02
5.367999999999999972e+01,5.053332296262479095e-02
5.371999999999999886e+01,4.911574919523229582e-02
5.375999999999999801e+01,3.884346721027247262e-02
5.379999999999999716e+01,3.537931965970971676e-02
5.384000000000000341e+01,7.311346326853866706e-02
5.388000000000000256e+01,5.909031906514861099e-02
5.392000000000000171e+01,3.621245926227519008e-02
5.396000000000000085e+01,5.623536817990455738e-02
5.400000000000000000e+01,5.923163893886113779e-02
5.403999999999999915e+01,4.315828997660806077e-02
5.407999999999999829e+01,5.364186646195800989e-02
5.411999999999999744e+01,5.731369783748744423e-02
5.415999999999999659e+01,5.349278901869779224e-02
5.420000000000000284e+01,5.920396913559215074e-02
5.424000000000000199e+01,3.801409805516016427e-02
5.428000000000000114e+01,4.542412291199381807e-02
5.432000000000000028e+01,6.883566693875757536e-02
5.435999999999999943e+01,5.615274550499756850e-02
5.439999999999999858e+01,5.061842744295893398e-02
5.443999999999999773e+01,2.431198810737224270e-02
5.447999999999999687e+01,2.490295238410802567e-02
5.452000000000000313e+01,3.979294350583064549e-02
5.456000000000000227e+01,5.331911512961746979e-02
5.460000000000000142e+01,3.585825951265102923e-02
5.464000000000000057e+01,4.631628998461992386e-02
5.467999999999999972e+01,3.906665768575335457e-02
5.471999999999999886e+01,3.964660723379530988e-02
5.475999999999999801e+01,5.282308945640169784e-02
5.479999999999999716e+01,4.999438646928373170e-02
5.484000000000000341e+01,5.193079021705049314e-02
5.488000000000000256e+01,2.798760309835543816e-02
5.492000000000000171e+01,4.796663026719548417e-02
5.496000000000000085e+01,4.921649188831803828e-02
5.500000000000000000e+01,5.284797652584170141e-02
5.503999999999999915e+01,3.979327164174779191e-02
5.507999999999999829e+01,4.239955424397276462e-02
5.511999999999999744e+01,3.410808616528589188e-02
5.515999999999999659e+01,4.181809850146969015e-02
5.520000000000000284e+01,5.463369758273660393e-02
5.524000000000000199e+01,5.518955396861592588e-02
5.528000000000000114e+01,6.119149002813011745e-02
5.532000000000000028e+01,4.505927773551916815e-02
5.535999999999999943e+01,4.697151634744150400e-02
5.539999999999999858e+01,6.250174796479279760e-02
5.543999999999999773e+01,5.249285949848568611e-02
5.547999999999999687e+01,4.929202795645667295e-02
5.552000000000000313e+01,4.506782924450510736e-02
5.556000000000000227e+01,3.879877165862311711e-02
5.560000000000000142e+01,2.844187363627370332e-02
5.564000000000000057e+01,3.953437979520086493e-02
5.567999999999999972e+01,5.913741674855942793e-02
5.571999999999999886e+01,5.728728013402183128e-02
5.575999999999999801e+01,4.453936331090802697e-02
5.579999999999999716e+01,6.073176891636673097e-02
5.584000000000000341e+01,5.070404274435753866e-02
5.588000000000000256e+01,4.646286518330725035e-02
5.592000000000000171e+01,5.311568368038156046e-02
5.596000000000000085e+01,3.525084796109908408e-02
5.600000000000000000e+01,6.709661923308193887e-02
5.603999999999999915e+01,3.765109769070886653e-02
5.607999999999999829e+01,4.157234171218054941e-02
5.611999999999999744e+01,5.162061989124668016e-02
5.615999999999999659e+01,5.996450813370657329e-02
5.620000000000000284e+01,5.026016685761882513e-02
5.624000000000000199e+01,4.940682715876544562e-02
5.628000000000000114e+01,5.127554804049417464e-02
5.632000000000000028e+01,4.156546963792109861e-02
5.635999999999999943e+01,3.968489741761669493e-02
5.639999999999999858e+01,6.504213684615121893e-02
5.643999999999999773e+01,5.430481484925288316e-02
5.647999999999999687e+01,5.752593264935967898e-02
5.652000000000000313e+01,3.997483321100916975e-02
5.656000000000000227e+01,3.672266649821533807e-02
5.660000000000000142e+01,6.138929544588479087e-02
5.664000000000000057e+01,3.225552952622488118e-02
5.667999999999999972e+01,5.862078175635099947e-02
5.671999999999999886e+01,3.867656105740183842e-02
5.675999999999999801e+01,4.494864553945165930e-02
5.679999999999999716e+01,5.632624294742356874e-02
5.684000000000000341e+01,6.123246637251106989e-02
5.688000000000000256e+01,4.536645594983026997e-02
5.692000000000000171e+01,4.039439544829839107e-02
5.696000000000000085e+01,3.167492838352209406e-02
5.700000000000000000e+01,5.189572838294780749e-02
5.703999999999999915e+01,4.589634124053470349e-02
5.707999999999999829e+01,4.227848114961357817e-02
5.711999999999999744e+01,3.661569021108009719e-02
5.715999999999999659e+01,2.754598010141687259e-02
5.720000000000000284e+01,3.788262248229037205e-02
5.724000000000000199e+01,5.536773720587474107e-02
5.728000000000000114e+01,4.084421118308247806e-02
5.732000000000000028e+01,5.934689689477551378e-02
5.735999999999999943e+01,5.060789084226877815e-02
5.739999999999999858e+01,6.331820776996170685e-02
5.743999999999999773e+01,4.367937994985222894e-02
5.747999999999999687e+01,5.468328014574451446e-02
5.752000000000000313e+01,4.287193724914631354e-02
5.756000000000000227e+01,3.718756207289778543e-02
5.760000000000000142e+01,5.329299726896345041e-02
5.764000000000000057e+01,4.419970749953399530e-02
5.767999999999999972e+01,4.702182244568115649e-02
5.771999999999999886e+01,4.609649576448238834e-02
5.775999999999999801e+01,5.606508024937320589e-02
5.779999999999999716e+01,4.764486477704570760e-02
5.784000000000000341e+01,5.556650269200388848e-02
5.788000000000000256e+01,3.420344513447710899e-02
5.792000000000000171e+01,3.837564600003851023e-02
5.796000000000000085e+01,3.880039416537980901e-02
5.800000000000000000e+01,3.343470806796419031e-02
5.803999999999999915e+01,3.249348444760190302e-02
5.807999999999999829e+01,2.542132625401518145e-02
5.811999999999999744e+01,4.933236316827553647e-02
5.815999999999999659e+01,3.680826268199530876e-02
5.820000000000000284e+01,3.994500573467049676e-02
5.824000000000000199e+01,4.682520879798455354e-02
5.828000000000000114e+01,4.008354243146686896e-02
5.832000000000000028e+01,3.504235266757225326e-02
5.835999999999999943e+01,2.999915456327338290e-02
5.839999999999999858e+01,4.402175696563113277e-02
5.843999999999999773e+01,5.702085747809775007e-02
5.847999999999999687e+01,3.188232272864354594e-02
5.852000000000000313e+01,3.193852210058227559e-02
5.856000000000000227e+01,4.391008558755916946e-02
5.860000000000000142e+01,4.430274459793008546e-02
5.864000000000000057e+01,3.584047024229289335e-02
5.867999999999999972e+01,4.406050713839169963e-02
5.871999999999999886e+01,4.512809007507275622e-02
5.875999999999999801e+01,4.108619692391472789e-02
5.879999999999999716e+01,2.852985964434225086e-02
5.884000000000000341e+01,4.457320791742705457e-02
5.888000000000000256e+01,4.120621654683106344e-02
5.892000000000000171e+01,4.498762000882684103e-02
5.896000000000000085e+01,2.459172746304879448e-02
5.900000000000000000e+01,3.449799618556017439e-02
5.903999999999999915e+01,4.167825223844676824e-02
5.907999999999999829e+01,4.374901743966218975e-02
5.911999999999999744e+01,2.981439811941908463e-02
5.915999999999999659e+01,4.073398677339491736e-02
5.920000000000000284e+01,3.462669735642511654e-02
5.924000000000000199e+01,3.941325082282122472e-02
5.928000000000000114e+01,5.815811490269071765e-02
5.932000000000000028e+01,4.932070017037874787e-02
5.935999999999999943e+01,3.196881547294606191e-02
5.939999999999999858e+01,4.457857696950290327e-02
5.943999999999999773e+01,5.446230734164483889e-02
5.947999999999999687e+01,4.153070419282411940e-02
5.952000000000000313e+01,4.051442086754496880e-02
5.956000000000000227e+01,5.413742847640549971e-02
5.960000000000000142e+01,2.962274914993246952e-02
5.964000000000000057e+01,2.962175903242070599e-02
5.967999999999999972e+01,3.336416248830299108e-02
5.971999999999999886e+01,3.131605232583042908e-02
5.975999999999999801e+01,2.415841993854333375e-02
5.979999999999999716e+01,3.572602684663753192e-02
5.984000000000000341e+01,3.299069911219874168e-02
5.988000000000000256e+01,4.693762726512541728e-02
5.992000000000000171e+01,4.385764412848406485e-02
5.996000000000000085e+01,5.473594023217272925e-02
