2.003999999999999915e+01,2.197888450221372608e-03
2.007999999999999829e+01,2.449102681314524639e-03
2.012000000000000099e+01,5.610576071617039487e-03
2.016000000000000014e+01,4.462369781000437817e-03
2.019999999999999929e+01,2.194689442972978279e-03
2.023999999999999844e+01,4.460355512763861802e-03
2.028000000000000114e+01,4.095397668919325065e-03
2.032000000000000028e+01,2.610965984683643465e-03
2.035999999999999943e+01,2.581612388135108745e-03
2.039999999999999858e+01,3.895399910929347054e-03
2.044000000000000128e+01,6.272486028695587433e-03
2.048000000000000043e+01,1.989215233225297055e-03
2.051999999999999957e+01,2.295259847294877070e-03
2.055999999999999872e+01,2.265390296469391510e-03
2.060000000000000142e+01,3.074945541940304634e-03
2.064000000000000057e+01,3.772460835231196755e-03
2.067999999999999972e+01,3.686314021242976125e-03
2.071999999999999886e+01,1.529229239446360748e-03
2.076000000000000156e+01,5.136799173413977675e-03
2.080000000000000071e+01,4.770501642620316243e-03
2.083999999999999986e+01,2.445203388388943362e-03
2.087999999999999901e+01,3.869693384624539254e-03
2.092000000000000171e+01,3.894867982190293280e-03
2.096000000000000085e+01,3.304286511549379274e-03
2.100000000000000000e+01,2.993445340515916205e-03
2.103999999999999915e+01,5.368990841141773121e-03
2.107999999999999829e+01,5.449724920316542133e-03
2.112000000000000099e+01,3.403553203073214628e-03
2.116000000000000014e+01,2.308744285569307945e-03
2.119999999999999929e+01,3.396605647671778212e-03
2.123999999999999844e+01,5.435829947526815351e-03
2.128000000000000114e+01,2.549722793216475068e-03
2.132000000000000028e+01,4.308900947253003523e-03
2.135999999999999943e+01,3.325520013480687698e-03
2.139999999999999858e+01,3.629313405540084483e-03
2.144000000000000128e+01,1.750233034558518501e-03
2.148000000000000043e+01,3.061256762387864257e-03
2.151999999999999957e+01,4.931864280287504357e-03
2.155999999999999872e+01,3.947976018060240545e-03
2.160000000000000142e+01,2.963986497161736310e-03
2.164000000000000057e+01,4.778321720372131175e-03
2.167999999999999972e+01,2.730728034316857490e-03
2.171999999999999886e+01,4.041144417138365502e-03
2.176000000000000156e+01,4.511932037182839021e-03
2.180000000000000071e+01,3.919216888754961658e-03
2.183999999999999986e+01,3.550274970397178809e-03
2.187999999999999901e+01,1.949924865553785995e-03
2.192000000000000171e+01,4.155333324023821433e-03
2.196000000000000085e+01,2.107033725545922730e-03
2.200000000000000000e+01,2.857059492236129795e-03
2.203999999999999915e+01,5.677819950319859879e-03
2.207999999999999829e+01,3.125502184965953199e-03
2.212000000000000099e+01,3.651352585177226190e-03
2.216000000000000014e+01,4.177102692809299758e-03
2.219999999999999929e+01,5.430343319649888825e-03
2.223999999999999844e+01,4.780554156958394425e-03
2.228000000000000114e+01,1.668050086986681661e-03
2.232000000000000028e+01,3.144864531850765504e-03
2.235999999999999943e+01,6.636445701485513271e-03
2.239999999999999858e+01,6.601910316025805248e-03
2.244000000000000128e+01,1.809951033617831139e-03
2.248000000000000043e+01,5.077358699951208670e-03
2.251999999999999957e+01,3.195562976621174438e-03
2.255999999999999872e+01,3.720313953822992209e-03
2.260000000000000142e+01,4.188996878842483548e-03
2.264000000000000057e+01,4.097895152606978973e-03
2.267999999999999972e+01,3.726851437500406771e-03
2.271999999999999886e+01,1.564715798291603554e-03
2.276000000000000156e+01,5.950797586632456011e-03
2.280000000000000071e+01,4.460085725574787670e-03
2.283999999999999986e+01,4.088645118559161747e-03
2.287999999999999901e+01,2.989514718301566638e-03
2.292000000000000171e+01,3.737246452880311001e-03
2.296000000000000085e+01,6.499745947328354999e-03
2.300000000000000000e+01,3.945137324165475315e-03
2.303999999999999915e+01,4.244824379017154807e-03
2.307999999999999829e+01,3.928759023010693595e-03
2.312000000000000099e+01,2.885004287801728670e-03
2.316000000000000014e+01,2.904552840011940563e-03
2.319999999999999929e+01,3.203845487191299760e-03
2.323999999999999844e+01,4.006756373048256555e-03
2.328000000000000114e+01,4.361820749106384322e-03
2.332000000000000028e+01,3.877259053643944409e-03
2.335999999999999943e+01,7.534269517784508534e-03
2.339999999999999858e+01,4.754802180870476395e-03
2.344000000000000128e+01,5.333347880116001347e-03
2.348000000000000043e+01,4.904362227840845800e-03
2.351999999999999957e+01,3.411876774376119536e-03
2.355999999999999872e+01,3.598349003826523552e-03
2.360000000000000142e+01,6.247338246655225608e-03
2.364000000000000057e+01,4.978433442865029361e-03
2.367999999999999972e+01,7.347384682651197062e-03
2.371999999999999886e+01,7.477497574095771406e-03
2.376000000000000156e+01,4.865055518126069900e-03
2.380000000000000071e+01,3.819634521760002961e-03
2.383999999999999986e+01,5.628510583540009479e-03
2.387999999999999901e+01,4.806768942276417808e-03
2.392000000000000171e+01,3.481213376643736961e-03
2.396000000000000085e+01,4.114458777369296195e-03
2.400000000000000000e+01,4.971481134520051165e-03
2.403999999999999915e+01,3.981445326110115597e-03
2.407999999999999829e+01,1.256288458497027173e-03
2.412000000000000099e+01,3.680138397770367758e-03
2.416000000000000014e+01,3.473371117046152121e-03
2.419999999999999929e+01,2.762790394998871496e-03
2.423999999999999844e+01,4.066979641031345273e-03
2.428000000000000114e+01,4.083796322297306679e-03
2.432000000000000028e+01,1.637901615618424277e-03
2.435999999999999943e+01,2.046304864171093717e-03
2.439999999999999858e+01,2.454611684512835509e-03
2.444000000000000128e+01,3.366538813729465836e-03
2.448000000000000043e+01,3.382873353940764934e-03
2.451999999999999957e+01,4.406545009119355871e-03
2.455999999999999872e+01,4.590592731981245692e-03
2.460000000000000142e+01,4.606638815638664820e-03
2.464000000000000057e+01,3.671124067641602824e-03
2.467999999999999972e+01,3.742946710638123033e-03
2.471999999999999886e+01,2.807240141317823238e-03
2.476000000000000156e+01,3.438556287759000386e-03
2.480000000000000071e+01,8.795711315531025030e-04
2.483999999999999986e+01,4.532995879185979828e-03
2.487999999999999901e+01,1.414134266954756528e-03
2.492000000000000171e+01,4.507682696575466413e-03
2.496000000000000085e+01,4.522867136926353795e-03
2.500000000000000000e+01,4.761830258866836703e-03
2.503999999999999915e+01,4.944729538026144608e-03
2.507999999999999829e+01,3.112666889769328139e-03
2.512000000000000099e+01,2.567784984955791879e-03
2.516000000000000014e+01,4.653328340803454012e-03
2.519999999999999929e+01,3.940350714798113510e-03
2.523999999999999844e+01,3.171309591044470504e-03
2.528000000000000114e+01,4.584945785567965705e-03
2.532000000000000028e+01,4.935085284197823774e-03
2.535999999999999943e+01,3.718011487861355713e-03
2.539999999999999858e+01,2.724717063180252460e-03
2.544000000000000128e+01,4.585722456908265104e-03
2.548000000000000043e+01,1.185592530108546105e-03
2.551999999999999957e+01,3.997873680259395567e-03
2.555999999999999872e+01,4.403414100344739054e-03
2.560000000000000142e+01,3.353678676854166592e-03
2.564000000000000057e+01,2.751597113760288673e-03
2.567999999999999972e+01,2.261358368016874992e-03
2.571999999999999886e+01,3.673955106245567915e-03
2.576000000000000156e+01,4.638709613083152362e-03
2.580000000000000071e+01,4.372062696079580604e-03
2.583999999999999986e+01,3.881447760399938437e-03
2.587999999999999901e+01,3.614613024454565136e-03
2.592000000000000171e+01,2.060408553012302735e-03
2.596000000000000085e+01,3.192599241038224928e-03
2.600000000000000000e+01,7.346996269591726282e-03
2.603999999999999915e+01,3.777644121988828034e-03
2.607999999999999829e+01,4.293900307760630149e-03
2.612000000000000099e+01,3.131007472340114391e-03
2.616000000000000014e+01,3.479171249235759721e-03
2.619999999999999929e+01,3.379493553812623705e-03
2.623999999999999844e+01,2.440194824348985471e-03
2.628000000000000114e+01,3.403732544949520430e-03
2.632000000000000028e+01,2.967964182767999105e-03
2.635999999999999943e+01,2.755976848399654608e-03
2.639999999999999858e+01,3.663266909658623692e-03
2.644000000000000128e+01,1.492195534891091035e-03
2.648000000000000043e+01,3.574638739590444217e-03
2.651999999999999957e+01,3.418248426408530480e-03
2.655999999999999872e+01,2.590143187265135736e-03
2.660000000000000142e+01,5.455867547853630178e-03
2.664000000000000057e+01,3.899986369237184048e-03
2.667999999999999972e+01,4.190973812075221919e-03
2.671999999999999886e+01,1.459568820608253504e-03
2.676000000000000156e+01,3.317490003707044416e-03
2.680000000000000071e+01,3.776105932102669007e-03
2.683999999999999986e+01,2.443637044073407056e-03
2.687999999999999901e+01,1.838666749022071015e-03
2.692000000000000171e+01,3.248471045491088498e-03
2.696000000000000085e+01,4.266403699441734775e-03
2.700000000000000000e+01,3.605188850344753435e-03
2.703999999999999915e+01,3.559535832901044965e-03
2.707999999999999829e+01,3.066042861283227190e-03
2.712000000000000099e+01,9.493711123129871046e-04
2.716000000000000014e+01,5.157050306913870882e-03
2.719999999999999929e+01,1.864856401250937663e-03
2.723999999999999844e+01,4.505233946443977858e-03
2.728000000000000114e+01,2.668038537861829474e-03
2.732000000000000028e+01,1.054625813250700947e-03
2.735999999999999943e+01,2.463421775390732017e-03
2.739999999999999858e+01,3.536315372760222373e-03
2.744000000000000128e+01,1.251006665890263755e-03
2.748000000000000043e+01,1.875969815440267294e-03
2.751999999999999957e+01,1.437440064458304911e-03
2.755999999999999872e+01,3.405465639830216468e-03
2.760000000000000142e+01,1.567541037585201214e-03
2.764000000000000057e+01,1.968266343680795828e-03
2.767999999999999972e+01,3.320365697587712456e-03
2.771999999999999886e+01,4.504468794803108932e-03
2.776000000000000156e+01,3.057960882612796409e-03
2.780000000000000071e+01,3.402355005385609196e-03
2.783999999999999986e+01,3.354879003784742332e-03
2.787999999999999901e+01,2.187942204035637789e-03
2.792000000000000171e+01,2.811907646269392810e-03
2.796000000000000085e+01,9.171994614812604843e-04
2.800000000000000000e+01,3.667788109138194527e-03
2.803999999999999915e+01,4.123577342488291865e-03
2.807999999999999829e+01,4.243465384179623962e-03
2.812000000000000099e+01,3.075987485735763322e-03
2.816000000000000014e+01,4.594908542121764992e-03
2.819999999999999929e+01,2.531754530691376036e-03
2.823999999999999844e+01,2.147566275945514760e-03
2.828000000000000114e+01,1.595382730600193848e-03
2.832000000000000028e+01,1.938605818495946946e-03
2.835999999999999943e+01,2.113833753805392096e-03
2.839999999999999858e+01,1.673318456131324145e-03
2.844000000000000128e+01,2.072241480042591889e-03
2.848000000000000043e+01,4.429973268055194605e-03
2.851999999999999957e+01,2.589976834873840977e-03
2.855999999999999872e+01,1.925230042350374723e-03
2.860000000000000142e+01,2.435732959491371686e-03
2.864000000000000057e+01,3.114052319144921827e-03
2.867999999999999972e+01,4.687778933098726841e-03
2.871999999999999886e+01,4.750266567314095391e-03
2.876000000000000156e+01,2.406018991990047182e-03
2.880000000000000071e+01,4.315289998514289412e-03
2.883999999999999986e+01,1.243274074440563898e-03
2.887999999999999901e+01,2.816556500956583081e-03
2.892000000000000171e+01,9.197021391255309720e-04
2.896000000000000085e+01,3.164429597818135126e-03
2.900000000000000000e+01,3.674044485116438347e-03
2.903999999999999915e+01,2.000798720623236243e-03
2.907999999999999829e+01,3.181859054137572453e-03
2.912000000000000099e+01,3.187492210032053484e-03
2.916000000000000014e+01,2.241572332015135706e-03
2.919999999999999929e+01,2.526871717436800918e-03
2.923999999999999844e+01,3.763547841926266884e-03
2.928000000000000114e+01,2.089772985882560209e-03
2.932000000000000028e+01,3.382241679236783812e-03
2.935999999999999943e+01,2.771692866229479718e-03
2.939999999999999858e+01,3.840111811097411242e-03
2.944000000000000128e+01,1.718237458081109132e-03
2.948000000000000043e+01,2.674543967839989721e-03
2.951999999999999957e+01,4.134479550308932036e-03
2.955999999999999872e+01,2.851870191317148161e-03
2.960000000000000142e+01,3.360165972584422747e-03
2.964000000000000057e+01,3.420626216098459835e-03
2.967999999999999972e+01,2.305660248084714405e-03
2.971999999999999886e+01,2.198040365893143104e-03
2.976000000000000156e+01,4.049231456013361111e-03
2.980000000000000071e+01,1.087042827719851296e-03
2.983999999999999986e+01,2.882091243524859386e-03
2.987999999999999901e+01,2.494280456676470706e-03
2.992000000000000171e+01,2.610099432603895687e-03
2.996000000000000085e+01,1.494524161374095840e-03
3.000000000000000000e+01,2.841476944574779836e-03
3.003999999999999915e+01,2.005570801148364585e-03
3.007999999999999829e+01,3.128476182086338021e-03
3.012000000000000099e+01,2.964019073217917868e-03
3.016000000000000014e+01,2.799475473085525669e-03
3.019999999999999929e+01,1.851286189239131474e-03
3.023999999999999844e+01,3.365625373862681825e-03
3.028000000000000114e+01,2.473231971196705736e-03
3.032000000000000028e+01,3.259807913557214235e-03
3.035999999999999943e+01,2.423210668097952689e-03
3.039999999999999858e+01,2.314118088195313023e-03
3.044000000000000128e+01,2.820593205504920951e-03
3.048000000000000043e+01,3.159076827576759103e-03
3.051999999999999957e+01,9.229227203721038306e-04
3.055999999999999872e+01,1.988825413822088196e-03
3.060000000000000142e+01,3.838201636537038209e-03
3.064000000000000057e+01,2.609223668915975920e-03
3.067999999999999972e+01,3.115184186056063793e-03
3.071999999999999886e+01,2.893468435243118624e-03
3.076000000000000156e+01,3.847006120449744833e-03
3.080000000000000071e+01,1.610252853995736274e-03
3.083999999999999986e+01,2.563619833891435558e-03
3.087999999999999901e+01,2.733342303184938676e-03
3.092000000000000171e+01,1.671672181479035056e-03
3.096000000000000085e+01,2.288972508904833867e-03
3.100000000000000000e+01,1.115195196589671874e-03
3.103999999999999915e+01,1.284577359366532697e-03
3.107999999999999829e+01,1.230000543328788401e-03
3.112000000000000099e+01,0.000000000000000000e+00
3.116000000000000014e+01,1.792214699047109568e-03
3.119999999999999929e+01,1.905289140737074236e-03
3.123999999999999844e+01,2.969743771823650513e-03
3.128000000000000114e+01,4.369924955883223994e-03
3.132000000000000028e+01,1.236571637156318702e-03
3.135999999999999943e+01,2.188835760672160329e-03
3.139999999999999858e+01,4.596197017690162485e-03
3.144000000000000128e+01,3.477457315099904273e-03
3.148000000000000043e+01,2.862350066541938243e-03
3.151999999999999957e+01,3.814277195856803464e-03
3.155999999999999872e+01,2.695285058145402510e-03
3.160000000000000142e+01,3.758981141750174747e-03
3.164000000000000057e+01,3.647254395149387117e-03
3.167999999999999972e+01,2.751884518077912616e-03
3.171999999999999886e+01,2.807895658481964190e-03
3.176000000000000156e+01,1.184767507620937670e-03
3.180000000000000071e+01,2.863698296618385694e-03
3.183999999999999986e+01,3.479143637794103201e-03
3.187999999999999901e+01,3.254977674856552195e-03
3.192000000000000171e+01,3.254602331646260904e-03
3.196000000000000085e+01,1.798962116905669477e-03
3.200000000000000000e+01,3.197633037652657106e-03
3.203999999999999915e+01,1.965700332697588142e-03
3.207999999999999829e+01,1.013527042171565896e-03
3.211999999999999744e+01,2.915665094152850023e-03
3.215999999999999659e+01,1.907357134074451994e-03
3.220000000000000284e+01,9.549347207429343580e-04
3.224000000000000199e+01,4.144099786474307601e-03
3.228000000000000114e+01,3.639259785709115114e-03
3.232000000000000028e+01,1.735124053148275709e-03
3.235999999999999943e+01,1.677866740975717062e-03
3.239999999999999858e+01,3.243613843496121266e-03
3.243999999999999773e+01,3.298128383889669182e-03
3.247999999999999687e+01,2.065284505864816312e-03
3.252000000000000313e+01,2.903193398956434388e-03
3.256000000000000227e+01,2.173901418265438562e-03
3.260000000000000142e+01,1.668401230413502209e-03
3.264000000000000057e+01,2.450094759241171118e-03
3.267999999999999972e+01,1.776524658656890342e-03
3.271999999999999886e+01,4.684857678459710024e-03
3.275999999999999801e+01,3.171595717063745764e-03
3.279999999999999716e+01,1.882125893539719113e-03
3.284000000000000341e+01,2.943251986562134530e-03
3.288000000000000256e+01,2.381209239179069796e-03
3.292000000000000171e+01,2.826518098144287922e-03
3.296000000000000085e+01,2.432217516173782942e-03
3.300000000000000000e+01,2.149772379757163097e-03
3.303999999999999915e+01,2.594836463331182119e-03
3.307999999999999829e+01,2.592070943717513561e-03
3.311999999999999744e+01,1.245979591115190790e-03
3.315999999999999659e+01,2.082579151085500648e-03
3.320000000000000284e+01,1.967632646808610553e-03
3.324000000000000199e+01,2.356321632853356288e-03
3.328000000000000114e+01,3.024772103524427103e-03
3.332000000000000028e+01,7.827785633265117726e-04
3.335999999999999943e+01,2.458500359673733687e-03
3.339999999999999858e+01,4.246078291640598308e-03
3.343999999999999773e+01,3.347086494460096984e-03
3.347999999999999687e+01,1.944297265482194600e-03
3.352000000000000313e+01,1.324986603249323543e-03
3.356000000000000227e+01,3.112241618356735573e-03
3.360000000000000142e+01,2.996486441799684538e-03
3.364000000000000057e+01,2.097091516094181859e-03
3.367999999999999972e+01,2.596829138590203267e-03
3.371999999999999886e+01,2.984549374056586022e-03
3.375999999999999801e+01,3.260252291499905752e-03
3.379999999999999716e+01,2.752315735821077216e-03
3.384000000000000341e+01,3.083826817615357378e-03
3.388000000000000256e+01,4.870439311319512549e-03
3.392000000000000171e+01,3.074986605147668993e-03
3.396000000000000085e+01,2.846572486249788602e-03
3.400000000000000000e+01,3.737448874228685523e-03
3.403999999999999915e+01,1.885788049483375084e-03
3.407999999999999829e+01,1.936977131084598788e-03
3.411999999999999744e+01,7.567791422125050771e-04
3.415999999999999659e+01,1.535399716375568683e-03
3.420000000000000284e+01,3.601216698474703822e-03
3.424000000000000199e+01,1.077535696591947010e-03
3.428000000000000114e+01,2.303666062379172361e-03
3.432000000000000028e+01,2.018567109348605882e-03
3.435999999999999943e+01,1.677420392069084660e-03
3.439999999999999858e+01,2.847344502460406965e-03
3.443999999999999773e+01,2.114259870325362403e-03
3.447999999999999687e+01,1.269159162285624348e-03
3.452000000000000313e+01,2.606751713042112367e-03
3.456000000000000227e+01,3.664422769880648894e-03
3.460000000000000142e+01,4.498140920483275837e-03
3.464000000000000057e+01,1.973669188030154325e-03
3.467999999999999972e+01,3.478852106690130848e-03
3.471999999999999886e+01,2.689247135141467973e-03
3.475999999999999801e+01,3.466682130998308131e-03
3.479999999999999716e+01,4.467912715055892200e-03
3.484000000000000341e+01,2.614670429169851495e-03
3.488000000000000256e+01,2.608310911086388160e-03
3.492000000000000171e+01,2.545904594846048162e-03
3.496000000000000085e+01,2.259545993428980094e-03
3.500000000000000000e+01,2.980542586702151792e-03
3.503999999999999915e+01,3.533555551487218161e-03
3.507999999999999829e+01,2.351466433877557119e-03
3.511999999999999744e+01,2.960291979434462230e-03
3.515999999999999659e+01,2.673543360741861743e-03
3.520000000000000284e+01,3.282213244421436187e-03
3.524000000000000199e+01,3.387088732592959291e-03
3.528000000000000114e+01,4.667225454527161241e-03
3.532000000000000028e+01,4.492103101483450010e-03
3.535999999999999943e+01,3.533343966574061662e-03
3.539999999999999858e+01,2.462570342911230958e-03
3.543999999999999773e+01,4.078208233275120408e-03
3.547999999999999687e+01,3.175185469853438348e-03
3.552000000000000313e+01,4.007109540988609830e-03
3.556000000000000227e+01,3.663617544562681495e-03
3.560000000000000142e+01,2.368583624284115348e-03
3.564000000000000057e+01,2.976402301608549288e-03
3.567999999999999972e+01,4.199797716006706955e-03
3.571999999999999886e+01,2.904532890658747743e-03
3.575999999999999801e+01,1.497254197616533760e-03
3.579999999999999716e+01,3.000261714362108690e-03
3.584000000000000341e+01,3.327853646592619698e-03
3.588000000000000256e+01,2.647935619341054703e-03
3.592000000000000171e+01,3.031342892606445592e-03
3.596000000000000085e+01,3.190799605859516875e-03
3.600000000000000000e+01,5.141172500423832857e-03
3.603999999999999915e+01,5.468382006102182058e-03
3.607999999999999829e+01,3.500805967795486175e-03
3.611999999999999744e+01,5.227075952785799340e-03
3.615999999999999659e+01,5.050340162532524282e-03
3.620000000000000284e+01,3.474315334121475668e-03
3.624000000000000199e+01,4.360829325166787687e-03
3.628000000000000114e+01,3.400306266663707250e-03
3.632000000000000028e+01,4.846353646954668949e-03
3.635999999999999943e+01,4.221490041008500033e-03
3.639999999999999858e+01,2.589117372665748242e-03
3.643999999999999773e+01,4.370748686295253087e-03
3.647999999999999687e+01,5.648587743620569687e-03
3.652000000000000313e+01,3.456303123848269293e-03
3.656000000000000227e+01,4.901896767769846168e-03
3.660000000000000142e+01,3.213177984659790556e-03
3.664000000000000057e+01,6.001865383388837495e-03
3.667999999999999972e+01,5.768177530450347042e-03
3.671999999999999886e+01,5.926194134054671957e-03
3.675999999999999801e+01,3.509583773408386093e-03
3.679999999999999716e+01,5.850222464004867923e-03
3.684000000000000341e+01,4.496863954854453567e-03
3.688000000000000256e+01,5.438139813239204964e-03
3.692000000000000171e+01,6.771120473199650734e-03
3.696000000000000085e+01,6.648844887451803125e-03
3.700000000000000000e+01,6.190683498511673558e-03
3.703999999999999915e+01,6.683912304921683575e-03
3.707999999999999829e+01,6.673349890126148432e-03
3.711999999999999744e+01,7.558209290018435243e-03
3.715999999999999659e+01,8.666868349499463539e-03
3.720000000000000284e+01,8.768019726715427578e-03
3.724000000000000199e+01,8.981033864182334445e-03
3.728000000000000114e+01,9.697690461635067108e-03
3.732000000000000028e+01,9.966524770597185931e-03
3.735999999999999943e+01,9.339788710671488581e-03
3.739999999999999858e+01,1.061590828463814147e-02
3.743999999999999773e+01,1.267551318799428270e-02
3.747999999999999687e+01,1.266420903729742649e-02
3.752000000000000313e+01,1.321251627930132566e-02
3.756000000000000227e+01,1.482415165109180269e-02
3.760000000000000142e+01,1.677152447889429174e-02
3.764000000000000057e+01,1.815913853290783767e-02
3.767999999999999972e+01,2.100186055445599220e-02
3.771999999999999886e+01,2.278110727214909328e-02
3.775999999999999801e+01,2.444834357247674395e-02
3.779999999999999716e+01,3.031314546245685373e-02
3.784000000000000341e+01,3.517044077427710497e-02
3.788000000000000256e+01,4.523273514992146027e-02
3.792000000000000171e+01,5.977243791561534514e-02
3.796000000000000085e+01,8.293121952235026073e-02
3.800000000000000000e+01,1.202499633880044771e-01
3.803999999999999915e+01,1.788366714533694835e-01
3.807999999999999829e+01,3.110778772676934256e-01
3.811999999999999744e+01,5.182048883108433257e-01
3.815999999999999659e+01,7.804048490407085037e-01
3.820000000000000284e+01,9.700135684275448256e-01
3.824000000000000199e+01,1.000000000000000000e+00
3.828000000000000114e+01,8.766885864374088788e-01
3.832000000000000028e+01,6.746293946845068890e-01
3.835999999999999943e+01,4.708910750264247436e-01
3.839999999999999858e+01,2.860140738860673659e-01
3.843999999999999773e+01,1.780377451989053617e-01
3.847999999999999687e+01,1.117578907870737381e-01
3.852000000000000313e+01,7.570096439110728104e-02
3.856000000000000227e+01,5.833745123286539908e-02
3.860000000000000142e+01,5.004076616917352283e-02
3.864000000000000057e+01,3.978511108997031392e-02
3.867999999999999972e+01,3.294346385710761327e-02
3.871999999999999886e+01,2.934791898356560111e-02
3.875999999999999801e+01,2.720748394073575424e-02
3.879999999999999716e+01,2.439535508795672228e-02
3.884000000000000341e+01,2.130331212496337084e-02
3.888000000000000256e+01,1.966637919970191245e-02
3.892000000000000171e+01,1.814131193296759925e-02
3.896000000000000085e+01,1.678407891244248357e-02
3.900000000000000000e+01,1.514693205772935786e-02
3.903999999999999915e+01,1.563651774088008900e-02
3.907999999999999829e+01,1.181645638322199703e-02
3.911999999999999744e+01,1.169024622435412518e-02
3.915999999999999659e+01,1.245946139950946004e-02
3.920000000000000284e+01,1.121373900657004694e-02
3.924000000000000199e+01,9.240355044078310889e-03
3.928000000000000114e+01,1.000935773892007788e-02
3.932000000000000028e+01,1.010666752089814033e-02
3.935999999999999943e+01,8.916630753588894454e-03
3.939999999999999858e+01,7.726523435534762667e-03
3.943999999999999773e+01,8.159432677331001499e-03
3.947999999999999687e+01,7.920649282289846105e-03
3.952000000000000313e+01,6.898236282066930007e-03
3.956000000000000227e+01,7.834651160766946398e-03
3.960000000000000142e+01,7.035971754815327668e-03
3.964000000000000057e+01,7.244655548316776550e-03
3.967999999999999972e+01,7.733111867496729810e-03
3.971999999999999886e+01,6.934222258448555394e-03
3.975999999999999801e+01,7.142696055873176339e-03
3.979999999999999716e+01,6.847383324539422535e-03
3.984000000000000341e+01,7.335560062989725065e-03
3.988000000000000256e+01,5.472989294404248528e-03
3.992000000000000171e+01,5.457309988449937817e-03
3.996000000000000085e+01,5.049781467114504777e-03
4.000000000000000000e+01,5.705585284966794082e-03
4.003999999999999915e+01,5.297917801345451011e-03
4.007999999999999829e+01,6.009551313600453026e-03
4.011999999999999744e+01,5.209965512991201163e-03
4.015999999999999659e+01,4.578216028788426907e-03
4.020000000000000284e+01,4.002365892647760312e-03
4.024000000000000199e+01,6.280841107349366924e-03
4.028000000000000114e+01,4.697419500843206738e-03
4.032000000000000028e+01,4.065393748226436149e-03
4.035999999999999943e+01,3.825078731750910285e-03
4.039999999999999858e+01,4.144380076449619664e-03
4.043999999999999773e+01,3.736021921793288361e-03
4.047999999999999687e+01,5.062619158509251704e-03
4.052000000000000313e+01,4.374281104347475801e-03
4.056000000000000227e+01,4.805244874140958584e-03
4.060000000000000142e+01,3.780958677824574309e-03
4.064000000000000057e+01,4.883407779635090193e-03
4.067999999999999972e+01,3.914953347918703058e-03
4.071999999999999886e+01,3.841926941481988572e-03
4.075999999999999801e+01,3.992706405225862794e-03
4.079999999999999716e+01,4.423260326832380643e-03
4.084000000000000341e+01,4.070186920474143898e-03
4.088000000000000256e+01,4.892384408799246680e-03
4.092000000000000171e+01,2.468339885451993794e-03
4.096000000000000085e+01,4.073960847250291360e-03
4.100000000000000000e+01,3.160930678170517302e-03
4.103999999999999915e+01,3.982856866555104479e-03
4.107999999999999829e+01,3.965187622338928880e-03
4.111999999999999744e+01,4.451167462739883535e-03
4.115999999999999659e+01,3.034150153719265830e-03
4.120000000000000284e+01,4.247585776996857382e-03
4.124000000000000199e+01,3.334150314164141017e-03
4.128000000000000114e+01,4.547451253563542656e-03
4.132000000000000028e+01,4.305503468971449803e-03
4.135999999999999943e+01,2.888149622771790312e-03
4.139999999999999858e+01,5.108682390061714505e-03
4.143999999999999773e+01,3.635225893361002103e-03
4.147999999999999687e+01,2.777356139687553981e-03
4.152000000000000313e+01,3.206695422153601430e-03
4.156000000000000227e+01,2.964345656124213729e-03
4.160000000000000142e+01,1.658527279877666316e-03
4.164000000000000057e+01,4.102532968511104529e-03
4.167999999999999972e+01,3.468203512623546474e-03
4.171999999999999886e+01,3.561398251153651169e-03
4.175999999999999801e+01,3.990337622379694707e-03
4.179999999999999716e+01,3.411777247096925772e-03
4.184000000000000341e+01,4.288332016032680126e-03
4.188000000000000256e+01,2.142520504155792822e-03
4.192000000000000171e+01,2.291352054642662762e-03
4.196000000000000085e+01,3.615456362990420672e-03
4.200000000000000000e+01,3.932061269862252052e-03
4.203999999999999915e+01,3.744883512343978073e-03
4.207999999999999829e+01,3.277797234144055969e-03
4.211999999999999744e+01,6.000850662148315626e-03
4.215999999999999659e+01,4.750073474902952522e-03
4.220000000000000284e+01,4.898443534259821867e-03
4.224000000000000199e+01,4.095283124855689932e-03
4.228000000000000114e+01,3.348025651855626034e-03
4.232000000000000028e+01,2.656671184266204931e-03
4.235999999999999943e+01,4.875614243543064524e-03
4.239999999999999858e+01,1.889419690749372235e-03
4.243999999999999773e+01,4.332106143231343083e-03
4.247999999999999687e+01,3.136773644569124022e-03
4.252000000000000313e+01,4.180116724693826863e-03
4.256000000000000227e+01,4.159992850759195240e-03
4.260000000000000142e+01,6.210639137598223183e-03
4.264000000000000057e+01,6.134416753557104043e-03
4.267999999999999972e+01,5.050696141151850976e-03
4.271999999999999886e+01,4.078847742898470199e-03
4.275999999999999801e+01,3.834525333233733662e-03
4.279999999999999716e+01,4.765477130567993651e-03
4.284000000000000341e+01,4.409088382187058286e-03
4.288000000000000256e+01,5.004099904116381288e-03
4.292000000000000171e+01,5.431141391853105092e-03
4.296000000000000085e+01,4.626811059569835814e-03
4.300000000000000000e+01,3.822416387133534352e-03
4.303999999999999915e+01,5.928320414675300985e-03
4.307999999999999829e+01,5.963325049084733896e-03
4.311999999999999744e+01,3.927430359368407412e-03
4.315999999999999659e+01,5.081677170027242875e-03
4.320000000000000284e+01,5.452300724109318715e-03
4.324000000000000199e+01,5.095269609296680310e-03
4.328000000000000114e+01,4.570269081350625089e-03
4.332000000000000028e+01,5.724260325568300729e-03
4.335999999999999943e+01,6.878187850692122664e-03
4.339999999999999858e+01,6.576870240166409615e-03
4.343999999999999773e+01,5.883709417831695446e-03
4.347999999999999687e+01,6.925509162362483533e-03
4.352000000000000313e+01,7.687402870448370798e-03
4.356000000000000227e+01,7.609705424341212804e-03
4.360000000000000142e+01,9.099063196092872091e-03
4.364000000000000057e+01,8.181711428751427956e-03
4.367999999999999972e+01,1.006272242814232679e-02
4.371999999999999886e+01,1.015267773188347107e-02
4.375999999999999801e+01,1.080225519335124146e-02
4.379999999999999716e+01,1.128386413877108599e-02
4.384000000000000341e+01,1.221315834257977011e-02
4.388000000000000256e+01,1.258270453762537662e-02
4.392000000000000171e+01,1.485511761463523955e-02
4.396000000000000085e+01,1.589616059678950963e-02
4.400000000000000000e+01,1.839232244951742243e-02
4.403999999999999915e+01,2.200779212977271165e-02
4.407999999999999829e+01,2.506351414629780228e-02
4.411999999999999744e+01,2.884676449763512798e-02
4.415999999999999659e+01,3.537240992510824050e-02
4.420000000000000284e+01,4.687919124474258098e-02
4.424000000000000199e+01,5.558748442965417286e-02
4.428000000000000114e+01,7.744831737135901562e-02
4.432000000000000028e+01,9.981280491820707090e-02
4.435999999999999943e+01,1.317478471646313376e-01
4.439999999999999858e+01,1.748765312212271217e-01
4.443999999999999773e+01,2.059719219066802054e-01
4.447999999999999687e+01,2.197170100158272743e-01
4.452000000000000313e+01,2.182945678460183891e-01
4.456000000000000227e+01,1.947085306318261377e-01
4.460000000000000142e+01,1.612160040321853616e-01
4.464000000000000057e+01,1.288987548138461059e-01
4.467999999999999972e+01,9.965971268078091527e-02
4.471999999999999886e+01,7.657714622914739422e-02
4.475999999999999801e+01,5.590116477669547501e-02
4.479999999999999716e+01,4.334055729732983614e-02
4.484000000000000341e+01,3.402606273529103914e-02
4.488000000000000256e+01,2.678234226740073415e-02
4.492000000000000171e+01,2.278473485485041014e-02
4.496000000000000085e+01,2.029821648770701453e-02
4.500000000000000000e+01,1.870713352954693834e-02
4.503999999999999915e+01,1.594065085838431220e-02
4.507999999999999829e+01,1.317410743541060081e-02
4.511999999999999744e+01,1.113509407241352125e-02
4.515999999999999659e+01,9.207957132969466288e-03
4.520000000000000284e+01,9.463531877077461726e-03
4.524000000000000199e+01,9.215329477321438853e-03
4.528000000000000114e+01,9.638688894892883177e-03
4.532000000000000028e+01,1.067764168012289884e-02
4.535999999999999943e+01,7.686800851953900365e-03
4.539999999999999858e+01,8.054010944554742049e-03
4.543999999999999773e+01,6.630168308788595040e-03
4.547999999999999687e+01,6.437573022137512563e-03
4.552000000000000313e+01,5.741201074668448104e-03
4.556000000000000227e+01,5.324611796844575494e-03
4.560000000000000142e+01,5.859427481778139470e-03
4.564000000000000057e+01,5.218844488807780103e-03
4.567999999999999972e+01,4.690138816475938020e-03
4.571999999999999886e+01,4.944932757894837140e-03
4.575999999999999801e+01,4.416107859157855815e-03
4.579999999999999716e+01,5.734184567018732123e-03
4.584000000000000341e+01,4.533618493797250161e-03
4.588000000000000256e+01,3.500898604922632069e-03
4.592000000000000171e+01,2.524087932050507032e-03
4.596000000000000085e+01,3.674021735179904338e-03
4.600000000000000000e+01,3.704526000140044312e-03
4.603999999999999915e+01,3.679002650771458216e-03
4.607999999999999829e+01,4.716822129590172649e-03
4.611999999999999744e+01,2.732282642293304420e-03
4.615999999999999659e+01,3.434173162785563675e-03
4.620000000000000284e+01,2.680823378088613949e-03
4.624000000000000199e+01,2.822911141578843264e-03
4.628000000000000114e+01,3.636562447560943469e-03
4.632000000000000028e+01,3.050942174049033062e-03
4.635999999999999943e+01,3.640602249121385140e-03
4.639999999999999858e+01,4.062298293573260964e-03
4.643999999999999773e+01,1.573572961313118596e-03
4.647999999999999687e+01,3.338396711807914245e-03
4.652000000000000313e+01,1.801019592875543855e-03
4.656000000000000227e+01,3.845569470605604469e-03
4.660000000000000142e+01,3.315509359702786124e-03
4.664000000000000057e+01,2.953296744271765098e-03
4.667999999999999972e+01,3.654427992126686817e-03
4.671999999999999886e+01,3.068225387904299339e-03
4.675999999999999801e+01,2.929713079550804334e-03
4.679999999999999716e+01,1.951615206536931948e-03
4.684000000000000341e+01,3.044294808993785496e-03
4.688000000000000256e+01,2.513829723346811245e-03
4.692000000000000171e+01,2.487023728270509968e-03
4.696000000000000085e+01,2.907908374095982771e-03
4.700000000000000000e+01,3.832452248505277201e-03
4.703999999999999915e+01,3.413694304214402904e-03
4.707999999999999829e+01,3.218753133143148829e-03
4.711999999999999744e+01,3.135691766947143726e-03
4.715999999999999659e+01,2.884667681255601458e-03
4.720000000000000284e+01,2.969397613154353601e-03
4.724000000000000199e+01,3.501818669000909649e-03
4.728000000000000114e+01,3.138686469590532165e-03
4.732000000000000028e+01,3.279214050816584795e-03
4.735999999999999943e+01,3.699527406983759391e-03
4.739999999999999858e+01,2.776539565509953279e-03
4.743999999999999773e+01,2.077369118314951937e-03
4.747999999999999687e+01,1.713953171756265508e-03
4.752000000000000313e+01,1.742260313515950863e-03
4.756000000000000227e+01,2.386164687302470659e-03
4.760000000000000142e+01,3.421792287420510892e-03
4.764000000000000057e+01,2.554433917182306283e-03
4.767999999999999972e+01,2.806389654069910058e-03
4.771999999999999886e+01,1.826981782720085018e-03
4.775999999999999801e+01,2.134793712535631473e-03
4.779999999999999716e+01,2.666423657689165078e-03
4.784000000000000341e+01,2.022658720300471707e-03
4.788000000000000256e+01,2.386271197719518414e-03
4.792000000000000171e+01,2.805796341469866863e-03
4.796000000000000085e+01,3.113328664531676924e-03
4.800000000000000000e+01,2.077560825051147624e-03
4.803999999999999915e+01,1.601422527000893577e-03
4.807999999999999829e+01,1.852819395413899230e-03
4.811999999999999744e+01,1.152695939032598663e-03
4.815999999999999659e+01,2.355446679312620233e-03
4.820000000000000284e+01,1.991023527381297238e-03
4.824000000000000199e+01,3.081726560720676831e-03
4.828000000000000114e+01,2.493318802510916237e-03
4.832000000000000028e+01,4.199565147717090018e-03
4.835999999999999943e+01,2.267802685745762010e-03
4.839999999999999858e+01,1.735198166395974118e-03
4.843999999999999773e+01,2.825625733376185313e-03
4.847999999999999687e+01,2.908565077945797495e-03
4.852000000000000313e+01,1.984016269111385858e-03
4.856000000000000227e+01,2.346688641573876043e-03
4.860000000000000142e+01,2.093652629373796668e-03
4.864000000000000057e+01,2.064436081649803460e-03
4.867999999999999972e+01,2.650818698136772015e-03
4.871999999999999886e+01,2.789398693007322325e-03
4.875999999999999801e+01,2.424207616592556364e-03
4.879999999999999716e+01,1.891056649951870219e-03
4.884000000000000341e+01,3.148844015733362565e-03
4.888000000000000256e+01,2.055899400958699323e-03
4.892000000000000171e+01,2.865830293970305764e-03
4.896000000000000085e+01,2.556336755299284686e-03
4.900000000000000000e+01,2.414694783488065440e-03
4.903999999999999915e+01,3.392369265026238916e-03
4.907999999999999829e+01,2.467060260444906179e-03
4.911999999999999744e+01,2.940910440603485259e-03
4.915999999999999659e+01,3.582612463648163475e-03
4.920000000000000284e+01,2.097457132891179018e-03
4.924000000000000199e+01,3.466642679456103174e-03
4.928000000000000114e+01,2.988813603609865970e-03
4.932000000000000028e+01,3.182553314755289398e-03
4.935999999999999943e+01,2.704617433687616073e-03
4.939999999999999858e+01,3.178093071002111199e-03
4.943999999999999773e+01,2.532145104712892839e-03
4.947999999999999687e+01,1.886143977335966995e-03
4.952000000000000313e+01,1.911711981983580354e-03
4.956000000000000227e+01,3.168534374417023187e-03
4.960000000000000142e+01,1.570909360333427483e-03
4.964000000000000057e+01,2.659720357611082640e-03
4.967999999999999972e+01,3.636541501482968512e-03
4.971999999999999886e+01,2.318600632612269948e-03
4.975999999999999801e+01,2.567725608613110298e-03
4.979999999999999716e+01,3.432451681009045154e-03
4.984000000000000341e+01,2.282258541059479021e-03
4.988000000000000256e+01,1.859603672869101837e-03
4.992000000000000171e+01,1.660770477365249975e-03
4.996000000000000085e+01,3.084971990441290769e-03
5.000000000000000000e+01,2.102474936469827475e-03
5.003999999999999915e+01,2.743012729091414813e-03
5.007999999999999829e+01,2.208159503539028519e-03
5.011999999999999744e+01,2.288907926434352157e-03
5.015999999999999659e+01,2.985258066783954851e-03
5.020000000000000284e+01,2.170406283926484044e-03
5.024000000000000199e+01,3.594243398125134860e-03
5.028000000000000114e+01,2.891225021699670578e-03
5.032000000000000028e+01,2.300091970675551857e-03
5.035999999999999943e+01,2.492466538165009123e-03
5.039999999999999858e+01,2.796726569068953665e-03
5.043999999999999773e+01,1.869627684182647177e-03
5.047999999999999687e+01,1.614099587478702103e-03
5.052000000000000313e+01,2.925638646771244571e-03
5.056000000000000227e+01,3.509535665372504748e-03
5.060000000000000142e+01,3.477727749640003620e-03
5.064000000000000057e+01,3.333931636659566260e-03
5.067999999999999972e+01,3.022178876762290304e-03
5.071999999999999886e+01,2.542469538954764390e-03
5.075999999999999801e+01,1.726898136217133858e-03
5.079999999999999716e+01,3.150016596627682863e-03
5.084000000000000341e+01,2.614186088532612345e-03
5.088000000000000256e+01,2.302178909281884806e-03
5.092000000000000171e+01,2.381900683908497272e-03
5.096000000000000085e+01,1.342201477181294809e-03
5.100000000000000000e+01,1.981507291880430822e-03
5.103999999999999915e+01,2.844636711450216661e-03
5.107999999999999829e+01,2.028660169931201327e-03
5.111999999999999744e+01,2.723783300831831688e-03
5.115999999999999659e+01,2.971108019517190463e-03
5.120000000000000284e+01,1.371421428107048781e-03
5.124000000000000199e+01,1.786551384215536711e-03
5.128000000000000114e+01,3.209064620690740745e-03
5.132000000000000028e+01,1.833101936607153121e-03
5.135999999999999943e+01,3.591326380571362772e-03
5.139999999999999858e+01,2.327200967288042821e-03
5.143999999999999773e+01,3.469672077284538612e-03
5.147999999999999687e+01,3.660628659039124027e-03
5.152000000000000313e+01,2.732165225531946792e-03
5.156000000000000227e+01,2.195431850007329138e-03
5.160000000000000142e+01,2.778019344252979916e-03
5.164000000000000057e+01,2.073281474230188274e-03
5.167999999999999972e+01,3.215455354771945204e-03
5.171999999999999886e+01,2.286744747601816233e-03
5.175999999999999801e+01,9.102367633150391371e-04
5.179999999999999716e+01,2.220168516744626050e-03
5.184000000000000341e+01,2.634554881666954177e-03
5.188000000000000256e+01,3.328734819273501330e-03
5.192000000000000171e+01,3.239306543736883166e-03
5.196000000000000085e+01,2.869986792142924757e-03
5.200000000000000000e+01,1.996901558796319691e-03
5.203999999999999915e+01,2.634917585020614492e-03
5.207999999999999829e+01,2.209483080750692524e-03
5.211999999999999744e+01,2.007874044528982702e-03
5.215999999999999659e+01,3.261397956222432479e-03
5.220000000000000284e+01,2.555975245633844255e-03
5.224000000000000199e+01,2.634063396867915123e-03
5.228000000000000114e+01,1.872575437342532002e-03
5.232000000000000028e+01,3.461717000566163441e-03
5.235999999999999943e+01,3.931439997666138185e-03
5.239999999999999858e+01,3.225775978973565144e-03
5.243999999999999773e+01,2.576032424355391773e-03
5.247999999999999687e+01,2.709800145599326488e-03
5.252000000000000313e+01,1.780118095421384357e-03
5.256000000000000227e+01,2.753317832628139530e-03
5.260000000000000142e+01,3.446627197882768182e-03
5.264000000000000057e+01,3.412298110788080339e-03
5.267999999999999972e+01,2.762267677701588531e-03
5.271999999999999886e+01,2.559937822463830091e-03
5.275999999999999801e+01,3.085151207458744580e-03
5.279999999999999716e+01,2.267072710700461340e-03
5.284000000000000341e+01,2.176537592187995779e-03
5.288000000000000256e+01,1.470301472716606340e-03
5.292000000000000171e+01,2.890821836390994239e-03
5.296000000000000085e+01,3.583704299768663941e-03
5.300000000000000000e+01,3.381043375829782035e-03
5.303999999999999915e+01,3.290272469739421307e-03
5.307999999999999829e+01,2.527832389047543569e-03
5.311999999999999744e+01,2.604873206998464981e-03
5.315999999999999659e+01,2.066213507036503833e-03
5.320000000000000284e+01,2.478971881081433893e-03
5.324000000000000199e+01,2.779746543305872553e-03
5.328000000000000114e+01,2.632726450663569993e-03
5.332000000000000028e+01,2.485659821564875464e-03
5.335999999999999943e+01,2.114672650314469108e-03
5.339999999999999858e+01,2.527198342077424578e-03
5.343999999999999773e+01,1.708370293543339880e-03
5.347999999999999687e+01,3.352110806299918918e-03
5.352000000000000313e+01,3.148844011342413589e-03
5.356000000000000227e+01,3.001499612643448479e-03
5.360000000000000142e+01,3.525731384639776457e-03
5.364000000000000057e+01,3.042483836073828565e-03
5.367999999999999972e+01,3.006938521514443408e-03
5.371999999999999886e+01,2.579567729836128222e-03
5.375999999999999801e+01,3.271521534283188329e-03
5.379999999999999716e+01,1.780657402009364976e-03
5.384000000000000341e+01,2.416551340032568364e-03
5.388000000000000256e+01,4.115801562525400921e-03
5.392000000000000171e+01,2.344958125781232069e-03
5.396000000000000085e+01,2.476998891651933064e-03
5.400000000000000000e+01,2.832868368879911964e-03
5.403999999999999915e+01,2.684975883690623316e-03
5.407999999999999829e+01,2.257195579792525223e-03
5.411999999999999744e+01,2.500992343675220719e-03
5.415999999999999659e+01,2.520869945537730378e-03
5.420000000000000284e+01,1.645206230280971127e-03
5.424000000000000199e+01,3.232112387439831612e-03
5.428000000000000114e+01,2.692169954632190471e-03
5.432000000000000028e+01,2.543962341260857987e-03
5.435999999999999943e+01,2.339741466928646138e-03
5.439999999999999858e+01,2.415318512694945591e-03
5.443999999999999773e+01,3.330378734321061147e-03
5.447999999999999687e+01,3.237961084522994644e-03
5.452000000000000313e+01,2.977593412439407880e-03
5.456000000000000227e+01,3.108960973831583971e-03
5.460000000000000142e+01,4.023843468434405886e-03
5.464000000000000057e+01,3.483500218235586338e-03
5.467999999999999972e+01,1.935679441645460483e-03
5.471999999999999886e+01,3.186240477602695145e-03
5.475999999999999801e+01,2.981575975778011540e-03
5.479999999999999716e+01,3.168647121468547590e-03
5.484000000000000341e+01,2.851957684873336011e-03
5.488000000000000256e+01,2.759098477780089990e-03
5.492000000000000171e+01,3.002006606546319453e-03
5.496000000000000085e+01,2.181469173291812873e-03
5.500000000000000000e+01,3.655597367551449792e-03
5.503999999999999915e+01,2.387224577539356039e-03
5.507999999999999829e+01,2.350115698220587961e-03
5.511999999999999744e+01,3.712176354628144315e-03
5.515999999999999659e+01,3.395138088617660321e-03
5.520000000000000284e+01,3.022088010784385569e-03
5.524000000000000199e+01,3.488522488942442934e-03
5.528000000000000114e+01,2.667637882430491138e-03
5.532000000000000028e+01,2.070584264492832029e-03
5.535999999999999943e+01,3.376417264400202300e-03
5.539999999999999858e+01,2.835246199902563286e-03
5.543999999999999773e+01,3.133560036429149272e-03
5.547999999999999687e+01,4.327327361661993492e-03
5.552000000000000313e+01,3.450216754807673702e-03
5.556000000000000227e+01,2.852906069242585729e-03
5.560000000000000142e+01,3.542828710131789346e-03
5.564000000000000057e+01,2.721558812708275033e-03
5.567999999999999972e+01,2.739774230348439917e-03
5.571999999999999886e+01,2.701978733251298500e-03
5.575999999999999801e+01,2.104455722344188671e-03
5.579999999999999716e+01,3.074008976301609037e-03
5.584000000000000341e+01,4.379331153269773805e-03
5.588000000000000256e+01,4.957020467421268707e-03
5.592000000000000171e+01,2.344462166041932222e-03
5.596000000000000085e+01,3.145941521844003962e-03
5.600000000000000000e+01,4.003347483305750437e-03
5.603999999999999915e+01,2.901813447116770306e-03
5.607999999999999829e+01,2.807670972083637067e-03
5.611999999999999744e+01,2.433644197677079998e-03
5.615999999999999659e+01,3.402820234492349993e-03
5.620000000000000284e+01,3.196615811139809707e-03
5.624000000000000199e+01,2.990369888810924266e-03
5.628000000000000114e+01,4.351201059425481750e-03
5.632000000000000028e+01,2.577753823250441678e-03
5.635999999999999943e+01,2.427352336707474644e-03
5.639999999999999858e+01,2.836594813969188500e-03
5.643999999999999773e+01,2.742079469208194564e-03
5.647999999999999687e+01,3.431082300966933462e-03
5.652000000000000313e+01,3.056642261961397492e-03
5.656000000000000227e+01,3.185877944111376904e-03
5.660000000000000142e+01,3.315072748344210889e-03
5.664000000000000057e+01,2.940510075587220423e-03
5.667999999999999972e+01,3.181560368356419529e-03
5.671999999999999886e+01,3.030790359499887978e-03
5.675999999999999801e+01,3.327727898156282796e-03
5.679999999999999716e+01,4.799963796113315868e-03
5.684000000000000341e+01,3.025985147015284194e-03
5.688000000000000256e+01,2.371336476555574446e-03
5.692000000000000171e+01,3.563608596521885066e-03
5.696000000000000085e+01,2.685005268637774643e-03
5.700000000000000000e+01,3.933165462570200645e-03
5.703999999999999915e+01,4.229820720174790050e-03
5.707999999999999829e+01,4.582404446616608271e-03
5.711999999999999744e+01,2.976050038585256133e-03
5.715999999999999659e+01,3.776302021774107735e-03
5.720000000000000284e+01,4.128766012740664286e-03
5.724000000000000199e+01,2.130512445525474790e-03
5.728000000000000114e+01,3.546298812708712205e-03
5.732000000000000028e+01,3.562832577206363587e-03
5.735999999999999943e+01,4.362886036368412469e-03
5.739999999999999858e+01,4.267403698937290331e-03
5.743999999999999773e+01,3.948007858025221091e-03
5.747999999999999687e+01,3.460667101314261838e-03
5.752000000000000313e+01,4.204594464697776653e-03
5.756000000000000227e+01,4.220891863540834378e-03
5.760000000000000142e+01,2.781968624068873516e-03
5.764000000000000057e+01,3.637715566545085284e-03
5.767999999999999972e+01,3.597927195474155855e-03
5.771999999999999886e+01,3.949879509398496365e-03
5.775999999999999801e+01,3.406296647788850836e-03
5.779999999999999716e+01,3.982045351968772733e-03
5.784000000000000341e+01,3.438384943925960023e-03
5.788000000000000256e+01,3.734213646308507696e-03
5.792000000000000171e+01,3.806129673289034444e-03
5.796000000000000085e+01,4.717534948708066757e-03
5.800000000000000000e+01,4.565499906606144964e-03
5.803999999999999915e+01,4.357457952148344020e-03
5.807999999999999829e+01,3.477755448911047566e-03
5.811999999999999744e+01,2.821888764708378045e-03
5.815999999999999659e+01,4.628598715565776164e-03
5.820000000000000284e+01,4.812183507180391694e-03
5.824000000000000199e+01,3.764422839287090688e-03
5.828000000000000114e+01,3.556151971884915011e-03
5.832000000000000028e+01,3.123969119146471646e-03
5.835999999999999943e+01,3.867087316965131180e-03
5.839999999999999858e+01,3.154986256600294647e-03
5.843999999999999773e+01,3.786091940832134097e-03
5.847999999999999687e+01,3.297789616946462856e-03
5.852000000000000313e+01,4.040757138319664606e-03
5.856000000000000227e+01,4.503844569720591787e-03
5.860000000000000142e+01,3.455744569295440393e-03
5.864000000000000057e+01,3.303103509096059088e-03
5.867999999999999972e+01,4.101889976804500189e-03
5.871999999999999886e+01,3.613363294408479011e-03
5.875999999999999801e+01,3.572547609854186384e-03
5.879999999999999716e+01,4.371222622876500506e-03
5.884000000000000341e+01,2.875151356655586844e-03
5.888000000000000256e+01,2.162602407348967505e-03
5.892000000000000171e+01,4.304411034955663538e-03
5.896000000000000085e+01,2.360480992723763306e-03
5.900000000000000000e+01,3.606719777471173363e-03
5.903999999999999915e+01,4.181299669596902531e-03
5.907999999999999829e+01,4.420031850160369667e-03
5.911999999999999744e+01,3.707262682737971424e-03
5.915999999999999659e+01,4.449638539381548658e-03
5.920000000000000284e+01,2.449520588437302960e-03
5.924000000000000199e+01,3.807477434538243579e-03
5.928000000000000114e+01,3.318436909872051529e-03
5.932000000000000028e+01,3.892762054569851374e-03
5.935999999999999943e+01,4.411082564128779478e-03
5.939999999999999858e+01,3.586122578019566420e-03
5.943999999999999773e+01,4.328245136373303804e-03
5.947999999999999687e+01,3.727087337072052149e-03
5.952000000000000313e+01,4.133327033492198606e-03
5.956000000000000227e+01,4.315656883779936566e-03
5.960000000000000142e+01,4.162139919590902154e-03
5.964000000000000057e+01,5.407800288871295741e-03
5.967999999999999972e+01,3.854999159967305473e-03
5.971999999999999886e+01,4.596871801353438237e-03
5.975999999999999801e+01,3.603684937402316154e-03
5.979999999999999716e+01,3.394021977516734328e-03
5.984000000000000341e+01,3.799977434676851760e-03
5.988000000000000256e+01,4.149929153783591881e-03
5.992000000000000171e+01,4.891625353247297872e-03
5.996000000000000085e+01,3.898262392406617177e-03
