2.003999999999999915e+01,2.599245575768107872e-02
2.007999999999999829e+01,2.472476870544690342e-02
2.012000000000000099e+01,2.216077333593737334e-02
2.016000000000000014e+01,1.264486827479867695e-02
2.019999999999999929e+01,1.608948296697277833e-02
2.023999999999999844e+01,1.823778908045937952e-02
2.028000000000000114e+01,6.953808765965244047e-03
2.032000000000000028e+01,2.477237661730492119e-02
2.035999999999999943e+01,2.008613080147562263e-02
2.039999999999999858e+01,1.068665028071308538e-02
2.044000000000000128e+01,1.707548963404484019e-02
2.048000000000000043e+01,1.875109410816737029e-02
2.051999999999999957e+01,2.219384009088022289e-02
2.055999999999999872e+01,2.339767658326601801e-02
2.060000000000000142e+01,2.212695344455275354e-02
2.064000000000000057e+01,2.710072257206365409e-02
2.067999999999999972e+01,2.500475584833513135e-02
2.071999999999999886e+01,2.267290474161755970e-02
2.076000000000000156e+01,2.034081921840716692e-02
2.080000000000000071e+01,2.543147588103978826e-02
2.083999999999999986e+01,4.053702523235246102e-02
2.087999999999999901e+01,3.537643529322712088e-02
2.092000000000000171e+01,3.327906128630050975e-02
2.096000000000000085e+01,3.035667723947225657e-02
2.100000000000000000e+01,3.886308585457686621e-02
2.103999999999999915e+01,2.887073023294756818e-02
2.107999999999999829e+01,2.806849158945163084e-02
2.112000000000000099e+01,2.785514287930675875e-02
2.116000000000000014e+01,3.718538605347049969e-02
2.119999999999999929e+01,2.365733865011816067e-02
2.123999999999999844e+01,3.699316189890379525e-02
2.128000000000000114e+01,3.677887151444392960e-02
2.132000000000000028e+01,2.760964345546521731e-02
2.135999999999999943e+01,3.363960813232358404e-02
2.139999999999999858e+01,3.530981100625187052e-02
2.144000000000000128e+01,3.485892749963626774e-02
2.148000000000000043e+01,2.957698190854662554e-02
2.151999999999999957e+01,3.136430185436650531e-02
2.155999999999999872e+01,3.927828703542151495e-02
2.160000000000000142e+01,1.856055445354613809e-02
2.164000000000000057e+01,2.187889100882076804e-02
2.167999999999999972e+01,2.001268996348077797e-02
2.171999999999999886e+01,2.839702974342083255e-02
2.176000000000000156e+01,2.205300457628995778e-02
2.180000000000000071e+01,2.643082016743141666e-02
2.183999999999999986e+01,2.197152197807835522e-02
2.187999999999999901e+01,2.151803784415040610e-02
2.192000000000000171e+01,2.730904318803351744e-02
2.196000000000000085e+01,2.296685919502084935e-02
2.200000000000000000e+01,1.803531295015488312e-02
2.203999999999999915e+01,2.712470769161107881e-02
2.207999999999999829e+01,1.818663603801587425e-02
2.212000000000000099e+01,3.528765793180542454e-02
2.216000000000000014e+01,2.257871057456333277e-02
2.219999999999999929e+01,1.752815240697144436e-02
2.223999999999999844e+01,3.250761115768142917e-02
2.228000000000000114e+01,3.016655323855265206e-02
2.232000000000000028e+01,2.476180680730942149e-02
2.235999999999999943e+01,3.031454996804199692e-02
2.239999999999999858e+01,3.881268081005339460e-02
2.244000000000000128e+01,3.034376971412567486e-02
2.248000000000000043e+01,4.320095030865966912e-02
2.251999999999999957e+01,3.626328814736962808e-02
2.255999999999999872e+01,2.838278743384440445e-02
2.260000000000000142e+01,2.639329963633462242e-02
2.264000000000000057e+01,2.723137397045926125e-02
2.267999999999999972e+01,3.007223516136115979e-02
2.271999999999999886e+01,3.868628398004770458e-02
2.276000000000000156e+01,2.809461465416788345e-02
2.280000000000000071e+01,3.258430990034334729e-02
2.283999999999999986e+01,3.259641517980698538e-02
2.287999999999999901e+01,2.872005553950610079e-02
2.292000000000000171e+01,2.708213228678911164e-02
2.296000000000000085e+01,1.813881816233748820e-02
2.300000000000000000e+01,2.404121812061744273e-02
2.303999999999999915e+01,2.405212735469160895e-02
2.307999999999999829e+01,2.076369636739686456e-02
2.312000000000000099e+01,2.171672678788618555e-02
2.316000000000000014e+01,1.560001595458543507e-02
2.319999999999999929e+01,1.985166774927916294e-02
2.323999999999999844e+01,1.715140314272402267e-02
2.328000000000000114e+01,1.739652430041374598e-02
2.332000000000000028e+01,2.046920610839352353e-02
2.335999999999999943e+01,1.800387157551512976e-02
2.339999999999999858e+01,1.718784725048050355e-02
2.344000000000000128e+01,1.931720834113908464e-02
2.348000000000000043e+01,1.143120181047826978e-02
2.351999999999999957e+01,1.297095699617221640e-02
2.355999999999999872e+01,1.191832107574472034e-02
2.360000000000000142e+01,9.333719203411163651e-03
2.364000000000000057e+01,7.573651828374571016e-03
2.367999999999999972e+01,1.370762047251948383e-02
2.371999999999999886e+01,1.783832279607649660e-02
2.376000000000000156e+01,1.678448298784749465e-02
2.380000000000000071e+01,1.302042652385242659e-02
2.383999999999999986e+01,8.667003799660261132e-03
2.387999999999999901e+01,7.141140505827292193e-03
2.392000000000000171e+01,1.079933709155644211e-02
2.396000000000000085e+01,1.657814277246667453e-02
2.400000000000000000e+01,1.681893071831226313e-02
2.403999999999999915e+01,1.894467753142915073e-02
2.407999999999999829e+01,1.129070546979201416e-02
2.412000000000000099e+01,1.259119371017282732e-02
2.416000000000000014e+01,1.306666493961911556e-02
2.419999999999999929e+01,1.695882003640648492e-02
2.423999999999999844e+01,2.285375859159258921e-02
2.428000000000000114e+01,1.496292692455562789e-02
2.432000000000000028e+01,1.579090507021301340e-02
2.435999999999999943e+01,4.247013141176128083e-03
2.439999999999999858e+01,1.285095845181092634e-02
2.444000000000000128e+01,1.356038453252313321e-02
2.448000000000000043e+01,9.792217073869305399e-03
2.451999999999999957e+01,1.615675931402469137e-02
2.455999999999999872e+01,2.016455832324490910e-02
2.460000000000000142e+01,1.792738812942960835e-02
2.464000000000000057e+01,2.099210127351105321e-02
2.467999999999999972e+01,1.003539327035628086e-02
2.471999999999999886e+01,1.486699581753939993e-02
2.476000000000000156e+01,1.498535416175684164e-02
2.480000000000000071e+01,1.557476939582066316e-02
2.483999999999999986e+01,1.168659030627714271e-02
2.487999999999999901e+01,1.569244462177785127e-02
2.492000000000000171e+01,2.122978080706465140e-02
2.496000000000000085e+01,1.097831983289414629e-02
2.500000000000000000e+01,1.038826740460986782e-02
2.503999999999999915e+01,1.180099669196608275e-02
2.507999999999999829e+01,1.439173242010553626e-02
2.512000000000000099e+01,1.014837267833135735e-02
2.516000000000000014e+01,1.262079546346567965e-02
2.519999999999999929e+01,1.332559875754345952e-02
2.523999999999999844e+01,8.374556588464348444e-03
2.528000000000000114e+01,7.429321068087910325e-03
2.532000000000000028e+01,1.261074259198311474e-02
2.535999999999999943e+01,1.378586876674628599e-02
2.539999999999999858e+01,1.001209929070319068e-02
2.544000000000000128e+01,9.537185953908934588e-03
2.548000000000000043e+01,1.389285401784717301e-02
2.551999999999999957e+01,6.465774614176851391e-03
2.555999999999999872e+01,1.223485334097332115e-02
2.560000000000000142e+01,1.305503598127392799e-02
2.564000000000000057e+01,1.422844865470765732e-02
2.567999999999999972e+01,1.764029170320951731e-02
2.571999999999999886e+01,1.421803797472905723e-02
2.576000000000000156e+01,1.173813915205325527e-02
2.580000000000000071e+01,1.491359622072594912e-02
2.583999999999999986e+01,1.384710684097762746e-02
2.587999999999999901e+01,8.420845898853323089e-03
2.592000000000000171e+01,1.159556625708980937e-02
2.596000000000000085e+01,1.135311509321093072e-02
2.600000000000000000e+01,1.499864398273523768e-02
2.603999999999999915e+01,8.864449727747998956e-03
2.607999999999999829e+01,2.111071365038448208e-02
2.612000000000000099e+01,3.657239712761148559e-04
2.616000000000000014e+01,6.838069306793832965e-03
2.619999999999999929e+01,1.024671767781979055e-02
2.623999999999999844e+01,1.436206985536142740e-02
2.628000000000000114e+01,1.117202392872187165e-02
2.632000000000000028e+01,1.540470816289365996e-02
2.635999999999999943e+01,1.716282021810723243e-02
2.639999999999999858e+01,1.279378417589624971e-02
2.644000000000000128e+01,1.172360209448637149e-02
2.648000000000000043e+01,3.819321580473875218e-03
2.651999999999999957e+01,1.146769764195919132e-02
2.655999999999999872e+01,1.039677466749342263e-02
2.660000000000000142e+01,1.604163108297123469e-02
2.664000000000000057e+01,1.874061460225733347e-02
2.667999999999999972e+01,1.036379828783771939e-02
2.671999999999999886e+01,2.575859707461831526e-03
2.676000000000000156e+01,7.277126482513174462e-03
2.680000000000000071e+01,1.669114675592878183e-02
2.683999999999999986e+01,8.431165345332650510e-03
2.687999999999999901e+01,6.886962714714884443e-03
2.692000000000000171e+01,6.756412570170509599e-03
2.696000000000000085e+01,1.063166541453655980e-02
2.700000000000000000e+01,5.080668103532416137e-03
2.703999999999999915e+01,7.894999599393397530e-03
2.707999999999999829e+01,5.289131677387692680e-03
2.712000000000000099e+01,1.386940188973880298e-03
2.716000000000000014e+01,1.103437842596147710e-02
2.719999999999999929e+01,6.778215052841565953e-03
2.723999999999999844e+01,1.076955502408030903e-02
2.728000000000000114e+01,1.558542156306608889e-02
2.732000000000000028e+01,1.003243703504180621e-02
2.735999999999999943e+01,6.482229168659241030e-03
2.739999999999999858e+01,1.282907467352230151e-02
2.744000000000000128e+01,1.410919505672850877e-02
2.748000000000000043e+01,9.379990016603733521e-03
2.751999999999999957e+01,1.384088792540858273e-02
2.755999999999999872e+01,1.912631179199504247e-02
2.760000000000000142e+01,1.639938451794708055e-02
2.764000000000000057e+01,1.744260869783096496e-02
2.767999999999999972e+01,2.355205953949629505e-02
2.771999999999999886e+01,1.941048346958965803e-02
2.776000000000000156e+01,1.597560789495805142e-02
2.780000000000000071e+01,1.902085904249869314e-02
2.783999999999999986e+01,1.794198441153978252e-02
2.787999999999999901e+01,1.250333386130932437e-02
2.792000000000000171e+01,1.519436014727602348e-02
2.796000000000000085e+01,8.105659106111334430e-03
2.800000000000000000e+01,1.315268563864741176e-02
2.803999999999999915e+01,1.207256050110472843e-02
2.807999999999999829e+01,1.723691142213479993e-02
2.812000000000000099e+01,1.156110942612850745e-02
2.816000000000000014e+01,1.448628385076005526e-02
2.819999999999999929e+01,1.022388101540770353e-02
2.823999999999999844e+01,1.020292843418678548e-02
2.828000000000000114e+01,3.701348579608474635e-03
2.832000000000000028e+01,1.110287100388327418e-02
2.835999999999999943e+01,2.239236834042464611e-02
2.839999999999999858e+01,7.760108717382761638e-03
2.844000000000000128e+01,1.056570191629153596e-02
2.848000000000000043e+01,8.893692862043041034e-03
2.851999999999999957e+01,9.813583076522077592e-03
2.855999999999999872e+01,7.180946031669765018e-04
2.860000000000000142e+01,1.389128470270963207e-02
2.864000000000000057e+01,6.562668553425602888e-03
2.867999999999999972e+01,1.160542855013188199e-02
2.871999999999999886e+01,1.770836203125454589e-02
2.876000000000000156e+01,1.627024195201141887e-02
2.880000000000000071e+01,9.285167771443651350e-04
2.883999999999999986e+01,1.044762024232257988e-02
2.887999999999999901e+01,1.690302090476889646e-02
2.892000000000000171e+01,5.566590325215239020e-03
2.896000000000000085e+01,1.638101250750099644e-02
2.900000000000000000e+01,1.494137953391191063e-02
2.903999999999999915e+01,1.232324383811201143e-02
2.907999999999999829e+01,1.810578804392019327e-03
2.912000000000000099e+01,3.315813877694185480e-03
2.916000000000000014e+01,5.763396450078623300e-03
2.919999999999999929e+01,1.834367852613675437e-02
2.923999999999999844e+01,5.826977000434814188e-03
2.928000000000000114e+01,9.334226144982867013e-03
2.932000000000000028e+01,5.064770455600423396e-03
2.935999999999999943e+01,1.293103937722973364e-02
2.939999999999999858e+01,1.349190339792081215e-02
2.944000000000000128e+01,1.169601355685158037e-02
2.948000000000000043e+01,9.899870303224958881e-03
2.951999999999999957e+01,9.281723818073491297e-03
2.955999999999999872e+01,1.384762492603870340e-02
2.960000000000000142e+01,1.440722144825339404e-02
2.964000000000000057e+01,8.604012761238686094e-03
2.967999999999999972e+01,1.446522788086432310e-02
2.971999999999999886e+01,7.129786061596309586e-03
2.976000000000000156e+01,1.746784424236199479e-02
2.980000000000000071e+01,1.590532060494569133e-02
2.983999999999999986e+01,1.575644309253531120e-02
2.987999999999999901e+01,1.560731129618844922e-02
2.992000000000000171e+01,1.121622416335363998e-02
2.996000000000000085e+01,1.295178396679276187e-02
3.000000000000000000e+01,1.822184002939300496e-02
3.003999999999999915e+01,2.231339119133462709e-02
3.007999999999999829e+01,2.993943843816151279e-02
3.012000000000000099e+01,2.307275257972817017e-02
3.016000000000000014e+01,4.047776735170384443e-02
3.019999999999999929e+01,3.184319621607321904e-02
3.023999999999999844e+01,3.263437215762832883e-02
3.028000000000000114e+01,2.600231625439421157e-02
3.032000000000000028e+01,2.561473153000979816e-02
3.035999999999999943e+01,2.982206752189865348e-02
3.039999999999999858e+01,3.650347366021613332e-02
3.044000000000000128e+01,4.129942386559364714e-02
3.048000000000000043e+01,4.538816831906377497e-02
3.051999999999999957e+01,4.594190628987955549e-02
3.055999999999999872e+01,5.167968967536425845e-02
3.060000000000000142e+01,3.844738789088616993e-02
3.064000000000000057e+01,4.053208365306682631e-02
3.067999999999999972e+01,4.096697301311419404e-02
3.071999999999999886e+01,4.163725631296306268e-02
3.076000000000000156e+01,3.358823142738027318e-02
3.080000000000000071e+01,3.944230341810003176e-02
3.083999999999999986e+01,3.751966726364867888e-02
3.087999999999999901e+01,3.736415004906869231e-02
3.092000000000000171e+01,3.131712494411434400e-02
3.096000000000000085e+01,3.316411999924180620e-02
3.100000000000000000e+01,2.864830688245098220e-02
3.103999999999999915e+01,1.883011074795736678e-02
3.107999999999999829e+01,2.703888681839746941e-02
3.112000000000000099e+01,2.063710257831253073e-02
3.116000000000000014e+01,2.425018854532660223e-02
3.119999999999999929e+01,2.915909264784060512e-02
3.123999999999999844e+01,3.182906399420534077e-02
3.128000000000000114e+01,3.273140260455105477e-02
3.132000000000000028e+01,2.361835651454687393e-02
3.135999999999999943e+01,3.017578148317017969e-02
3.139999999999999858e+01,3.508339848117780768e-02
3.144000000000000128e+01,3.657383201917620980e-02
3.148000000000000043e+01,2.203980414060379214e-02
3.151999999999999957e+01,3.248442409065369768e-02
3.155999999999999872e+01,3.397408405887954869e-02
3.160000000000000142e+01,2.756920919949690241e-02
3.164000000000000057e+01,2.246015151709715787e-02
3.167999999999999972e+01,1.499433509321410236e-02
3.171999999999999886e+01,2.084248840737648947e-02
3.176000000000000156e+01,1.337615531179474175e-02
3.180000000000000071e+01,2.240506750404281169e-02
3.183999999999999986e+01,1.364214209322325150e-02
3.187999999999999901e+01,1.713276083054413035e-02
3.192000000000000171e+01,1.367144425768954293e-02
3.196000000000000085e+01,1.433374480832362748e-02
3.200000000000000000e+01,6.041084418616673828e-03
3.203999999999999915e+01,2.143099542975163835e-02
3.207999999999999829e+01,1.902906831499159498e-02
3.211999999999999744e+01,1.427038150023115549e-02
3.215999999999999659e+01,1.116098581011192373e-02
3.220000000000000284e+01,1.453170725699476709e-02
3.224000000000000199e+01,1.401394339384192354e-02
3.228000000000000114e+01,6.662068463089493991e-03
3.232000000000000028e+01,1.474501244602064408e-02
3.235999999999999943e+01,6.214367961261736163e-03
3.239999999999999858e+01,1.406114243044694935e-02
3.243999999999999773e+01,1.201035478623777367e-02
3.247999999999999687e+01,8.427581845506364536e-03
3.252000000000000313e+01,2.370223306578411824e-03
3.256000000000000227e+01,9.626832675799855410e-03
3.260000000000000142e+01,8.871080012147886801e-03
3.264000000000000057e+01,5.287266408434620861e-03
3.267999999999999972e+01,6.769668574263911116e-03
3.271999999999999886e+01,1.249351123477858080e-02
3.275999999999999801e+01,1.527146766700115260e-02
3.279999999999999716e+01,7.209260987051760092e-03
3.284000000000000341e+01,1.045799614939658950e-02
3.288000000000000256e+01,8.168694232060628307e-03
3.292000000000000171e+01,6.114781461941037194e-03
3.296000000000000085e+01,7.477533475960050635e-03
3.300000000000000000e+01,1.602735104512515926e-02
3.303999999999999915e+01,3.014927538939984799e-03
3.307999999999999829e+01,8.972072095329334043e-03
3.311999999999999744e+01,1.104072942464903902e-02
3.315999999999999659e+01,9.574374520212244888e-03
3.320000000000000284e+01,9.875133501648017745e-03
3.324000000000000199e+01,1.371038168407410184e-02
3.328000000000000114e+01,1.295019212997657217e-02
3.332000000000000028e+01,1.643144176349578198e-02
3.335999999999999943e+01,0.000000000000000000e+00
3.339999999999999858e+01,1.172847769370483940e-02
3.343999999999999773e+01,1.026029034469029717e-02
3.347999999999999687e+01,9.734441083863660735e-03
3.352000000000000313e+01,7.676604260929093503e-03
3.356000000000000227e+01,9.388905995515608657e-03
3.360000000000000142e+01,1.440004609321712120e-02
3.364000000000000057e+01,1.128099686564254522e-02
3.367999999999999972e+01,8.515160156481099696e-03
3.371999999999999886e+01,8.576861441752760967e-03
3.375999999999999801e+01,1.747517700198882376e-02
3.379999999999999716e+01,1.152727635982567396e-02
3.384000000000000341e+01,5.696937833889907654e-03
3.388000000000000256e+01,8.703213321504827543e-03
3.392000000000000171e+01,4.639724115231687492e-03
3.396000000000000085e+01,3.403772380564140752e-03
3.400000000000000000e+01,7.587508620339273625e-03
3.403999999999999915e+01,1.236010664792041615e-02
3.407999999999999829e+01,7.706439096721006896e-03
3.411999999999999744e+01,1.518848578712200283e-02
3.415999999999999659e+01,1.454034201945402470e-02
3.420000000000000284e+01,1.106413391334618891e-02
3.424000000000000199e+01,1.053328769569565442e-02
3.428000000000000114e+01,5.878301670341944986e-03
3.432000000000000028e+01,8.763853405034376098e-03
3.435999999999999943e+01,1.306304141814881858e-02
3.439999999999999858e+01,1.418068957668271353e-02
3.443999999999999773e+01,1.376634816893669913e-02
3.447999999999999687e+01,1.146654202732174527e-02
3.452000000000000313e+01,1.281904732510100349e-02
3.456000000000000227e+01,1.087218739293097439e-02
3.460000000000000142e+01,1.493413926222021508e-02
3.464000000000000057e+01,8.862874171895841063e-03
3.467999999999999972e+01,1.151039632554685943e-02
3.471999999999999886e+01,1.686762926836617160e-02
3.475999999999999801e+01,2.316719751096022947e-02
3.479999999999999716e+01,1.108579656819602341e-02
3.484000000000000341e+01,9.490557923111240385e-03
3.488000000000000256e+01,1.284370522816689723e-02
3.492000000000000171e+01,6.299285017277702660e-03
3.496000000000000085e+01,1.848877871984715149e-02
3.500000000000000000e+01,1.194382772091769941e-02
3.503999999999999915e+01,1.588503858397807139e-02
3.507999999999999829e+01,1.640905805747931712e-02
3.511999999999999744e+01,1.186633567884491820e-02
3.515999999999999659e+01,1.757412484715251480e-02
3.520000000000000284e+01,1.491607123817145601e-02
3.524000000000000199e+01,2.380460429684402510e-02
3.528000000000000114e+01,1.796474295583178407e-02
3.532000000000000028e+01,1.801586682097932116e-02
3.535999999999999943e+01,1.912714970564994427e-02
3.539999999999999858e+01,1.882426595954792350e-02
3.543999999999999773e+01,2.771146790906912211e-02
3.547999999999999687e+01,2.151679994276482072e-02
3.552000000000000313e+01,1.661794070106606055e-02
3.556000000000000227e+01,2.397261759081994667e-02
3.560000000000000142e+01,2.932400228002636500e-02
3.564000000000000057e+01,2.312826750936691766e-02
3.567999999999999972e+01,2.647609299195439678e-02
3.571999999999999886e+01,2.075112440355805082e-02
3.575999999999999801e+01,2.810446669864411981e-02
3.579999999999999716e+01,2.426416426576383581e-02
3.584000000000000341e+01,2.195531991401988847e-02
3.588000000000000256e+01,2.341660906579817042e-02
3.592000000000000171e+01,2.911933174122898968e-02
3.596000000000000085e+01,3.435048678049271165e-02
3.600000000000000000e+01,2.603149611975961661e-02
3.603999999999999915e+01,2.266088888216757566e-02
3.607999999999999829e+01,2.141086433696964136e-02
3.611999999999999744e+01,3.076482432785499974e-02
3.615999999999999659e+01,3.198858950377587301e-02
3.620000000000000284e+01,3.380121176205555522e-02
3.624000000000000199e+01,3.313924031831304295e-02
3.628000000000000114e+01,2.399359871774118733e-02
3.632000000000000028e+01,3.346404304112200745e-02
3.635999999999999943e+01,3.291909168477612918e-02
3.639999999999999858e+01,3.708687291369599376e-02
3.643999999999999773e+01,3.065013315452812595e-02
3.647999999999999687e+01,3.328565179858077733e-02
3.652000000000000313e+01,3.273962596974357153e-02
3.656000000000000227e+01,4.456495912072831050e-02
3.660000000000000142e+01,3.211806782429663804e-02
3.664000000000000057e+01,3.651988635245872333e-02
3.667999999999999972e+01,3.361628412058277615e-02
3.671999999999999886e+01,4.002058982273398735e-02
3.675999999999999801e+01,3.511342367879193016e-02
3.679999999999999716e+01,3.762896486552852471e-02
3.684000000000000341e+01,3.484211039956516820e-02
3.688000000000000256e+01,3.570756223185928002e-02
3.692000000000000171e+01,4.328877097251603717e-02
3.696000000000000085e+01,4.380020839680349998e-02
3.700000000000000000e+01,4.136575035618027252e-02
3.703999999999999915e+01,4.706094928431044100e-02
3.707999999999999829e+01,4.556855160784059611e-02
3.711999999999999744e+01,4.713933457271547028e-02
3.715999999999999659e+01,5.377632354768695222e-02
3.720000000000000284e+01,4.438883864536640605e-02
3.724000000000000199e+01,5.185006226057092826e-02
3.728000000000000114e+01,5.483366445227780273e-02
3.732000000000000028e+01,5.864177134011608339e-02
3.735999999999999943e+01,6.775173385599546350e-02
3.739999999999999858e+01,5.942332173708873844e-02
3.743999999999999773e+01,7.018229320954134931e-02
3.747999999999999687e+01,8.424009459273161526e-02
3.752000000000000313e+01,8.580817220603786932e-02
3.756000000000000227e+01,8.737597880492875557e-02
3.760000000000000142e+01,1.022577423325921331e-01
3.764000000000000057e+01,1.071241073921157666e-01
3.767999999999999972e+01,1.306065554129030304e-01
3.771999999999999886e+01,1.412458041476656045e-01
3.775999999999999801e+01,1.613107835776866616e-01
3.779999999999999716e+01,1.836141669799887244e-01
3.784000000000000341e+01,2.185245566273336382e-01
3.788000000000000256e+01,2.573229004481222826e-01
3.792000000000000171e+01,3.080213001787757698e-01
3.796000000000000085e+01,3.667315298471935381e-01
3.800000000000000000e+01,4.650306965532055026e-01
3.803999999999999915e+01,5.973810239492725049e-01
3.807999999999999829e+01,7.293776041176802671e-01
3.811999999999999744e+01,8.009296732945987429e-01
3.815999999999999659e+01,8.537472908861233334e-01
3.820000000000000284e+01,8.201988914121335350e-01
3.824000000000000199e+01,7.497709860486494460e-01
3.828000000000000114e+01,6.516539268002623508e-01
3.832000000000000028e+01,5.503553191577794657e-01
3.835999999999999943e+01,4.525911895626343884e-01
3.839999999999999858e+01,3.856969441492428818e-01
3.843999999999999773e+01,3.191559008848531831e-01
3.847999999999999687e+01,2.754726398043825242e-01
3.852000000000000313e+01,2.313178055109184894e-01
3.856000000000000227e+01,2.128485538707066416e-01
3.860000000000000142e+01,1.818895761078871409e-01
3.864000000000000057e+01,1.759092306631418190e-01
3.867999999999999972e+01,1.569678588142448539e-01
3.871999999999999886e+01,1.512226164274419749e-01
3.875999999999999801e+01,1.450058003048181610e-01
3.879999999999999716e+01,1.339578843670049813e-01
3.884000000000000341e+01,1.464746999897719171e-01
3.888000000000000256e+01,1.291815099378605114e-01
3.892000000000000171e+01,1.411086525594714147e-01
3.896000000000000085e+01,1.480868699905242836e-01
3.900000000000000000e+01,1.458744611784675571e-01
3.903999999999999915e+01,1.706437092689956636e-01
3.907999999999999829e+01,1.980048336238427464e-01
3.911999999999999744e+01,2.316104099871991728e-01
3.915999999999999659e+01,2.769982145323280909e-01
3.920000000000000284e+01,3.519598262214650997e-01
3.924000000000000199e+01,4.535496192970461249e-01
3.928000000000000114e+01,5.934322713268207483e-01
3.932000000000000028e+01,7.659521809364326916e-01
3.935999999999999943e+01,8.922844050981422193e-01
3.939999999999999858e+01,1.000000000000000000e+00
3.943999999999999773e+01,9.935428688062458713e-01
3.947999999999999687e+01,9.253451483633261532e-01
3.952000000000000313e+01,8.245096202079122971e-01
3.956000000000000227e+01,7.242629418152728427e-01
3.960000000000000142e+01,6.098769847461394944e-01
3.964000000000000057e+01,5.417959876705172872e-01
3.967999999999999972e+01,4.693551889699397739e-01
3.971999999999999886e+01,3.983280148713042035e-01
3.975999999999999801e+01,3.626480730107810579e-01
3.979999999999999716e+01,3.200161786739140202e-01
3.984000000000000341e+01,2.593567792527631255e-01
3.988000000000000256e+01,2.235581844215940306e-01
3.992000000000000171e+01,2.010735414651987352e-01
3.996000000000000085e+01,1.748182214079679886e-01
4.000000000000000000e+01,1.384296727146436534e-01
4.003999999999999915e+01,1.300832039868096979e-01
4.007999999999999829e+01,1.191443081648970170e-01
4.011999999999999744e+01,1.030208345717927437e-01
4.015999999999999659e+01,8.819315959529641646e-02
4.020000000000000284e+01,8.326251010591416424e-02
4.024000000000000199e+01,7.797810868342539004e-02
4.028000000000000114e+01,6.915867951663198787e-02
4.032000000000000028e+01,7.553840178230593339e-02
4.035999999999999943e+01,6.200541740183048572e-02
4.039999999999999858e+01,6.320028417227833983e-02
4.043999999999999773e+01,5.037369546315312308e-02
4.047999999999999687e+01,5.368885805247993609e-02
4.052000000000000313e+01,5.205509205287014995e-02
4.056000000000000227e+01,5.136364871803804355e-02
4.060000000000000142e+01,5.102540282676046313e-02
4.064000000000000057e+01,4.950862894327789920e-02
4.067999999999999972e+01,5.117285297268307775e-02
4.071999999999999886e+01,4.482469728021901828e-02
4.075999999999999801e+01,4.554576521132926853e-02
4.079999999999999716e+01,5.062608106208398018e-02
4.084000000000000341e+01,3.968191510599675120e-02
4.088000000000000256e+01,4.723600011332331622e-02
4.092000000000000171e+01,4.383207929266498548e-02
4.096000000000000085e+01,4.042788005086884323e-02
4.100000000000000000e+01,3.608080208626064656e-02
4.103999999999999915e+01,4.080597259115114478e-02
4.107999999999999829e+01,3.716528750948008136e-02
4.111999999999999744e+01,3.953340002578873552e-02
4.115999999999999659e+01,4.402208416797679519e-02
4.120000000000000284e+01,3.036543523637500255e-02
4.124000000000000199e+01,3.285053594760488360e-02
4.128000000000000114e+01,4.146225893507992505e-02
4.132000000000000028e+01,3.923380025000803434e-02
4.135999999999999943e+01,3.535551189698062785e-02
4.139999999999999858e+01,3.265519443246880926e-02
4.143999999999999773e+01,3.278239814477331565e-02
4.147999999999999687e+01,3.255584722269602715e-02
4.152000000000000313e+01,3.869156810767052784e-02
4.156000000000000227e+01,3.233755642183200329e-02
4.160000000000000142e+01,2.657239005473431559e-02
4.164000000000000057e+01,2.905469566234733514e-02
4.167999999999999972e+01,2.387809453723236872e-02
4.171999999999999886e+01,3.095501612433177244e-02
4.175999999999999801e+01,3.437908171620682879e-02
4.179999999999999716e+01,3.473941635980484777e-02
4.184000000000000341e+01,3.627772093340141807e-02
4.188000000000000256e+01,2.744714272178848044e-02
4.192000000000000171e+01,3.522961277893094795e-02
4.196000000000000085e+01,3.617795068109934398e-02
4.200000000000000000e+01,3.217735677022844076e-02
4.203999999999999915e+01,2.982603246093474061e-02
4.207999999999999829e+01,3.454392889966433761e-02
4.211999999999999744e+01,2.571166630629675987e-02
4.215999999999999659e+01,3.042900076161400916e-02
4.220000000000000284e+01,3.561735420178634842e-02
4.224000000000000199e+01,2.831597358980124726e-02
4.228000000000000114e+01,2.690556302197941174e-02
4.232000000000000028e+01,3.444957310842602927e-02
4.235999999999999943e+01,4.010810129483531605e-02
4.239999999999999858e+01,3.068474449056052961e-02
4.243999999999999773e+01,4.235178584129590390e-02
4.247999999999999687e+01,4.306081796566784553e-02
4.252000000000000313e+01,5.284209533543580278e-02
4.256000000000000227e+01,5.944181507448936808e-02
4.260000000000000142e+01,5.708655078165548319e-02
4.264000000000000057e+01,6.568873190187657363e-02
4.267999999999999972e+01,5.638122677783913989e-02
4.271999999999999886e+01,5.543901630260588548e-02
4.275999999999999801e+01,6.203732520131957640e-02
4.279999999999999716e+01,5.331809818433599912e-02
4.284000000000000341e+01,6.309711786100853648e-02
4.288000000000000256e+01,5.260995032139218625e-02
4.292000000000000171e+01,5.814670373799822600e-02
4.296000000000000085e+01,6.651097502017995489e-02
4.300000000000000000e+01,5.449123379784201471e-02
4.303999999999999915e+01,4.871593604449813569e-02
4.307999999999999829e+01,5.283765750433880998e-02
4.311999999999999744e+01,5.377782011353434560e-02
4.315999999999999659e+01,4.623429757817987956e-02
4.320000000000000284e+01,4.599564340462126283e-02
4.324000000000000199e+01,4.587453086988100420e-02
4.328000000000000114e+01,3.974405849233489385e-02
4.332000000000000028e+01,4.127192929562200491e-02
4.335999999999999943e+01,3.620131494774228575e-02
4.339999999999999858e+01,4.020294392822450907e-02
4.343999999999999773e+01,3.654566234191067298e-02
4.347999999999999687e+01,3.618719759564782007e-02
4.352000000000000313e+01,3.594627387823794845e-02
4.356000000000000227e+01,3.876851677296917764e-02
4.360000000000000142e+01,4.276872576363090900e-02
4.364000000000000057e+01,3.592874802774684295e-02
4.367999999999999972e+01,2.838153578444476202e-02
4.371999999999999886e+01,3.167394157465704824e-02
4.375999999999999801e+01,2.648266091325063645e-02
4.379999999999999716e+01,3.083492281609522684e-02
4.384000000000000341e+01,3.235909938026338556e-02
4.388000000000000256e+01,3.588601661811600951e-02
4.392000000000000171e+01,4.070872428161292217e-02
4.396000000000000085e+01,2.903564323424263557e-02
4.400000000000000000e+01,4.234118282846648790e-02
4.403999999999999915e+01,3.278838208942701227e-02
4.407999999999999829e+01,3.631387410918450465e-02
4.411999999999999744e+01,3.265175418806958579e-02
4.415999999999999659e+01,3.358452492064867984e-02
4.420000000000000284e+01,3.510613530800440335e-02
4.424000000000000199e+01,2.767275809081836541e-02
4.428000000000000114e+01,3.826632432305550335e-02
4.432000000000000028e+01,3.919795261557282307e-02
4.435999999999999943e+01,2.976069272033009250e-02
4.439999999999999858e+01,3.811472595946271275e-02
4.443999999999999773e+01,4.399414763330140865e-02
4.447999999999999687e+01,4.021163101886861962e-02
4.452000000000000313e+01,3.902097881799889562e-02
4.456000000000000227e+01,4.419259180169972379e-02
4.460000000000000142e+01,4.406179222794592842e-02
4.464000000000000057e+01,4.605155669907325805e-02
4.467999999999999972e+01,6.064831251466074047e-02
4.471999999999999886e+01,6.216620374145497008e-02
4.475999999999999801e+01,5.779255692815775391e-02
4.479999999999999716e+01,6.343375060793191023e-02
4.484000000000000341e+01,7.025290768236136518e-02
4.488000000000000256e+01,7.506875234024802668e-02
4.492000000000000171e+01,7.811693454808804615e-02
4.496000000000000085e+01,8.517088053277864501e-02
4.500000000000000000e+01,9.328496453675581834e-02
4.503999999999999915e+01,1.051691620896736679e-01
4.507999999999999829e+01,1.124578962003842247e-01
4.511999999999999744e+01,1.097312155481655893e-01
4.515999999999999659e+01,1.253849515087871735e-01
4.520000000000000284e+01,1.266637465399732265e-01
4.524000000000000199e+01,1.226401276194980378e-01
4.528000000000000114e+01,1.121358443920533188e-01
4.532000000000000028e+01,1.206011025629824401e-01
4.535999999999999943e+01,1.014950164524154874e-01
4.539999999999999858e+01,8.521644289201166234e-02
4.543999999999999773e+01,8.095573388636237433e-02
4.547999999999999687e+01,5.631100697364297553e-02
4.552000000000000313e+01,5.334579664039979657e-02
4.556000000000000227e+01,4.920204759698865865e-02
4.560000000000000142e+01,4.800363569486813808e-02
4.564000000000000057e+01,3.714328297747667568e-02
4.567999999999999972e+01,3.606211878248854336e-02
4.571999999999999886e+01,3.215286515334216805e-02
4.575999999999999801e+01,3.295632371919035575e-02
4.579999999999999716e+01,2.716129181845918991e-02
4.584000000000000341e+01,3.079197301112848728e-02
4.588000000000000256e+01,2.664591329477214443e-02
4.592000000000000171e+01,1.955393868175094724e-02
4.596000000000000085e+01,1.693902577440071014e-02
4.600000000000000000e+01,2.210027523646075284e-02
4.603999999999999915e+01,1.194398172465271565e-02
4.607999999999999829e+01,1.804725233880622934e-02
4.611999999999999744e+01,9.775580019352216737e-03
4.615999999999999659e+01,1.458219592752372541e-02
4.620000000000000284e+01,1.785679665086953652e-02
4.624000000000000199e+01,2.348760798721418255e-02
4.628000000000000114e+01,2.122385251633698844e-02
4.632000000000000028e+01,2.084500737691465794e-02
4.635999999999999943e+01,2.482539804496711189e-02
4.639999999999999858e+01,1.879037116167723079e-02
4.643999999999999773e+01,1.546502953614775633e-02
4.647999999999999687e+01,1.178592238399765561e-02
4.652000000000000313e+01,1.069867528851508633e-02
4.656000000000000227e+01,1.420631361845181920e-02
4.660000000000000142e+01,1.347196027539183591e-02
4.664000000000000057e+01,1.297296619124474124e-02
4.667999999999999972e+01,1.530148186884765053e-02
4.671999999999999886e+01,1.598015620201497997e-02
4.675999999999999801e+01,1.559811423769405167e-02
4.679999999999999716e+01,3.668928502030121587e-03
4.684000000000000341e+01,1.742530738207084470e-02
4.688000000000000256e+01,1.185809054656790894e-02
4.692000000000000171e+01,1.171053353996243454e-02
4.696000000000000085e+01,8.027934237021210409e-03
4.700000000000000000e+01,1.648102111727308902e-02
4.703999999999999915e+01,1.480086402515902455e-02
4.707999999999999829e+01,6.168738597601240194e-03
4.711999999999999744e+01,5.430598126409265890e-03
4.715999999999999659e+01,5.045640808154415458e-03
4.720000000000000284e+01,8.784267413844165651e-03
4.724000000000000199e+01,2.153999557844367679e-03
4.728000000000000114e+01,1.036939289186419866e-02
4.732000000000000028e+01,1.693494357437983974e-02
4.735999999999999943e+01,7.122523166122979484e-03
4.739999999999999858e+01,7.914062721058504057e-03
4.743999999999999773e+01,5.995334121722683748e-03
4.747999999999999687e+01,9.024964024085377692e-03
4.752000000000000313e+01,8.990850517449768681e-03
4.756000000000000227e+01,1.308032015051757008e-02
4.760000000000000142e+01,3.501793786777385002e-03
4.764000000000000057e+01,5.941127185206669485e-03
4.767999999999999972e+01,1.415359383736419785e-02
4.771999999999999886e+01,5.045488399971701475e-03
4.775999999999999801e+01,1.090086813376099466e-02
4.779999999999999716e+01,1.121817828542871764e-02
4.784000000000000341e+01,7.764794170092574783e-03
4.788000000000000256e+01,8.552817524173595906e-03
4.792000000000000171e+01,1.275747307281456522e-02
4.796000000000000085e+01,7.653657832636939773e-03
4.800000000000000000e+01,6.084299639560477105e-03
4.803999999999999915e+01,5.221597762838266210e-03
4.807999999999999829e+01,3.298176713076708243e-03
4.811999999999999744e+01,7.972663146245716551e-03
4.815999999999999659e+01,2.396078140370198374e-03
4.820000000000000284e+01,1.119385221307428804e-02
4.824000000000000199e+01,1.103662996744551178e-02
4.828000000000000114e+01,4.045261799052742892e-03
4.832000000000000028e+01,5.065700999705497441e-03
4.835999999999999943e+01,4.789770363719469959e-03
4.839999999999999858e+01,7.812645849821412899e-03
4.843999999999999773e+01,1.048175153954508838e-02
4.847999999999999687e+01,7.141486058534515617e-03
4.852000000000000313e+01,9.220876920904985327e-03
4.856000000000000227e+01,9.179122323227796587e-03
4.860000000000000142e+01,1.467484892147283976e-02
4.864000000000000057e+01,9.919503035018463477e-03
4.867999999999999972e+01,1.294031367973430720e-02
4.871999999999999886e+01,1.054087776497365618e-02
4.875999999999999801e+01,5.784645900841755076e-03
4.879999999999999716e+01,7.744145065112930694e-03
4.884000000000000341e+01,1.288462436613804080e-02
4.888000000000000256e+01,1.166225654459865368e-02
4.892000000000000171e+01,9.379167720123832847e-03
4.896000000000000085e+01,5.328407644673365320e-03
4.900000000000000000e+01,1.034987869827732991e-02
4.903999999999999915e+01,8.301552119862920173e-03
4.907999999999999829e+01,5.781629324046622803e-03
4.911999999999999744e+01,4.321835572312081840e-03
4.915999999999999659e+01,1.110949741336103927e-02
4.920000000000000284e+01,1.306603678336376931e-02
4.924000000000000199e+01,1.266577915834029081e-02
4.928000000000000114e+01,1.415042541656622542e-02
4.932000000000000028e+01,8.211798352357281561e-03
4.935999999999999943e+01,1.546927757155807347e-02
4.939999999999999858e+01,9.294406926378933481e-03
4.943999999999999773e+01,1.587514038203351879e-03
4.947999999999999687e+01,7.548027279291922610e-03
4.952000000000000313e+01,1.091609286175483466e-02
4.956000000000000227e+01,1.216301080572232234e-02
4.960000000000000142e+01,9.874880702251951844e-03
4.964000000000000057e+01,1.577376901047968351e-03
4.967999999999999972e+01,1.425243045607521054e-02
4.971999999999999886e+01,1.019603269874209094e-02
4.975999999999999801e+01,8.731487939905722279e-03
4.979999999999999716e+01,1.056574625333042347e-02
4.984000000000000341e+01,9.689731184209135831e-03
4.988000000000000256e+01,1.164121890580494152e-02
4.992000000000000171e+01,1.806975970641854293e-02
4.996000000000000085e+01,6.235123323222749314e-03
5.000000000000000000e+01,1.077786755329023655e-02
5.003999999999999915e+01,1.001818737514722536e-02
5.007999999999999829e+01,7.726483559801169097e-03
5.011999999999999744e+01,7.790981905076586368e-03
5.015999999999999659e+01,1.916638436193084105e-02
5.020000000000000284e+01,1.840551050663442531e-02
5.024000000000000199e+01,2.082561373826505649e-02
5.028000000000000114e+01,1.794329203885770482e-02
5.032000000000000028e+01,1.435372136713914705e-02
5.035999999999999943e+01,1.665510313772588374e-02
5.039999999999999858e+01,1.624621030583583980e-02
5.043999999999999773e+01,2.255304492969458993e-02
5.047999999999999687e+01,1.943357824822928778e-02
5.052000000000000313e+01,1.431078686377577382e-02
5.056000000000000227e+01,1.284027197641417553e-02
5.060000000000000142e+01,1.207640782858047414e-02
5.064000000000000057e+01,1.084094406496639157e-02
5.067999999999999972e+01,2.291940873602801507e-02
5.071999999999999886e+01,1.920902013081783946e-02
5.075999999999999801e+01,1.856178245292479378e-02
5.079999999999999716e+01,1.508644427435881612e-02
5.084000000000000341e+01,1.349600658066377537e-02
5.088000000000000256e+01,1.379046928470169936e-02
5.092000000000000171e+01,1.420245689707903131e-02
5.096000000000000085e+01,1.649934473291357964e-02
5.100000000000000000e+01,2.138808286596959735e-02
5.103999999999999915e+01,1.814659376875831301e-02
5.107999999999999829e+01,1.219482858772578081e-02
5.111999999999999744e+01,1.814309056104743134e-02
5.115999999999999659e+01,1.690372525722438207e-02
5.120000000000000284e+01,1.366103376906860171e-02
5.124000000000000199e+01,1.736971804753746629e-02
5.128000000000000114e+01,1.365512473381382333e-02
5.132000000000000028e+01,1.206108091294021481e-02
5.135999999999999943e+01,9.524135800535645999e-03
5.139999999999999858e+01,1.770896696434941242e-02
5.143999999999999773e+01,8.337567881153338384e-03
5.147999999999999687e+01,9.334469819448696151e-03
5.152000000000000313e+01,1.221627076127045596e-02
5.156000000000000227e+01,9.442168903189957635e-03
5.160000000000000142e+01,1.020251624979865920e-02
5.164000000000000057e+01,9.077361480374654054e-03
5.167999999999999972e+01,1.184013082181515145e-02
5.171999999999999886e+01,7.650921719814296473e-03
5.175999999999999801e+01,2.007473945064274304e-02
5.179999999999999716e+01,1.199670047979406982e-02
5.184000000000000341e+01,8.395710405343467797e-03
5.188000000000000256e+01,1.139261962285978598e-02
5.192000000000000171e+01,8.380150175781525893e-03
5.196000000000000085e+01,1.031602947095578218e-02
5.200000000000000000e+01,1.142683110720954000e-02
5.203999999999999915e+01,8.295629219710609625e-03
5.207999999999999829e+01,1.694662736843895179e-02
5.211999999999999744e+01,1.840999614871274837e-02
5.215999999999999659e+01,1.009358488341911657e-02
5.220000000000000284e+01,1.497327371474354261e-02
5.224000000000000199e+01,7.481031736249799807e-03
5.228000000000000114e+01,1.318488968009827282e-02
5.232000000000000028e+01,1.075851760526627329e-02
5.235999999999999943e+01,1.115964291860089587e-02
5.239999999999999858e+01,8.379189165295078401e-03
5.243999999999999773e+01,6.776682250441436704e-03
5.247999999999999687e+01,3.642146470110092099e-03
5.252000000000000313e+01,1.735628592062186601e-02
5.256000000000000227e+01,1.115769214792139592e-02
5.260000000000000142e+01,1.261742134005885280e-02
5.264000000000000057e+01,1.372337158633743330e-02
5.267999999999999972e+01,1.011601680738855903e-02
5.271999999999999886e+01,1.075005895416963377e-02
5.275999999999999801e+01,6.199495794179305831e-03
5.279999999999999716e+01,5.772504358826106331e-03
5.284000000000000341e+01,8.173009265984554003e-03
5.288000000000000256e+01,1.304753534806565862e-02
5.292000000000000171e+01,1.014530518484879455e-02
5.296000000000000085e+01,1.266272169270482237e-02
5.300000000000000000e+01,6.578606593267712598e-03
5.303999999999999915e+01,1.145191425102875561e-02
5.307999999999999829e+01,7.723690127220819018e-03
5.311999999999999744e+01,1.071118762092161669e-02
5.315999999999999659e+01,1.240230482143436785e-02
5.320000000000000284e+01,1.079401618573133659e-02
5.324000000000000199e+01,9.538897458003006355e-03
5.328000000000000114e+01,9.343898712013711666e-03
5.332000000000000028e+01,1.032684488744259159e-02
5.335999999999999943e+01,1.060253546807900411e-02
5.339999999999999858e+01,9.346195179065784620e-03
5.343999999999999773e+01,7.971724255069524007e-03
5.347999999999999687e+01,1.437339940569419550e-02
5.352000000000000313e+01,1.158441668214767531e-02
5.356000000000000227e+01,1.692505493939742978e-02
5.360000000000000142e+01,1.708108605997959994e-02
5.364000000000000057e+01,1.546943573445059596e-02
5.367999999999999972e+01,1.279705403657473151e-02
5.371999999999999886e+01,1.695821767595601798e-02
5.375999999999999801e+01,1.169307286470454288e-02
5.379999999999999716e+01,1.349712327006846561e-02
5.384000000000000341e+01,1.447609200816797961e-02
5.388000000000000256e+01,1.616170434048672458e-02
5.392000000000000171e+01,1.419443418765619670e-02
5.396000000000000085e+01,1.199120724023277663e-02
5.400000000000000000e+01,1.355807432285796067e-02
5.403999999999999915e+01,1.429985930252916648e-02
5.407999999999999829e+01,1.810478797707092830e-02
5.411999999999999744e+01,1.896378389167614753e-02
5.415999999999999659e+01,1.652337187875574029e-02
5.420000000000000284e+01,1.761740340656033077e-02
5.424000000000000199e+01,1.611897699346577506e-02
5.428000000000000114e+01,1.780151886636923558e-02
5.432000000000000028e+01,8.172550639636521480e-03
5.435999999999999943e+01,1.221097791134286535e-02
5.439999999999999858e+01,1.565997234948811323e-02
5.443999999999999773e+01,1.569173322332534717e-02
5.447999999999999687e+01,1.725491157203245390e-02
5.452000000000000313e+01,1.045220505583994465e-02
5.456000000000000227e+01,1.001174193974022422e-02
5.460000000000000142e+01,1.463744684160791718e-02
5.464000000000000057e+01,1.231116693896679333e-02
5.467999999999999972e+01,1.057370386096962919e-02
5.471999999999999886e+01,1.625890907586703682e-02
5.475999999999999801e+01,1.110390333987944754e-02
5.479999999999999716e+01,1.360721577614463530e-02
5.484000000000000341e+01,1.681716971531920998e-02
5.488000000000000256e+01,9.422562495829154422e-03
5.492000000000000171e+01,1.062887340171450416e-02
5.496000000000000085e+01,1.348442576363185347e-02
5.500000000000000000e+01,1.221579318040817534e-02
5.503999999999999915e+01,1.636680273708604819e-02
5.507999999999999829e+01,7.556750163068831974e-03
5.511999999999999744e+01,1.429929186094303084e-02
5.515999999999999659e+01,1.597504805058823710e-02
5.520000000000000284e+01,1.494051918120736441e-02
5.524000000000000199e+01,1.107788013884547854e-02
5.528000000000000114e+01,1.664093362533711901e-02
5.532000000000000028e+01,1.383810050417090716e-02
5.535999999999999943e+01,1.409840828946207908e-02
5.539999999999999858e+01,1.848228213542611048e-02
5.543999999999999773e+01,1.673894462184239915e-02
5.547999999999999687e+01,1.994394818237501046e-02
5.552000000000000313e+01,1.984954085269305737e-02
5.556000000000000227e+01,1.468834714340299871e-02
5.560000000000000142e+01,1.294376889819398059e-02
5.564000000000000057e+01,1.815055683443938042e-02
5.567999999999999972e+01,1.569840753968804528e-02
5.571999999999999886e+01,1.725199858168918743e-02
5.575999999999999801e+01,1.915875404197664097e-02
5.579999999999999716e+01,1.599872259982850278e-02
5.584000000000000341e+01,2.143960727888389109e-02
5.588000000000000256e+01,2.028197953260625630e-02
5.592000000000000171e+01,1.558928997110088123e-02
5.596000000000000085e+01,1.737666578667849265e-02
5.600000000000000000e+01,1.680722988092292480e-02
5.603999999999999915e+01,1.682660783712235791e-02
5.607999999999999829e+01,1.743479956813893256e-02
5.611999999999999744e+01,1.721790466503014469e-02
5.615999999999999659e+01,2.654452540055791260e-02
5.620000000000000284e+01,2.373485675324842406e-02
5.624000000000000199e+01,2.010010121039983166e-02
5.628000000000000114e+01,2.553756093750588277e-02
5.632000000000000028e+01,1.660005551083709729e-02
5.635999999999999943e+01,1.767736539438352628e-02
5.639999999999999858e+01,1.828306311429031897e-02
5.643999999999999773e+01,2.324797468291840002e-02
5.647999999999999687e+01,1.902222192916992738e-02
5.652000000000000313e+01,2.551823429798719470e-02
5.656000000000000227e+01,2.388400741150545348e-02
5.660000000000000142e+01,3.261807039286256787e-02
5.664000000000000057e+01,3.121886848875509227e-02
5.667999999999999972e+01,2.958370386467674973e-02
5.671999999999999886e+01,3.596032831068261826e-02
5.675999999999999801e+01,4.551791564013608904e-02
5.679999999999999716e+01,5.059783902279137158e-02
5.684000000000000341e+01,5.862307506098431154e-02
5.688000000000000256e+01,6.228847200492034636e-02
5.692000000000000171e+01,6.783875618876480940e-02
5.696000000000000085e+01,7.303525201585596427e-02
5.700000000000000000e+01,7.398973351409354748e-02
5.703999999999999915e+01,8.059950284897118844e-02
5.707999999999999829e+01,8.874068399475450175e-02
5.711999999999999744e+01,9.016552498711255526e-02
5.715999999999999659e+01,8.840877654341876279e-02
5.720000000000000284e+01,8.217436328154770209e-02
5.724000000000000199e+01,8.065263720609081033e-02
5.728000000000000114e+01,7.465324613818086208e-02
5.732000000000000028e+01,6.818224090245937619e-02
5.735999999999999943e+01,5.959007103634981345e-02
5.739999999999999858e+01,6.136618929532091510e-02
5.743999999999999773e+01,5.607249162331232745e-02
5.747999999999999687e+01,4.606547846952700059e-02
5.752000000000000313e+01,3.605815081950881906e-02
5.756000000000000227e+01,3.889343650917743284e-02
5.760000000000000142e+01,2.782505436392627637e-02
5.764000000000000057e+01,2.724278484774531051e-02
5.767999999999999972e+01,2.960582615720586813e-02
5.771999999999999886e+01,3.067247723975647516e-02
5.775999999999999801e+01,2.902883768645471083e-02
5.779999999999999716e+01,2.514620751743085886e-02
5.784000000000000341e+01,2.703668846910591006e-02
5.788000000000000256e+01,2.232865263855245141e-02
5.792000000000000171e+01,1.938767684264261146e-02
5.796000000000000085e+01,2.092373661103047455e-02
5.800000000000000000e+01,1.892473003301920267e-02
5.803999999999999915e+01,2.352360932773657487e-02
5.807999999999999829e+01,2.223092156543819004e-02
5.811999999999999744e+01,1.987749275848480629e-02
5.815999999999999659e+01,1.669897287337263753e-02
5.820000000000000284e+01,2.000051348562045112e-02
5.824000000000000199e+01,2.094523749681207608e-02
5.828000000000000114e+01,2.471744599975951931e-02
5.832000000000000028e+01,1.835638595745016713e-02
5.835999999999999943e+01,1.788626092986389873e-02
5.839999999999999858e+01,2.012579510580266018e-02
5.843999999999999773e+01,1.623811138685033600e-02
5.847999999999999687e+01,2.059786295754828175e-02
5.852000000000000313e+01,1.588477078865319081e-02
5.856000000000000227e+01,2.106866411057113295e-02
5.860000000000000142e+01,1.647276335771803019e-02
5.864000000000000057e+01,1.977082246551235475e-02
5.867999999999999972e+01,2.895981589092650257e-02
5.871999999999999886e+01,1.788258759343905671e-02
5.875999999999999801e+01,2.082622028967154662e-02
5.879999999999999716e+01,2.058825997719781337e-02
5.884000000000000341e+01,1.516568111299021644e-02
5.888000000000000256e+01,1.810836169387082528e-02
5.892000000000000171e+01,1.928334932643598065e-02
5.896000000000000085e+01,2.045801932580341292e-02
5.900000000000000000e+01,1.703719555897059701e-02
5.903999999999999915e+01,1.326257890421309732e-02
5.907999999999999829e+01,1.431847045434292767e-02
5.911999999999999744e+01,2.338614584628237458e-02
5.915999999999999659e+01,1.772537481720413977e-02
5.920000000000000284e+01,1.583468649024612901e-02
5.924000000000000199e+01,1.547540526874660594e-02
5.928000000000000114e+01,1.676535609238468880e-02
5.932000000000000028e+01,2.005801395447359345e-02
5.935999999999999943e+01,1.934430240020624386e-02
5.939999999999999858e+01,2.027982262966277968e-02
5.943999999999999773e+01,1.897634867074282985e-02
5.947999999999999687e+01,2.014688150899025462e-02
5.952000000000000313e+01,1.436541891190371706e-02
5.956000000000000227e+01,2.013049000262100499e-02
5.960000000000000142e+01,2.094659093961821761e-02
5.964000000000000057e+01,2.011282238663465380e-02
5.967999999999999972e+01,1.633310896154489822e-02
5.971999999999999886e+01,1.938692780302560606e-02
5.975999999999999801e+01,1.843437635677095884e-02
5.979999999999999716e+01,2.030930609103151138e-02
5.984000000000000341e+01,2.347999157004779236e-02
5.988000000000000256e+01,1.628175505179465382e-02
5.992000000000000171e+01,2.298655197344502688e-02
5.996000000000000085e+01,1.790852640174559612e-02
