2.003999999999999915e+01,6.543215703248994423e-03
2.007999999999999829e+01,4.456746570399196770e-03
2.012000000000000099e+01,1.006206869169676450e-02
2.016000000000000014e+01,1.405896654655248296e-02
2.019999999999999929e+01,6.517886727417622310e-03
2.023999999999999844e+01,1.457028472538907625e-02
2.028000000000000114e+01,9.895955547364236951e-03
2.032000000000000028e+01,1.389238726993254763e-02
2.035999999999999943e+01,1.460215996090263868e-02
2.039999999999999858e+01,1.405314006493062554e-02
2.044000000000000128e+01,1.007760811361817395e-02
2.048000000000000043e+01,9.528354351633658986e-03
2.051999999999999957e+01,1.261515799464290634e-02
2.055999999999999872e+01,1.255515506988810065e-02
2.060000000000000142e+01,1.291459352347848998e-02
2.064000000000000057e+01,1.166560675078422669e-02
2.067999999999999972e+01,9.157826831239716803e-03
2.071999999999999886e+01,1.553058630807234268e-02
2.076000000000000156e+01,7.568309715728640044e-03
2.080000000000000071e+01,6.248926539492833353e-03
2.083999999999999986e+01,1.415971467909471308e-02
2.087999999999999901e+01,1.633641763132078970e-02
2.092000000000000171e+01,1.200984456545764641e-02
2.096000000000000085e+01,1.145918088850109325e-02
2.100000000000000000e+01,1.209714854074757893e-02
2.103999999999999915e+01,1.070713157553533981e-02
2.107999999999999829e+01,1.386221450999573952e-02
2.112000000000000099e+01,1.652769416847678363e-02
2.116000000000000014e+01,1.639599821881196004e-02
2.119999999999999929e+01,7.873012030275317388e-03
2.123999999999999844e+01,1.662173602439485226e-02
2.128000000000000114e+01,2.544026787766156053e-02
2.132000000000000028e+01,2.034332113324118646e-02
2.135999999999999943e+01,2.923154203295723688e-02
2.139999999999999858e+01,2.630207713153959181e-02
2.144000000000000128e+01,3.295241450557772483e-02
2.148000000000000043e+01,2.988285887503554922e-02
2.151999999999999957e+01,2.359656832516007774e-02
2.155999999999999872e+01,3.094581286006553231e-02
2.160000000000000142e+01,3.123236856203103276e-02
2.164000000000000057e+01,2.725329262643908998e-02
2.167999999999999972e+01,2.935769689216989262e-02
2.171999999999999886e+01,2.509867640384247020e-02
2.176000000000000156e+01,2.237791788438865670e-02
2.180000000000000071e+01,2.280372918715901573e-02
2.183999999999999986e+01,2.267000934230217410e-02
2.187999999999999901e+01,2.190683183794697730e-02
2.192000000000000171e+01,1.554941993032575055e-02
2.196000000000000085e+01,1.310776827570788068e-02
2.200000000000000000e+01,1.891731557092906496e-02
2.203999999999999915e+01,1.325880794464774637e-02
2.207999999999999829e+01,1.417326474301013918e-02
2.212000000000000099e+01,1.459811626572138886e-02
2.216000000000000014e+01,1.390402454583654010e-02
2.219999999999999929e+01,1.397900316424315927e-02
2.223999999999999844e+01,1.006805467282616273e-02
2.228000000000000114e+01,1.685572968728846210e-02
2.232000000000000028e+01,1.392351001744606374e-02
2.235999999999999943e+01,1.057161102391556556e-02
2.239999999999999858e+01,1.442201370209189246e-02
2.244000000000000128e+01,1.225862234586749290e-02
2.248000000000000043e+01,1.575915099992290791e-02
2.251999999999999957e+01,1.688205991758411073e-02
2.255999999999999872e+01,2.003271422757112175e-02
2.260000000000000142e+01,2.563067244120251914e-02
2.264000000000000057e+01,2.374638115092984197e-02
2.267999999999999972e+01,2.612748083331789539e-02
2.271999999999999886e+01,2.780919474459906532e-02
2.276000000000000156e+01,2.599446552941702543e-02
2.280000000000000071e+01,3.564754953101147150e-02
2.283999999999999986e+01,3.530103208093491457e-02
2.287999999999999901e+01,3.607321576879415903e-02
2.292000000000000171e+01,3.880321769721314235e-02
2.296000000000000085e+01,4.363089064997343475e-02
2.300000000000000000e+01,4.314403276735909870e-02
2.303999999999999915e+01,3.776220256068871239e-02
2.307999999999999829e+01,3.993230482536944820e-02
2.312000000000000099e+01,3.671794958283076254e-02
2.316000000000000014e+01,3.518170637339360085e-02
2.319999999999999929e+01,2.742188831415236228e-02
2.323999999999999844e+01,2.113040283238622544e-02
2.328000000000000114e+01,2.064268862493099169e-02
2.332000000000000028e+01,1.994507246975541978e-02
2.335999999999999943e+01,1.868792212745141318e-02
2.339999999999999858e+01,7.571022077428735467e-03
2.344000000000000128e+01,1.938986879340741029e-02
2.348000000000000043e+01,9.881030812678808645e-03
2.351999999999999957e+01,9.042947333593523429e-03
2.355999999999999872e+01,9.393490064551453592e-03
2.360000000000000142e+01,1.142214394875530614e-02
2.364000000000000057e+01,8.765603604752706529e-03
2.367999999999999972e+01,5.829234161263674267e-03
2.371999999999999886e+01,9.465825862956554065e-03
2.376000000000000156e+01,6.109650844302524919e-03
2.380000000000000071e+01,7.438423149982282233e-03
2.383999999999999986e+01,7.298616694196105072e-03
2.387999999999999901e+01,7.788024353484183059e-03
2.392000000000000171e+01,8.976572479743911634e-03
2.396000000000000085e+01,9.675511650956442750e-03
2.400000000000000000e+01,5.269697282775247932e-03
2.403999999999999915e+01,1.261139937931442419e-02
2.407999999999999829e+01,5.548132335882679199e-03
2.412000000000000099e+01,1.274973314503012947e-02
2.416000000000000014e+01,5.756143949885615500e-03
2.419999999999999929e+01,8.202498647334216519e-03
2.423999999999999844e+01,9.040420919679660952e-03
2.428000000000000114e+01,6.661602753597666016e-03
2.432000000000000028e+01,5.121777118387046794e-03
2.435999999999999943e+01,1.302189505582211811e-02
2.439999999999999858e+01,6.167411053970023142e-03
2.444000000000000128e+01,1.322816210538094173e-02
2.448000000000000043e+01,7.142618990868512992e-03
2.451999999999999957e+01,5.811948192810330142e-03
2.455999999999999872e+01,8.886517471798385109e-03
2.460000000000000142e+01,1.601669458842463686e-02
2.464000000000000057e+01,1.055998867425385346e-02
2.467999999999999972e+01,9.228816869631737210e-03
2.471999999999999886e+01,9.925386138044309942e-03
2.476000000000000156e+01,6.915728984997348769e-03
2.480000000000000071e+01,1.313623522908763733e-02
2.483999999999999986e+01,6.979637338099289358e-03
2.487999999999999901e+01,7.815556863978983387e-03
2.492000000000000171e+01,1.060929063107475534e-02
2.496000000000000085e+01,1.256378128403027455e-02
2.500000000000000000e+01,8.434546351540950226e-03
2.503999999999999915e+01,5.493934669580471594e-03
2.507999999999999829e+01,1.269252943934429459e-02
2.512000000000000099e+01,9.541886038764194403e-03
2.516000000000000014e+01,2.964721144392772501e-03
2.519999999999999929e+01,3.939484482068250810e-03
2.523999999999999844e+01,6.872061421064832795e-03
2.528000000000000114e+01,7.636792400225714435e-03
2.532000000000000028e+01,4.275737246805375556e-03
2.535999999999999943e+01,3.851465501124815352e-03
2.539999999999999858e+01,7.902358584650390552e-03
2.544000000000000128e+01,4.121364405769649408e-03
2.548000000000000043e+01,1.257736883527156221e-02
2.551999999999999957e+01,9.775090680065715715e-03
2.555999999999999872e+01,1.130812417035009267e-02
2.560000000000000142e+01,3.890447168132786775e-03
2.564000000000000057e+01,7.381166248550142910e-03
2.567999999999999972e+01,6.396466317083294474e-03
2.571999999999999886e+01,7.089873299558111831e-03
2.576000000000000156e+01,1.162910650439907302e-02
2.580000000000000071e+01,3.651380790707954918e-03
2.583999999999999986e+01,1.490329615394131620e-02
2.587999999999999901e+01,4.757595589370838471e-03
2.592000000000000171e+01,4.121761909842178856e-03
2.596000000000000085e+01,1.047844348753592357e-02
2.600000000000000000e+01,1.340860189171398653e-02
2.603999999999999915e+01,1.304449349606233780e-03
2.607999999999999829e+01,5.912585856669196234e-03
2.612000000000000099e+01,4.227215243002127414e-03
2.616000000000000014e+01,7.296713666327631770e-03
2.619999999999999929e+01,2.814029035033039847e-03
2.623999999999999844e+01,6.582534874969110314e-03
2.628000000000000114e+01,6.504958390175953099e-03
2.632000000000000028e+01,5.797915367341543308e-03
2.635999999999999943e+01,8.726918071417538725e-03
2.639999999999999858e+01,5.921824549929286148e-03
2.644000000000000128e+01,6.962555891030366290e-03
2.648000000000000043e+01,6.115144600226556267e-03
2.651999999999999957e+01,1.128127740044957035e-02
2.655999999999999872e+01,9.664417176897383693e-03
2.660000000000000142e+01,5.949634785826873710e-03
2.664000000000000057e+01,7.059646903790673528e-03
2.667999999999999972e+01,7.610118195715643262e-03
2.671999999999999886e+01,7.531122149730658764e-03
2.676000000000000156e+01,8.361040187302107990e-03
2.680000000000000071e+01,3.876419790746011944e-03
2.683999999999999986e+01,1.113931025982924962e-02
2.687999999999999901e+01,5.815313218850631967e-03
2.692000000000000171e+01,9.092137448746916498e-03
2.696000000000000085e+01,9.431921608632260270e-03
2.700000000000000000e+01,1.799962522854729350e-03
2.703999999999999915e+01,9.691541224530914392e-03
2.707999999999999829e+01,1.338740384231926032e-02
2.712000000000000099e+01,2.328659081713130470e-03
2.716000000000000014e+01,1.035969989469623202e-02
2.719999999999999929e+01,1.118781621478610010e-03
2.723999999999999844e+01,8.240517918391223468e-03
2.728000000000000114e+01,6.481466795237751481e-03
2.732000000000000028e+01,1.136529605033185369e-02
2.735999999999999943e+01,1.394142232250440532e-02
2.739999999999999858e+01,1.225190543900988270e-02
2.744000000000000128e+01,8.464464708272768229e-03
2.748000000000000043e+01,1.341769699236285487e-02
2.751999999999999957e+01,2.284608986635482120e-02
2.755999999999999872e+01,2.947729433430115731e-02
2.760000000000000142e+01,3.100373806403526264e-02
2.764000000000000057e+01,3.434813773210964455e-02
2.767999999999999972e+01,3.454571659475662998e-02
2.771999999999999886e+01,3.642139837200170788e-02
2.776000000000000156e+01,3.263290763601310596e-02
2.780000000000000071e+01,1.975384914447641735e-02
2.783999999999999986e+01,2.183891538558204934e-02
2.787999999999999901e+01,1.525297230247129113e-02
2.792000000000000171e+01,1.586931985287894781e-02
2.796000000000000085e+01,1.641560904085747827e-02
2.800000000000000000e+01,1.857007415164170158e-02
2.803999999999999915e+01,1.799727632842212585e-02
2.807999999999999829e+01,1.938228642745574992e-02
2.812000000000000099e+01,1.363466822380483487e-02
2.816000000000000014e+01,1.606831022013038845e-02
2.819999999999999929e+01,1.794240835091599762e-02
2.823999999999999844e+01,2.016600615066981017e-02
2.828000000000000114e+01,2.176013349302565944e-02
2.832000000000000028e+01,1.384413344869865094e-02
2.835999999999999943e+01,1.550792184209843008e-02
2.839999999999999858e+01,1.850017963089828008e-02
2.844000000000000128e+01,1.065370758725411697e-02
2.848000000000000043e+01,1.896010833849443716e-02
2.851999999999999957e+01,1.405028041325295449e-02
2.855999999999999872e+01,9.769657244621674647e-03
2.860000000000000142e+01,4.859562978697429085e-03
2.864000000000000057e+01,1.106763809204511055e-02
2.867999999999999972e+01,9.234040168397029610e-03
2.871999999999999886e+01,7.749940953874718229e-03
2.876000000000000156e+01,8.643206893134138327e-03
2.880000000000000071e+01,9.116780630818957509e-03
2.883999999999999986e+01,1.399558588695460487e-02
2.887999999999999901e+01,1.006352695543355664e-02
2.892000000000000171e+01,3.823761921502888059e-03
2.896000000000000085e+01,4.506579713894958913e-03
2.900000000000000000e+01,3.930587722167239347e-03
2.903999999999999915e+01,8.808723327219568355e-03
2.907999999999999829e+01,8.302389507008378286e-03
2.912000000000000099e+01,1.038319941634982882e-02
2.916000000000000014e+01,7.569024763643634156e-03
2.919999999999999929e+01,4.894568564568000171e-03
2.923999999999999844e+01,7.044901675379956936e-03
2.928000000000000114e+01,5.349146462447234088e-03
2.932000000000000028e+01,6.030755283480022065e-03
2.935999999999999943e+01,4.614436417900310249e-03
2.939999999999999858e+01,5.925113585733556357e-03
2.944000000000000128e+01,5.627347930170254614e-03
2.948000000000000043e+01,7.427240261087999194e-03
2.951999999999999957e+01,1.167442265792114665e-02
2.955999999999999872e+01,3.474565049340435589e-03
2.960000000000000142e+01,6.532727764115187248e-03
2.964000000000000057e+01,8.499512033668547633e-04
2.967999999999999972e+01,2.719093916135691732e-03
2.971999999999999886e+01,4.448248315168801779e-03
2.976000000000000156e+01,7.855501549469474237e-03
2.980000000000000071e+01,2.731594483952293553e-03
2.983999999999999986e+01,5.509238531425970573e-03
2.987999999999999901e+01,6.258880284342052160e-03
2.992000000000000171e+01,1.036485491779985668e-02
2.996000000000000085e+01,3.632096679312535499e-03
3.000000000000000000e+01,3.821919187489255902e-03
3.003999999999999915e+01,1.656518521707408230e-04
3.007999999999999829e+01,3.991376558616433097e-03
3.012000000000000099e+01,4.810128444203985547e-03
3.016000000000000014e+01,7.306978365190351481e-03
3.019999999999999929e+01,4.629135916933490441e-03
3.023999999999999844e+01,3.419612048449012856e-03
3.028000000000000114e+01,3.328774520328848206e-03
3.032000000000000028e+01,3.307726774322605583e-03
3.035999999999999943e+01,0.000000000000000000e+00
3.039999999999999858e+01,6.971321902916093396e-03
3.044000000000000128e+01,1.355749176938644135e-03
3.048000000000000043e+01,4.970328489962577874e-03
3.051999999999999957e+01,9.773520095313853115e-03
3.055999999999999872e+01,5.276359130370092757e-03
3.060000000000000142e+01,4.993552282109229700e-04
3.064000000000000057e+01,3.064489384231266697e-03
3.067999999999999972e+01,2.902355327114212579e-03
3.071999999999999886e+01,2.810010252242301637e-03
3.076000000000000156e+01,8.241715766599159304e-03
3.080000000000000071e+01,4.303141798855505962e-03
3.083999999999999986e+01,5.538986100945655563e-03
3.087999999999999901e+01,1.670063105899979600e-03
3.092000000000000171e+01,3.954528267093722696e-03
3.096000000000000085e+01,1.148333789004487432e-02
3.100000000000000000e+01,2.579298010653271068e-03
3.103999999999999915e+01,2.482046388458524909e-04
3.107999999999999829e+01,4.769763422172701092e-03
3.112000000000000099e+01,3.487290109600111633e-03
3.116000000000000014e+01,2.274604899417098473e-03
3.119999999999999929e+01,9.243173810208234198e-03
3.123999999999999844e+01,5.932418744548178385e-03
3.128000000000000114e+01,6.537405294950083059e-03
3.132000000000000028e+01,7.841517514752215784e-03
3.135999999999999943e+01,1.145306325730510028e-02
3.139999999999999858e+01,1.513439662232632897e-02
3.144000000000000128e+01,1.077405143125755894e-02
3.148000000000000043e+01,1.291672543603316139e-02
3.151999999999999957e+01,1.387051104940024288e-02
3.155999999999999872e+01,1.629261260297287101e-02
3.160000000000000142e+01,1.214149035007698781e-02
3.164000000000000057e+01,2.288455879918637262e-02
3.167999999999999972e+01,2.180992089053574931e-02
3.171999999999999886e+01,2.220359860214324646e-02
3.176000000000000156e+01,2.224750462503179843e-02
3.180000000000000071e+01,2.480862258646820973e-02
3.183999999999999986e+01,2.499210217456907662e-02
3.187999999999999901e+01,2.111970894412587563e-02
3.192000000000000171e+01,2.354055473401871559e-02
3.196000000000000085e+01,1.295494426421140571e-02
3.200000000000000000e+01,1.586499513884279469e-02
3.203999999999999915e+01,1.646733367208848969e-02
3.207999999999999829e+01,9.447550960759668742e-03
3.211999999999999744e+01,7.742036823453228231e-03
3.215999999999999659e+01,9.043218928002470444e-03
3.220000000000000284e+01,5.868968982807202389e-03
3.224000000000000199e+01,6.750311597757446998e-03
3.228000000000000114e+01,7.142028620390918243e-03
3.232000000000000028e+01,8.932133631595166878e-03
3.235999999999999943e+01,1.477783096298427266e-02
3.239999999999999858e+01,1.034420199830288212e-02
3.243999999999999773e+01,7.938298669189783330e-03
3.247999999999999687e+01,9.171098666555897857e-04
3.252000000000000313e+01,3.126069023792280195e-03
3.256000000000000227e+01,8.062017895379004762e-03
3.260000000000000142e+01,6.494667392709629547e-03
3.264000000000000057e+01,1.640633302472193841e-03
3.267999999999999972e+01,4.827997509926123566e-03
3.271999999999999886e+01,7.525735245207729532e-03
3.275999999999999801e+01,8.405244222529582518e-03
3.279999999999999716e+01,5.158952109725046392e-03
3.284000000000000341e+01,1.213253989134800183e-03
3.288000000000000256e+01,7.826305314134102825e-03
3.292000000000000171e+01,1.325046544818431898e-02
3.296000000000000085e+01,1.056301755475917703e-02
3.300000000000000000e+01,3.400136011852059482e-03
3.303999999999999915e+01,2.740270545301278036e-03
3.307999999999999829e+01,1.590777886696257467e-03
3.311999999999999744e+01,7.713491895200456569e-03
3.315999999999999659e+01,4.326068838610136816e-03
3.320000000000000284e+01,7.092029379007507364e-03
3.324000000000000199e+01,1.536602036368661748e-03
3.328000000000000114e+01,4.162424655386555428e-03
3.332000000000000028e+01,5.809134579239377469e-03
3.335999999999999943e+01,7.595554638087987850e-03
3.339999999999999858e+01,9.591611183829798493e-03
3.343999999999999773e+01,9.140099724876919393e-03
3.347999999999999687e+01,5.961314453705512072e-03
3.352000000000000313e+01,4.950105522225292307e-03
3.356000000000000227e+01,6.735810737407517922e-03
3.360000000000000142e+01,1.179097396050987406e-03
3.364000000000000057e+01,7.299954890681205864e-03
3.367999999999999972e+01,1.174243465142208592e-02
3.371999999999999886e+01,1.261852293741241339e-02
3.375999999999999801e+01,1.503284919621454378e-02
3.379999999999999716e+01,1.297174020579726188e-02
3.384000000000000341e+01,1.153982541372298651e-02
3.388000000000000256e+01,1.213563337768955655e-02
3.392000000000000171e+01,7.346962237981038805e-03
3.396000000000000085e+01,1.011020181319429410e-02
3.400000000000000000e+01,5.810727759537038205e-03
3.403999999999999915e+01,1.032184003474410396e-02
3.407999999999999829e+01,1.049736936459213545e-02
3.411999999999999744e+01,7.106506419820848505e-03
3.415999999999999659e+01,1.476387538424883336e-02
3.420000000000000284e+01,7.177137789416243412e-03
3.424000000000000199e+01,1.175745485395696642e-02
3.428000000000000114e+01,1.137285068624615397e-02
3.432000000000000028e+01,9.100088209203350056e-03
3.435999999999999943e+01,1.025357616604364967e-02
3.439999999999999858e+01,9.588832085462460283e-03
3.443999999999999773e+01,1.053225104980046005e-02
3.447999999999999687e+01,9.098026361669349360e-03
3.452000000000000313e+01,7.943362352683197569e-03
3.456000000000000227e+01,1.070443340083545962e-02
3.460000000000000142e+01,1.045852266959982138e-02
3.464000000000000057e+01,1.622613979205595261e-02
3.467999999999999972e+01,1.304302826499034729e-02
3.471999999999999886e+01,1.223726997366243394e-02
3.475999999999999801e+01,1.401864413373806253e-02
3.479999999999999716e+01,1.083509602173282800e-02
3.484000000000000341e+01,1.674183836639141221e-02
3.488000000000000256e+01,1.215947016014065456e-02
3.492000000000000171e+01,1.394026140709476481e-02
3.496000000000000085e+01,8.378631377956431009e-03
3.500000000000000000e+01,9.879424960891556792e-03
3.503999999999999915e+01,1.620499625561770338e-02
3.507999999999999829e+01,1.455880814733268025e-02
3.511999999999999744e+01,1.696820684013832306e-02
3.515999999999999659e+01,2.238429577578421314e-02
3.520000000000000284e+01,2.619193036992385065e-02
3.524000000000000199e+01,2.713243476865409912e-02
3.528000000000000114e+01,3.233830494418023921e-02
3.532000000000000028e+01,3.418755974113360518e-02
3.535999999999999943e+01,3.463813917228594080e-02
3.539999999999999858e+01,2.487931274023656020e-02
3.543999999999999773e+01,3.316135884623017116e-02
3.547999999999999687e+01,2.913620597252123898e-02
3.552000000000000313e+01,1.776863070290368718e-02
3.556000000000000227e+01,1.996663609077734339e-02
3.560000000000000142e+01,2.048625990539180292e-02
3.564000000000000057e+01,2.044632497690798689e-02
3.567999999999999972e+01,1.711970038185374465e-02
3.571999999999999886e+01,2.120513011853044499e-02
3.575999999999999801e+01,2.494078016780093207e-02
3.579999999999999716e+01,2.112422796560197574e-02
3.584000000000000341e+01,1.926546816820288305e-02
3.588000000000000256e+01,2.838501040868327344e-02
3.592000000000000171e+01,2.610639640410060414e-02
3.596000000000000085e+01,2.522616310928327971e-02
3.600000000000000000e+01,2.434578180655968746e-02
3.603999999999999915e+01,2.234642950579517756e-02
3.607999999999999829e+01,2.342369204005708555e-02
3.611999999999999744e+01,2.408124773514667971e-02
3.615999999999999659e+01,2.900416744732096583e-02
3.620000000000000284e+01,2.574554622119894914e-02
3.624000000000000199e+01,2.248677650724941954e-02
3.628000000000000114e+01,3.272365957914320778e-02
3.632000000000000028e+01,3.184209133364213767e-02
3.635999999999999943e+01,2.928213999513126428e-02
3.639999999999999858e+01,2.979880285175181762e-02
3.643999999999999773e+01,2.500090799740851966e-02
3.647999999999999687e+01,2.432852365648646362e-02
3.652000000000000313e+01,1.987996294608005213e-02
3.656000000000000227e+01,1.983661831665801956e-02
3.660000000000000142e+01,2.335937250562274831e-02
3.664000000000000057e+01,2.695190383877545462e-02
3.667999999999999972e+01,2.788708139264410232e-02
3.671999999999999886e+01,2.595512579158906763e-02
3.675999999999999801e+01,2.437265282229839763e-02
3.679999999999999716e+01,1.943356151492062200e-02
3.684000000000000341e+01,2.113733154891476659e-02
3.688000000000000256e+01,2.486881833993432114e-02
3.692000000000000171e+01,2.328574646014753072e-02
3.696000000000000085e+01,2.282134756291735039e-02
3.700000000000000000e+01,2.452451804652041809e-02
3.703999999999999915e+01,1.867548379906099065e-02
3.707999999999999829e+01,1.911967825363103390e-02
3.711999999999999744e+01,2.033291321138896296e-02
3.715999999999999659e+01,1.958805774886272430e-02
3.720000000000000284e+01,2.541613647594228101e-02
3.724000000000000199e+01,2.516046514159395522e-02
3.728000000000000114e+01,2.189780666873726578e-02
3.732000000000000028e+01,2.688631651074742737e-02
3.735999999999999943e+01,2.579107605136906831e-02
3.739999999999999858e+01,2.294752398743801075e-02
3.743999999999999773e+01,2.842506643029741459e-02
3.747999999999999687e+01,2.607069753470179357e-02
3.752000000000000313e+01,2.938021857432190909e-02
3.756000000000000227e+01,3.010231050683096973e-02
3.760000000000000142e+01,3.474013141747611666e-02
3.764000000000000057e+01,3.490250940016208225e-02
3.767999999999999972e+01,3.394591310534534473e-02
3.771999999999999886e+01,3.263953320376564160e-02
3.775999999999999801e+01,3.755645421255435212e-02
3.779999999999999716e+01,4.051528352126890220e-02
3.784000000000000341e+01,4.822895851080914037e-02
3.788000000000000256e+01,5.111755793304775114e-02
3.792000000000000171e+01,5.302703546163096276e-02
3.796000000000000085e+01,5.647474256440430246e-02
3.800000000000000000e+01,6.111104700195979511e-02
3.803999999999999915e+01,6.693594869431053473e-02
3.807999999999999829e+01,7.108246385421597424e-02
3.811999999999999744e+01,7.487919460748969358e-02
3.815999999999999659e+01,9.175201579591828194e-02
3.820000000000000284e+01,9.862520481771680503e-02
3.824000000000000199e+01,1.190639691378860832e-01
3.828000000000000114e+01,1.408311830966978428e-01
3.832000000000000028e+01,1.663043452982293224e-01
3.835999999999999943e+01,1.963924992769885691e-01
3.839999999999999858e+01,2.452207841936047128e-01
3.843999999999999773e+01,3.167050801536078763e-01
3.847999999999999687e+01,3.841334900972330213e-01
3.852000000000000313e+01,4.868046686634342479e-01
3.856000000000000227e+01,6.305225096186162226e-01
3.860000000000000142e+01,7.836103392392328448e-01
3.864000000000000057e+01,9.230623613553835538e-01
3.867999999999999972e+01,1.000000000000000000e+00
3.871999999999999886e+01,9.689710743683415117e-01
3.875999999999999801e+01,9.094819374327983708e-01
3.879999999999999716e+01,7.971981908176690723e-01
3.884000000000000341e+01,6.375740961299375398e-01
3.888000000000000256e+01,5.104656385014146869e-01
3.892000000000000171e+01,3.910489345332102684e-01
3.896000000000000085e+01,3.026794123946718318e-01
3.900000000000000000e+01,2.282250961941747758e-01
3.903999999999999915e+01,1.875450925068554708e-01
3.907999999999999829e+01,1.458160381743771328e-01
3.911999999999999744e+01,1.221977754530337301e-01
3.915999999999999659e+01,9.725075619902064095e-02
3.920000000000000284e+01,9.020474910051604067e-02
3.924000000000000199e+01,8.224954390067344689e-02
3.928000000000000114e+01,6.967903962964137887e-02
3.932000000000000028e+01,6.172352521615227794e-02
3.935999999999999943e+01,5.789351555702954705e-02
3.939999999999999858e+01,4.790982508530354511e-02
3.943999999999999773e+01,4.841494450943575889e-02
3.947999999999999687e+01,4.304608868852789760e-02
3.952000000000000313e+01,3.543943200057342313e-02
3.956000000000000227e+01,3.979004003808544326e-02
3.960000000000000142e+01,2.903638358187761101e-02
3.964000000000000057e+01,3.506491549117485285e-02
3.967999999999999972e+01,3.640822109752970409e-02
3.971999999999999886e+01,3.089858093254397101e-02
3.975999999999999801e+01,3.231150199742534312e-02
3.979999999999999716e+01,2.666169783533968787e-02
3.984000000000000341e+01,3.059165915474837752e-02
3.988000000000000256e+01,2.731904222344780364e-02
3.992000000000000171e+01,2.586435667451761691e-02
3.996000000000000085e+01,2.930436543087730494e-02
4.000000000000000000e+01,2.337407630815579312e-02
4.003999999999999915e+01,2.457612715104598791e-02
4.007999999999999829e+01,2.689684473751673480e-02
4.011999999999999744e+01,3.012644969192837183e-02
4.015999999999999659e+01,2.489480006180637417e-02
4.020000000000000284e+01,2.903313589764421748e-02
4.024000000000000199e+01,2.659823064984902924e-02
4.028000000000000114e+01,3.024676840948080370e-02
4.032000000000000028e+01,3.186728299798120140e-02
4.035999999999999943e+01,2.747396771796187936e-02
4.039999999999999858e+01,2.699637581699755942e-02
4.043999999999999773e+01,2.994502219191170697e-02
4.047999999999999687e+01,2.492189836558686422e-02
4.052000000000000313e+01,2.905898006967415001e-02
4.056000000000000227e+01,2.067907334007335757e-02
4.060000000000000142e+01,1.383739090552913407e-02
4.064000000000000057e+01,1.741458953535267654e-02
4.067999999999999972e+01,1.833442638720489404e-02
4.071999999999999886e+01,1.694653354052004859e-02
4.075999999999999801e+01,1.632767391821769026e-02
4.079999999999999716e+01,1.717711175915333580e-02
4.084000000000000341e+01,1.543911393405436594e-02
4.088000000000000256e+01,9.575298861480709134e-03
4.092000000000000171e+01,1.294161495133469564e-02
4.096000000000000085e+01,1.574836165983632685e-02
4.100000000000000000e+01,1.393980585771298526e-02
4.103999999999999915e+01,1.073256333165269194e-02
4.107999999999999829e+01,1.269971859878682788e-02
4.111999999999999744e+01,8.792895341419122365e-03
4.115999999999999659e+01,9.850690421619385725e-03
4.120000000000000284e+01,1.223692930142044645e-02
4.124000000000000199e+01,4.064118480515195586e-03
4.128000000000000114e+01,8.827538992020251760e-03
4.132000000000000028e+01,1.170278719649061466e-02
4.135999999999999943e+01,9.053688555959079828e-03
4.139999999999999858e+01,1.339707429771713754e-02
4.143999999999999773e+01,1.109729012435176770e-02
4.147999999999999687e+01,1.320271219358550019e-02
4.152000000000000313e+01,8.734890619606291984e-03
4.156000000000000227e+01,8.112863673178547300e-03
4.160000000000000142e+01,5.392884564155263870e-03
4.164000000000000057e+01,1.400082813432301440e-02
4.167999999999999972e+01,7.015018028263817970e-03
4.171999999999999886e+01,6.322427345756857428e-03
4.175999999999999801e+01,8.356807980719223664e-03
4.179999999999999716e+01,1.123014619228960773e-02
4.184000000000000341e+01,8.788915894668352866e-03
4.188000000000000256e+01,1.096267033543016703e-02
4.192000000000000171e+01,6.912812492531499042e-03
4.196000000000000085e+01,1.167352514109637127e-02
4.200000000000000000e+01,4.826290090940802205e-03
4.203999999999999915e+01,1.091528485344497000e-02
4.207999999999999829e+01,7.703904009434787287e-03
4.211999999999999744e+01,9.317286719539113332e-03
4.215999999999999659e+01,9.741759761726797098e-03
4.220000000000000284e+01,9.816440238621765638e-03
4.224000000000000199e+01,1.038044525284799457e-02
4.228000000000000114e+01,1.087436326934471467e-02
4.232000000000000028e+01,1.290650214146249301e-02
4.235999999999999943e+01,1.200157014862333719e-02
4.239999999999999858e+01,1.228522669201030648e-02
4.243999999999999773e+01,1.096041441626708669e-02
4.247999999999999687e+01,1.397087995156689154e-02
4.252000000000000313e+01,8.659939046876029278e-03
4.256000000000000227e+01,8.313613680212614612e-03
4.260000000000000142e+01,9.994993632451798157e-03
4.264000000000000057e+01,8.879155023594396956e-03
4.267999999999999972e+01,1.342719603164615506e-02
4.271999999999999886e+01,1.189147602006845363e-02
4.275999999999999801e+01,1.084507950599268924e-02
4.279999999999999716e+01,1.049778570508466680e-02
4.284000000000000341e+01,1.203834387938955419e-02
4.288000000000000256e+01,8.404184328612564550e-03
4.292000000000000171e+01,9.804566027865396424e-03
4.296000000000000085e+01,1.218375584787541842e-02
4.300000000000000000e+01,9.598006998495684644e-03
4.303999999999999915e+01,1.120768197657428210e-02
4.307999999999999829e+01,7.083227374562756778e-03
4.311999999999999744e+01,1.330772244584865760e-02
4.315999999999999659e+01,1.149051552489087531e-02
4.320000000000000284e+01,1.617630436362375163e-02
4.324000000000000199e+01,1.372943466463430288e-02
4.328000000000000114e+01,1.666673765521398468e-02
4.332000000000000028e+01,1.386991058578229338e-02
4.335999999999999943e+01,2.044306266334748948e-02
4.339999999999999858e+01,2.449870038760244145e-02
4.343999999999999773e+01,2.442851574522288127e-02
4.347999999999999687e+01,2.946279766494113925e-02
4.352000000000000313e+01,3.589544517690580056e-02
4.356000000000000227e+01,3.624432998951670343e-02
4.360000000000000142e+01,3.827128596193719173e-02
4.364000000000000057e+01,3.931910860257945006e-02
4.367999999999999972e+01,4.099610576479401081e-02
4.371999999999999886e+01,4.176389586714081975e-02
4.375999999999999801e+01,3.854571582672657037e-02
4.379999999999999716e+01,3.784472372879842117e-02
4.384000000000000341e+01,3.910150803829560290e-02
4.388000000000000256e+01,3.881974708101938037e-02
4.392000000000000171e+01,3.455201566103464905e-02
4.396000000000000085e+01,3.615794059403186489e-02
4.400000000000000000e+01,3.972164161450689873e-02
4.403999999999999915e+01,3.867003404535465649e-02
4.407999999999999829e+01,4.118451033704394193e-02
4.411999999999999744e+01,4.467779242987114652e-02
4.415999999999999659e+01,4.705208728732226259e-02
4.420000000000000284e+01,5.453084726710749619e-02
4.424000000000000199e+01,4.732489206600102444e-02
4.428000000000000114e+01,5.186641285625738507e-02
4.432000000000000028e+01,5.333100599843156042e-02
4.435999999999999943e+01,6.451520844735199323e-02
4.439999999999999858e+01,6.674866280994060097e-02
4.443999999999999773e+01,5.891254609606275117e-02
4.447999999999999687e+01,5.604104108084245750e-02
4.452000000000000313e+01,6.002216134516719093e-02
4.456000000000000227e+01,6.330385216555253769e-02
4.460000000000000142e+01,6.120104252576780840e-02
4.464000000000000057e+01,5.734990680380637473e-02
4.467999999999999972e+01,6.279882115739082726e-02
4.471999999999999886e+01,5.719919382822135495e-02
4.475999999999999801e+01,5.579498688707471704e-02
4.479999999999999716e+01,6.725707780760936672e-02
4.484000000000000341e+01,6.774055323731376088e-02
4.488000000000000256e+01,7.004195013101631451e-02
4.492000000000000171e+01,7.507031202322519969e-02
4.496000000000000085e+01,7.345549696146590202e-02
4.500000000000000000e+01,8.316859786000031785e-02
4.503999999999999915e+01,8.253242075472821959e-02
4.507999999999999829e+01,8.399387044105689759e-02
4.511999999999999744e+01,9.258764993466445103e-02
4.515999999999999659e+01,9.796464723669703889e-02
4.520000000000000284e+01,1.023625080874633053e-01
4.524000000000000199e+01,1.046624094968286456e-01
4.528000000000000114e+01,1.061230271587224328e-01
4.532000000000000028e+01,1.059751702424311798e-01
4.535999999999999943e+01,1.082745717172537842e-01
4.539999999999999858e+01,1.054691768597057211e-01
4.543999999999999773e+01,1.048313345057608342e-01
4.547999999999999687e+01,9.594200622468090911e-02
4.552000000000000313e+01,9.404515408724269110e-02
4.556000000000000227e+01,9.158872336996176644e-02
4.560000000000000142e+01,9.241866774648427318e-02
4.564000000000000057e+01,8.380837653389223985e-02
4.567999999999999972e+01,8.372894264644764606e-02
4.571999999999999886e+01,8.427867920124483547e-02
4.575999999999999801e+01,8.217104381973788785e-02
4.579999999999999716e+01,7.663684567121323288e-02
4.584000000000000341e+01,6.711667322061018459e-02
4.588000000000000256e+01,6.493860835318816804e-02
4.592000000000000171e+01,4.961420644687900700e-02
4.596000000000000085e+01,4.659668862755790564e-02
4.600000000000000000e+01,4.721517726159270290e-02
4.603999999999999915e+01,3.328879997909495875e-02
4.607999999999999829e+01,2.887224926825525742e-02
4.611999999999999744e+01,3.228729068386498174e-02
4.615999999999999659e+01,1.661224787050619503e-02
4.620000000000000284e+01,1.820886532799505936e-02
4.624000000000000199e+01,2.169332796181266607e-02
4.628000000000000114e+01,1.531799513542037375e-02
4.632000000000000028e+01,1.481631394278454597e-02
4.635999999999999943e+01,1.557313979955868115e-02
4.639999999999999858e+01,1.199435807501701527e-02
4.643999999999999773e+01,1.191172906020712859e-02
4.647999999999999687e+01,1.238834253600426365e-02
4.652000000000000313e+01,1.363397771807420972e-02
4.656000000000000227e+01,7.117609836553241177e-03
4.660000000000000142e+01,1.234871330715653533e-02
4.664000000000000057e+01,1.023737214550056104e-02
4.667999999999999972e+01,1.050336030350739261e-02
4.671999999999999886e+01,3.007345077975830464e-03
4.675999999999999801e+01,5.370787223746592565e-03
4.679999999999999716e+01,6.545310423123476724e-03
4.684000000000000341e+01,5.761723845392978556e-03
4.688000000000000256e+01,7.215613323622417120e-03
4.692000000000000171e+01,7.410657183613111008e-03
4.696000000000000085e+01,1.047251482654812035e-02
4.700000000000000000e+01,9.758175143438130306e-03
4.703999999999999915e+01,1.016248828619278725e-02
4.707999999999999829e+01,7.699647557423777711e-03
4.711999999999999744e+01,9.711928224989030758e-03
4.715999999999999659e+01,5.430659698729270631e-03
4.720000000000000284e+01,8.631348979852199871e-03
4.724000000000000199e+01,8.055840455008903694e-03
4.728000000000000114e+01,8.668910707993247519e-03
4.732000000000000028e+01,7.813355247217419405e-03
4.735999999999999943e+01,9.335127746327508830e-03
4.739999999999999858e+01,7.570187142713530153e-03
4.743999999999999773e+01,7.832942179590565365e-03
4.747999999999999687e+01,9.004569866823955090e-03
4.752000000000000313e+01,8.357939280941610247e-03
4.756000000000000227e+01,7.920916866599509235e-03
4.760000000000000142e+01,6.994238224968431748e-03
4.764000000000000057e+01,5.577903276061490882e-03
4.767999999999999972e+01,6.888527806566684293e-03
4.771999999999999886e+01,2.255234182851818380e-03
4.775999999999999801e+01,5.173823678587680976e-03
4.779999999999999716e+01,4.525993544193787112e-03
4.784000000000000341e+01,5.696078954769472937e-03
4.788000000000000256e+01,4.628346781042139146e-03
4.792000000000000171e+01,5.798088583616069387e-03
4.796000000000000085e+01,5.219497665102885119e-03
4.800000000000000000e+01,8.067129904949236346e-03
4.803999999999999915e+01,6.019739828944111783e-03
4.807999999999999829e+01,3.552618997691739562e-03
4.811999999999999744e+01,7.868189815281654079e-03
4.815999999999999659e+01,3.652563619079132740e-03
4.820000000000000284e+01,5.380511729134314705e-03
4.824000000000000199e+01,7.318066650952907704e-03
4.828000000000000114e+01,2.892143707429793795e-03
4.832000000000000028e+01,5.388764876583073370e-03
4.835999999999999943e+01,7.325801866812537387e-03
4.839999999999999858e+01,8.003990279288962506e-03
4.843999999999999773e+01,6.584212851414621842e-03
4.847999999999999687e+01,1.208697921626916347e-02
4.852000000000000313e+01,4.233624047437135017e-03
4.856000000000000227e+01,3.162959647591763977e-03
4.860000000000000142e+01,5.518517206302836486e-03
4.864000000000000057e+01,7.734048617487418280e-03
4.867999999999999972e+01,1.837940566355643736e-03
4.871999999999999886e+01,2.304964372957636187e-03
4.875999999999999801e+01,6.128283386284363865e-03
4.879999999999999716e+01,6.664886497346433208e-03
4.884000000000000341e+01,5.593007991378690612e-03
4.888000000000000256e+01,7.807498020290792873e-03
4.892000000000000171e+01,7.784168385241202817e-03
4.896000000000000085e+01,5.942577597548459600e-03
4.900000000000000000e+01,2.492504872878388046e-03
4.903999999999999915e+01,6.104827684889476032e-03
4.907999999999999829e+01,5.591316852116971423e-03
4.911999999999999744e+01,5.986675390239048870e-03
4.915999999999999659e+01,5.752521717815631611e-03
4.920000000000000284e+01,2.161724911374617118e-03
4.924000000000000199e+01,5.073911786606486937e-03
4.928000000000000114e+01,8.615261985248505103e-03
4.932000000000000028e+01,6.632249421500968460e-03
4.935999999999999943e+01,4.299429974810523546e-03
4.939999999999999858e+01,5.602610182591772486e-03
4.943999999999999773e+01,4.807822550350454235e-03
4.947999999999999687e+01,1.114535600681891905e-02
4.952000000000000313e+01,4.826030248771338849e-03
4.956000000000000227e+01,5.499172555691316834e-03
4.960000000000000142e+01,4.423978862062408722e-03
4.964000000000000057e+01,3.698242044424871790e-03
4.967999999999999972e+01,2.482844840180940989e-03
4.971999999999999886e+01,3.085359421523585326e-03
4.975999999999999801e+01,7.953210824414200589e-03
4.979999999999999716e+01,4.429714797819087231e-03
4.984000000000000341e+01,4.891849705261254108e-03
4.988000000000000256e+01,2.277045846445943829e-03
4.992000000000000171e+01,3.228314170388758148e-03
4.996000000000000085e+01,3.130510092743190274e-03
5.000000000000000000e+01,6.738630901650469358e-03
5.003999999999999915e+01,5.731431122899569366e-03
5.007999999999999829e+01,4.933834476515940211e-03
5.011999999999999744e+01,6.163928111502854634e-03
5.015999999999999659e+01,4.107303124671478518e-03
5.020000000000000284e+01,8.483733467943789866e-03
5.024000000000000199e+01,7.685431368549684207e-03
5.028000000000000114e+01,5.838056227672215603e-03
5.032000000000000028e+01,8.186090356642267835e-03
5.035999999999999943e+01,6.967699736322717149e-03
5.039999999999999858e+01,5.609279449054256454e-03
5.043999999999999773e+01,6.558254530798319701e-03
5.047999999999999687e+01,6.318303307356195123e-03
5.052000000000000313e+01,8.735379452374011228e-03
5.056000000000000227e+01,6.746913265557025370e-03
5.060000000000000142e+01,9.023782220563679457e-03
5.064000000000000057e+01,6.335697228687886713e-03
5.067999999999999972e+01,9.451328720115181187e-03
5.071999999999999886e+01,1.032913694817152311e-02
5.075999999999999801e+01,9.738312583596621386e-03
5.079999999999999716e+01,1.131503000438389278e-02
5.084000000000000341e+01,8.206498805891304649e-03
5.088000000000000256e+01,9.013670029893065122e-03
5.092000000000000171e+01,1.072970702538014569e-02
5.096000000000000085e+01,1.195608107468093019e-02
5.100000000000000000e+01,9.476176231133656702e-03
5.103999999999999915e+01,6.017123258236686464e-03
5.107999999999999829e+01,8.851270991963757287e-03
5.111999999999999744e+01,1.035663827694620343e-02
5.115999999999999659e+01,5.778227665069076563e-03
5.120000000000000284e+01,1.022014836334058166e-02
5.124000000000000199e+01,1.102571612072703738e-02
5.128000000000000114e+01,1.085213526884257033e-02
5.132000000000000028e+01,6.273010565372692977e-03
5.135999999999999943e+01,1.120370187529364826e-02
5.139999999999999858e+01,1.081980555916036389e-02
5.143999999999999773e+01,1.029587749641949594e-02
5.147999999999999687e+01,1.263875417810637197e-02
5.152000000000000313e+01,1.078586590392616174e-02
5.156000000000000227e+01,1.200956150985264814e-02
5.160000000000000142e+01,1.232403429849746740e-02
5.164000000000000057e+01,9.701417665230870763e-03
5.167999999999999972e+01,1.169376617356352940e-02
5.171999999999999886e+01,1.354608237538052276e-02
5.175999999999999801e+01,1.281094107474664741e-02
5.179999999999999716e+01,1.571179462937212848e-02
5.184000000000000341e+01,1.189953104040305208e-02
5.188000000000000256e+01,1.445039299020479083e-02
5.192000000000000171e+01,1.902894162196780425e-02
5.196000000000000085e+01,1.395746273103772375e-02
5.200000000000000000e+01,1.105352322586364983e-02
5.203999999999999915e+01,1.066675518587988439e-02
5.207999999999999829e+01,1.069936557457247181e-02
5.211999999999999744e+01,9.473119946732869515e-03
5.215999999999999659e+01,8.945958315132793506e-03
5.220000000000000284e+01,9.956997782396233287e-03
5.224000000000000199e+01,6.352712262723508689e-03
5.228000000000000114e+01,7.153611389194244365e-03
5.232000000000000028e+01,9.003226351378217779e-03
5.235999999999999943e+01,5.538251767823027492e-03
5.239999999999999858e+01,9.765003889009821886e-03
5.243999999999999773e+01,6.089888324766938067e-03
5.247999999999999687e+01,6.330471983543507764e-03
5.252000000000000313e+01,9.787490466510300260e-03
5.256000000000000227e+01,5.832126047276447491e-03
5.260000000000000142e+01,8.519591454586661686e-03
5.264000000000000057e+01,5.612761028712665891e-03
5.267999999999999972e+01,6.691555857807984439e-03
5.271999999999999886e+01,6.721272766220723512e-03
5.275999999999999801e+01,3.044707262363010019e-03
5.279999999999999716e+01,4.542516115546043134e-03
5.284000000000000341e+01,5.690511126928215861e-03
5.288000000000000256e+01,8.936117332470971258e-03
5.292000000000000171e+01,7.286691463763770964e-03
5.296000000000000085e+01,5.567157240832043205e-03
5.300000000000000000e+01,7.203909746016533798e-03
5.303999999999999915e+01,7.511877963086531669e-03
5.307999999999999829e+01,7.330178994665957799e-03
5.311999999999999744e+01,5.120431259314764914e-03
5.315999999999999659e+01,4.518809135026403620e-03
5.320000000000000284e+01,3.917004608476520010e-03
5.324000000000000199e+01,9.538470037375288910e-03
5.328000000000000114e+01,5.020420280824530561e-03
5.332000000000000028e+01,5.886523137137857770e-03
5.335999999999999943e+01,8.500604068348098161e-03
5.339999999999999858e+01,9.855826423446199802e-03
5.343999999999999773e+01,5.267119186201462029e-03
5.347999999999999687e+01,5.643005650567894244e-03
5.352000000000000313e+01,1.042407428148474716e-02
5.356000000000000227e+01,1.135900603662523892e-02
5.360000000000000142e+01,8.797432995423650620e-03
5.364000000000000057e+01,7.704131741673918808e-03
5.367999999999999972e+01,1.080623303887440385e-02
5.371999999999999886e+01,1.118102005049882545e-02
5.375999999999999801e+01,9.108198424097230933e-03
5.379999999999999716e+01,8.503648265200006856e-03
5.384000000000000341e+01,8.528252311209457565e-03
5.388000000000000256e+01,6.035321047348030619e-03
5.392000000000000171e+01,1.067470199365351188e-02
5.396000000000000085e+01,7.761844374449372932e-03
5.400000000000000000e+01,9.883505848911292718e-03
5.403999999999999915e+01,9.557558125439106003e-03
5.407999999999999829e+01,8.602088353036073387e-03
5.411999999999999744e+01,8.765257248821269401e-03
5.415999999999999659e+01,8.718462527007279569e-03
5.420000000000000284e+01,9.440674153986576556e-03
5.424000000000000199e+01,9.043878388897906920e-03
5.428000000000000114e+01,9.555941676397229981e-03
5.432000000000000028e+01,9.298629571276001426e-03
5.435999999999999943e+01,7.852383402241947322e-03
5.439999999999999858e+01,1.095117050381557745e-02
5.443999999999999773e+01,9.294775355406558262e-03
5.447999999999999687e+01,6.659225198776793156e-03
5.452000000000000313e+01,1.031686886990001127e-02
5.456000000000000227e+01,7.680948549626770254e-03
5.460000000000000142e+01,9.869766827563783429e-03
5.464000000000000057e+01,1.017038616283750911e-02
5.467999999999999972e+01,9.142217930534922779e-03
5.471999999999999886e+01,8.113864256469685912e-03
5.475999999999999801e+01,6.316134309928309737e-03
5.479999999999999716e+01,9.273216129778577566e-03
5.484000000000000341e+01,1.146092151717897044e-02
5.488000000000000256e+01,1.127094245880517348e-02
5.492000000000000171e+01,1.345827624279835946e-02
5.496000000000000085e+01,1.438674833119139677e-02
5.500000000000000000e+01,1.056003704978555197e-02
5.503999999999999915e+01,8.341447620059533330e-03
5.507999999999999829e+01,1.367472667218650947e-02
5.511999999999999744e+01,1.418289568266978100e-02
5.515999999999999659e+01,1.511043696284021000e-02
5.520000000000000284e+01,1.387007245299416887e-02
5.524000000000000199e+01,1.186033071082947914e-02
5.528000000000000114e+01,1.404598832014013546e-02
5.532000000000000028e+01,1.406373989947366787e-02
5.535999999999999943e+01,1.261284968768560874e-02
5.539999999999999858e+01,1.263022774392701109e-02
5.543999999999999773e+01,8.311980141819382689e-03
5.547999999999999687e+01,8.608690082558108359e-03
5.552000000000000313e+01,1.303087246296666390e-02
5.556000000000000227e+01,1.122941528419117707e-02
5.560000000000000142e+01,1.285416606626942071e-02
5.564000000000000057e+01,1.266064233789675544e-02
5.567999999999999972e+01,1.134810833792871711e-02
5.571999999999999886e+01,1.150384196609514215e-02
5.575999999999999801e+01,1.270828455110375489e-02
5.579999999999999716e+01,1.244408446513516411e-02
5.584000000000000341e+01,1.092102092385523193e-02
5.588000000000000256e+01,8.768431734235184946e-03
5.592000000000000171e+01,7.804404045278296766e-03
5.596000000000000085e+01,6.210850548007580685e-03
5.600000000000000000e+01,8.393136371143028462e-03
5.603999999999999915e+01,9.456411202801225102e-03
5.607999999999999829e+01,8.141999189079046281e-03
5.611999999999999744e+01,1.011394123261276715e-02
5.615999999999999659e+01,1.320451786500418875e-02
5.620000000000000284e+01,1.293843736567530656e-02
5.624000000000000199e+01,1.197290406624021766e-02
5.628000000000000114e+01,6.951449156268701274e-03
5.632000000000000028e+01,1.032097743116800088e-02
5.635999999999999943e+01,1.313090552976897002e-02
5.639999999999999858e+01,8.808148774966472958e-03
5.643999999999999773e+01,1.014924412158894895e-02
5.647999999999999687e+01,8.623166799772666313e-03
5.652000000000000313e+01,1.108270705418590990e-02
5.656000000000000227e+01,1.095478020772360124e-02
5.660000000000000142e+01,1.068681129634714046e-02
5.664000000000000057e+01,1.349541610674451393e-02
5.667999999999999972e+01,1.245787780238946652e-02
5.671999999999999886e+01,1.142015005692811197e-02
5.675999999999999801e+01,9.543115607762737290e-03
5.679999999999999716e+01,1.339985897202470959e-02
5.684000000000000341e+01,1.257134171897590982e-02
5.688000000000000256e+01,1.132307611356791338e-02
5.692000000000000171e+01,7.487342687402477083e-03
5.696000000000000085e+01,1.267192905327603134e-02
5.700000000000000000e+01,1.212235800362777838e-02
5.703999999999999915e+01,7.307084528039798667e-03
5.707999999999999829e+01,1.298058567409914911e-02
5.711999999999999744e+01,1.278007630090760224e-02
5.715999999999999659e+01,1.320871449371230529e-02
5.720000000000000284e+01,1.258826580730465668e-02
5.724000000000000199e+01,1.413534602837269831e-02
5.728000000000000114e+01,1.169642907111674394e-02
5.732000000000000028e+01,1.079570297440458904e-02
5.735999999999999943e+01,1.052412404375430155e-02
5.739999999999999858e+01,1.388852877020118476e-02
5.743999999999999773e+01,1.221803952011302034e-02
5.747999999999999687e+01,8.659345648293572187e-03
5.752000000000000313e+01,1.258258894724371101e-02
5.756000000000000227e+01,1.196042305288782213e-02
5.760000000000000142e+01,1.063880163887206444e-02
5.764000000000000057e+01,1.239375194695835347e-02
5.767999999999999972e+01,9.323587094241069309e-03
5.771999999999999886e+01,1.506396121815946863e-02
5.775999999999999801e+01,8.986576832876893781e-03
5.779999999999999716e+01,1.353781849324642815e-02
5.784000000000000341e+01,1.242482749025404683e-02
5.788000000000000256e+01,1.166127688595723459e-02
5.792000000000000171e+01,1.145694589602185703e-02
5.796000000000000085e+01,1.167198157669251286e-02
5.800000000000000000e+01,1.398461821320404717e-02
5.803999999999999915e+01,1.140221253714591813e-02
5.807999999999999829e+01,1.126703981637611554e-02
5.811999999999999744e+01,9.313587625969302342e-03
5.815999999999999659e+01,1.001714752652975091e-02
5.820000000000000284e+01,9.741544980090317482e-03
5.824000000000000199e+01,7.367956996516294120e-03
5.828000000000000114e+01,1.086799673062382836e-02
5.832000000000000028e+01,1.520696100676100122e-02
5.835999999999999943e+01,1.269294223767488371e-02
5.839999999999999858e+01,1.367505226224564885e-02
5.843999999999999773e+01,1.220954429032629698e-02
5.847999999999999687e+01,1.228222485933146320e-02
5.852000000000000313e+01,1.018699299940971012e-02
5.856000000000000227e+01,1.347590327407173841e-02
5.860000000000000142e+01,1.340815161780110377e-02
5.864000000000000057e+01,1.396954456801238580e-02
5.867999999999999972e+01,1.453074415776061182e-02
5.871999999999999886e+01,1.327366307806875784e-02
5.875999999999999801e+01,1.285550566055092270e-02
5.879999999999999716e+01,1.481465332667345446e-02
5.884000000000000341e+01,1.152912492106768043e-02
5.888000000000000256e+01,1.083068073478123984e-02
5.892000000000000171e+01,1.188020350521640754e-02
5.896000000000000085e+01,1.537695747122870028e-02
5.900000000000000000e+01,1.376888790933367308e-02
5.903999999999999915e+01,1.404863792796810264e-02
5.907999999999999829e+01,1.376878233119685144e-02
5.911999999999999744e+01,1.236990958395917627e-02
5.915999999999999659e+01,1.090091608453170290e-02
5.920000000000000284e+01,1.243856475583400047e-02
5.924000000000000199e+01,9.500727306265877720e-03
5.928000000000000114e+01,1.327563275731831124e-02
5.932000000000000028e+01,1.152615544926302235e-02
5.935999999999999943e+01,1.215398210503188837e-02
5.939999999999999858e+01,1.236205536926856391e-02
5.943999999999999773e+01,1.054206722864872020e-02
5.947999999999999687e+01,1.214827929015595796e-02
5.952000000000000313e+01,1.172642978683296339e-02
5.956000000000000227e+01,1.228335520971500158e-02
5.960000000000000142e+01,1.060243961214033838e-02
5.964000000000000057e+01,1.332669394312458247e-02
5.967999999999999972e+01,1.066641765888770924e-02
5.971999999999999886e+01,1.101278250555125932e-02
5.975999999999999801e+01,1.352667122051752317e-02
5.979999999999999716e+01,1.247411630929223629e-02
5.984000000000000341e+01,1.372893797016436039e-02
5.988000000000000256e+01,1.505349030285150699e-02
5.992000000000000171e+01,1.232211374619679965e-02
5.996000000000000085e+01,1.350642145501633994e-02
