2.003999999999999915e+01,5.532610234021976409e-02
2.007999999999999829e+01,4.628854257837233116e-02
2.012000000000000099e+01,6.444410993258584130e-02
2.016000000000000014e+01,2.551852434622826557e-02
2.019999999999999929e+01,6.106785293494622346e-02
2.023999999999999844e+01,4.590559319287826345e-02
2.028000000000000114e+01,4.666721972641522942e-02
2.032000000000000028e+01,5.771811359390906226e-02
2.035999999999999943e+01,7.636345626922567964e-02
2.039999999999999858e+01,3.645773692473187888e-02
2.044000000000000128e+01,2.888978359480454117e-02
2.048000000000000043e+01,4.165540977084997154e-02
2.051999999999999957e+01,4.584657655507222429e-02
2.055999999999999872e+01,5.248753402706628213e-02
2.060000000000000142e+01,5.153396262191398819e-02
2.064000000000000057e+01,2.314220805631924185e-02
2.067999999999999972e+01,6.408069919568580575e-02
2.071999999999999886e+01,5.259270068558451194e-02
2.076000000000000156e+01,5.996837112363605921e-02
2.080000000000000071e+01,7.248864042553068709e-02
2.083999999999999986e+01,4.336168383243234337e-02
2.087999999999999901e+01,6.396629611463644505e-02
2.092000000000000171e+01,7.060680012410480710e-02
2.096000000000000085e+01,5.519874323959511608e-02
2.100000000000000000e+01,6.330903042298503813e-02
2.103999999999999915e+01,4.814583691543856264e-02
2.107999999999999829e+01,5.527606767883368882e-02
2.112000000000000099e+01,5.946643433476619944e-02
2.116000000000000014e+01,6.512663602792570505e-02
2.119999999999999929e+01,7.372657148748856804e-02
2.123999999999999844e+01,1.119694263424547281e-01
2.128000000000000114e+01,9.705082074394845437e-02
2.132000000000000028e+01,1.174097490467519295e-01
2.135999999999999943e+01,1.012660829601649271e-01
2.139999999999999858e+01,1.473481182932666056e-01
2.144000000000000128e+01,1.368389201071416872e-01
2.148000000000000043e+01,1.184901771471411625e-01
2.151999999999999957e+01,1.025911893889810689e-01
2.155999999999999872e+01,1.234396268684049697e-01
2.160000000000000142e+01,1.112152282383879198e-01
2.164000000000000057e+01,1.002156635346729135e-01
2.167999999999999972e+01,9.387069843011185133e-02
2.171999999999999886e+01,5.126810899689571849e-02
2.176000000000000156e+01,6.746144052471172992e-02
2.180000000000000071e+01,7.410033187429206081e-02
2.183999999999999986e+01,5.893561316908360603e-02
2.187999999999999901e+01,8.811279227955835791e-02
2.192000000000000171e+01,6.069872012784108956e-02
2.196000000000000085e+01,6.905212495606491419e-02
2.200000000000000000e+01,8.157015081888020769e-02
2.203999999999999915e+01,6.175027441174801845e-02
2.207999999999999829e+01,4.168531545877608019e-02
2.212000000000000099e+01,6.571726208204525799e-02
2.216000000000000014e+01,5.275661800839562959e-02
2.219999999999999929e+01,4.494052104827289673e-02
2.223999999999999844e+01,5.819288864046133491e-02
2.228000000000000114e+01,3.959731182713818048e-02
2.232000000000000028e+01,4.378508018468118407e-02
2.235999999999999943e+01,3.719347082406487814e-02
2.239999999999999858e+01,2.006746563466829322e-02
2.244000000000000128e+01,6.051243943063872033e-02
2.248000000000000043e+01,3.603670675366926063e-02
2.251999999999999957e+01,6.251739917000087576e-02
2.255999999999999872e+01,6.193596295191440733e-03
2.260000000000000142e+01,4.761803883677772492e-02
2.264000000000000057e+01,6.086927418502031950e-02
2.267999999999999972e+01,3.418809919928485208e-02
2.271999999999999886e+01,4.670414025189443402e-02
2.276000000000000156e+01,4.623593848890490687e-02
2.280000000000000071e+01,5.189219513257329469e-02
2.283999999999999986e+01,5.289364051410315459e-02
2.287999999999999901e+01,1.910731889590108062e-02
2.292000000000000171e+01,2.280332234742558917e-02
2.296000000000000085e+01,3.335872839516453026e-02
2.300000000000000000e+01,4.342403452175386258e-02
2.303999999999999915e+01,3.756528706716737859e-02
2.307999999999999829e+01,3.415623714978372610e-02
2.312000000000000099e+01,5.622531987921109559e-02
2.316000000000000014e+01,1.680343815126298518e-02
2.319999999999999929e+01,4.940652602526132697e-02
2.323999999999999844e+01,3.668754877004717918e-02
2.328000000000000114e+01,4.087228036874127751e-02
2.332000000000000028e+01,4.579181705743925329e-02
2.335999999999999943e+01,5.169114072552013356e-02
2.339999999999999858e+01,4.362626444887680865e-02
2.344000000000000128e+01,4.340070649732031410e-02
2.348000000000000043e+01,2.455626165264896549e-02
2.351999999999999957e+01,3.486468518837593927e-02
2.355999999999999872e+01,3.635355359220521221e-02
2.360000000000000142e+01,5.058140176598850679e-02
2.364000000000000057e+01,4.398550682070024448e-02
2.367999999999999972e+01,4.400400448921849145e-02
2.371999999999999886e+01,5.406666044439537022e-02
2.376000000000000156e+01,2.395188277596234372e-02
2.380000000000000071e+01,3.719899847951273902e-02
2.383999999999999986e+01,3.011233040700805538e-02
2.387999999999999901e+01,4.164423258542080536e-02
2.392000000000000171e+01,3.161743119082045805e-02
2.396000000000000085e+01,4.094414719385516821e-02
2.400000000000000000e+01,2.846717329875613628e-02
2.403999999999999915e+01,3.779354752372586501e-02
2.407999999999999829e+01,4.613981516995471072e-02
2.412000000000000099e+01,3.537720552986245437e-02
2.416000000000000014e+01,4.347813915858391581e-02
2.419999999999999929e+01,1.728122373033755266e-02
2.423999999999999844e+01,3.689601908928385327e-02
2.428000000000000114e+01,3.005243020880384378e-02
2.432000000000000028e+01,5.015682982547760987e-02
2.435999999999999943e+01,4.527274245332085778e-02
2.439999999999999858e+01,4.185837035337405809e-02
2.444000000000000128e+01,3.942374531113775060e-02
2.448000000000000043e+01,3.600899890435581979e-02
2.451999999999999957e+01,4.533319826017715576e-02
2.455999999999999872e+01,3.505853732937373735e-02
2.460000000000000142e+01,4.977198760198531940e-02
2.464000000000000057e+01,3.606717338427083142e-02
2.467999999999999972e+01,4.269578342158081991e-02
2.471999999999999886e+01,3.976984534428162910e-02
2.476000000000000156e+01,2.140975684276599442e-02
2.480000000000000071e+01,4.028694054973571553e-02
2.483999999999999986e+01,3.932027025205789283e-02
2.487999999999999901e+01,3.639353033219220462e-02
2.492000000000000171e+01,4.351090434157114245e-02
2.496000000000000085e+01,4.891318913956065051e-02
2.500000000000000000e+01,3.545154749041854597e-02
2.503999999999999915e+01,2.468451429599646113e-02
2.507999999999999829e+01,4.454019202509110209e-02
2.512000000000000099e+01,6.824566733719265692e-03
2.516000000000000014e+01,2.251510262893274134e-02
2.519999999999999929e+01,3.134588971412532316e-02
2.523999999999999844e+01,1.690304085743353155e-02
2.528000000000000114e+01,2.009877702950541370e-02
2.532000000000000028e+01,3.039881192950394731e-02
2.535999999999999943e+01,3.089929168964659217e-02
2.539999999999999858e+01,2.870473250217686276e-02
2.544000000000000128e+01,3.459440107873043568e-02
2.548000000000000043e+01,3.582916080683512527e-02
2.551999999999999957e+01,2.309964222545126539e-02
2.555999999999999872e+01,3.168344884215975460e-02
2.560000000000000142e+01,2.777287439997547236e-02
2.564000000000000057e+01,4.615555567056036507e-02
2.567999999999999972e+01,3.734485084752438983e-02
2.571999999999999886e+01,2.877889566374595628e-02
2.576000000000000156e+01,4.642592564434657593e-02
2.580000000000000071e+01,5.402840085274663445e-02
2.583999999999999986e+01,3.958213478035266242e-02
2.587999999999999901e+01,6.702778498600128754e-02
2.592000000000000171e+01,3.518721902385795602e-02
2.596000000000000085e+01,4.082886575932632295e-02
2.600000000000000000e+01,3.397611665009718507e-02
2.603999999999999915e+01,3.373767291842777460e-02
2.607999999999999829e+01,2.810934805572430639e-02
2.612000000000000099e+01,4.158947737935152211e-02
2.616000000000000014e+01,2.885613633823027116e-02
2.619999999999999929e+01,3.719111346995455925e-02
2.623999999999999844e+01,4.185108713203899988e-02
2.628000000000000114e+01,2.544223672078198620e-02
2.632000000000000028e+01,2.716189963111579481e-02
2.635999999999999943e+01,3.525087272240605418e-02
2.639999999999999858e+01,1.345161605807315176e-02
2.644000000000000128e+01,3.403422170757539750e-02
2.648000000000000043e+01,1.027457593468603277e-02
2.651999999999999957e+01,2.987672299030863510e-02
2.655999999999999872e+01,3.502458655743190957e-02
2.660000000000000142e+01,2.963789904482649895e-02
2.664000000000000057e+01,4.017486271353321731e-02
2.667999999999999972e+01,0.000000000000000000e+00
2.671999999999999886e+01,1.641602459188702678e-02
2.676000000000000156e+01,1.347809094318339236e-02
2.680000000000000071e+01,4.042785453515860411e-02
2.683999999999999986e+01,2.964990433242312845e-02
2.687999999999999901e+01,3.038589581624679889e-02
2.692000000000000171e+01,3.920606035661650113e-02
2.696000000000000085e+01,5.194567921964138302e-02
2.700000000000000000e+01,3.112229562894448451e-02
2.703999999999999915e+01,6.272507025971350847e-02
2.707999999999999829e+01,3.308171890018154343e-02
2.712000000000000099e+01,4.214545419922511443e-02
2.716000000000000014e+01,6.688783809007536885e-02
2.719999999999999929e+01,5.071771109551780760e-02
2.723999999999999844e+01,3.920197817743034663e-02
2.728000000000000114e+01,3.675033848050291568e-02
2.732000000000000028e+01,4.458770736595215473e-02
2.735999999999999943e+01,3.993063013496842006e-02
2.739999999999999858e+01,4.384767495348437100e-02
2.744000000000000128e+01,3.992495468963611072e-02
2.748000000000000043e+01,4.874107077343712430e-02
2.751999999999999957e+01,1.933948119074102232e-02
2.755999999999999872e+01,4.407891418368069941e-02
2.760000000000000142e+01,6.097857617993461543e-02
2.764000000000000057e+01,1.516219127800415463e-02
2.767999999999999972e+01,2.765154177127931295e-02
2.771999999999999886e+01,3.622085071947826057e-02
2.776000000000000156e+01,2.372128088685891353e-02
2.780000000000000071e+01,3.008511977223150488e-02
2.783999999999999986e+01,3.816353013985395587e-02
2.787999999999999901e+01,4.599664356747015098e-02
2.792000000000000171e+01,4.794984111343223582e-02
2.796000000000000085e+01,3.373381984486284457e-02
2.800000000000000000e+01,2.882684855096451573e-02
2.803999999999999915e+01,6.409683011604795644e-02
2.807999999999999829e+01,2.783134727202177597e-02
2.812000000000000099e+01,3.394766464145163726e-02
2.816000000000000014e+01,3.957369135285267181e-02
2.819999999999999929e+01,4.348450908784701890e-02
2.823999999999999844e+01,3.269599786600319025e-02
2.828000000000000114e+01,3.317639321244290895e-02
2.832000000000000028e+01,4.370077680878844267e-02
2.835999999999999943e+01,4.834522825909484678e-02
2.839999999999999858e+01,4.392496230130864959e-02
2.844000000000000128e+01,4.244416248686266185e-02
2.848000000000000043e+01,4.586269428085221894e-02
2.851999999999999957e+01,4.707603853387260645e-02
2.855999999999999872e+01,5.098386112653227609e-02
2.860000000000000142e+01,3.627260756777848233e-02
2.864000000000000057e+01,5.340885017867819107e-02
2.867999999999999972e+01,5.462083072855745264e-02
2.871999999999999886e+01,5.338263297660574003e-02
2.876000000000000156e+01,5.140913901995897844e-02
2.880000000000000071e+01,5.384499810718483548e-02
2.883999999999999986e+01,7.048954347808128462e-02
2.887999999999999901e+01,7.145480276301445499e-02
2.892000000000000171e+01,5.649579111544452553e-02
2.896000000000000085e+01,6.480984593030345020e-02
2.900000000000000000e+01,5.695464348753885575e-02
2.903999999999999915e+01,7.139257107820452808e-02
2.907999999999999829e+01,6.794635487836928056e-02
2.912000000000000099e+01,7.111433020539860428e-02
2.916000000000000014e+01,9.927024817767049480e-02
2.919999999999999929e+01,7.426441293753922868e-02
2.923999999999999844e+01,7.816625127284100583e-02
2.928000000000000114e+01,7.765802366250988686e-02
2.932000000000000028e+01,9.674809868799155721e-02
2.935999999999999943e+01,6.365634805858609579e-02
2.939999999999999858e+01,8.789033577358851268e-02
2.944000000000000128e+01,9.864986701413620829e-02
2.948000000000000043e+01,1.211682272014724948e-01
2.951999999999999957e+01,9.468953960307276152e-02
2.955999999999999872e+01,1.147573162445428840e-01
2.960000000000000142e+01,1.135111627225341979e-01
2.964000000000000057e+01,1.134895474107357055e-01
2.967999999999999972e+01,1.244918035489452901e-01
2.971999999999999886e+01,1.474978631304201537e-01
2.976000000000000156e+01,1.256715833099867896e-01
2.980000000000000071e+01,1.535765426414135437e-01
2.983999999999999986e+01,1.773163986950403170e-01
2.987999999999999901e+01,2.015458339835164425e-01
2.992000000000000171e+01,2.088710279031399941e-01
2.996000000000000085e+01,2.157058646286140191e-01
3.000000000000000000e+01,2.372393114948441739e-01
3.003999999999999915e+01,2.822907682697903264e-01
3.007999999999999829e+01,2.810399736064276843e-01
3.012000000000000099e+01,3.260906391148493122e-01
3.016000000000000014e+01,3.637914057333543894e-01
3.019999999999999929e+01,4.032066565978623673e-01
3.023999999999999844e+01,4.431114733899951807e-01
3.028000000000000114e+01,5.290727610716311480e-01
3.032000000000000028e+01,5.893103913520694181e-01
3.035999999999999943e+01,6.806605041193232175e-01
3.039999999999999858e+01,7.342827714982056442e-01
3.044000000000000128e+01,8.812432938684435779e-01
3.048000000000000043e+01,9.387844772537042859e-01
3.051999999999999957e+01,1.000000000000000000e+00
3.055999999999999872e+01,9.617518627178199830e-01
3.060000000000000142e+01,9.271780618395136786e-01
3.064000000000000057e+01,7.590879098292073746e-01
3.067999999999999972e+01,6.943803220251110186e-01
3.071999999999999886e+01,5.623018894809058699e-01
3.076000000000000156e+01,5.012682136151022094e-01
3.080000000000000071e+01,4.559130517902833524e-01
3.083999999999999986e+01,3.576410594992218694e-01
3.087999999999999901e+01,3.024857155034430534e-01
3.092000000000000171e+01,2.963266191553931006e-01
3.096000000000000085e+01,2.514597232470073829e-01
3.100000000000000000e+01,2.440748537350954928e-01
3.103999999999999915e+01,2.141510839910109598e-01
3.107999999999999829e+01,1.969660175223344467e-01
3.112000000000000099e+01,1.574870312322838306e-01
3.116000000000000014e+01,1.873379032591139248e-01
3.119999999999999929e+01,1.858304678929092457e-01
3.123999999999999844e+01,1.282214034911844103e-01
3.128000000000000114e+01,1.409221264424369013e-01
3.132000000000000028e+01,1.310839388114533877e-01
3.135999999999999943e+01,1.099760740457883801e-01
3.139999999999999858e+01,9.621726663177990191e-02
3.144000000000000128e+01,8.000818037246905379e-02
3.148000000000000043e+01,9.662641877543710900e-02
3.151999999999999957e+01,9.658534003429365689e-02
3.155999999999999872e+01,9.899364537129580477e-02
3.160000000000000142e+01,7.077857863333678057e-02
3.164000000000000057e+01,7.710571421905074163e-02
3.167999999999999972e+01,8.514727934329051340e-02
3.171999999999999886e+01,7.407968625092219150e-02
3.176000000000000156e+01,6.987117046706720069e-02
3.180000000000000071e+01,6.100751221905091615e-02
3.183999999999999986e+01,6.708737946504900185e-02
3.187999999999999901e+01,1.099142904748724031e-01
3.192000000000000171e+01,1.267725015723206450e-01
3.196000000000000085e+01,1.637188844551905054e-01
3.200000000000000000e+01,1.352542422270523181e-01
3.203999999999999915e+01,1.249179018834990218e-01
3.207999999999999829e+01,9.375750644039740345e-02
3.211999999999999744e+01,7.068109183838226783e-02
3.215999999999999659e+01,6.499802458133244198e-02
3.220000000000000284e+01,7.401348614311348273e-02
3.224000000000000199e+01,5.044568502897045503e-02
3.228000000000000114e+01,3.790165925710552858e-02
3.232000000000000028e+01,4.838559237895150023e-02
3.235999999999999943e+01,5.984897979957711639e-02
3.239999999999999858e+01,4.583361630078097021e-02
3.243999999999999773e+01,4.553683927749510585e-02
3.247999999999999687e+01,5.528389673174732150e-02
3.252000000000000313e+01,4.200203251043081731e-02
3.256000000000000227e+01,3.214944887458623390e-02
3.260000000000000142e+01,4.630474725422716042e-02
3.264000000000000057e+01,4.747543760889565839e-02
3.267999999999999972e+01,4.325600286675431588e-02
3.271999999999999886e+01,4.712052678699271691e-02
3.275999999999999801e+01,5.147452348428717406e-02
3.279999999999999716e+01,3.818922225105784302e-02
3.284000000000000341e+01,4.450209353856104944e-02
3.288000000000000256e+01,6.110376788575717227e-02
3.292000000000000171e+01,3.654773654258054727e-02
3.296000000000000085e+01,5.829306039197548056e-02
3.300000000000000000e+01,5.529456124712013587e-02
3.303999999999999915e+01,4.543602349047414640e-02
3.307999999999999829e+01,4.488634792878094804e-02
3.311999999999999744e+01,5.046074929998716624e-02
3.315999999999999659e+01,4.329550679263442781e-02
3.320000000000000284e+01,4.372423846877705050e-02
3.324000000000000199e+01,3.974275781982114508e-02
3.328000000000000114e+01,2.694136274391620289e-02
3.332000000000000028e+01,2.932842182250811752e-02
3.335999999999999943e+01,4.298419968966535332e-02
3.339999999999999858e+01,3.140617304084871581e-02
3.343999999999999773e+01,2.546224476036895029e-02
3.347999999999999687e+01,4.279121586272626593e-02
3.352000000000000313e+01,4.444072936378703348e-02
3.356000000000000227e+01,4.290493555090298117e-02
3.360000000000000142e+01,3.891878304937192168e-02
3.364000000000000057e+01,5.771555728043727823e-02
3.367999999999999972e+01,4.049924845524965900e-02
3.371999999999999886e+01,5.415031454815932843e-02
3.375999999999999801e+01,3.938277903439823396e-02
3.379999999999999716e+01,4.249849697972248735e-02
3.384000000000000341e+01,4.781853135614663047e-02
3.388000000000000256e+01,4.015391187160415737e-02
3.392000000000000171e+01,4.767772436285175330e-02
3.396000000000000085e+01,3.535734573310705259e-02
3.400000000000000000e+01,5.218944809568034499e-02
3.403999999999999915e+01,5.089223995581666077e-02
3.407999999999999829e+01,6.208864082986709221e-02
3.411999999999999744e+01,5.148097772492788576e-02
3.415999999999999659e+01,4.479250279816106989e-02
3.420000000000000284e+01,5.892706696018851914e-02
3.424000000000000199e+01,2.798414275133684695e-02
3.428000000000000114e+01,5.142697608456354291e-02
3.432000000000000028e+01,4.718613721487139451e-02
3.435999999999999943e+01,3.780009451594951164e-02
3.439999999999999858e+01,3.527303153923082302e-02
3.443999999999999773e+01,5.430394888370196349e-02
3.447999999999999687e+01,1.049371631571200808e-01
3.452000000000000313e+01,1.447905502239192344e-01
3.456000000000000227e+01,9.669434769829134135e-02
3.460000000000000142e+01,1.022489407822198548e-01
3.464000000000000057e+01,1.354860909934221813e-01
3.467999999999999972e+01,1.221758363616036042e-01
3.471999999999999886e+01,1.108248822641553777e-01
3.475999999999999801e+01,1.033930941661727054e-01
3.479999999999999716e+01,1.015953541647912767e-01
3.484000000000000341e+01,8.191325745732319641e-02
3.488000000000000256e+01,9.628327657259196093e-02
3.492000000000000171e+01,9.203398592073475104e-02
3.496000000000000085e+01,1.093426563685214181e-01
3.500000000000000000e+01,1.366950681432771708e-01
3.503999999999999915e+01,1.184799952396257405e-01
3.507999999999999829e+01,1.470561658997004417e-01
3.511999999999999744e+01,1.670573374860845339e-01
3.515999999999999659e+01,1.956323442773590937e-01
3.520000000000000284e+01,2.386607856259707061e-01
3.524000000000000199e+01,2.366117016391915961e-01
3.528000000000000114e+01,2.864985045503849470e-01
3.532000000000000028e+01,3.241355504755935590e-01
3.535999999999999943e+01,3.897001102815871310e-01
3.539999999999999858e+01,4.552640785424077463e-01
3.543999999999999773e+01,5.051485182300697874e-01
3.547999999999999687e+01,4.460147646734412552e-01
3.552000000000000313e+01,4.385719057753427186e-01
3.556000000000000227e+01,4.078550294616014593e-01
3.560000000000000142e+01,3.472495833187314029e-01
3.564000000000000057e+01,3.003626053649348648e-01
3.567999999999999972e+01,2.691539610653072012e-01
3.571999999999999886e+01,2.354948797122683180e-01
3.575999999999999801e+01,2.086947278096968339e-01
3.579999999999999716e+01,1.667050007626616481e-01
3.584000000000000341e+01,1.433334018709867541e-01
3.588000000000000256e+01,1.153065096999437156e-01
3.592000000000000171e+01,1.029579423115866144e-01
3.596000000000000085e+01,8.448417847894376664e-02
3.600000000000000000e+01,7.139943501752889221e-02
3.603999999999999915e+01,6.394869381672103892e-02
3.607999999999999829e+01,7.021640454060179559e-02
3.611999999999999744e+01,8.064821436017190204e-02
3.615999999999999659e+01,4.820731514863586809e-02
3.620000000000000284e+01,6.451748504424878461e-02
3.624000000000000199e+01,5.240896166120249250e-02
3.628000000000000114e+01,7.067775183118517324e-02
3.632000000000000028e+01,2.868000793061882547e-02
3.635999999999999943e+01,4.474269520533877970e-02
3.639999999999999858e+01,2.111744836094274838e-02
3.643999999999999773e+01,4.158857776098336817e-02
3.647999999999999687e+01,4.760505698457079965e-02
3.652000000000000313e+01,4.529146875211084722e-02
3.656000000000000227e+01,4.052741241605006817e-02
3.660000000000000142e+01,4.237727111230771282e-02
3.664000000000000057e+01,4.741127621087088545e-02
3.667999999999999972e+01,2.941620586149775590e-02
3.671999999999999886e+01,3.738873217749841271e-02
3.675999999999999801e+01,1.890241293696948849e-02
3.679999999999999716e+01,3.128335476384258573e-02
3.684000000000000341e+01,4.415361855256499241e-02
3.688000000000000256e+01,3.056503234901642926e-02
3.692000000000000171e+01,5.617313728774987747e-02
3.696000000000000085e+01,3.645866994417347462e-02
3.700000000000000000e+01,4.491663922754277061e-02
3.703999999999999915e+01,3.940990437025143622e-02
3.707999999999999829e+01,4.419181732170477522e-02
3.711999999999999744e+01,3.010935581614742479e-02
3.715999999999999659e+01,2.068092169910635755e-02
3.720000000000000284e+01,4.799933469468961600e-02
3.724000000000000199e+01,2.460553096279191262e-02
3.728000000000000114e+01,4.800288947269510526e-02
3.732000000000000028e+01,5.449573307636097069e-02
3.735999999999999943e+01,3.526465904866873252e-02
3.739999999999999858e+01,6.257975945907653936e-02
3.743999999999999773e+01,9.822362742732931862e-02
3.747999999999999687e+01,1.843334007638725014e-01
3.752000000000000313e+01,3.520219657209762709e-01
3.756000000000000227e+01,4.143670110669973594e-01
3.760000000000000142e+01,4.149755748201378602e-01
3.764000000000000057e+01,4.099488467645321377e-01
3.767999999999999972e+01,3.625393202276817606e-01
3.771999999999999886e+01,3.019000145181813255e-01
3.775999999999999801e+01,2.405250799233823733e-01
3.779999999999999716e+01,2.119772363751495914e-01
3.784000000000000341e+01,1.679947589068901959e-01
3.788000000000000256e+01,1.372407000912796715e-01
3.792000000000000171e+01,1.228998422332106127e-01
3.796000000000000085e+01,8.699976182038725303e-02
3.800000000000000000e+01,7.461739707876850758e-02
3.803999999999999915e+01,5.267999185524765982e-02
3.807999999999999829e+01,4.470594799535194258e-02
3.811999999999999744e+01,4.187586277396038170e-02
3.815999999999999659e+01,4.296481787269540442e-02
3.820000000000000284e+01,5.752716316339517161e-02
3.824000000000000199e+01,5.224515912499351489e-02
3.828000000000000114e+01,4.671747371566637580e-02
3.832000000000000028e+01,3.408457115396851256e-02
3.835999999999999943e+01,3.125030235052174421e-02
3.839999999999999858e+01,2.841533110836748713e-02
3.843999999999999773e+01,4.517832538568163081e-02
3.847999999999999687e+01,3.303257684791178345e-02
3.852000000000000313e+01,2.823562247447673063e-02
3.856000000000000227e+01,4.646639633620094217e-02
3.860000000000000142e+01,2.892888864423524484e-02
3.864000000000000057e+01,3.515405633414626224e-02
3.867999999999999972e+01,2.030994159077354269e-02
3.871999999999999886e+01,3.486311673518415616e-02
3.875999999999999801e+01,1.756773829893414421e-02
3.879999999999999716e+01,2.379004596227964757e-02
3.884000000000000341e+01,4.250578668846468483e-02
3.888000000000000256e+01,2.618818561477495588e-02
3.892000000000000171e+01,3.412321630881764295e-02
3.896000000000000085e+01,3.593293966504012421e-02
3.900000000000000000e+01,5.170599037753698807e-02
3.903999999999999915e+01,2.338130876133756933e-02
3.907999999999999829e+01,2.763868750917005193e-02
3.911999999999999744e+01,3.801992140283313310e-02
3.915999999999999659e+01,3.566128963086847431e-02
3.920000000000000284e+01,5.069574497370828853e-02
3.924000000000000199e+01,2.579717785026017229e-02
3.928000000000000114e+01,4.817966577550891055e-02
3.932000000000000028e+01,3.748866258017342218e-02
3.935999999999999943e+01,6.574927696575254277e-02
3.939999999999999858e+01,1.520702101545030882e-01
3.943999999999999773e+01,2.650935895690346156e-01
3.947999999999999687e+01,2.610141767385676936e-01
3.952000000000000313e+01,1.856438599929393918e-01
3.956000000000000227e+01,2.864158394926173412e-01
3.960000000000000142e+01,2.220682821915024308e-01
3.964000000000000057e+01,1.579649599836454033e-01
3.967999999999999972e+01,1.350180938396942365e-01
3.971999999999999886e+01,9.810642449019163491e-02
3.975999999999999801e+01,6.388881947779999348e-02
3.979999999999999716e+01,7.940208397215373082e-02
3.984000000000000341e+01,8.976994207175496843e-02
3.988000000000000256e+01,8.396814073984784632e-02
3.992000000000000171e+01,8.478013171808107540e-02
3.996000000000000085e+01,8.926611311236064272e-02
4.000000000000000000e+01,8.713678198980918943e-02
4.003999999999999915e+01,1.102399747065751084e-01
4.007999999999999829e+01,1.600455899918346303e-01
4.011999999999999744e+01,2.238144912331158642e-01
4.015999999999999659e+01,3.260450137477835519e-01
4.020000000000000284e+01,4.667371560572571298e-01
4.024000000000000199e+01,6.277621474539568647e-01
4.028000000000000114e+01,7.468942109976008936e-01
4.032000000000000028e+01,7.864059065438533391e-01
4.035999999999999943e+01,7.901492554788757117e-01
4.039999999999999858e+01,7.689035245143031050e-01
4.043999999999999773e+01,7.354078473054471710e-01
4.047999999999999687e+01,6.597742514826737681e-01
4.052000000000000313e+01,6.346064486560759610e-01
4.056000000000000227e+01,5.232037180256985387e-01
4.060000000000000142e+01,4.571221267071869376e-01
4.064000000000000057e+01,3.714410807127060954e-01
4.067999999999999972e+01,2.793896804334857764e-01
4.071999999999999886e+01,2.299645979828361664e-01
4.075999999999999801e+01,2.025872289735828613e-01
4.079999999999999716e+01,1.759440189146729283e-01
4.084000000000000341e+01,1.510148997993636388e-01
4.088000000000000256e+01,1.140808015433452116e-01
4.092000000000000171e+01,1.075238453250225434e-01
4.096000000000000085e+01,7.720270534677613206e-02
4.100000000000000000e+01,6.476455268313244251e-02
4.103999999999999915e+01,6.800453554387597688e-02
4.107999999999999829e+01,6.413919923019717473e-02
4.111999999999999744e+01,6.002807656638021322e-02
4.115999999999999659e+01,5.003654861077719979e-02
4.120000000000000284e+01,5.547816689728016920e-02
4.124000000000000199e+01,5.087465967952547324e-02
4.128000000000000114e+01,4.504542672547298676e-02
4.132000000000000028e+01,2.402641458285339690e-02
4.135999999999999943e+01,5.322818101826030934e-02
4.139999999999999858e+01,4.053697820035883498e-02
4.143999999999999773e+01,4.254396264920214110e-02
4.147999999999999687e+01,6.292388340560162163e-02
4.152000000000000313e+01,3.430631280212715489e-02
4.156000000000000227e+01,3.998559446641242188e-02
4.160000000000000142e+01,3.659967079105369558e-02
4.164000000000000057e+01,4.031744258279451598e-02
4.167999999999999972e+01,4.672920773978416625e-02
4.171999999999999886e+01,5.975469867079346437e-02
4.175999999999999801e+01,6.126514466824246191e-02
4.179999999999999716e+01,7.575888104949596302e-02
4.184000000000000341e+01,4.101013087427238246e-02
4.188000000000000256e+01,5.305237290409700601e-02
4.192000000000000171e+01,4.745497988705314057e-02
4.196000000000000085e+01,4.577648672499209231e-02
4.200000000000000000e+01,3.135802291809080405e-02
4.203999999999999915e+01,4.707167638067293741e-02
4.207999999999999829e+01,4.220588846655132925e-02
4.211999999999999744e+01,3.170464314267210787e-02
4.215999999999999659e+01,3.345172479149496891e-02
4.220000000000000284e+01,2.907337933748037687e-02
4.224000000000000199e+01,3.841325810676364527e-02
4.228000000000000114e+01,2.986850515399476144e-02
4.232000000000000028e+01,2.965233937225492805e-02
4.235999999999999943e+01,1.939100668600451244e-02
4.239999999999999858e+01,3.166729355527046069e-02
4.243999999999999773e+01,2.556897605224358119e-02
4.247999999999999687e+01,3.612867431654519235e-02
4.252000000000000313e+01,2.880373198731193615e-02
4.256000000000000227e+01,3.274716837313836754e-02
4.260000000000000142e+01,2.566549551113374641e-02
4.264000000000000057e+01,3.426189903029798478e-02
4.267999999999999972e+01,1.492933795526791424e-02
4.271999999999999886e+01,2.499391890997521015e-02
4.275999999999999801e+01,3.946733688397512096e-02
4.279999999999999716e+01,3.238135339498525445e-02
4.284000000000000341e+01,3.901357195058628713e-02
4.288000000000000256e+01,4.784977277810351093e-02
4.292000000000000171e+01,3.929128496220024580e-02
4.296000000000000085e+01,3.465166003676842937e-02
4.300000000000000000e+01,2.952119589995739687e-02
4.303999999999999915e+01,3.541410936728105197e-02
4.307999999999999829e+01,2.489226174870015976e-02
4.311999999999999744e+01,3.225332307995776998e-02
4.315999999999999659e+01,2.099477005651478184e-02
4.320000000000000284e+01,5.080653173479560657e-03
4.324000000000000199e+01,1.439894184332511304e-02
4.328000000000000114e+01,2.567621463132276072e-02
4.332000000000000028e+01,2.151865093377091503e-02
4.335999999999999943e+01,3.254917026702079663e-02
4.339999999999999858e+01,2.545003311000633775e-02
4.343999999999999773e+01,2.790435856356515698e-02
4.347999999999999687e+01,3.770729483748180844e-02
4.352000000000000313e+01,2.742070324171711967e-02
4.356000000000000227e+01,3.354710412364901584e-02
4.360000000000000142e+01,3.207812594467079198e-02
4.364000000000000057e+01,3.501795225621508190e-02
4.367999999999999972e+01,4.555136536317442447e-02
4.371999999999999886e+01,3.501530973571218008e-02
4.375999999999999801e+01,3.770745540957150255e-02
4.379999999999999716e+01,4.603331649942871140e-02
4.384000000000000341e+01,5.386830732771715619e-02
4.388000000000000256e+01,5.900757610422128346e-02
4.392000000000000171e+01,4.087251844176646026e-02
4.396000000000000085e+01,3.792552163140656962e-02
4.400000000000000000e+01,4.036724947618280934e-02
4.403999999999999915e+01,2.173949675789388705e-02
4.407999999999999829e+01,3.250883579760670272e-02
4.411999999999999744e+01,2.980317572383655092e-02
4.415999999999999659e+01,3.518105143843473087e-02
4.420000000000000284e+01,3.810817664056432436e-02
4.424000000000000199e+01,3.343989912449633894e-02
4.428000000000000114e+01,3.293541907370416133e-02
4.432000000000000028e+01,3.340995122613441698e-02
4.435999999999999943e+01,2.334927580911227984e-02
4.439999999999999858e+01,3.460122917878625387e-02
4.443999999999999773e+01,3.139823813449563183e-02
4.447999999999999687e+01,3.480887084217308691e-02
4.452000000000000313e+01,2.155970586709004405e-02
4.456000000000000227e+01,4.603704941766453146e-02
4.460000000000000142e+01,3.278602268380464285e-02
4.464000000000000057e+01,3.545798177005017593e-02
4.467999999999999972e+01,2.636980461840235379e-02
4.471999999999999886e+01,3.687936084909085310e-02
4.475999999999999801e+01,4.714299617881938242e-02
4.479999999999999716e+01,5.593579228921025104e-02
4.484000000000000341e+01,6.889236516475051586e-02
4.488000000000000256e+01,6.886387756969788998e-02
4.492000000000000171e+01,7.299916378263367200e-02
4.496000000000000085e+01,3.744619946023527990e-02
4.500000000000000000e+01,5.211387916504155171e-02
4.503999999999999915e+01,3.076805589674459426e-02
4.507999999999999829e+01,4.959855561215385095e-02
4.511999999999999744e+01,5.813880303304141961e-02
4.515999999999999659e+01,3.826002745182734838e-02
4.520000000000000284e+01,4.483850181284877723e-02
4.524000000000000199e+01,4.284160301932339598e-02
4.528000000000000114e+01,5.039809882167014393e-02
4.532000000000000028e+01,4.276466757740404051e-02
4.535999999999999943e+01,6.648814772024050357e-02
4.539999999999999858e+01,5.566801179050633042e-02
4.543999999999999773e+01,4.607183003170116364e-02
4.547999999999999687e+01,5.117368620301441379e-02
4.552000000000000313e+01,6.386906115504158155e-02
4.556000000000000227e+01,6.970393469959437760e-02
4.560000000000000142e+01,6.818833862217350827e-02
4.564000000000000057e+01,6.471190553930647460e-02
4.567999999999999972e+01,7.078885226650703799e-02
4.571999999999999886e+01,5.408137275454701770e-02
4.575999999999999801e+01,6.211623890897979144e-02
4.579999999999999716e+01,4.810162597096948739e-02
4.584000000000000341e+01,5.147985470340742109e-02
4.588000000000000256e+01,6.661630616464586652e-02
4.592000000000000171e+01,6.509290819280766360e-02
4.596000000000000085e+01,3.515045764725867328e-02
4.600000000000000000e+01,3.852476177520065825e-02
4.603999999999999915e+01,4.214306442352690890e-02
4.607999999999999829e+01,3.939081317875179483e-02
4.611999999999999744e+01,2.855312298657864192e-02
4.615999999999999659e+01,3.241344558865618536e-02
4.620000000000000284e+01,5.440154665783632909e-02
4.624000000000000199e+01,2.886188210240502039e-02
4.628000000000000114e+01,2.340986000059100403e-02
4.632000000000000028e+01,3.731052876993545125e-02
4.635999999999999943e+01,3.087658132242642600e-02
4.639999999999999858e+01,3.424097043849626959e-02
4.643999999999999773e+01,3.784934328914584672e-02
4.647999999999999687e+01,4.341658197151084669e-02
4.652000000000000313e+01,3.624368292944361164e-02
4.656000000000000227e+01,3.274453033764705701e-02
4.660000000000000142e+01,5.153785868245919916e-02
4.664000000000000057e+01,3.333769143911187449e-02
4.667999999999999972e+01,3.351026828786105027e-02
4.671999999999999886e+01,3.711160230459960296e-02
4.675999999999999801e+01,3.924202465155799541e-02
4.679999999999999716e+01,4.210638416179092458e-02
4.684000000000000341e+01,3.370049432670469552e-02
4.688000000000000256e+01,2.455863848997531448e-02
4.692000000000000171e+01,3.525941808161637409e-02
4.696000000000000085e+01,2.244077549422423060e-02
4.700000000000000000e+01,3.485439947314961789e-02
4.703999999999999915e+01,3.232301619446173446e-02
4.707999999999999829e+01,5.012422916574137133e-02
4.711999999999999744e+01,3.068694543793659343e-02
4.715999999999999659e+01,4.628125708050558063e-02
4.720000000000000284e+01,3.370145368132906882e-02
4.724000000000000199e+01,3.410473957901462988e-02
4.728000000000000114e+01,2.789244385822557334e-02
4.732000000000000028e+01,3.956290183632680396e-02
4.735999999999999943e+01,2.673398937775234990e-02
4.739999999999999858e+01,3.840237859581251828e-02
4.743999999999999773e+01,4.859983100822474339e-02
4.747999999999999687e+01,2.915325782107143493e-02
4.752000000000000313e+01,2.685448083602776440e-02
4.756000000000000227e+01,5.076788318901295782e-02
4.760000000000000142e+01,3.303307047667810442e-02
4.764000000000000057e+01,3.269103289867090339e-02
4.767999999999999972e+01,2.597838228434392813e-02
4.771999999999999886e+01,3.249378659187301954e-02
4.775999999999999801e+01,3.165864143408363834e-02
4.779999999999999716e+01,3.817194740996253388e-02
4.784000000000000341e+01,3.390493381192966754e-02
4.788000000000000256e+01,4.801061994857949017e-02
4.792000000000000171e+01,2.340787960677902929e-02
4.796000000000000085e+01,2.428235371332452056e-02
4.800000000000000000e+01,3.593503871206830957e-02
4.803999999999999915e+01,4.023716389543045835e-02
4.807999999999999829e+01,3.792367788870872058e-02
4.811999999999999744e+01,2.703471226964715771e-02
4.815999999999999659e+01,2.986375204397548680e-02
4.820000000000000284e+01,2.975192671187046334e-02
4.824000000000000199e+01,5.658720568580490745e-02
4.828000000000000114e+01,3.858946067507859623e-02
4.832000000000000028e+01,3.112493135994741020e-02
4.835999999999999943e+01,3.247873268611475156e-02
4.839999999999999858e+01,2.770687772947358352e-02
4.843999999999999773e+01,2.832358330553768830e-02
4.847999999999999687e+01,4.290326581430746467e-02
4.852000000000000313e+01,3.886313583859522802e-02
4.856000000000000227e+01,4.192644553556307968e-02
4.860000000000000142e+01,3.322947409375256317e-02
4.864000000000000057e+01,2.894112231990730172e-02
4.867999999999999972e+01,4.572025775668960013e-02
4.871999999999999886e+01,4.363458994812804970e-02
4.875999999999999801e+01,4.791740431546596957e-02
4.879999999999999716e+01,4.190983035887998337e-02
4.884000000000000341e+01,4.129080214919471359e-02
4.888000000000000256e+01,4.238556768843788902e-02
4.892000000000000171e+01,4.862389264946139628e-02
4.896000000000000085e+01,4.873654062754990968e-02
4.900000000000000000e+01,4.223354340820406616e-02
4.903999999999999915e+01,4.307895148653225620e-02
4.907999999999999829e+01,4.465821244904879389e-02
4.911999999999999744e+01,5.236095891228115251e-02
4.915999999999999659e+01,4.732347006477103518e-02
4.920000000000000284e+01,4.816448039285631949e-02
4.924000000000000199e+01,6.541827324021315393e-02
4.928000000000000114e+01,5.817262467903236423e-02
4.932000000000000028e+01,5.484560391402999724e-02
4.935999999999999943e+01,3.730844023762608375e-02
4.939999999999999858e+01,5.039308850782017041e-02
4.943999999999999773e+01,6.323164288314062076e-02
4.947999999999999687e+01,5.328563203273729842e-02
4.952000000000000313e+01,6.906176133400150630e-02
4.956000000000000227e+01,6.082840561258378437e-02
4.960000000000000142e+01,3.936483158011952477e-02
4.964000000000000057e+01,5.513761155767574196e-02
4.967999999999999972e+01,3.783651746230883017e-02
4.971999999999999886e+01,5.556692410816643085e-02
4.975999999999999801e+01,6.398684041600689876e-02
4.979999999999999716e+01,6.040144785969590174e-02
4.984000000000000341e+01,5.534502978290942871e-02
4.988000000000000256e+01,6.743632067198543356e-02
4.992000000000000171e+01,6.360256437381736627e-02
4.996000000000000085e+01,6.417737895045932950e-02
5.000000000000000000e+01,5.740156126127706621e-02
5.003999999999999915e+01,6.752846325567604668e-02
5.007999999999999829e+01,6.001542857279290599e-02
5.011999999999999744e+01,6.156564284162754919e-02
5.015999999999999659e+01,6.188980312930254801e-02
5.020000000000000284e+01,6.196784142907516696e-02
5.024000000000000199e+01,6.571949014971628644e-02
5.028000000000000114e+01,7.559458149223986789e-02
5.032000000000000028e+01,8.546852977907923310e-02
5.035999999999999943e+01,9.068664954042428283e-02
5.039999999999999858e+01,7.091531975705993307e-02
5.043999999999999773e+01,1.040592499615118210e-01
5.047999999999999687e+01,1.122137276640933906e-01
5.052000000000000313e+01,1.179172212384939078e-01
5.056000000000000227e+01,1.192098622624572085e-01
5.060000000000000142e+01,1.197663997767946797e-01
5.064000000000000057e+01,1.203217824068042729e-01
5.067999999999999972e+01,1.497840460931209039e-01
5.071999999999999886e+01,1.753254180505974813e-01
5.075999999999999801e+01,1.891064290259509562e-01
5.079999999999999716e+01,1.974966451075467200e-01
5.084000000000000341e+01,2.169099504700876258e-01
5.088000000000000256e+01,2.216230899992506775e-01
5.092000000000000171e+01,2.229052971425902197e-01
5.096000000000000085e+01,2.290860049321472580e-01
5.100000000000000000e+01,2.220364426603417540e-01
5.103999999999999915e+01,2.086161431514579612e-01
5.107999999999999829e+01,2.047490238442798427e-01
5.111999999999999744e+01,1.805471123691736735e-01
5.115999999999999659e+01,1.663883448745311910e-01
5.120000000000000284e+01,1.279750483674484685e-01
5.124000000000000199e+01,1.292478804067623555e-01
5.128000000000000114e+01,1.219451160258801237e-01
5.132000000000000028e+01,1.043518701705050816e-01
5.135999999999999943e+01,1.058661455171912985e-01
5.139999999999999858e+01,1.012546536875344183e-01
5.143999999999999773e+01,8.610769257968398094e-02
5.147999999999999687e+01,7.683914636834288103e-02
5.152000000000000313e+01,9.721240026699758119e-02
5.156000000000000227e+01,9.455602868578516507e-02
5.160000000000000142e+01,6.152052910734164687e-02
5.164000000000000057e+01,8.580994578257071514e-02
5.167999999999999972e+01,7.947524813544831757e-02
5.171999999999999886e+01,7.338433905028507453e-02
5.175999999999999801e+01,6.263754968931138645e-02
5.179999999999999716e+01,5.507434634864938339e-02
5.184000000000000341e+01,4.506011008665117973e-02
5.188000000000000256e+01,5.415337580516807470e-02
5.192000000000000171e+01,8.553892580909265575e-02
5.196000000000000085e+01,8.287058398917011848e-02
5.200000000000000000e+01,6.795186861521143595e-02
5.203999999999999915e+01,7.263061604336500110e-02
5.207999999999999829e+01,9.151719069994236622e-02
5.211999999999999744e+01,6.557059942813496523e-02
5.215999999999999659e+01,7.367548523230610380e-02
5.220000000000000284e+01,6.610022293810642602e-02
5.224000000000000199e+01,5.582892956880653595e-02
5.228000000000000114e+01,5.805057245931196513e-02
5.232000000000000028e+01,6.982534971552886716e-02
5.235999999999999943e+01,4.975107067372916414e-02
5.239999999999999858e+01,6.103344278887137819e-02
5.243999999999999773e+01,8.382881177765925951e-02
5.247999999999999687e+01,7.306023645697302948e-02
5.252000000000000313e+01,9.242339101769009302e-02
5.256000000000000227e+01,9.537143406893378028e-02
5.260000000000000142e+01,9.831824978540702753e-02
5.264000000000000057e+01,1.007738699526105480e-01
5.267999999999999972e+01,1.169473284336120661e-01
5.271999999999999886e+01,1.274849376810343882e-01
5.275999999999999801e+01,1.196475610824054847e-01
5.279999999999999716e+01,1.115639663881444199e-01
5.284000000000000341e+01,1.110736198943731573e-01
5.288000000000000256e+01,1.159716698108762822e-01
5.292000000000000171e+01,9.245040988066874355e-02
5.296000000000000085e+01,9.538611304808759794e-02
5.300000000000000000e+01,8.215167180960751547e-02
5.303999999999999915e+01,1.019887416464981406e-01
5.307999999999999829e+01,7.380782628560000891e-02
5.311999999999999744e+01,5.860978287023650007e-02
5.315999999999999659e+01,6.276417748877299863e-02
5.320000000000000284e+01,5.785293797933240001e-02
5.324000000000000199e+01,5.882004830886087415e-02
5.328000000000000114e+01,3.798238641935987314e-02
5.332000000000000028e+01,3.845702359311260060e-02
5.335999999999999943e+01,5.093459036907935916e-02
5.339999999999999858e+01,4.087243038639679082e-02
5.343999999999999773e+01,4.452808062448364995e-02
5.347999999999999687e+01,3.250353544962489294e-02
5.352000000000000313e+01,4.497606572859049606e-02
5.356000000000000227e+01,3.882859722193626045e-02
5.360000000000000142e+01,2.337049643354087089e-02
5.364000000000000057e+01,3.044959971955277928e-02
5.367999999999999972e+01,3.532258543748685586e-02
5.371999999999999886e+01,4.264413609999224281e-02
5.375999999999999801e+01,3.232561405581318298e-02
5.379999999999999716e+01,5.042389100274656533e-02
5.384000000000000341e+01,4.867724197419958515e-02
5.388000000000000256e+01,4.325456777691565752e-02
5.392000000000000171e+01,3.538078377211159586e-02
5.396000000000000085e+01,4.661442486163897697e-02
5.400000000000000000e+01,4.486266836422876658e-02
5.403999999999999915e+01,3.649508036824637008e-02
5.407999999999999829e+01,4.013039536002980384e-02
5.411999999999999744e+01,3.225020853689108957e-02
5.415999999999999659e+01,5.278680739764062685e-02
5.420000000000000284e+01,3.338983080301045903e-02
5.424000000000000199e+01,4.265462030306718666e-02
5.428000000000000114e+01,3.844403513020420993e-02
5.432000000000000028e+01,3.398717567565161246e-02
5.435999999999999943e+01,4.618789285003128270e-02
5.439999999999999858e+01,4.687309785942552626e-02
5.443999999999999773e+01,4.241235679219972077e-02
5.447999999999999687e+01,4.774965361530003616e-02
5.452000000000000313e+01,5.357561886768689302e-02
5.456000000000000227e+01,4.764108267280697112e-02
5.460000000000000142e+01,4.464504562964716899e-02
5.464000000000000057e+01,3.233833786165434682e-02
5.467999999999999972e+01,4.354872919681468391e-02
5.471999999999999886e+01,3.613907886752188575e-02
5.475999999999999801e+01,4.514200701339726729e-02
5.479999999999999716e+01,3.748475748133412583e-02
5.484000000000000341e+01,2.737636413440031058e-02
5.488000000000000256e+01,3.098572777933936845e-02
5.492000000000000171e+01,2.405949350958476798e-02
5.496000000000000085e+01,4.212024820067696018e-02
5.500000000000000000e+01,5.356513590726595664e-02
5.503999999999999915e+01,4.026538592177177772e-02
5.507999999999999829e+01,4.778790320607224223e-02
5.511999999999999744e+01,4.526478191869578310e-02
5.515999999999999659e+01,4.151542182760228211e-02
5.520000000000000284e+01,4.217443891727869210e-02
5.524000000000000199e+01,4.111724751015818219e-02
5.528000000000000114e+01,4.716324737420066193e-02
5.532000000000000028e+01,3.556911686692086627e-02
5.535999999999999943e+01,4.430727654345358035e-02
5.539999999999999858e+01,4.397972077008398262e-02
5.543999999999999773e+01,4.095601563517741600e-02
5.547999999999999687e+01,5.262997878527455459e-02
5.552000000000000313e+01,3.857935302848516240e-02
5.556000000000000227e+01,3.702154228790361518e-02
5.560000000000000142e+01,4.526172803739521300e-02
5.564000000000000057e+01,5.570542439163662235e-02
5.567999999999999972e+01,5.512352800223696558e-02
5.571999999999999886e+01,4.915065485368299431e-02
5.575999999999999801e+01,4.660620471393474296e-02
5.579999999999999716e+01,5.924937776646543169e-02
5.584000000000000341e+01,4.984270060285777432e-02
5.588000000000000256e+01,5.439872683457085134e-02
5.592000000000000171e+01,6.287313689668669325e-02
5.596000000000000085e+01,5.664719334570637865e-02
5.600000000000000000e+01,3.841571175060337628e-02
5.603999999999999915e+01,6.036014800816081466e-02
5.607999999999999829e+01,4.408582289277321320e-02
5.611999999999999744e+01,5.059359354776397227e-02
5.615999999999999659e+01,5.391522149085054699e-02
5.620000000000000284e+01,4.645622083670949976e-02
5.624000000000000199e+01,4.291559218432745154e-02
5.628000000000000114e+01,4.647811783859689266e-02
5.632000000000000028e+01,3.779011025214060182e-02
5.635999999999999943e+01,2.959070308026970006e-02
5.639999999999999858e+01,3.535398008217354587e-02
5.643999999999999773e+01,4.552558842885300744e-02
5.647999999999999687e+01,2.752273870312055629e-02
5.652000000000000313e+01,3.352688680175901215e-02
5.656000000000000227e+01,3.462999382697255768e-02
5.660000000000000142e+01,4.479611027386957295e-02
5.664000000000000057e+01,3.952689786792426552e-02
5.667999999999999972e+01,2.935663995281267286e-02
5.671999999999999886e+01,4.098852215753469308e-02
5.675999999999999801e+01,3.620513760183522584e-02
5.679999999999999716e+01,3.142037046041708248e-02
5.684000000000000341e+01,3.545362050124022113e-02
5.688000000000000256e+01,3.826056815938657513e-02
5.692000000000000171e+01,3.690141154076222174e-02
5.696000000000000085e+01,3.407096621434067135e-02
5.700000000000000000e+01,3.099414754133879984e-02
5.703999999999999915e+01,3.894018896931092377e-02
5.707999999999999829e+01,4.737480419742010063e-02
5.711999999999999744e+01,4.747859050054561297e-02
5.715999999999999659e+01,2.602244453029659357e-02
5.720000000000000284e+01,3.420788871161809658e-02
5.724000000000000199e+01,4.067705046711980743e-02
5.728000000000000114e+01,3.881537738331600207e-02
5.732000000000000028e+01,4.111701974755826994e-02
5.735999999999999943e+01,4.733699271330672753e-02
5.739999999999999858e+01,4.057144241277879648e-02
5.743999999999999773e+01,2.988475198189353282e-02
5.747999999999999687e+01,3.732542305842141694e-02
5.752000000000000313e+01,3.545531695232324171e-02
5.756000000000000227e+01,4.509801846157197869e-02
5.760000000000000142e+01,4.518495646307427172e-02
5.764000000000000057e+01,3.375626253457404691e-02
5.767999999999999972e+01,2.257113685954457646e-02
5.771999999999999886e+01,3.539296465147229176e-02
5.775999999999999801e+01,3.767908954949390071e-02
5.779999999999999716e+01,3.653402774585310514e-02
5.784000000000000341e+01,4.763671331137438181e-02
5.788000000000000256e+01,3.031990568620812274e-02
5.792000000000000171e+01,4.288964496612372029e-02
5.796000000000000085e+01,4.516865732719024112e-02
5.800000000000000000e+01,4.205660865001649429e-02
5.803999999999999915e+01,3.894313155112985592e-02
5.807999999999999829e+01,4.072789191113906221e-02
5.811999999999999744e+01,2.389248492735599610e-02
5.815999999999999659e+01,3.424879892961804617e-02
5.820000000000000284e+01,3.455936050950784294e-02
5.824000000000000199e+01,3.413353617090413017e-02
5.828000000000000114e+01,4.081079220992893386e-02
5.832000000000000028e+01,4.307690885390761532e-02
5.835999999999999943e+01,3.137753327384086577e-02
5.839999999999999858e+01,3.584561825016106124e-02
5.843999999999999773e+01,3.247279224426131983e-02
5.847999999999999687e+01,4.673732404534434309e-02
5.852000000000000313e+01,3.037748868681735756e-02
5.856000000000000227e+01,4.243427636832813876e-02
5.860000000000000142e+01,3.783074590675690463e-02
5.864000000000000057e+01,4.718981681845466764e-02
5.867999999999999972e+01,5.140278492400375543e-02
5.871999999999999886e+01,3.038101257214856701e-02
5.875999999999999801e+01,3.434608871599643259e-02
5.879999999999999716e+01,3.659482476938659412e-02
5.884000000000000341e+01,5.182622133130573155e-02
5.888000000000000256e+01,4.157788815353934825e-02
5.892000000000000171e+01,4.259732895142477604e-02
5.896000000000000085e+01,6.860361085211104382e-02
5.900000000000000000e+01,5.982079059491112599e-02
5.903999999999999915e+01,5.128148831944631669e-02
5.907999999999999829e+01,4.666045306652800290e-02
5.911999999999999744e+01,4.228293283818399667e-02
5.915999999999999659e+01,4.696832740237393000e-02
5.920000000000000284e+01,4.773251677866646725e-02
5.924000000000000199e+01,4.849523337583247495e-02
5.928000000000000114e+01,4.803155887549408198e-02
5.932000000000000028e+01,5.393597620581395968e-02
5.935999999999999943e+01,5.836901611350912844e-02
5.939999999999999858e+01,4.001712410752675253e-02
5.943999999999999773e+01,5.106175608464977311e-02
5.947999999999999687e+01,3.540171930358305963e-02
5.952000000000000313e+01,4.521846966110969201e-02
5.956000000000000227e+01,4.155965017309607573e-02
5.960000000000000142e+01,4.328897869383971364e-02
5.964000000000000057e+01,3.913721881862530783e-02
5.967999999999999972e+01,5.017293871338524003e-02
5.971999999999999886e+01,5.116284999971551506e-02
5.975999999999999801e+01,5.509106970088662597e-02
5.979999999999999716e+01,5.215826161994008975e-02
5.984000000000000341e+01,4.946894194911941045e-02
5.988000000000000256e+01,5.927227760781701715e-02
5.992000000000000171e+01,4.237092824393975249e-02
5.996000000000000085e+01,6.172561794448665901e-02
