2.003999999999999915e+01,5.527381817881433200e-03
2.007999999999999829e+01,7.580181134876103413e-03
2.012000000000000099e+01,3.456652935554794821e-03
2.016000000000000014e+01,1.035132175834893586e-02
2.019999999999999929e+01,7.265127417658167296e-03
2.023999999999999844e+01,5.315219392332273807e-03
2.028000000000000114e+01,7.021484881814548176e-03
2.032000000000000028e+01,4.083118906295009690e-03
2.035999999999999943e+01,1.142180655102756175e-02
2.039999999999999858e+01,6.457381923854568252e-03
2.044000000000000128e+01,7.718427503114332240e-03
2.048000000000000043e+01,4.680708409150299149e-03
2.051999999999999957e+01,3.223961467840593970e-03
2.055999999999999872e+01,7.399770031855996966e-03
2.060000000000000142e+01,8.907329121386572957e-03
2.064000000000000057e+01,6.807857202780962652e-03
2.067999999999999972e+01,6.536405121947838452e-03
2.071999999999999886e+01,7.055372238575962664e-03
2.076000000000000156e+01,4.659042032538284958e-03
2.080000000000000071e+01,1.006928755604527201e-02
2.083999999999999986e+01,5.004574056642449760e-03
2.087999999999999901e+01,7.301750266049275573e-03
2.092000000000000171e+01,9.648202271054274332e-03
2.096000000000000085e+01,4.484268391796386588e-03
2.100000000000000000e+01,5.446985326951478586e-03
2.103999999999999915e+01,1.288221992944624944e-02
2.107999999999999829e+01,6.976741293598580189e-03
2.112000000000000099e+01,5.369759937808258124e-03
2.116000000000000014e+01,1.201404010808625016e-02
2.119999999999999929e+01,1.070324829183492803e-02
2.123999999999999844e+01,7.218302208272450726e-03
2.128000000000000114e+01,9.316501709813856599e-03
2.132000000000000028e+01,6.374792810142929957e-03
2.135999999999999943e+01,6.595161341643989567e-03
2.139999999999999858e+01,7.013034084138771058e-03
2.144000000000000128e+01,8.913059403822471208e-03
2.148000000000000043e+01,3.895613214225343221e-03
2.151999999999999957e+01,4.560131594094852560e-03
2.155999999999999872e+01,8.189089089902455362e-03
2.160000000000000142e+01,7.519281341766573430e-03
2.164000000000000057e+01,8.973950262194338792e-03
2.167999999999999972e+01,9.045017544378414556e-03
2.171999999999999886e+01,1.109233279437066982e-02
2.176000000000000156e+01,7.062138799010822705e-03
2.180000000000000071e+01,9.800919403696036619e-03
2.183999999999999986e+01,7.697429555511484459e-03
2.187999999999999901e+01,1.028771302674956305e-02
2.192000000000000171e+01,9.172145730940417171e-03
2.196000000000000085e+01,5.882423800928873910e-03
2.200000000000000000e+01,9.756952795687490881e-03
2.203999999999999915e+01,7.306924635764433518e-03
2.207999999999999829e+01,1.014358433330882041e-02
2.212000000000000099e+01,3.542884975620724883e-03
2.216000000000000014e+01,6.280456807687973160e-03
2.219999999999999929e+01,7.782655396524265981e-03
2.223999999999999844e+01,7.505975635117609346e-03
2.228000000000000114e+01,7.327980529622166866e-03
2.232000000000000028e+01,8.187451572923691231e-03
2.235999999999999943e+01,5.094023858317055925e-03
2.239999999999999858e+01,5.557949471567753992e-03
2.244000000000000128e+01,7.306388939116476890e-03
2.248000000000000043e+01,8.066502787403872707e-03
2.251999999999999957e+01,3.885526729653304180e-03
2.255999999999999872e+01,4.744190518126320186e-03
2.260000000000000142e+01,5.503900586128105191e-03
2.264000000000000057e+01,7.350486193194023972e-03
2.267999999999999972e+01,8.554612952393793671e-03
2.271999999999999886e+01,6.695212730178441013e-03
2.276000000000000156e+01,4.390991832650983223e-03
2.280000000000000071e+01,7.916963512328843364e-03
2.283999999999999986e+01,7.341807529514627999e-03
2.287999999999999901e+01,7.161793216848442480e-03
2.292000000000000171e+01,6.685186807328583405e-03
2.296000000000000085e+01,8.036599073758825609e-03
2.300000000000000000e+01,9.931381609178363545e-03
2.303999999999999915e+01,7.626217273531748705e-03
2.307999999999999829e+01,6.902023786037094974e-03
2.312000000000000099e+01,5.535371226465033226e-03
2.316000000000000014e+01,7.973119374125772763e-03
2.319999999999999929e+01,5.815644142549564188e-03
2.323999999999999844e+01,5.980282977542781923e-03
2.328000000000000114e+01,1.103633263187858878e-02
2.332000000000000028e+01,5.518602892908189284e-03
2.335999999999999943e+01,6.769846959051774131e-03
2.339999999999999858e+01,7.576270023757705405e-03
2.344000000000000128e+01,8.629605813262037836e-03
2.348000000000000043e+01,7.904062620655072369e-03
2.351999999999999957e+01,6.783107918791863797e-03
2.355999999999999872e+01,3.636226427402032384e-03
2.360000000000000142e+01,1.126049243855289060e-02
2.364000000000000057e+01,1.739508300454960243e-03
2.367999999999999972e+01,7.090664550515581900e-03
2.371999999999999886e+01,7.154863409743302677e-03
2.376000000000000156e+01,9.145899643924067582e-03
2.380000000000000071e+01,7.134626833084207337e-03
2.383999999999999986e+01,9.718307236247532635e-03
2.387999999999999901e+01,1.101720398677029193e-02
2.392000000000000171e+01,1.033958331765075754e-02
2.396000000000000085e+01,6.400796821928104834e-03
2.400000000000000000e+01,8.885116931884333782e-03
2.403999999999999915e+01,7.614175641172510854e-03
2.407999999999999829e+01,6.194870322494156270e-03
2.412000000000000099e+01,8.876422541839807528e-03
2.416000000000000014e+01,2.812348413046585321e-03
2.419999999999999929e+01,5.147762921214968194e-03
2.423999999999999844e+01,9.904110093041410337e-03
2.428000000000000114e+01,4.333725149022932960e-03
2.432000000000000028e+01,8.398067614065557462e-03
2.435999999999999943e+01,7.966005215428527408e-03
2.439999999999999858e+01,3.185766592718689699e-03
2.444000000000000128e+01,7.299112017972574779e-03
2.448000000000000043e+01,7.311328945037593070e-03
2.451999999999999957e+01,6.631676533295616412e-03
2.455999999999999872e+01,6.791850915591366063e-03
2.460000000000000142e+01,9.916462864728680174e-03
2.464000000000000057e+01,4.740134201102306696e-03
2.467999999999999972e+01,9.099713656431546865e-03
2.471999999999999886e+01,7.381782358077916203e-03
2.476000000000000156e+01,7.985964351745512835e-03
2.480000000000000071e+01,7.799457757266255870e-03
2.483999999999999986e+01,5.389385507689587428e-03
2.487999999999999901e+01,8.908323882069952779e-03
2.492000000000000171e+01,3.385178201057795384e-03
2.496000000000000085e+01,9.423732182848221575e-03
2.500000000000000000e+01,7.556621795068667498e-03
2.503999999999999915e+01,6.430518850072821681e-03
2.507999999999999829e+01,6.737157074096758805e-03
2.512000000000000099e+01,8.822403320067111199e-03
2.516000000000000014e+01,4.385452608173943251e-03
2.519999999999999929e+01,6.223379230484480697e-03
2.523999999999999844e+01,7.418845700426612844e-03
2.528000000000000114e+01,7.675394677638019796e-03
2.532000000000000028e+01,8.030626761664201238e-03
2.535999999999999943e+01,5.470559178996998485e-03
2.539999999999999858e+01,3.947956175647397530e-03
2.544000000000000128e+01,7.464991550956350669e-03
2.548000000000000043e+01,7.967908091763531778e-03
2.551999999999999957e+01,8.223640764161774599e-03
2.555999999999999872e+01,4.674701708013806294e-03
2.560000000000000142e+01,8.191192635519822449e-03
2.564000000000000057e+01,7.804192687054032317e-03
2.567999999999999972e+01,5.786541295410093169e-03
2.571999999999999886e+01,5.300449853320224856e-03
2.576000000000000156e+01,8.124662260278778941e-03
2.580000000000000071e+01,3.883172296619084168e-03
2.583999999999999986e+01,4.335453634480029676e-03
2.587999999999999901e+01,5.528741987084824679e-03
2.592000000000000171e+01,4.103187707615907169e-03
2.596000000000000085e+01,2.924544868825991462e-03
2.600000000000000000e+01,8.761922256531631120e-03
2.603999999999999915e+01,8.818245537899954342e-03
2.607999999999999829e+01,7.688603152230918426e-03
2.612000000000000099e+01,8.238749172277239421e-03
2.616000000000000014e+01,7.800567697840200994e-03
2.619999999999999929e+01,6.028191835227502196e-03
2.623999999999999844e+01,5.737966103861937874e-03
2.628000000000000114e+01,5.744061203442452947e-03
2.632000000000000028e+01,7.034668180184695287e-03
2.635999999999999943e+01,5.657022747311982527e-03
2.639999999999999858e+01,7.392042624042430288e-03
2.644000000000000128e+01,2.753093550647993208e-03
2.648000000000000043e+01,6.958317932362121858e-03
2.651999999999999957e+01,3.356696276617885874e-03
2.655999999999999872e+01,1.583091462367412381e-03
2.660000000000000142e+01,3.218609175785426026e-03
2.664000000000000057e+01,7.522106096540216551e-03
2.667999999999999972e+01,6.933920544770723858e-03
2.671999999999999886e+01,4.220987486569737455e-03
2.676000000000000156e+01,6.350053921073637100e-03
2.680000000000000071e+01,6.304963255050454948e-03
2.683999999999999986e+01,5.864459387994563379e-03
2.687999999999999901e+01,5.226180512842863203e-03
2.692000000000000171e+01,5.971232315769990813e-03
2.696000000000000085e+01,5.233860683257561541e-03
2.700000000000000000e+01,3.903437554861366541e-03
2.703999999999999915e+01,6.871508689860915918e-03
2.707999999999999829e+01,3.860886975249416386e-03
2.712000000000000099e+01,6.433407869845935226e-03
2.716000000000000014e+01,6.485904607160294932e-03
2.719999999999999929e+01,5.945349746676644072e-03
2.723999999999999844e+01,6.639896741219272758e-03
2.728000000000000114e+01,1.005183217030302702e-02
2.732000000000000028e+01,2.494709741156360579e-03
2.735999999999999943e+01,4.473494065314544306e-03
2.739999999999999858e+01,2.400557956665824028e-03
2.744000000000000128e+01,4.379068140934792332e-03
2.748000000000000043e+01,2.898772491590262401e-03
2.751999999999999957e+01,5.766380414377211133e-03
2.755999999999999872e+01,4.483448716166077951e-03
2.760000000000000142e+01,7.449601442660850822e-03
2.764000000000000057e+01,8.043958427269078115e-03
2.767999999999999972e+01,6.315929202937799018e-03
2.771999999999999886e+01,6.662963995647325915e-03
2.776000000000000156e+01,3.304145045413783496e-03
2.780000000000000071e+01,6.071973444509035089e-03
2.783999999999999986e+01,6.023320019834172041e-03
2.787999999999999901e+01,6.715672590760777758e-03
2.792000000000000171e+01,8.198440690235956479e-03
2.796000000000000085e+01,6.271812264833369517e-03
2.800000000000000000e+01,3.603903173986040299e-03
2.803999999999999915e+01,6.222678903561693932e-03
2.807999999999999829e+01,7.655487946957631983e-03
2.812000000000000099e+01,5.431852617294786502e-03
2.816000000000000014e+01,6.963205893678795118e-03
2.819999999999999929e+01,6.320401356136031053e-03
2.823999999999999844e+01,6.369193077419164385e-03
2.828000000000000114e+01,7.307219250465095059e-03
2.832000000000000028e+01,3.798248095259272421e-03
2.835999999999999943e+01,4.291313210835669828e-03
2.839999999999999858e+01,6.019479590335736346e-03
2.844000000000000128e+01,1.066267202659403231e-02
2.848000000000000043e+01,6.955512340005238006e-03
2.851999999999999957e+01,5.965740456089265072e-03
2.855999999999999872e+01,8.978004741041288594e-03
2.860000000000000142e+01,1.149603582145544527e-02
2.864000000000000057e+01,6.306038890780120594e-03
2.867999999999999972e+01,4.673392087854916221e-03
2.871999999999999886e+01,5.708723432358393628e-03
2.876000000000000156e+01,6.595688364102061593e-03
2.880000000000000071e+01,5.555542942825855701e-03
2.883999999999999986e+01,6.195184541231328265e-03
2.887999999999999901e+01,5.846497259119743869e-03
2.892000000000000171e+01,9.153979089121057344e-03
2.896000000000000085e+01,4.407565871660647748e-03
2.900000000000000000e+01,1.686806465659953418e-03
2.903999999999999915e+01,4.055093157191380637e-03
2.907999999999999829e+01,0.000000000000000000e+00
2.912000000000000099e+01,5.480812699268103327e-03
2.916000000000000014e+01,8.325290093034678649e-04
2.919999999999999929e+01,3.002625701886836931e-03
2.923999999999999844e+01,3.640888243878401959e-03
2.928000000000000114e+01,7.638862394557684003e-03
2.932000000000000028e+01,5.756961660846203824e-03
2.935999999999999943e+01,1.651492968775455320e-03
2.939999999999999858e+01,4.216175897348703114e-03
2.944000000000000128e+01,4.754929040116659747e-03
2.948000000000000043e+01,1.538418010149165526e-03
2.951999999999999957e+01,8.796594146081209223e-03
2.955999999999999872e+01,7.210322075530036998e-03
2.960000000000000142e+01,5.574502270839099688e-03
2.964000000000000057e+01,1.813933471768779419e-03
2.967999999999999972e+01,2.697724464135698493e-03
2.971999999999999886e+01,5.261302027761592323e-03
2.976000000000000156e+01,4.168434382631964683e-03
2.980000000000000071e+01,6.583506741202787768e-03
2.983999999999999986e+01,1.735236457167984919e-03
2.987999999999999901e+01,5.138223255740544115e-03
2.992000000000000171e+01,7.799928410491630514e-03
2.996000000000000085e+01,6.212273614613873611e-03
3.000000000000000000e+01,5.217395074056855805e-03
3.003999999999999915e+01,4.222378128478664928e-03
3.007999999999999829e+01,4.857738017383910617e-03
3.012000000000000099e+01,4.850635267213294737e-03
3.016000000000000014e+01,5.189260924182410514e-03
3.019999999999999929e+01,6.417120054537570756e-03
3.023999999999999844e+01,6.953106931338401062e-03
3.028000000000000114e+01,3.733829227746822844e-03
3.032000000000000028e+01,5.257730096126738903e-03
3.035999999999999943e+01,3.816919196627311436e-03
3.039999999999999858e+01,3.413570328589447204e-03
3.044000000000000128e+01,7.753399971374536591e-03
3.048000000000000043e+01,3.495828705520533358e-03
3.051999999999999957e+01,5.908408489590762439e-03
3.055999999999999872e+01,5.899781490496596240e-03
3.060000000000000142e+01,5.396920267722116540e-03
3.064000000000000057e+01,3.806910160925433290e-03
3.067999999999999972e+01,4.884877202797853306e-03
3.071999999999999886e+01,2.849903633355523828e-03
3.076000000000000156e+01,6.694528138261599155e-03
3.080000000000000071e+01,7.920307524386450623e-03
3.083999999999999986e+01,2.129791524984095928e-03
3.087999999999999901e+01,5.726951825206138755e-03
3.092000000000000171e+01,4.630065705641637185e-03
3.096000000000000085e+01,5.904699272086774350e-03
3.100000000000000000e+01,4.362849404516751066e-03
3.103999999999999915e+01,3.611413475633121813e-03
3.107999999999999829e+01,7.405517518127184735e-03
3.112000000000000099e+01,4.479783352393617961e-03
3.116000000000000014e+01,5.358445817323196844e-03
3.119999999999999929e+01,5.446416432850256437e-03
3.123999999999999844e+01,5.633067138530509395e-03
3.128000000000000114e+01,2.311500520896785961e-03
3.132000000000000028e+01,5.561265438870480020e-03
3.135999999999999943e+01,3.326430859567559069e-03
3.139999999999999858e+01,2.376105568804609634e-03
3.144000000000000128e+01,2.660879992868889644e-03
3.148000000000000043e+01,3.587839471418442262e-03
3.151999999999999957e+01,5.552260410709816685e-03
3.155999999999999872e+01,7.467132617101858785e-03
3.160000000000000142e+01,3.699766990600490257e-03
3.164000000000000057e+01,5.021446136746073388e-03
3.167999999999999972e+01,6.293576488843794815e-03
3.171999999999999886e+01,5.935052319953258021e-03
3.176000000000000156e+01,6.317532169527901968e-03
3.180000000000000071e+01,4.278804604069825178e-03
3.183999999999999986e+01,5.797425556116835021e-03
3.187999999999999901e+01,6.871221185562364359e-03
3.192000000000000171e+01,1.244114680501584233e-02
3.196000000000000085e+01,7.585517288457661357e-03
3.200000000000000000e+01,6.682512634512586397e-03
3.203999999999999915e+01,8.002798456250447348e-03
3.207999999999999829e+01,2.800883793892027743e-03
3.211999999999999744e+01,3.873842939504553318e-03
3.215999999999999659e+01,8.800607759538930236e-03
3.220000000000000284e+01,4.290008387863030424e-03
3.224000000000000199e+01,5.906054103019760249e-03
3.228000000000000114e+01,5.594987691848806594e-03
3.232000000000000028e+01,5.827286800463475983e-03
3.235999999999999943e+01,5.219483915243064952e-03
3.239999999999999858e+01,7.576114622208820169e-03
3.243999999999999773e+01,2.570582255023975971e-03
3.247999999999999687e+01,1.814131825837583074e-03
3.252000000000000313e+01,4.565620014317953342e-03
3.256000000000000227e+01,4.648852633841861134e-03
3.260000000000000142e+01,7.943566510287299390e-03
3.264000000000000057e+01,6.198366217174285792e-03
3.267999999999999972e+01,7.565828033557230915e-03
3.271999999999999886e+01,4.782747599554655442e-03
3.275999999999999801e+01,4.766462360972889556e-03
3.279999999999999716e+01,5.244132844252656807e-03
3.284000000000000341e+01,9.476789548786012513e-03
3.288000000000000256e+01,5.112044121709351414e-03
3.292000000000000171e+01,1.067847904136096440e-02
3.296000000000000085e+01,8.092197768606181063e-03
3.300000000000000000e+01,4.962271495870283940e-03
3.303999999999999915e+01,5.537921789143835684e-03
3.307999999999999829e+01,5.668746148330417074e-03
3.311999999999999744e+01,5.107696786397582581e-03
3.315999999999999659e+01,4.546507429581397343e-03
3.320000000000000284e+01,4.775730910777795796e-03
3.324000000000000199e+01,4.955404802995231998e-03
3.328000000000000114e+01,3.949109359262623249e-03
3.332000000000000028e+01,2.497987859145964565e-03
3.335999999999999943e+01,4.208937675346787442e-03
3.339999999999999858e+01,7.550262634254646492e-03
3.343999999999999773e+01,6.642225869225854354e-03
3.347999999999999687e+01,3.658847706394156938e-03
3.352000000000000313e+01,4.875141398276922229e-03
3.356000000000000227e+01,3.769045884941491127e-03
3.360000000000000142e+01,4.194506305738983365e-03
3.364000000000000057e+01,6.151522640286584583e-03
3.367999999999999972e+01,5.489692388487878161e-03
3.371999999999999886e+01,4.630083643126273706e-03
3.375999999999999801e+01,1.349266483972359158e-03
3.379999999999999716e+01,4.590370043359370648e-03
3.384000000000000341e+01,2.248053735073313273e-03
3.388000000000000256e+01,5.933562571263246641e-03
3.392000000000000171e+01,5.270890332262510337e-03
3.396000000000000085e+01,2.187009577555208261e-03
3.400000000000000000e+01,3.500438646287901048e-03
3.403999999999999915e+01,8.470034218128901643e-03
3.407999999999999829e+01,8.251486226639124719e-03
3.411999999999999744e+01,5.364681871261796700e-03
3.415999999999999659e+01,9.790350904258521975e-03
3.420000000000000284e+01,8.237323459497160327e-03
3.424000000000000199e+01,4.312496909679258000e-03
3.428000000000000114e+01,8.194239220386076439e-03
3.432000000000000028e+01,6.294923205505972494e-03
3.435999999999999943e+01,8.051773530671357468e-03
3.439999999999999858e+01,8.425015735847274714e-03
3.443999999999999773e+01,2.868970894297921508e-03
3.447999999999999687e+01,7.738201137844995942e-03
3.452000000000000313e+01,6.727553847231045568e-03
3.456000000000000227e+01,8.631929494799510383e-03
3.460000000000000142e+01,5.644618634039718849e-03
3.464000000000000057e+01,8.833361190471561777e-03
3.467999999999999972e+01,6.290454791200767240e-03
3.471999999999999886e+01,7.897810081829071197e-03
3.475999999999999801e+01,3.773516375989013558e-03
3.479999999999999716e+01,4.491218065901295652e-03
3.484000000000000341e+01,6.444017738098680066e-03
3.488000000000000256e+01,5.827379765794249780e-03
3.492000000000000171e+01,7.384621248277751723e-03
3.496000000000000085e+01,8.249988072030820310e-03
3.500000000000000000e+01,5.409497463545288182e-03
3.503999999999999915e+01,7.806278555154377158e-03
3.507999999999999829e+01,6.151335300449724958e-03
3.511999999999999744e+01,5.780899438680144227e-03
3.515999999999999659e+01,6.447923182813189436e-03
3.520000000000000284e+01,7.312444105857338061e-03
3.524000000000000199e+01,6.743946927542232052e-03
3.528000000000000114e+01,5.335346267444134039e-03
3.532000000000000028e+01,7.731140118192968494e-03
3.535999999999999943e+01,9.731516426362408004e-03
3.539999999999999858e+01,5.110871451999311581e-03
3.543999999999999773e+01,6.271003060531507578e-03
3.547999999999999687e+01,4.367601185519933218e-03
3.552000000000000313e+01,6.169774612781178495e-03
3.556000000000000227e+01,7.280073075569257202e-03
3.560000000000000142e+01,7.402039233521796532e-03
3.564000000000000057e+01,4.756929146378706917e-03
3.567999999999999972e+01,8.090233733153500209e-03
3.571999999999999886e+01,7.964728287448036639e-03
3.575999999999999801e+01,7.987310181963871991e-03
3.579999999999999716e+01,3.661710043295142523e-03
3.584000000000000341e+01,4.869838517043616720e-03
3.588000000000000256e+01,8.350665063051503426e-03
3.592000000000000171e+01,5.852794254838828564e-03
3.596000000000000085e+01,4.738249518181278201e-03
3.600000000000000000e+01,5.698764579314908804e-03
3.603999999999999915e+01,8.190834331227733744e-03
3.607999999999999829e+01,7.619370293854055981e-03
3.611999999999999744e+01,6.059573686667797665e-03
3.615999999999999659e+01,4.104359129245189336e-03
3.620000000000000284e+01,5.607671760937373712e-03
3.624000000000000199e+01,8.741358088154342620e-03
3.628000000000000114e+01,7.180995264283109199e-03
3.632000000000000028e+01,1.253782830147275387e-02
3.635999999999999943e+01,9.544305200394181607e-03
3.639999999999999858e+01,1.356679702627063000e-02
3.643999999999999773e+01,1.037535239970139439e-02
3.647999999999999687e+01,1.153180677950563747e-02
3.652000000000000313e+01,8.191850099244267838e-03
3.656000000000000227e+01,8.853925511281229496e-03
3.660000000000000142e+01,1.089932666874772471e-02
3.664000000000000057e+01,8.942412238299295504e-03
3.667999999999999972e+01,9.752291005752575237e-03
3.671999999999999886e+01,1.105612349754823281e-02
3.675999999999999801e+01,8.654097660259976385e-03
3.679999999999999716e+01,1.129170441290130479e-02
3.684000000000000341e+01,1.061872922233241152e-02
3.688000000000000256e+01,9.945612141275277443e-03
3.692000000000000171e+01,1.080404930257467845e-02
3.696000000000000085e+01,1.319404068584774381e-02
3.700000000000000000e+01,1.024765835785234822e-02
3.703999999999999915e+01,1.298323269077845260e-02
3.707999999999999829e+01,1.359405423811539670e-02
3.711999999999999744e+01,1.242598985278977816e-02
3.715999999999999659e+01,1.145542164761567498e-02
3.720000000000000284e+01,1.384456101532530528e-02
3.724000000000000199e+01,1.346662332262538175e-02
3.728000000000000114e+01,1.659662182203326328e-02
3.732000000000000028e+01,1.938061133343211076e-02
3.735999999999999943e+01,1.855756131666416731e-02
3.739999999999999858e+01,1.679558763116241124e-02
3.743999999999999773e+01,1.696044434967952305e-02
3.747999999999999687e+01,1.969445564512169525e-02
3.752000000000000313e+01,1.990843750412396237e-02
3.756000000000000227e+01,1.878821918622164411e-02
3.760000000000000142e+01,2.181826109065336181e-02
3.764000000000000057e+01,2.336587411742501591e-02
3.767999999999999972e+01,2.525921171936094251e-02
3.771999999999999886e+01,3.397092536229817661e-02
3.775999999999999801e+01,2.899605039393584119e-02
3.779999999999999716e+01,3.582991631213135186e-02
3.784000000000000341e+01,3.614157881110042353e-02
3.788000000000000256e+01,4.312338860954965242e-02
3.792000000000000171e+01,4.812867385435964929e-02
3.796000000000000085e+01,5.328204531833431734e-02
3.800000000000000000e+01,5.912700806771985923e-02
3.803999999999999915e+01,7.193857535503374312e-02
3.807999999999999829e+01,8.326771354047622642e-02
3.811999999999999744e+01,1.074926026226721287e-01
3.815999999999999659e+01,1.370535809217602874e-01
3.820000000000000284e+01,1.758540031304218210e-01
3.824000000000000199e+01,2.397049262938492908e-01
3.828000000000000114e+01,3.395752712309026422e-01
3.832000000000000028e+01,4.683994717950201725e-01
3.835999999999999943e+01,6.470777690243764146e-01
3.839999999999999858e+01,8.524864919401844432e-01
3.843999999999999773e+01,9.743435174896735163e-01
3.847999999999999687e+01,1.000000000000000000e+00
3.852000000000000313e+01,9.275783764242443441e-01
3.856000000000000227e+01,7.892936755131336746e-01
3.860000000000000142e+01,6.114811891711334768e-01
3.864000000000000057e+01,4.647965786396514032e-01
3.867999999999999972e+01,3.322429575528108581e-01
3.871999999999999886e+01,2.373392732752723777e-01
3.875999999999999801e+01,1.787020582934153445e-01
3.879999999999999716e+01,1.376545014281458923e-01
3.884000000000000341e+01,1.088109613461196862e-01
3.888000000000000256e+01,8.708225403397171216e-02
3.892000000000000171e+01,7.162841706471047287e-02
3.896000000000000085e+01,6.037424917809632724e-02
3.900000000000000000e+01,5.094809179391013992e-02
3.903999999999999915e+01,4.957554861133935120e-02
3.907999999999999829e+01,3.871622817787844645e-02
3.911999999999999744e+01,3.536701681863808899e-02
3.915999999999999659e+01,3.048596625385953385e-02
3.920000000000000284e+01,2.708705921628522251e-02
3.924000000000000199e+01,3.006184146519467332e-02
3.928000000000000114e+01,2.676146732774477982e-02
3.932000000000000028e+01,2.271980675650403167e-02
3.935999999999999943e+01,2.342132015071107451e-02
3.939999999999999858e+01,2.165221270381429211e-02
3.943999999999999773e+01,1.761012260875049334e-02
3.947999999999999687e+01,1.742183445804732292e-02
3.952000000000000313e+01,1.639344066497921623e-02
3.956000000000000227e+01,2.109641180204311836e-02
3.960000000000000142e+01,1.769607291647770642e-02
3.964000000000000057e+01,1.276389458077991160e-02
3.967999999999999972e+01,1.346426200740571434e-02
3.971999999999999886e+01,1.031054093662704847e-02
3.975999999999999801e+01,1.367873754734491576e-02
3.979999999999999716e+01,1.230347365995398262e-02
3.984000000000000341e+01,8.161131387268349621e-03
3.988000000000000256e+01,1.128185003487953801e-02
3.992000000000000171e+01,1.440242524290602337e-02
3.996000000000000085e+01,1.055610997144579115e-02
4.000000000000000000e+01,1.189765431927707062e-02
4.003999999999999915e+01,1.768591496606816346e-02
4.007999999999999829e+01,9.836995372684394917e-03
4.011999999999999744e+01,1.048637541054841908e-02
4.015999999999999659e+01,7.528714493446270542e-03
4.020000000000000284e+01,8.424855153813460423e-03
4.024000000000000199e+01,1.085254836476077199e-02
4.028000000000000114e+01,9.327333686283884040e-03
4.032000000000000028e+01,6.813784297795342886e-03
4.035999999999999943e+01,7.610531318615603759e-03
4.039999999999999858e+01,7.863629568627810221e-03
4.043999999999999773e+01,7.671898134108972971e-03
4.047999999999999687e+01,6.491831908047074155e-03
4.052000000000000313e+01,8.226785583123216727e-03
4.056000000000000227e+01,7.540527379322830084e-03
4.060000000000000142e+01,1.011515590920422647e-02
4.064000000000000057e+01,7.303999319648025318e-03
4.067999999999999972e+01,6.716128803079545601e-03
4.071999999999999886e+01,9.586783172363980490e-03
4.075999999999999801e+01,1.013504466751751799e-02
4.079999999999999716e+01,7.026855328249363708e-03
4.084000000000000341e+01,7.426600367015521488e-03
4.088000000000000256e+01,6.689781750420375692e-03
4.092000000000000171e+01,7.731563104546535815e-03
4.096000000000000085e+01,9.810801109062313938e-03
4.100000000000000000e+01,6.356025150705100699e-03
4.103999999999999915e+01,8.286746495005010288e-03
4.107999999999999829e+01,6.808064628852930622e-03
4.111999999999999744e+01,6.564477544878764489e-03
4.115999999999999659e+01,7.111299242730350322e-03
4.120000000000000284e+01,6.867423995467305045e-03
4.124000000000000199e+01,9.933844709090389538e-03
4.128000000000000114e+01,7.960346850459786017e-03
4.132000000000000028e+01,4.949104218916376523e-03
4.135999999999999943e+01,4.902290613801102946e-03
4.139999999999999858e+01,6.337619414833413345e-03
4.143999999999999773e+01,5.598783655216164716e-03
4.147999999999999687e+01,6.045632941001268662e-03
4.152000000000000313e+01,5.306508691969570764e-03
4.156000000000000227e+01,6.148345874213916040e-03
4.160000000000000142e+01,6.051257247525376054e-03
4.164000000000000057e+01,6.151662518109339735e-03
4.167999999999999972e+01,7.091885858871966632e-03
4.171999999999999886e+01,6.747316456243690128e-03
4.175999999999999801e+01,6.896698209718914695e-03
4.179999999999999716e+01,7.490621545584856197e-03
4.184000000000000341e+01,7.886762250169671723e-03
4.188000000000000256e+01,4.675861123325818214e-03
4.192000000000000171e+01,7.048095064036150395e-03
4.196000000000000085e+01,3.688676339365422156e-03
4.200000000000000000e+01,5.862983088153248153e-03
4.203999999999999915e+01,3.639695070702257933e-03
4.207999999999999829e+01,4.034968839478650544e-03
4.211999999999999744e+01,7.295852140749221545e-03
4.215999999999999659e+01,4.330987141425255739e-03
4.220000000000000284e+01,5.466970467077835426e-03
4.224000000000000199e+01,5.565208551012124256e-03
4.228000000000000114e+01,7.096179039341408805e-03
4.232000000000000028e+01,7.539994691856768440e-03
4.235999999999999943e+01,7.242522361484825949e-03
4.239999999999999858e+01,6.351990687832496756e-03
4.243999999999999773e+01,6.054228930435077982e-03
4.247999999999999687e+01,8.177390542116903110e-03
4.252000000000000313e+01,1.143682711591708333e-02
4.256000000000000227e+01,8.075238758654873505e-03
4.260000000000000142e+01,9.654460929149429396e-03
4.264000000000000057e+01,5.502030087754495279e-03
4.267999999999999972e+01,5.845723753381309312e-03
4.271999999999999886e+01,6.189272552624029006e-03
4.275999999999999801e+01,5.198618525191879038e-03
4.279999999999999716e+01,7.271211897065172659e-03
4.284000000000000341e+01,9.343660341405820441e-03
4.288000000000000256e+01,7.265561358117449131e-03
4.292000000000000171e+01,7.114289986397722386e-03
4.296000000000000085e+01,7.605197819285815578e-03
4.300000000000000000e+01,7.601865109810646004e-03
4.303999999999999915e+01,9.080673970786268256e-03
4.307999999999999829e+01,8.039450562106103051e-03
4.311999999999999744e+01,9.666197963029189016e-03
4.315999999999999659e+01,5.067196553786549110e-03
4.320000000000000284e+01,1.148638042613847263e-02
4.324000000000000199e+01,1.009870974100142774e-02
4.328000000000000114e+01,7.920341050841630398e-03
4.332000000000000028e+01,9.546362794959087350e-03
4.335999999999999943e+01,7.565341953482501887e-03
4.339999999999999858e+01,8.499339545578861455e-03
4.343999999999999773e+01,8.988505924430529453e-03
4.347999999999999687e+01,1.120686141617129386e-02
4.352000000000000313e+01,8.632344960868464784e-03
4.356000000000000227e+01,1.238210603737186985e-02
4.360000000000000142e+01,9.659070312848601694e-03
4.364000000000000057e+01,1.232153056609732941e-02
4.367999999999999972e+01,1.300746333057667577e-02
4.371999999999999886e+01,1.354502205911095082e-02
4.375999999999999801e+01,1.358833985800784322e-02
4.379999999999999716e+01,1.249509251359549877e-02
4.384000000000000341e+01,1.456391114519438312e-02
4.388000000000000256e+01,1.673140342596639990e-02
4.392000000000000171e+01,1.573653881575380956e-02
4.396000000000000085e+01,1.869429297368267046e-02
4.400000000000000000e+01,1.587098387337528699e-02
4.403999999999999915e+01,1.838376099368148678e-02
4.407999999999999829e+01,2.267513647446398745e-02
4.411999999999999744e+01,2.247009702243970078e-02
4.415999999999999659e+01,2.868815390313878000e-02
4.420000000000000284e+01,2.344304879074621609e-02
4.424000000000000199e+01,3.099487234987138851e-02
4.428000000000000114e+01,3.291386116807015760e-02
4.432000000000000028e+01,3.666085777777803451e-02
4.435999999999999943e+01,4.544748312505720450e-02
4.439999999999999858e+01,5.003415071682916493e-02
4.443999999999999773e+01,6.089568583865479640e-02
4.447999999999999687e+01,7.422755286374713157e-02
4.452000000000000313e+01,8.415001492546253514e-02
4.456000000000000227e+01,9.812391455623648007e-02
4.460000000000000142e+01,1.205961115353792468e-01
4.464000000000000057e+01,1.306663647839504949e-01
4.467999999999999972e+01,1.525453554132297218e-01
4.471999999999999886e+01,1.580696380047778016e-01
4.475999999999999801e+01,1.668548052101915258e-01
4.479999999999999716e+01,1.669931546565765201e-01
4.484000000000000341e+01,1.674278154762659510e-01
4.488000000000000256e+01,1.538300171831993302e-01
4.492000000000000171e+01,1.394415200494132090e-01
4.496000000000000085e+01,1.205071980014505301e-01
4.500000000000000000e+01,9.796583253219706688e-02
4.503999999999999915e+01,7.745011270088110467e-02
4.507999999999999829e+01,7.047246441299194475e-02
4.511999999999999744e+01,5.677497078287823545e-02
4.515999999999999659e+01,4.821592458933867537e-02
4.520000000000000284e+01,4.138606663222571536e-02
4.524000000000000199e+01,3.643362555114629947e-02
4.528000000000000114e+01,2.935642750599381720e-02
4.532000000000000028e+01,2.860350609580222109e-02
4.535999999999999943e+01,2.508350348748285621e-02
4.539999999999999858e+01,2.057516358053009323e-02
4.543999999999999773e+01,2.244050980071962340e-02
4.547999999999999687e+01,1.516494238207274740e-02
4.552000000000000313e+01,1.594298586301986370e-02
4.556000000000000227e+01,1.385512893726508453e-02
4.560000000000000142e+01,1.483051798401638539e-02
4.564000000000000057e+01,1.511402692981672451e-02
4.567999999999999972e+01,1.015997684793034858e-02
4.571999999999999886e+01,1.177725096382602372e-02
4.575999999999999801e+01,1.072626278442526289e-02
4.579999999999999716e+01,1.086095744907925910e-02
4.584000000000000341e+01,1.079786744416727333e-02
4.588000000000000256e+01,9.252344362728500901e-03
4.592000000000000171e+01,6.866712377669064934e-03
4.596000000000000085e+01,1.184295732137333884e-02
4.600000000000000000e+01,6.492459081346053928e-03
4.603999999999999915e+01,5.193397656211934388e-03
4.607999999999999829e+01,5.771752679071545308e-03
4.611999999999999744e+01,9.808629836099556909e-03
4.615999999999999659e+01,5.099869434422137082e-03
4.620000000000000284e+01,4.788412639415963457e-03
4.624000000000000199e+01,6.107324444222501578e-03
4.628000000000000114e+01,7.327270461911591752e-03
4.632000000000000028e+01,8.892936652069700909e-03
4.635999999999999943e+01,5.912777214651583971e-03
4.639999999999999858e+01,5.798225128762869891e-03
4.643999999999999773e+01,7.659908414082073312e-03
4.647999999999999687e+01,4.728718244026913070e-03
4.652000000000000313e+01,5.947783750930593638e-03
4.656000000000000227e+01,6.178511368098271728e-03
4.660000000000000142e+01,4.136252688569117507e-03
4.664000000000000057e+01,6.392478284840015339e-03
4.667999999999999972e+01,4.498154517111305900e-03
4.671999999999999886e+01,7.001134091076811894e-03
4.675999999999999801e+01,5.155926046957312950e-03
4.679999999999999716e+01,5.286953190600116904e-03
4.684000000000000341e+01,7.542444161612118364e-03
4.688000000000000256e+01,7.870815566556806434e-03
4.692000000000000171e+01,8.001401751598623616e-03
4.696000000000000085e+01,5.611953689848356644e-03
4.700000000000000000e+01,6.384569993864285670e-03
4.703999999999999915e+01,3.896008710373578387e-03
4.707999999999999829e+01,5.755341031801532517e-03
4.711999999999999744e+01,3.562942871678383919e-03
4.715999999999999659e+01,6.657219788976730113e-03
4.720000000000000284e+01,5.156261097329131390e-03
4.724000000000000199e+01,6.175042455861652624e-03
4.728000000000000114e+01,2.647997718012430786e-03
4.732000000000000028e+01,3.567665569444641426e-03
4.735999999999999943e+01,5.178919936701261405e-03
4.739999999999999858e+01,5.159511792893070950e-03
4.743999999999999773e+01,3.361212457647454362e-03
4.747999999999999687e+01,8.134236423338537386e-03
4.752000000000000313e+01,3.124021517378976730e-03
4.756000000000000227e+01,7.847341284705504696e-03
4.760000000000000142e+01,6.740186406009521583e-03
4.764000000000000057e+01,5.336426833859554339e-03
4.767999999999999972e+01,4.723072721131057680e-03
4.771999999999999886e+01,5.838905560709734856e-03
4.775999999999999801e+01,6.855771859005574224e-03
4.779999999999999716e+01,4.611460182520668236e-03
4.784000000000000341e+01,5.479802890432219908e-03
4.788000000000000256e+01,3.679882222756393397e-03
4.792000000000000171e+01,5.783168751990111663e-03
4.796000000000000085e+01,4.773505884901439386e-03
4.800000000000000000e+01,4.356610100851772589e-03
4.803999999999999915e+01,6.064177532685873298e-03
4.807999999999999829e+01,6.388129873596350844e-03
4.811999999999999744e+01,4.587323803251512969e-03
4.815999999999999659e+01,3.922789821043435807e-03
4.820000000000000284e+01,5.926224059816888323e-03
4.824000000000000199e+01,5.360213846217166608e-03
4.828000000000000114e+01,4.398779506378049098e-03
4.832000000000000028e+01,2.745463699937140869e-03
4.835999999999999943e+01,4.797716652874748668e-03
4.839999999999999858e+01,2.995876685329800469e-03
4.843999999999999773e+01,5.443110523026823376e-03
4.847999999999999687e+01,3.443336759516508680e-03
4.852000000000000313e+01,3.568025967295790184e-03
4.856000000000000227e+01,4.433710632743953148e-03
4.860000000000000142e+01,5.002790115549776359e-03
4.864000000000000057e+01,7.004598761877727474e-03
4.867999999999999972e+01,7.771020671529091026e-03
4.871999999999999886e+01,3.299882004397261710e-03
4.875999999999999801e+01,4.856560899321860254e-03
4.879999999999999716e+01,5.424900763070936160e-03
4.884000000000000341e+01,4.510806041962443086e-03
4.888000000000000256e+01,1.768409842304046907e-03
4.892000000000000171e+01,4.609145143201367686e-03
4.896000000000000085e+01,5.819217138102794618e-03
4.900000000000000000e+01,4.756301613336469392e-03
4.903999999999999915e+01,3.841466661685782533e-03
4.907999999999999829e+01,5.940466355903414528e-03
4.911999999999999744e+01,6.161754895944144585e-03
4.915999999999999659e+01,7.469905461220494730e-03
4.920000000000000284e+01,4.232228951738398366e-03
4.924000000000000199e+01,2.921376833334936047e-03
4.928000000000000114e+01,5.760778985473768814e-03
4.932000000000000028e+01,4.795497301654460219e-03
4.935999999999999943e+01,3.187743174609234884e-03
4.939999999999999858e+01,4.247956657060077135e-03
4.943999999999999773e+01,4.764516762179150412e-03
4.947999999999999687e+01,5.873843196171833238e-03
4.952000000000000313e+01,4.216086312220520237e-03
4.956000000000000227e+01,3.299324376366882285e-03
4.960000000000000142e+01,5.297577714744687409e-03
4.964000000000000057e+01,2.058270007533802206e-03
4.967999999999999972e+01,5.093827160223420025e-03
4.971999999999999886e+01,4.374109826456347092e-03
4.975999999999999801e+01,5.927083492100324556e-03
4.979999999999999716e+01,3.971830397171506599e-03
4.984000000000000341e+01,4.190449154228204597e-03
4.988000000000000256e+01,5.792386889608786005e-03
4.992000000000000171e+01,2.799087630009740573e-03
4.996000000000000085e+01,4.104270954434358076e-03
5.000000000000000000e+01,4.519933742857851905e-03
5.003999999999999915e+01,5.528362574795091071e-03
5.007999999999999829e+01,4.510851103377282179e-03
5.011999999999999744e+01,5.024887147976062410e-03
5.015999999999999659e+01,6.082279621610090989e-03
5.020000000000000284e+01,3.730264237502701596e-03
5.024000000000000199e+01,5.182635761439806713e-03
5.028000000000000114e+01,5.646667500036010173e-03
5.032000000000000028e+01,6.555236479476238970e-03
5.035999999999999943e+01,5.931960546180729994e-03
5.039999999999999858e+01,5.407354939654080740e-03
5.043999999999999773e+01,5.030829192843384173e-03
5.047999999999999687e+01,4.950611945355546176e-03
5.052000000000000313e+01,6.253713350066033606e-03
5.056000000000000227e+01,4.147406713589455937e-03
5.060000000000000142e+01,6.685449208320410827e-03
5.064000000000000057e+01,4.480025681190704864e-03
5.067999999999999972e+01,4.646111791326383404e-03
5.071999999999999886e+01,6.195516451746142100e-03
5.075999999999999801e+01,6.114256888941832675e-03
5.079999999999999716e+01,5.390524149129052693e-03
5.084000000000000341e+01,2.542031612027274932e-03
5.088000000000000256e+01,4.189659403463334014e-03
5.092000000000000171e+01,3.564298696854926226e-03
5.096000000000000085e+01,5.656314358141441810e-03
5.100000000000000000e+01,5.129474607308319271e-03
5.103999999999999915e+01,6.282410563676031623e-03
5.107999999999999829e+01,5.854091687086818499e-03
5.111999999999999744e+01,5.919719197014570826e-03
5.115999999999999659e+01,5.738149773127622366e-03
5.120000000000000284e+01,6.643441334951027781e-03
5.124000000000000199e+01,6.115706642275874245e-03
5.128000000000000114e+01,4.303174334709084121e-03
5.132000000000000028e+01,6.097390171530184429e-03
5.135999999999999943e+01,4.729245326156873187e-03
5.139999999999999858e+01,4.052684937940291381e-03
5.143999999999999773e+01,6.044091119694521355e-03
5.147999999999999687e+01,3.687307278187650778e-03
5.152000000000000313e+01,6.073691205742645996e-03
5.156000000000000227e+01,3.766018195961373747e-03
5.160000000000000142e+01,4.966274081228219152e-03
5.164000000000000057e+01,6.413428321385395391e-03
5.167999999999999972e+01,6.822832509472060922e-03
5.171999999999999886e+01,3.081684765320226796e-03
5.175999999999999801e+01,3.441380474644178088e-03
5.179999999999999716e+01,3.257421604048303925e-03
5.184000000000000341e+01,4.654418926336466311e-03
5.188000000000000256e+01,5.507761627939088654e-03
5.192000000000000171e+01,4.631620408555185697e-03
5.196000000000000085e+01,6.423445494165070692e-03
5.200000000000000000e+01,5.596414658084132403e-03
5.203999999999999915e+01,4.621005546425652200e-03
5.207999999999999829e+01,4.979504738704484783e-03
5.211999999999999744e+01,5.831949807929102426e-03
5.215999999999999659e+01,5.449006367169329824e-03
5.220000000000000284e+01,4.818865462640791429e-03
5.224000000000000199e+01,4.040346180620487532e-03
5.228000000000000114e+01,6.522707680490252673e-03
5.232000000000000028e+01,6.139165328956778730e-03
5.235999999999999943e+01,6.793073818701135698e-03
5.239999999999999858e+01,5.322221716225422096e-03
5.243999999999999773e+01,4.740591754272066409e-03
5.247999999999999687e+01,5.196412572448002275e-03
5.252000000000000313e+01,4.663892463843552320e-03
5.256000000000000227e+01,4.477089347983760799e-03
5.260000000000000142e+01,6.266518464373259031e-03
5.264000000000000057e+01,5.190043566296738756e-03
5.267999999999999972e+01,5.200428899765187699e-03
5.271999999999999886e+01,5.111845164477605424e-03
5.275999999999999801e+01,5.616026086670073553e-03
5.279999999999999716e+01,5.576551919371521525e-03
5.284000000000000341e+01,4.746374875549457840e-03
5.288000000000000256e+01,5.744201261306976919e-03
5.292000000000000171e+01,4.617266789867390323e-03
5.296000000000000085e+01,5.466564367231439847e-03
5.300000000000000000e+01,6.562759606468982279e-03
5.303999999999999915e+01,7.065890080588493362e-03
5.307999999999999829e+01,7.074774875866952570e-03
5.311999999999999744e+01,5.798861118642737768e-03
5.315999999999999659e+01,6.943865288277259289e-03
5.320000000000000284e+01,7.001709077963090035e-03
5.324000000000000199e+01,4.440696314089799361e-03
5.328000000000000114e+01,5.832297569154293315e-03
5.332000000000000028e+01,4.555632676564044803e-03
5.335999999999999943e+01,7.182172208815943391e-03
5.339999999999999858e+01,6.695759572678091492e-03
5.343999999999999773e+01,7.543254547460725296e-03
5.347999999999999687e+01,5.574254633067422110e-03
5.352000000000000313e+01,5.779124695437598200e-03
5.356000000000000227e+01,5.637977494362319056e-03
5.360000000000000142e+01,6.237823182717028118e-03
5.364000000000000057e+01,5.157593626952661041e-03
5.367999999999999972e+01,6.992377266369221092e-03
5.371999999999999886e+01,6.554170980941933372e-03
5.375999999999999801e+01,5.374670903515555570e-03
5.379999999999999716e+01,5.677306913553779519e-03
5.384000000000000341e+01,5.979792390776076695e-03
5.388000000000000256e+01,6.529175081449200592e-03
5.392000000000000171e+01,7.720731391829687394e-03
5.396000000000000085e+01,6.589888101739323038e-03
5.400000000000000000e+01,6.496494817229996575e-03
5.403999999999999915e+01,4.031292338154197040e-03
5.407999999999999829e+01,4.234055083781215062e-03
5.411999999999999744e+01,6.017772860469896082e-03
5.415999999999999659e+01,6.516691554701854565e-03
5.420000000000000284e+01,6.175497126063552236e-03
5.424000000000000199e+01,5.438875534141465566e-03
5.428000000000000114e+01,5.887932465110248294e-03
5.432000000000000028e+01,5.595695318720064586e-03
5.435999999999999943e+01,6.192679334475535355e-03
5.439999999999999858e+01,5.208406825497658571e-03
5.443999999999999773e+01,4.816898117920198792e-03
5.447999999999999687e+01,5.018153191360303494e-03
5.452000000000000313e+01,6.998001305353285413e-03
5.456000000000000227e+01,6.951906833112208445e-03
5.460000000000000142e+01,4.929279307584162086e-03
5.464000000000000057e+01,5.426388061409297657e-03
5.467999999999999972e+01,5.824526747718819161e-03
5.471999999999999886e+01,4.690818299562143565e-03
5.475999999999999801e+01,4.891016789691945282e-03
5.479999999999999716e+01,5.140473811147361523e-03
5.484000000000000341e+01,3.709854976998249072e-03
5.488000000000000256e+01,6.725944879772233556e-03
5.492000000000000171e+01,4.208013726441984723e-03
5.496000000000000085e+01,8.162582955795957829e-03
5.500000000000000000e+01,7.274864834898944060e-03
5.503999999999999915e+01,6.831681549669865218e-03
5.507999999999999829e+01,5.548384693147847234e-03
5.511999999999999744e+01,6.389547444745439023e-03
5.515999999999999659e+01,6.637644350934030803e-03
5.520000000000000284e+01,5.452712984722071429e-03
5.524000000000000199e+01,7.825118212048934666e-03
5.528000000000000114e+01,5.256416839785038250e-03
5.532000000000000028e+01,4.071031673777648387e-03
5.535999999999999943e+01,6.097116166851085546e-03
5.539999999999999858e+01,5.850209879001040669e-03
5.543999999999999773e+01,5.553742689691215997e-03
5.547999999999999687e+01,7.184096711735655713e-03
5.552000000000000313e+01,7.875517831615996833e-03
5.556000000000000227e+01,5.552804789092632108e-03
5.560000000000000142e+01,5.403960663424601900e-03
5.564000000000000057e+01,5.106736427722696411e-03
5.567999999999999972e+01,5.797551788192309777e-03
5.571999999999999886e+01,6.290577444532403396e-03
5.575999999999999801e+01,7.376366229638927317e-03
5.579999999999999716e+01,8.017317503200628234e-03
5.584000000000000341e+01,4.952400725059769200e-03
5.588000000000000256e+01,7.075335474219613535e-03
5.592000000000000171e+01,6.727640964159254180e-03
5.596000000000000085e+01,8.059719654209398371e-03
5.600000000000000000e+01,7.563493237562634620e-03
5.603999999999999915e+01,7.116524720373192461e-03
5.607999999999999829e+01,5.928261228979478381e-03
5.611999999999999744e+01,7.012685496123919129e-03
5.615999999999999659e+01,8.887510901525988785e-03
5.620000000000000284e+01,6.018867451851481372e-03
5.624000000000000199e+01,4.582949292957881268e-03
5.628000000000000114e+01,9.125435310815296561e-03
5.632000000000000028e+01,6.651612959271102112e-03
5.635999999999999943e+01,6.055201817328614150e-03
5.639999999999999858e+01,6.249191691346657300e-03
5.643999999999999773e+01,6.690077474313231055e-03
5.647999999999999687e+01,5.549705672638361072e-03
5.652000000000000313e+01,9.448956412148851181e-03
5.656000000000000227e+01,8.703557219796955596e-03
5.660000000000000142e+01,8.353282514851984031e-03
5.664000000000000057e+01,7.360531657002684046e-03
5.667999999999999972e+01,7.454638992413531104e-03
5.671999999999999886e+01,6.461584154185040854e-03
5.675999999999999801e+01,6.950663895090401258e-03
5.679999999999999716e+01,3.783284648434725658e-03
5.684000000000000341e+01,3.876783860024410160e-03
5.688000000000000256e+01,6.835885082837233478e-03
5.692000000000000171e+01,7.274946983528717687e-03
5.696000000000000085e+01,4.601054901756938473e-03
5.700000000000000000e+01,5.929184496647983693e-03
5.703999999999999915e+01,4.440817388289611083e-03
5.707999999999999829e+01,7.102700575818116265e-03
5.711999999999999744e+01,6.898677466001586905e-03
5.715999999999999659e+01,5.360444191684802379e-03
5.720000000000000284e+01,6.193717232229114904e-03
5.724000000000000199e+01,6.335104260796455868e-03
5.728000000000000114e+01,5.488147937024458536e-03
5.732000000000000028e+01,6.222145013686246687e-03
5.735999999999999943e+01,5.967798697242981086e-03
5.739999999999999858e+01,5.169794947281138205e-03
5.743999999999999773e+01,7.089164263192772493e-03
5.747999999999999687e+01,5.648531565014493563e-03
5.752000000000000313e+01,7.962872511872399681e-03
5.756000000000000227e+01,7.361897383844006118e-03
5.760000000000000142e+01,5.772578740413471417e-03
5.764000000000000057e+01,8.185281447520186687e-03
5.767999999999999972e+01,7.237982038622759948e-03
5.771999999999999886e+01,7.377540293031399632e-03
5.775999999999999801e+01,6.874621823815973802e-03
5.779999999999999716e+01,9.632581323657563727e-03
5.784000000000000341e+01,6.708289619457218252e-03
5.788000000000000256e+01,6.847237630228481323e-03
5.792000000000000171e+01,5.503746429235598786e-03
5.796000000000000085e+01,8.705781502346318299e-03
5.800000000000000000e+01,6.176155736553797133e-03
5.803999999999999915e+01,7.105046030840877005e-03
5.807999999999999829e+01,4.772753111955188414e-03
5.811999999999999744e+01,7.529491472270863177e-03
5.815999999999999659e+01,7.568551665277207206e-03
5.820000000000000284e+01,8.052145083706463771e-03
5.824000000000000199e+01,7.893261533917459230e-03
5.828000000000000114e+01,7.388358315506892565e-03
5.832000000000000028e+01,8.266769774639234902e-03
5.835999999999999943e+01,7.119236711166920632e-03
5.839999999999999858e+01,7.750294711111190352e-03
5.843999999999999773e+01,7.491827874273352013e-03
5.847999999999999687e+01,6.936750820229639625e-03
5.852000000000000313e+01,7.270892808515339902e-03
5.856000000000000227e+01,8.296615605427935455e-03
5.860000000000000142e+01,7.741079737408116009e-03
5.864000000000000057e+01,8.173581957229005338e-03
5.867999999999999972e+01,6.629549044712379838e-03
5.871999999999999886e+01,8.395803185777192534e-03
5.875999999999999801e+01,5.517406273922934555e-03
5.879999999999999716e+01,6.492801461513546431e-03
5.884000000000000341e+01,7.171586248452647971e-03
5.888000000000000256e+01,6.170293121119546989e-03
5.892000000000000171e+01,7.046409898885840767e-03
5.896000000000000085e+01,7.378868448202451948e-03
5.900000000000000000e+01,6.772392322047172258e-03
5.903999999999999915e+01,5.226981500037120552e-03
5.907999999999999829e+01,7.584772188121923463e-03
5.911999999999999744e+01,7.570751093018519666e-03
5.915999999999999659e+01,8.791815587428414638e-03
5.920000000000000284e+01,6.998744064595386651e-03
5.924000000000000199e+01,5.403157470581601909e-03
5.928000000000000114e+01,8.106048711387800476e-03
5.932000000000000028e+01,5.818421740605613131e-03
5.935999999999999943e+01,7.088129263928880791e-03
5.939999999999999858e+01,5.738977094734382806e-03
5.943999999999999773e+01,8.935350445478097009e-03
5.947999999999999687e+01,7.981167909710719030e-03
5.952000000000000313e+01,8.805575866640184476e-03
5.956000000000000227e+01,7.900496009459086200e-03
5.960000000000000142e+01,5.858842957743662545e-03
5.964000000000000057e+01,6.238104530865536818e-03
5.967999999999999972e+01,6.419574381955905212e-03
5.971999999999999886e+01,6.304433383972091014e-03
5.975999999999999801e+01,5.151538216582423647e-03
5.979999999999999716e+01,6.320738485838797369e-03
5.984000000000000341e+01,7.687423378171663775e-03
5.988000000000000256e+01,8.065763593280058860e-03
5.992000000000000171e+01,6.467568044182643583e-03
5.996000000000000085e+01,7.240877403529788307e-03
