2.003999999999999915e+01,4.105377008807469842e-03
2.007999999999999829e+01,3.584189156243222131e-03
2.012000000000000099e+01,4.645991366069981109e-03
2.016000000000000014e+01,4.943447825627183059e-03
2.019999999999999929e+01,5.186218281917923285e-03
2.023999999999999844e+01,4.391697082845441406e-03
2.028000000000000114e+01,3.597079213948555041e-03
2.032000000000000028e+01,5.040522202062850364e-03
2.035999999999999943e+01,2.771802610636573284e-03
2.039999999999999858e+01,5.252247498679749223e-03
2.044000000000000128e+01,6.258687397527691078e-03
2.048000000000000043e+01,6.173246815648206383e-03
2.051999999999999957e+01,3.958730894521956221e-03
2.055999999999999872e+01,3.218027321549114198e-03
2.060000000000000142e+01,6.789774894213701506e-03
2.064000000000000057e+01,3.210240327283104753e-03
2.067999999999999972e+01,1.268285918302853319e-03
2.071999999999999886e+01,3.092890781263398642e-03
2.076000000000000156e+01,7.319324819109888740e-03
2.080000000000000071e+01,5.595439512696931579e-03
2.083999999999999986e+01,3.489333980637669003e-03
2.087999999999999901e+01,4.058003846106454128e-03
2.092000000000000171e+01,1.023690434016022834e-03
2.096000000000000085e+01,3.502791280447411712e-03
2.100000000000000000e+01,6.964402315835955225e-03
2.103999999999999915e+01,3.110964227458854620e-03
2.107999999999999829e+01,2.532783124806866487e-03
2.112000000000000099e+01,3.592182878712226000e-03
2.116000000000000014e+01,3.614292437978114565e-03
2.119999999999999929e+01,6.529534728540213433e-03
2.123999999999999844e+01,3.549047579872443951e-03
2.128000000000000114e+01,4.935601862930071547e-03
2.132000000000000028e+01,1.954924613609607814e-03
2.135999999999999943e+01,4.706019083598563489e-03
2.139999999999999858e+01,3.035292941806293308e-03
2.144000000000000128e+01,1.692007210507212285e-03
2.148000000000000043e+01,1.385821636704641022e-03
2.151999999999999957e+01,4.682428985769674853e-03
2.155999999999999872e+01,1.974128990837495292e-03
2.160000000000000142e+01,2.541086807256892101e-03
2.164000000000000057e+01,4.035966622366536985e-03
2.167999999999999972e+01,3.128826907898608206e-03
2.171999999999999886e+01,2.549128048491979426e-03
2.176000000000000156e+01,2.624405346191849720e-03
2.180000000000000071e+01,3.682194103043473672e-03
2.183999999999999986e+01,3.429747712808087646e-03
2.187999999999999901e+01,3.122617986714838582e-03
2.192000000000000171e+01,5.326497690134816831e-03
2.196000000000000085e+01,3.545271322290427431e-03
2.200000000000000000e+01,5.421427845852980903e-03
2.203999999999999915e+01,4.295084140777092468e-03
2.207999999999999829e+01,4.915501229337201211e-03
2.212000000000000099e+01,3.406845519039683121e-03
2.216000000000000014e+01,3.644950729397593205e-03
2.219999999999999929e+01,3.064124222059308976e-03
2.223999999999999844e+01,2.374025744028115253e-03
2.228000000000000114e+01,4.413294092788050578e-03
2.232000000000000028e+01,3.559241070322821231e-03
2.235999999999999943e+01,1.613310552087375777e-03
2.239999999999999858e+01,5.126207372301389183e-03
2.244000000000000128e+01,2.797965864999941814e-03
2.248000000000000043e+01,3.908751185531842733e-03
2.251999999999999957e+01,3.600124025796954536e-03
2.255999999999999872e+01,2.636333339221155758e-03
2.260000000000000142e+01,5.002391258162716160e-03
2.264000000000000057e+01,3.929236249731122947e-03
2.267999999999999972e+01,4.930378226116935957e-03
2.271999999999999886e+01,3.529502324178102664e-03
2.276000000000000156e+01,6.441080997402033430e-03
2.280000000000000071e+01,3.948235566078742501e-03
2.283999999999999986e+01,4.403114676373092590e-03
2.287999999999999901e+01,4.584955212862435944e-03
2.292000000000000171e+01,3.183616284914536198e-03
2.296000000000000085e+01,5.057537327648960884e-03
2.300000000000000000e+01,5.075333000852657803e-03
2.303999999999999915e+01,5.420571624938694440e-03
2.307999999999999829e+01,3.527560561555379785e-03
2.312000000000000099e+01,2.726241465990010809e-03
2.316000000000000014e+01,3.999220117358790599e-03
2.319999999999999929e+01,4.180322606661650807e-03
2.323999999999999844e+01,2.614478520337327420e-03
2.328000000000000114e+01,3.614235229279597408e-03
2.332000000000000028e+01,4.068008030910951443e-03
2.335999999999999943e+01,3.429904924515296463e-03
2.339999999999999858e+01,4.047261849773432958e-03
2.344000000000000128e+01,3.900278232559512091e-03
2.348000000000000043e+01,3.261900168496185623e-03
2.351999999999999957e+01,4.806998835799720926e-03
2.355999999999999872e+01,5.423989531892645100e-03
2.360000000000000142e+01,3.529785334029793969e-03
2.364000000000000057e+01,6.111804727811459732e-03
2.367999999999999972e+01,4.927077606937397235e-03
2.371999999999999886e+01,3.523902452385207617e-03
2.376000000000000156e+01,6.467275799452238327e-04
2.380000000000000071e+01,2.245776553188673363e-03
2.383999999999999986e+01,4.063091334663840488e-03
2.387999999999999901e+01,3.369211666751318647e-03
2.392000000000000171e+01,2.074759837751234941e-03
2.396000000000000085e+01,5.365710521318660213e-03
2.400000000000000000e+01,2.160454877179055540e-03
2.403999999999999915e+01,4.905332033190987380e-03
2.407999999999999829e+01,3.992641722489637460e-03
2.412000000000000099e+01,3.898698935236514021e-03
2.416000000000000014e+01,4.568914528518754244e-03
2.419999999999999929e+01,5.020682850239611625e-03
2.423999999999999844e+01,3.070435707005509957e-03
2.428000000000000114e+01,2.921542056865014930e-03
2.432000000000000028e+01,2.445022912847153156e-03
2.435999999999999943e+01,4.970819930239201226e-03
2.439999999999999858e+01,4.002817608263530350e-03
2.444000000000000128e+01,3.471438872855838690e-03
2.448000000000000043e+01,3.376683787525835458e-03
2.451999999999999957e+01,2.735946700176784558e-03
2.455999999999999872e+01,2.149708944966804633e-03
2.460000000000000142e+01,4.511198525802511891e-03
2.464000000000000057e+01,4.907386928161191694e-03
2.467999999999999972e+01,3.174506596284823717e-03
2.471999999999999886e+01,4.880656648786575388e-03
2.476000000000000156e+01,4.403148887650152124e-03
2.480000000000000071e+01,2.997535124104688288e-03
2.483999999999999986e+01,4.703416696931024370e-03
2.487999999999999901e+01,6.081673665016179391e-03
2.492000000000000171e+01,3.420240055134282295e-03
2.496000000000000085e+01,4.088658797843692377e-03
2.500000000000000000e+01,2.191295663015218904e-03
2.503999999999999915e+01,4.660979929826597652e-03
2.507999999999999829e+01,3.691455143358225201e-03
2.512000000000000099e+01,3.049376610278034614e-03
2.516000000000000014e+01,4.481598999618406111e-03
2.519999999999999929e+01,4.985716021647011720e-03
2.523999999999999844e+01,2.760283927928357944e-03
2.528000000000000114e+01,2.008671676511038662e-03
2.532000000000000028e+01,3.113003775862860541e-03
2.535999999999999943e+01,3.125463142674078914e-03
2.539999999999999858e+01,5.485169845077143488e-03
2.544000000000000128e+01,4.187311240097680437e-03
2.548000000000000043e+01,3.981148350010116702e-03
2.551999999999999957e+01,2.265986924046393763e-04
2.555999999999999872e+01,3.295611551081704515e-03
2.560000000000000142e+01,5.163573645431372705e-03
2.564000000000000057e+01,1.954651382960000475e-03
2.567999999999999972e+01,4.095383253890620516e-03
2.571999999999999886e+01,5.198832170290774990e-03
2.576000000000000156e+01,2.644716287386233381e-03
2.580000000000000071e+01,2.219491549480476396e-03
2.583999999999999986e+01,1.575822143912188099e-03
2.587999999999999901e+01,3.388579248897647788e-03
2.592000000000000171e+01,3.126858794872207272e-03
2.596000000000000085e+01,4.939440533461890784e-03
2.600000000000000000e+01,1.565960073972928832e-03
2.603999999999999915e+01,4.033437177276751398e-03
2.607999999999999829e+01,3.007117608621446333e-03
2.612000000000000099e+01,2.308245881097517431e-03
2.616000000000000014e+01,3.847444283005110443e-03
2.619999999999999929e+01,3.093808744779571324e-03
2.623999999999999844e+01,1.630426316185544251e-03
2.628000000000000114e+01,1.913811349748959249e-03
2.632000000000000028e+01,3.015947399795644232e-03
2.635999999999999943e+01,2.862444685777196761e-03
2.639999999999999858e+01,4.291942005177625669e-03
2.644000000000000128e+01,4.684157513222707812e-03
2.648000000000000043e+01,2.783539525702763244e-03
2.651999999999999957e+01,3.339349064892206762e-03
2.655999999999999872e+01,4.495553175932966335e-03
2.660000000000000142e+01,2.594675092021718650e-03
2.664000000000000057e+01,2.658921867545814988e-03
2.667999999999999972e+01,3.050617373337485318e-03
2.671999999999999886e+01,3.660583260061303027e-03
2.676000000000000156e+01,3.287857049930177113e-03
2.680000000000000071e+01,2.314563251411907736e-03
2.683999999999999986e+01,2.924270184919535494e-03
2.687999999999999901e+01,3.588480134130473450e-03
2.692000000000000171e+01,2.560338557031802739e-03
2.696000000000000085e+01,2.023413774036557887e-03
2.700000000000000000e+01,3.506203628486788491e-03
2.703999999999999915e+01,2.750750082930760506e-03
2.707999999999999829e+01,3.851243682571914208e-03
2.712000000000000099e+01,3.641510518410175611e-03
2.716000000000000014e+01,3.486280814519851761e-03
2.719999999999999929e+01,4.750284794975218917e-03
2.723999999999999844e+01,3.721456486550394314e-03
2.728000000000000114e+01,2.583364209658418550e-03
2.732000000000000028e+01,3.192041046176825013e-03
2.735999999999999943e+01,2.435902293528127358e-03
2.739999999999999858e+01,1.952624207899534420e-03
2.744000000000000128e+01,4.799202412465397583e-03
2.748000000000000043e+01,2.132185530277073970e-03
2.751999999999999957e+01,5.196950147896293830e-03
2.755999999999999872e+01,4.112849966345342306e-03
2.760000000000000142e+01,3.410789182208298371e-03
2.764000000000000057e+01,1.835216111275499639e-03
2.767999999999999972e+01,4.026213362976183673e-03
2.771999999999999886e+01,3.433076230110180659e-03
2.776000000000000156e+01,3.822460019345410437e-03
2.780000000000000071e+01,3.829634633627027312e-03
2.783999999999999986e+01,3.891313787845432966e-03
2.787999999999999901e+01,2.206053733565126098e-03
2.792000000000000171e+01,3.086401841679866330e-03
2.796000000000000085e+01,1.182615946286272139e-03
2.800000000000000000e+01,1.789849133884591171e-03
2.803999999999999915e+01,1.468981463361848086e-03
2.807999999999999829e+01,5.187630782682788738e-03
2.812000000000000099e+01,1.154528568079304669e-03
2.816000000000000014e+01,2.525673630903526451e-03
2.819999999999999929e+01,2.259058406152015218e-03
2.823999999999999844e+01,2.920375659195896447e-03
2.828000000000000114e+01,3.799965770051317616e-03
2.832000000000000028e+01,6.044202137102247345e-03
2.835999999999999943e+01,4.958413071516304220e-03
2.839999999999999858e+01,3.326648164354930465e-03
2.844000000000000128e+01,4.751795103018306189e-03
2.848000000000000043e+01,4.757539024364383640e-03
2.851999999999999957e+01,2.688809514831911815e-03
2.855999999999999872e+01,2.694386326046883072e-03
2.860000000000000142e+01,1.826452374699560335e-03
2.864000000000000057e+01,1.995629949090083066e-03
2.867999999999999972e+01,3.856989589799152563e-03
2.871999999999999886e+01,3.643876117178309910e-03
2.876000000000000156e+01,3.430679438795412178e-03
2.880000000000000071e+01,3.162810411737609993e-03
2.883999999999999986e+01,2.294377035288804653e-03
2.887999999999999901e+01,2.135520327100707758e-03
2.892000000000000171e+01,3.887202891979866029e-03
2.896000000000000085e+01,3.346055898897140005e-03
2.900000000000000000e+01,2.313523223307485839e-03
2.903999999999999915e+01,1.335496992946464236e-03
2.907999999999999829e+01,3.578151243833598179e-03
2.912000000000000099e+01,3.910100635755837419e-03
2.916000000000000014e+01,2.658880470758410303e-03
2.919999999999999929e+01,3.645735261931827564e-03
2.923999999999999844e+01,2.831063797514703564e-03
2.928000000000000114e+01,4.145289003442725190e-03
2.932000000000000028e+01,3.385042048686746907e-03
2.935999999999999943e+01,4.753691891295357824e-03
2.939999999999999858e+01,4.047869700239435826e-03
2.944000000000000128e+01,1.267575539028690341e-03
2.948000000000000043e+01,2.363032971234380400e-03
2.951999999999999957e+01,2.093678243798277432e-03
2.955999999999999872e+01,3.898631424852836563e-03
2.960000000000000142e+01,3.465345270523740012e-03
2.964000000000000057e+01,1.066765876433635636e-03
2.967999999999999972e+01,2.325581567618273306e-03
2.971999999999999886e+01,2.001228591019431173e-03
2.976000000000000156e+01,2.222686060627572600e-03
2.980000000000000071e+01,3.044543246375002680e-03
2.983999999999999986e+01,3.375016083319800925e-03
2.987999999999999901e+01,2.176909712942617578e-03
2.992000000000000171e+01,3.489825474024305270e-03
2.996000000000000085e+01,2.564502471309891476e-03
3.000000000000000000e+01,1.038616960986596957e-03
3.003999999999999915e+01,9.865588506222787869e-04
3.007999999999999829e+01,3.336344712910582332e-03
3.012000000000000099e+01,2.792821588370702005e-03
3.016000000000000014e+01,4.323607324967402958e-03
3.019999999999999929e+01,3.397797853136042424e-03
3.023999999999999844e+01,3.399924034586481597e-03
3.028000000000000114e+01,1.054633547473480312e-03
3.032000000000000028e+01,2.148382336100537054e-03
3.035999999999999943e+01,3.405818078622417731e-03
3.039999999999999858e+01,2.534194168800377352e-03
3.044000000000000128e+01,2.972630674766846975e-03
3.048000000000000043e+01,3.520165118734746440e-03
3.051999999999999957e+01,2.047818513733072870e-03
3.055999999999999872e+01,2.103889340739428706e-03
3.060000000000000142e+01,1.886933851318318067e-03
3.064000000000000057e+01,5.235248062181400291e-04
3.067999999999999972e+01,1.998674337797158064e-03
3.071999999999999886e+01,2.818673298519813741e-03
3.076000000000000156e+01,4.184484293192659854e-03
3.080000000000000071e+01,2.165684522899458293e-03
3.083999999999999986e+01,2.384962312675959796e-03
3.087999999999999901e+01,2.385803437015670322e-03
3.092000000000000171e+01,1.676905101625079247e-03
3.096000000000000085e+01,1.513819117733304458e-03
3.100000000000000000e+01,2.005723961695250399e-03
3.103999999999999915e+01,1.460354297920581730e-03
3.107999999999999829e+01,3.535187020232059482e-03
3.112000000000000099e+01,2.935069169148896932e-03
3.116000000000000014e+01,3.044531606380948118e-03
3.119999999999999929e+01,2.171308996337877485e-03
3.123999999999999844e+01,1.407185530981065790e-03
3.128000000000000114e+01,3.427032388526792331e-03
3.132000000000000028e+01,3.044875022339429624e-03
3.135999999999999943e+01,2.662638578522343469e-03
3.139999999999999858e+01,2.498679946275597988e-03
3.144000000000000128e+01,2.825945221221828028e-03
3.148000000000000043e+01,1.842990654925544649e-03
3.151999999999999957e+01,3.043525521941755491e-03
3.155999999999999872e+01,2.606305436199399250e-03
3.160000000000000142e+01,2.169006653885697123e-03
3.164000000000000057e+01,2.386699715581356261e-03
3.167999999999999972e+01,3.477741510486446856e-03
3.171999999999999886e+01,2.767260987404139040e-03
3.176000000000000156e+01,4.294859485115285445e-03
3.180000000000000071e+01,3.202097695519747801e-03
3.183999999999999986e+01,5.220842356498435650e-03
3.187999999999999901e+01,3.636621141583413000e-03
3.192000000000000171e+01,2.707392215245856600e-03
3.196000000000000085e+01,2.487744847418076315e-03
3.200000000000000000e+01,1.936295740580887563e-04
3.203999999999999915e+01,3.685892183527504033e-03
3.207999999999999829e+01,2.428815899777628240e-03
3.211999999999999744e+01,2.318035079957099943e-03
3.215999999999999659e+01,1.825052007743325913e-03
3.220000000000000284e+01,1.768704842984785775e-03
3.224000000000000199e+01,1.930636823500876545e-03
3.228000000000000114e+01,2.529204838491650419e-03
3.232000000000000028e+01,2.363446410170022029e-03
3.235999999999999943e+01,3.289394620413523679e-03
3.239999999999999858e+01,1.540394289573696019e-03
3.243999999999999773e+01,2.848312155531436667e-03
3.247999999999999687e+01,2.900600974412434561e-03
3.252000000000000313e+01,2.406920493219998156e-03
3.256000000000000227e+01,1.039735536928365449e-03
3.260000000000000142e+01,4.203377604882943541e-03
3.264000000000000057e+01,9.800054760769343239e-04
3.267999999999999972e+01,1.577800815043016447e-03
3.271999999999999886e+01,2.666822093513372943e-03
3.275999999999999801e+01,2.718571595165428581e-03
3.279999999999999716e+01,2.661065892692804011e-03
3.284000000000000341e+01,2.494305049605239234e-03
3.288000000000000256e+01,2.327467542257620915e-03
3.292000000000000171e+01,2.761034704808086344e-03
3.296000000000000085e+01,2.648633265892132594e-03
3.300000000000000000e+01,3.354993449584048066e-03
3.303999999999999915e+01,2.041476585419266850e-03
3.307999999999999829e+01,3.511932902094786618e-03
3.311999999999999744e+01,3.835939600694387910e-03
3.315999999999999659e+01,2.795139919037467526e-03
3.320000000000000284e+01,3.774064718833884929e-03
3.324000000000000199e+01,1.150025802067339460e-03
3.328000000000000114e+01,2.019620067183319854e-03
3.332000000000000028e+01,2.616192334533342257e-03
3.335999999999999943e+01,3.867759176811039461e-03
3.339999999999999858e+01,2.444379065748601438e-03
3.343999999999999773e+01,1.839761275901047972e-03
3.347999999999999687e+01,3.254868412074919497e-03
3.352000000000000313e+01,7.394770377184422963e-04
3.356000000000000227e+01,2.700325005419065751e-03
3.360000000000000142e+01,1.112799034566869152e-03
3.364000000000000057e+01,2.855139197916997922e-03
3.367999999999999972e+01,4.051511902975814608e-03
3.371999999999999886e+01,3.337187052688474383e-03
3.375999999999999801e+01,2.731965348200263155e-03
3.379999999999999716e+01,1.799133201640254042e-03
3.384000000000000341e+01,3.213561791224725690e-03
3.388000000000000256e+01,4.191201652911688558e-03
3.392000000000000171e+01,1.620468084123650662e-03
3.396000000000000085e+01,2.161244331925434286e-03
3.400000000000000000e+01,1.391804739597568476e-03
3.403999999999999915e+01,1.768663659666008196e-03
3.407999999999999829e+01,4.001480839134049540e-03
3.411999999999999744e+01,2.030854428604741881e-03
3.415999999999999659e+01,1.916186404494497203e-03
3.420000000000000284e+01,0.000000000000000000e+00
3.424000000000000199e+01,3.269713700721558515e-03
3.428000000000000114e+01,2.936465336133096699e-03
3.432000000000000028e+01,3.039856245015452006e-03
3.435999999999999943e+01,2.597280775271875331e-03
3.439999999999999858e+01,3.628539628047648246e-03
3.443999999999999773e+01,2.312388417271709663e-03
3.447999999999999687e+01,3.452677371641063760e-03
3.452000000000000313e+01,1.645075118829757849e-03
3.456000000000000227e+01,2.676037603141278708e-03
3.460000000000000142e+01,1.796303929320665523e-03
3.464000000000000057e+01,2.554172578345515095e-03
3.467999999999999972e+01,2.329361705441597343e-03
3.471999999999999886e+01,2.704958360373526521e-03
3.475999999999999801e+01,2.370821652509050650e-03
3.479999999999999716e+01,3.128395457303126750e-03
3.484000000000000341e+01,3.776717296968669021e-03
3.488000000000000256e+01,3.551538345099241201e-03
3.492000000000000171e+01,4.527248509262712939e-03
3.496000000000000085e+01,4.192744357530014260e-03
3.500000000000000000e+01,2.438847540565701640e-03
3.503999999999999915e+01,3.523516222840957900e-03
3.507999999999999829e+01,2.588311096255657348e-03
3.511999999999999744e+01,2.417281751871226160e-03
3.515999999999999659e+01,1.973233331168339731e-03
3.520000000000000284e+01,2.675485264643874973e-03
3.524000000000000199e+01,2.995539835975231935e-03
3.528000000000000114e+01,3.916002824278638425e-03
3.532000000000000028e+01,4.126733338921832923e-03
3.535999999999999943e+01,3.736909856259712504e-03
3.539999999999999858e+01,2.801121646224582259e-03
3.543999999999999773e+01,1.974439249397167556e-03
3.547999999999999687e+01,3.331252573345338478e-03
3.552000000000000313e+01,3.978333741181940171e-03
3.556000000000000227e+01,2.987666307232793826e-03
3.560000000000000142e+01,2.542818591910938307e-03
3.564000000000000057e+01,2.589201452303514697e-03
3.567999999999999972e+01,1.489138759242773780e-03
3.571999999999999886e+01,2.736339787283731222e-03
3.575999999999999801e+01,4.420182375145723444e-03
3.579999999999999716e+01,2.282708485377032449e-03
3.584000000000000341e+01,4.730655970565119002e-03
3.588000000000000256e+01,2.811395040916145859e-03
3.592000000000000171e+01,3.457754975607846629e-03
3.596000000000000085e+01,1.975064085807842502e-03
3.600000000000000000e+01,4.258956728664779930e-03
3.603999999999999915e+01,3.704138990555889965e-03
3.607999999999999829e+01,3.695141733191026432e-03
3.611999999999999744e+01,6.087998038447729222e-03
3.615999999999999659e+01,4.441181611970967599e-03
3.620000000000000284e+01,5.032451255867482001e-03
3.624000000000000199e+01,4.368097822601704240e-03
3.628000000000000114e+01,4.467922013318924128e-03
3.632000000000000028e+01,4.403907382344968494e-03
3.635999999999999943e+01,5.595373360176706008e-03
3.639999999999999858e+01,6.077108579110894991e-03
3.643999999999999773e+01,4.102258497134613976e-03
3.647999999999999687e+01,3.055353975957720257e-03
3.652000000000000313e+01,3.591465556160932694e-03
3.656000000000000227e+01,5.656004094831396274e-03
3.660000000000000142e+01,2.916621710459253811e-03
3.664000000000000057e+01,5.636089273999768563e-03
3.667999999999999972e+01,5.680615091997852882e-03
3.671999999999999886e+01,5.452124310556872785e-03
3.675999999999999801e+01,5.114384612454308220e-03
3.679999999999999716e+01,4.940342093312795335e-03
3.684000000000000341e+01,6.349316183629213212e-03
3.688000000000000256e+01,6.830203451474489706e-03
3.692000000000000171e+01,6.437593166780934684e-03
3.696000000000000085e+01,5.444431425171186896e-03
3.700000000000000000e+01,7.835730359003510032e-03
3.703999999999999915e+01,7.169963673922878991e-03
3.707999999999999829e+01,8.196392392203714211e-03
3.711999999999999744e+01,6.056577205745885227e-03
3.715999999999999659e+01,7.082866123078709712e-03
3.720000000000000284e+01,8.818744918695690591e-03
3.724000000000000199e+01,9.571948257006506616e-03
3.728000000000000114e+01,8.687405724449889441e-03
3.732000000000000028e+01,9.877183421271173644e-03
3.735999999999999943e+01,1.035723188342838920e-02
3.739999999999999858e+01,1.225653022491198472e-02
3.743999999999999773e+01,1.186301247249606228e-02
3.747999999999999687e+01,1.114189012090332706e-02
3.752000000000000313e+01,1.385981847680171214e-02
3.756000000000000227e+01,1.608637474127498981e-02
3.760000000000000142e+01,1.378195770256178225e-02
3.764000000000000057e+01,1.557166203893986696e-02
3.767999999999999972e+01,1.741588653864785743e-02
3.771999999999999886e+01,2.253539444412786669e-02
3.775999999999999801e+01,2.165002072705056110e-02
3.779999999999999716e+01,2.387616292349696925e-02
3.784000000000000341e+01,3.090608649607689759e-02
3.788000000000000256e+01,3.919149309083219679e-02
3.792000000000000171e+01,4.649422530794668218e-02
3.796000000000000085e+01,6.116643179358525334e-02
3.800000000000000000e+01,7.993276022590269092e-02
3.803999999999999915e+01,1.072695255950604498e-01
3.807999999999999829e+01,1.573699216344398022e-01
3.811999999999999744e+01,2.592208170179418070e-01
3.815999999999999659e+01,4.329656289790093093e-01
3.820000000000000284e+01,6.778401086912355655e-01
3.824000000000000199e+01,8.948740249739882691e-01
3.828000000000000114e+01,1.000000000000000000e+00
3.832000000000000028e+01,9.356264210569553708e-01
3.835999999999999943e+01,7.708086343329315637e-01
3.839999999999999858e+01,5.574063859928914955e-01
3.843999999999999773e+01,3.698793536607479782e-01
3.847999999999999687e+01,2.299540415561982520e-01
3.852000000000000313e+01,1.454912954676040870e-01
3.856000000000000227e+01,9.962305067389720659e-02
3.860000000000000142e+01,7.329767419710600529e-02
3.864000000000000057e+01,5.761712545385921924e-02
3.867999999999999972e+01,4.679494862687280654e-02
3.871999999999999886e+01,4.039443012827585028e-02
3.875999999999999801e+01,3.514021763622309641e-02
3.879999999999999716e+01,2.955840264081458640e-02
3.884000000000000341e+01,2.495912615970198936e-02
3.888000000000000256e+01,2.368972413256610968e-02
3.892000000000000171e+01,2.160141693480038122e-02
3.896000000000000085e+01,1.874879383633712079e-02
3.900000000000000000e+01,1.720624474474420629e-02
3.903999999999999915e+01,1.697376972353134908e-02
3.907999999999999829e+01,1.450307041874041719e-02
3.911999999999999744e+01,1.416128340768774141e-02
3.915999999999999659e+01,1.425614335478299528e-02
3.920000000000000284e+01,1.227654682809710233e-02
3.924000000000000199e+01,1.182538151503024701e-02
3.928000000000000114e+01,1.093743604787918156e-02
3.932000000000000028e+01,9.339764458040723805e-03
3.935999999999999943e+01,9.543470304463397280e-03
3.939999999999999858e+01,9.419574600176210816e-03
3.943999999999999773e+01,8.531363757308226686e-03
3.947999999999999687e+01,1.015419022472414078e-02
3.952000000000000313e+01,7.246046437420505977e-03
3.956000000000000227e+01,9.087097550746117691e-03
3.960000000000000142e+01,9.508763302458856509e-03
3.964000000000000057e+01,8.456454549645863947e-03
3.967999999999999972e+01,7.349490722804019084e-03
3.971999999999999886e+01,6.733763949668881109e-03
3.975999999999999801e+01,6.227149848792095169e-03
3.979999999999999716e+01,7.631092295628620452e-03
3.984000000000000341e+01,7.561060555488057985e-03
3.988000000000000256e+01,6.562946756105965222e-03
3.992000000000000171e+01,4.909696993104979180e-03
3.996000000000000085e+01,6.095020541040123765e-03
4.000000000000000000e+01,4.659996821162854311e-03
4.003999999999999915e+01,4.535048759408854234e-03
4.007999999999999829e+01,5.774765625710434266e-03
4.011999999999999744e+01,5.103795098222360313e-03
4.015999999999999659e+01,6.780095341415813028e-03
4.020000000000000284e+01,5.945227047190664547e-03
4.024000000000000199e+01,5.874542664411595144e-03
4.028000000000000114e+01,2.965154632697883461e-03
4.032000000000000028e+01,4.204481437649834272e-03
4.035999999999999943e+01,3.751478055560832341e-03
4.039999999999999858e+01,4.062658838956827861e-03
4.043999999999999773e+01,4.810488612812054490e-03
4.047999999999999687e+01,4.084345215845839108e-03
4.052000000000000313e+01,3.849440142780893425e-03
4.056000000000000227e+01,4.760843934197935869e-03
4.060000000000000142e+01,4.307453158167887791e-03
4.064000000000000057e+01,3.908587245187633043e-03
4.067999999999999972e+01,4.874387212908877151e-03
4.071999999999999886e+01,5.512587725741293666e-03
4.075999999999999801e+01,2.657014874684810769e-03
4.079999999999999716e+01,4.714406512326884020e-03
4.084000000000000341e+01,5.625360789270568429e-03
4.088000000000000256e+01,5.662823801138512289e-03
4.092000000000000171e+01,5.045152437130762807e-03
4.096000000000000085e+01,5.191666127744208603e-03
4.100000000000000000e+01,4.737634775924002249e-03
4.103999999999999915e+01,3.901415270870208733e-03
4.107999999999999829e+01,3.774791804544205993e-03
4.111999999999999744e+01,3.538926344116981836e-03
4.115999999999999659e+01,4.340192287972499674e-03
4.120000000000000284e+01,4.540913506943009860e-03
4.124000000000000199e+01,3.868144032425334996e-03
4.128000000000000114e+01,3.086132817845345811e-03
4.132000000000000028e+01,5.251875486377405831e-03
4.135999999999999943e+01,4.033024156511660040e-03
4.139999999999999858e+01,3.905893818409604101e-03
4.143999999999999773e+01,3.887878819974483705e-03
4.147999999999999687e+01,3.760622399025701293e-03
4.152000000000000313e+01,4.070016683298805643e-03
4.156000000000000227e+01,3.123796337203456862e-03
4.160000000000000142e+01,4.306492222449521783e-03
4.164000000000000057e+01,3.360146301585273301e-03
4.167999999999999972e+01,4.051413881278643180e-03
4.171999999999999886e+01,3.923780736023138246e-03
4.175999999999999801e+01,3.304782167863984897e-03
4.179999999999999716e+01,4.268808084369053214e-03
4.184000000000000341e+01,3.540506163693109970e-03
4.188000000000000256e+01,2.593785042755620152e-03
4.192000000000000171e+01,3.885159074082523978e-03
4.196000000000000085e+01,3.211259426644687623e-03
4.200000000000000000e+01,2.646476008009980736e-03
4.203999999999999915e+01,3.555539042252698657e-03
4.207999999999999829e+01,2.499328588259862143e-03
4.211999999999999744e+01,4.336284081151057374e-03
4.215999999999999659e+01,4.371733832093899035e-03
4.220000000000000284e+01,5.389727432149830216e-03
4.224000000000000199e+01,4.551626210854291948e-03
4.228000000000000114e+01,4.313944520733220545e-03
4.232000000000000028e+01,3.421130677576943863e-03
4.235999999999999943e+01,2.692022841233936321e-03
4.239999999999999858e+01,3.600529648623652067e-03
4.243999999999999773e+01,3.744726080662186436e-03
4.247999999999999687e+01,4.653109980691579051e-03
4.252000000000000313e+01,5.834378554418312782e-03
4.256000000000000227e+01,4.176947099264909091e-03
4.260000000000000142e+01,4.375487431083205543e-03
4.264000000000000057e+01,3.755128498676373137e-03
4.267999999999999972e+01,4.990741480260692253e-03
4.271999999999999886e+01,4.916152466836102783e-03
4.275999999999999801e+01,4.186431998983317082e-03
4.279999999999999716e+01,4.493845539312128594e-03
4.284000000000000341e+01,5.128733467838694771e-03
4.288000000000000256e+01,4.016706004014596043e-03
4.292000000000000171e+01,5.524899725156178810e-03
4.296000000000000085e+01,3.812269607556820466e-03
4.300000000000000000e+01,3.955611912026443452e-03
4.303999999999999915e+01,5.136088605736032972e-03
4.307999999999999829e+01,5.552255940250090324e-03
4.311999999999999744e+01,4.057740644204103908e-03
4.315999999999999659e+01,4.528376437111174269e-03
4.320000000000000284e+01,5.490254809071300375e-03
4.324000000000000199e+01,4.159326296042489650e-03
4.328000000000000114e+01,6.158279223060482421e-03
4.332000000000000028e+01,5.755246979263837007e-03
4.335999999999999943e+01,5.297565504333327444e-03
4.339999999999999858e+01,5.713251370962593029e-03
4.343999999999999773e+01,5.364628449983873705e-03
4.347999999999999687e+01,6.053140616852132130e-03
4.352000000000000313e+01,5.649808884596371067e-03
4.356000000000000227e+01,6.283612367207040868e-03
4.360000000000000142e+01,6.808177793319636871e-03
4.364000000000000057e+01,9.625430309037523793e-03
4.367999999999999972e+01,9.112681716344413554e-03
4.371999999999999886e+01,7.671857161343671738e-03
4.375999999999999801e+01,8.851255125012903388e-03
4.379999999999999716e+01,9.157166459816540316e-03
4.384000000000000341e+01,1.022726742194179049e-02
4.388000000000000256e+01,1.096977394644673559e-02
4.392000000000000171e+01,1.176681054179917925e-02
4.396000000000000085e+01,1.589372965686380521e-02
4.400000000000000000e+01,1.592639928167910446e-02
4.403999999999999915e+01,1.524935027795492996e-02
4.407999999999999829e+01,1.926691414503669403e-02
4.411999999999999744e+01,2.104626173076612136e-02
4.415999999999999659e+01,2.479076199319180454e-02
4.420000000000000284e+01,3.126466388573963251e-02
4.424000000000000199e+01,3.795686397648054267e-02
4.428000000000000114e+01,4.437605947112099880e-02
4.432000000000000028e+01,5.641788472680966948e-02
4.435999999999999943e+01,7.599296203184664755e-02
4.439999999999999858e+01,1.012452584313738857e-01
4.443999999999999773e+01,1.311921682732946071e-01
4.447999999999999687e+01,1.661612268596540654e-01
4.452000000000000313e+01,2.032592063135650606e-01
4.456000000000000227e+01,2.119161511018910482e-01
4.460000000000000142e+01,2.138585654443297124e-01
4.464000000000000057e+01,1.984961433584096768e-01
4.467999999999999972e+01,1.669752582425149401e-01
4.471999999999999886e+01,1.357818504997751752e-01
4.475999999999999801e+01,1.063352395606872447e-01
4.479999999999999716e+01,7.754364136030925114e-02
4.484000000000000341e+01,5.584858232001566058e-02
4.488000000000000256e+01,4.414329044371308880e-02
4.492000000000000171e+01,3.653213150127232467e-02
4.496000000000000085e+01,2.930303951946749627e-02
4.500000000000000000e+01,2.256519297465348767e-02
4.503999999999999915e+01,2.003065796707563170e-02
4.507999999999999829e+01,1.973422312903070491e-02
4.511999999999999744e+01,1.457929168909267818e-02
4.515999999999999659e+01,1.455568848610391125e-02
4.520000000000000284e+01,1.305811960644162259e-02
4.524000000000000199e+01,1.325275908612534581e-02
4.528000000000000114e+01,9.680686346406536247e-03
4.532000000000000028e+01,8.237535744433848589e-03
4.535999999999999943e+01,7.831523215265362783e-03
4.539999999999999858e+01,9.499843744439871729e-03
4.543999999999999773e+01,7.237684688983011573e-03
4.547999999999999687e+01,6.886091199620863676e-03
4.552000000000000313e+01,6.643619527917917628e-03
4.556000000000000227e+01,6.182734498848406653e-03
4.560000000000000142e+01,5.285079350231739262e-03
4.564000000000000057e+01,5.369973512564778055e-03
4.567999999999999972e+01,5.509400540173359402e-03
4.571999999999999886e+01,4.939111606651040536e-03
4.575999999999999801e+01,6.279388683791528938e-03
4.579999999999999716e+01,3.798365160733370785e-03
4.584000000000000341e+01,4.974762380880108463e-03
4.588000000000000256e+01,3.585410875567066145e-03
4.592000000000000171e+01,4.161214841378316730e-03
4.596000000000000085e+01,3.972714020694459620e-03
4.600000000000000000e+01,4.439227844012375197e-03
4.603999999999999915e+01,4.414383039967547523e-03
4.607999999999999829e+01,3.516055227111638658e-03
4.611999999999999744e+01,4.910418441464162696e-03
4.615999999999999659e+01,4.011979407037903969e-03
4.620000000000000284e+01,3.004306444245903943e-03
4.624000000000000199e+01,4.616859937727015029e-03
4.628000000000000114e+01,2.844827244506875543e-03
4.632000000000000028e+01,3.802199547424479908e-03
4.635999999999999943e+01,3.449375634718424705e-03
4.639999999999999858e+01,3.806156207534008851e-03
4.643999999999999773e+01,3.889935613774462859e-03
4.647999999999999687e+01,2.936465027033365646e-03
4.652000000000000313e+01,1.873761020004349786e-03
4.656000000000000227e+01,2.284910642452031918e-03
4.660000000000000142e+01,2.204702526673175348e-03
4.664000000000000057e+01,3.543758960967895253e-03
4.667999999999999972e+01,2.317067939997389300e-03
4.671999999999999886e+01,2.782587628232828167e-03
4.675999999999999801e+01,3.575587928619378738e-03
4.679999999999999716e+01,4.150176840440941012e-03
4.684000000000000341e+01,4.015051569403993090e-03
4.688000000000000256e+01,3.989050275357014161e-03
4.692000000000000171e+01,4.345119053922636906e-03
4.696000000000000085e+01,2.954278918129865823e-03
4.700000000000000000e+01,1.781741362701412404e-03
4.703999999999999915e+01,2.792717882359971229e-03
4.707999999999999829e+01,3.312337425908727824e-03
4.711999999999999744e+01,2.903886405476744249e-03
4.715999999999999659e+01,1.621954090996334703e-03
4.720000000000000284e+01,3.342374201980591059e-03
4.724000000000000199e+01,2.606226159680980793e-03
4.728000000000000114e+01,1.651667490933116317e-03
4.732000000000000028e+01,2.716855722572620885e-03
4.735999999999999943e+01,3.891168693318822029e-03
4.739999999999999858e+01,2.445146145552325005e-03
4.743999999999999773e+01,2.691335450166877294e-03
4.747999999999999687e+01,3.537952542220556239e-03
4.752000000000000313e+01,2.910607641164956148e-03
4.756000000000000227e+01,2.774512241722777890e-03
4.760000000000000142e+01,2.474595930332753983e-03
4.764000000000000057e+01,1.847091151236866921e-03
4.767999999999999972e+01,3.184744637693310686e-03
4.771999999999999886e+01,3.485150099969777909e-03
4.775999999999999801e+01,3.075842840111485659e-03
4.779999999999999716e+01,2.994017843657235511e-03
4.784000000000000341e+01,2.257069458510269685e-03
4.788000000000000256e+01,3.594458069309437991e-03
4.792000000000000171e+01,2.584458019335288560e-03
4.796000000000000085e+01,2.939135408833156837e-03
4.800000000000000000e+01,2.474922044409477023e-03
4.803999999999999915e+01,2.338191324448204728e-03
4.807999999999999829e+01,3.402370615220390304e-03
4.811999999999999744e+01,2.610464420571139820e-03
4.815999999999999659e+01,2.964879157252216148e-03
4.820000000000000284e+01,2.554992663982971757e-03
4.824000000000000199e+01,2.145053894189276073e-03
4.828000000000000114e+01,2.226365769184110183e-03
4.832000000000000028e+01,2.471393113941699072e-03
4.835999999999999943e+01,1.679173450674957590e-03
4.839999999999999858e+01,3.561772879629232676e-03
4.843999999999999773e+01,2.441913996365661400e-03
4.847999999999999687e+01,2.413787346087660837e-03
4.852000000000000313e+01,2.003484418895238629e-03
4.856000000000000227e+01,3.449162741623999166e-03
4.860000000000000142e+01,3.803005230964221200e-03
4.864000000000000057e+01,2.409941473354632914e-03
4.867999999999999972e+01,2.217788679124421680e-03
4.871999999999999886e+01,2.407708815444586578e-03
4.875999999999999801e+01,4.016896867853920507e-03
4.879999999999999716e+01,1.968556702561962812e-03
4.884000000000000341e+01,2.212911883139958430e-03
4.888000000000000256e+01,2.948518661152396518e-03
4.892000000000000171e+01,2.373933288163787916e-03
4.896000000000000085e+01,3.273205355235567909e-03
4.900000000000000000e+01,2.261804127677347499e-03
4.903999999999999915e+01,2.178368402973149612e-03
4.907999999999999829e+01,2.258649354716542323e-03
4.911999999999999744e+01,2.065933395036600052e-03
4.915999999999999659e+01,3.074129160852773473e-03
4.920000000000000284e+01,2.335419568855331800e-03
4.924000000000000199e+01,1.978783733034733192e-03
4.928000000000000114e+01,1.840454097632944963e-03
4.932000000000000028e+01,2.903036441766195137e-03
4.935999999999999943e+01,2.000356856434406042e-03
4.939999999999999858e+01,2.571535409770020660e-03
4.943999999999999773e+01,1.777933431308470046e-03
4.947999999999999687e+01,2.185243686420858863e-03
4.952000000000000313e+01,1.336951949600711717e-03
4.956000000000000227e+01,1.853340192641710071e-03
4.960000000000000142e+01,2.588035144179344927e-03
4.964000000000000057e+01,2.067128294313629565e-03
4.967999999999999972e+01,3.074669234105984524e-03
4.971999999999999886e+01,3.372500563740270674e-03
4.975999999999999801e+01,2.087195043964875166e-03
4.979999999999999716e+01,2.985407981447742772e-03
4.984000000000000341e+01,2.628019435075885143e-03
4.988000000000000256e+01,1.506332326162280978e-03
4.992000000000000171e+01,2.240628626500626268e-03
4.996000000000000085e+01,3.138643000500585239e-03
5.000000000000000000e+01,2.016807254768571925e-03
5.003999999999999915e+01,1.713760186788625519e-03
5.007999999999999829e+01,2.447858685760792574e-03
5.011999999999999744e+01,2.090123764714087347e-03
5.015999999999999659e+01,2.605766918371211788e-03
5.020000000000000284e+01,3.612663765283811047e-03
5.024000000000000199e+01,1.671694364338909564e-03
5.028000000000000114e+01,3.497331169023899702e-03
5.032000000000000028e+01,2.265923440025681239e-03
5.035999999999999943e+01,3.163445850999331739e-03
5.039999999999999858e+01,2.150297190183459925e-03
5.043999999999999773e+01,1.573813397258856097e-03
5.047999999999999687e+01,2.471189457764314239e-03
5.052000000000000313e+01,1.840019081967515487e-03
5.056000000000000227e+01,3.064833131578312796e-03
5.060000000000000142e+01,2.160619601257900580e-03
5.064000000000000057e+01,2.621087765561301228e-03
5.067999999999999972e+01,1.662188160446523679e-03
5.071999999999999886e+01,2.832219266891168423e-03
5.075999999999999801e+01,1.163563363949942069e-03
5.079999999999999716e+01,2.388087189503750474e-03
5.084000000000000341e+01,2.247832706100879978e-03
5.088000000000000256e+01,2.980957440576939739e-03
5.092000000000000171e+01,1.585055103199618049e-03
5.096000000000000085e+01,1.772191794214261632e-03
5.100000000000000000e+01,1.467977733072457205e-03
5.103999999999999915e+01,1.927964731003334580e-03
5.107999999999999829e+01,4.407704599236023785e-03
5.111999999999999744e+01,1.974368185612254082e-03
5.115999999999999659e+01,3.143871755564647645e-03
5.120000000000000284e+01,2.020581078964008969e-03
5.124000000000000199e+01,1.497724159716942553e-03
5.128000000000000114e+01,2.230371538404175933e-03
5.132000000000000028e+01,1.816598195941786882e-03
5.135999999999999943e+01,2.057848007784743045e-03
5.139999999999999858e+01,1.643980083300784854e-03
5.143999999999999773e+01,2.540205917212611658e-03
5.147999999999999687e+01,3.982276683113808446e-03
5.152000000000000313e+01,2.476483233468797923e-03
5.156000000000000227e+01,2.608318971284257545e-03
5.160000000000000142e+01,2.958464593082770454e-03
5.164000000000000057e+01,1.343351905470749385e-03
5.167999999999999972e+01,2.184706692187125560e-03
5.171999999999999886e+01,2.370944250654415456e-03
5.175999999999999801e+01,3.430562424214651969e-03
5.179999999999999716e+01,2.743279368093605886e-03
5.184000000000000341e+01,3.311501499043051355e-03
5.188000000000000256e+01,2.187411733753246313e-03
5.192000000000000171e+01,2.209648869708220192e-03
5.196000000000000085e+01,2.013482809853134672e-03
5.200000000000000000e+01,3.564125048910698861e-03
5.203999999999999915e+01,2.658206755851767657e-03
5.207999999999999829e+01,3.444507682302352068e-03
5.211999999999999744e+01,2.811443125684980494e-03
5.215999999999999659e+01,1.468672833002939273e-03
5.220000000000000284e+01,1.599765124669270955e-03
5.224000000000000199e+01,2.112935935742055269e-03
5.228000000000000114e+01,2.516882471927769666e-03
5.232000000000000028e+01,2.866194003158720974e-03
5.235999999999999943e+01,3.652173450747890713e-03
5.239999999999999858e+01,2.800431034146866251e-03
5.243999999999999773e+01,1.675696977429929702e-03
5.247999999999999687e+01,4.044626587265022152e-03
5.252000000000000313e+01,3.520282775719705496e-03
5.256000000000000227e+01,4.196856087997395506e-03
5.260000000000000142e+01,2.962761821520617980e-03
5.264000000000000057e+01,2.438281948083066090e-03
5.267999999999999972e+01,2.841773356884794415e-03
5.271999999999999886e+01,3.627344047209705991e-03
5.275999999999999801e+01,3.211907096312633172e-03
5.279999999999999716e+01,4.051976856719535260e-03
5.284000000000000341e+01,2.926790213007744116e-03
5.288000000000000256e+01,3.384645646154866520e-03
5.292000000000000171e+01,1.331352737976944150e-03
5.296000000000000085e+01,2.007475368551619229e-03
5.300000000000000000e+01,2.792731693104665361e-03
5.303999999999999915e+01,3.304997330187733548e-03
5.307999999999999829e+01,2.561666627704057338e-03
5.311999999999999744e+01,3.019253938179586056e-03
5.315999999999999659e+01,3.422207577404654064e-03
5.320000000000000284e+01,1.641548558408253500e-03
5.324000000000000199e+01,1.989824252084152010e-03
5.328000000000000114e+01,2.883947735687178698e-03
5.332000000000000028e+01,3.013778118585078766e-03
5.335999999999999943e+01,3.307331973471478934e-03
5.339999999999999858e+01,3.218717299630284405e-03
5.343999999999999773e+01,3.075469399106724611e-03
5.347999999999999687e+01,2.604642303297605675e-03
5.352000000000000313e+01,2.898020204164313343e-03
5.356000000000000227e+01,3.901013958793998239e-03
5.360000000000000142e+01,1.410254736157516130e-03
5.364000000000000057e+01,2.085625783319678891e-03
5.367999999999999972e+01,2.870131604125588688e-03
5.371999999999999886e+01,2.289863688675249261e-03
5.375999999999999801e+01,3.456406866565589226e-03
5.379999999999999716e+01,3.421944054486872160e-03
5.384000000000000341e+01,2.295653728794005543e-03
5.388000000000000256e+01,2.424871829167756475e-03
5.392000000000000171e+01,3.427473974159780078e-03
5.396000000000000085e+01,4.211676098828155863e-03
5.400000000000000000e+01,2.484731596934132772e-03
5.403999999999999915e+01,2.286241807258558665e-03
5.407999999999999829e+01,2.196887426324012349e-03
5.411999999999999744e+01,2.762560581866056048e-03
5.415999999999999659e+01,2.127228319026595611e-03
5.420000000000000284e+01,2.965761816021914455e-03
5.424000000000000199e+01,3.476717324416520385e-03
5.428000000000000114e+01,3.114202843494300824e-03
5.432000000000000028e+01,2.642467326681148185e-03
5.435999999999999943e+01,2.389046076022291031e-03
5.439999999999999858e+01,2.790652806408108495e-03
5.443999999999999773e+01,3.956465994193500250e-03
5.447999999999999687e+01,3.812095858830054536e-03
5.452000000000000313e+01,2.630488495940414007e-03
5.456000000000000227e+01,3.250282703008598121e-03
5.460000000000000142e+01,2.232358538921632406e-03
5.464000000000000057e+01,3.397960516770034533e-03
5.467999999999999972e+01,4.072217585356972466e-03
5.471999999999999886e+01,2.672042821937286802e-03
5.475999999999999801e+01,2.472788675375662583e-03
5.479999999999999716e+01,2.764795525688248587e-03
5.484000000000000341e+01,1.964976450129879773e-03
5.488000000000000256e+01,3.130327071874916198e-03
5.492000000000000171e+01,2.657959830542621759e-03
5.496000000000000085e+01,2.567675427278289738e-03
5.500000000000000000e+01,2.968652338436810704e-03
5.503999999999999915e+01,2.496160466963356743e-03
5.507999999999999829e+01,2.787876069045116742e-03
5.511999999999999744e+01,1.987766189824023005e-03
5.515999999999999659e+01,2.770702007516350710e-03
5.520000000000000284e+01,3.007704535151103486e-03
5.524000000000000199e+01,2.316649391279927781e-03
5.528000000000000114e+01,4.191245850457847935e-03
5.532000000000000028e+01,3.445519366049232344e-03
5.535999999999999943e+01,2.808930322692944695e-03
5.539999999999999858e+01,4.410457834379438377e-03
5.543999999999999773e+01,2.572824496669852412e-03
5.547999999999999687e+01,2.973307841022494822e-03
5.552000000000000313e+01,2.281966339169561649e-03
5.556000000000000227e+01,4.047098472088658805e-03
5.560000000000000142e+01,3.410264931679644982e-03
5.564000000000000057e+01,3.046336896158806200e-03
5.567999999999999972e+01,2.900725222613295250e-03
5.571999999999999886e+01,2.809662355285077930e-03
5.575999999999999801e+01,3.864932486135539552e-03
5.579999999999999716e+01,2.791183293319451659e-03
5.584000000000000341e+01,2.809178019278924660e-03
5.588000000000000256e+01,3.918916727523672101e-03
5.592000000000000171e+01,3.882242018237543578e-03
5.596000000000000085e+01,3.299635225578679849e-03
5.600000000000000000e+01,3.754183399311696034e-03
5.603999999999999915e+01,3.335264378155929858e-03
5.607999999999999829e+01,3.080073147650188529e-03
5.611999999999999744e+01,2.224360881388031015e-03
5.615999999999999659e+01,2.897106693359915910e-03
5.620000000000000284e+01,4.061115725046506031e-03
5.624000000000000199e+01,3.478230576631626686e-03
5.628000000000000114e+01,2.513181472189581021e-03
5.632000000000000028e+01,3.185769112865651908e-03
5.635999999999999943e+01,3.585371337379186178e-03
5.639999999999999858e+01,3.220685351436650655e-03
5.643999999999999773e+01,4.002333443338172876e-03
5.647999999999999687e+01,3.473801387577271811e-03
5.652000000000000313e+01,3.272765440341140683e-03
5.656000000000000227e+01,4.381831380746000794e-03
5.660000000000000142e+01,3.471057680524041681e-03
5.664000000000000057e+01,3.160726311468956082e-03
5.667999999999999972e+01,3.068712892132395651e-03
5.671999999999999886e+01,2.867482247488583637e-03
5.675999999999999801e+01,4.686013491527989475e-03
5.679999999999999716e+01,3.665867316150462751e-03
5.684000000000000341e+01,4.119591092249774364e-03
5.688000000000000256e+01,4.027384245700101929e-03
5.692000000000000171e+01,3.607603665701487883e-03
5.696000000000000085e+01,4.334157989173398513e-03
5.700000000000000000e+01,4.460192674102921896e-03
5.703999999999999915e+01,3.276048100506205075e-03
5.707999999999999829e+01,3.729541478712439760e-03
5.711999999999999744e+01,4.565121124511956410e-03
5.715999999999999659e+01,4.418056940849919741e-03
5.720000000000000284e+01,2.578689307742475061e-03
5.724000000000000199e+01,3.414154802505967035e-03
5.728000000000000114e+01,3.594511896872583032e-03
5.732000000000000028e+01,2.519279383703639311e-03
5.735999999999999943e+01,3.518398918286408990e-03
5.739999999999999858e+01,3.862410243001491040e-03
5.743999999999999773e+01,3.332956595668268383e-03
5.747999999999999687e+01,4.004427883854620208e-03
5.752000000000000313e+01,3.038185437095986680e-03
5.756000000000000227e+01,3.600403291411870613e-03
5.760000000000000142e+01,3.398334840563534825e-03
5.764000000000000057e+01,3.359996657244618615e-03
5.767999999999999972e+01,3.321621185697101221e-03
5.771999999999999886e+01,3.064851663740373374e-03
5.775999999999999801e+01,3.572293870490657244e-03
5.779999999999999716e+01,3.970520566696355592e-03
5.784000000000000341e+01,3.386104513105874219e-03
5.788000000000000256e+01,4.493916887935489601e-03
5.792000000000000171e+01,4.946621878523884720e-03
5.796000000000000085e+01,3.979970658464618977e-03
5.800000000000000000e+01,4.105066786706228037e-03
5.803999999999999915e+01,5.431088739603603770e-03
5.807999999999999829e+01,3.481721654014702325e-03
5.811999999999999744e+01,2.897048139368771022e-03
5.815999999999999659e+01,3.458711433485208830e-03
5.820000000000000284e+01,3.692803026464013417e-03
5.824000000000000199e+01,3.981447426772989281e-03
5.828000000000000114e+01,4.379233904344446288e-03
5.832000000000000028e+01,4.776984109842958258e-03
5.835999999999999943e+01,4.028324771904000581e-03
5.839999999999999858e+01,4.153056591672869141e-03
5.843999999999999773e+01,2.585486930797906754e-03
5.847999999999999687e+01,3.201449508792211796e-03
5.852000000000000313e+01,3.544430100149289792e-03
5.856000000000000227e+01,3.232304323420788494e-03
5.860000000000000142e+01,3.684391609103598256e-03
5.864000000000000057e+01,3.535961860142860808e-03
5.867999999999999972e+01,3.660442442809636043e-03
5.871999999999999886e+01,4.549136278416900277e-03
5.875999999999999801e+01,4.127653586416231771e-03
5.879999999999999716e+01,3.979081416572263427e-03
5.884000000000000341e+01,3.284581736055979147e-03
5.888000000000000256e+01,3.135938736828764676e-03
5.892000000000000171e+01,3.205617243864847601e-03
5.896000000000000085e+01,3.439028114251373777e-03
5.900000000000000000e+01,3.890760617920661739e-03
5.903999999999999915e+01,3.796565928466270022e-03
5.907999999999999829e+01,5.067066334188327463e-03
5.911999999999999744e+01,3.553482210480284412e-03
5.915999999999999659e+01,4.223431405306877183e-03
5.920000000000000284e+01,4.129096835358381061e-03
5.924000000000000199e+01,4.853565550399416804e-03
5.928000000000000114e+01,3.066896022162173517e-03
5.932000000000000028e+01,3.518349272921067299e-03
5.935999999999999943e+01,3.751411077169609747e-03
5.939999999999999858e+01,4.039027530530443950e-03
5.943999999999999773e+01,3.835306632287465572e-03
5.947999999999999687e+01,3.904497335866562256e-03
5.952000000000000313e+01,4.355778117622629772e-03
5.956000000000000227e+01,4.697846183262150560e-03
5.960000000000000142e+01,5.258236834830350148e-03
5.964000000000000057e+01,3.853381878933650161e-03
5.967999999999999972e+01,3.321920113056073525e-03
5.971999999999999886e+01,5.083170967694495418e-03
5.975999999999999801e+01,4.988354818242370960e-03
5.979999999999999716e+01,4.347612682351411316e-03
5.984000000000000341e+01,3.979782719870073558e-03
5.988000000000000256e+01,3.775686581462941917e-03
5.992000000000000171e+01,4.936286871936537528e-03
5.996000000000000085e+01,4.459177301558553234e-03
