2.003999999999999915e+01,4.087285705336582073e-03
2.007999999999999829e+01,4.891957188167295710e-03
2.012000000000000099e+01,3.147086180652935647e-03
2.016000000000000014e+01,6.032747473697378827e-03
2.019999999999999929e+01,6.108718777164044884e-03
2.023999999999999844e+01,2.230350565349951616e-03
2.028000000000000114e+01,5.011666409758250458e-03
2.032000000000000028e+01,3.734583820588918950e-03
2.035999999999999943e+01,3.393937455635968707e-03
2.039999999999999858e+01,1.128103398896403197e-03
2.044000000000000128e+01,1.619739146291504332e-03
2.048000000000000043e+01,1.903161727860698581e-03
2.051999999999999957e+01,1.978371211434333185e-03
2.055999999999999872e+01,3.926548743994293447e-03
2.060000000000000142e+01,4.313745612770887757e-03
2.064000000000000057e+01,3.139961885594480702e-03
2.067999999999999972e+01,5.087855058386366557e-03
2.071999999999999886e+01,1.936759936328337050e-03
2.076000000000000156e+01,3.728375294156878895e-03
2.080000000000000071e+01,3.230596949650779964e-03
2.083999999999999986e+01,3.721285170304037323e-03
2.087999999999999901e+01,4.888262862074275669e-03
2.092000000000000171e+01,1.684665975849394034e-03
2.096000000000000085e+01,3.735957070535563754e-03
2.100000000000000000e+01,3.341766221102463949e-03
2.103999999999999915e+01,5.080691869513812541e-03
2.107999999999999829e+01,4.113988074572662995e-03
2.112000000000000099e+01,2.678924564197248444e-03
2.116000000000000014e+01,2.232328161623987201e-03
2.119999999999999929e+01,3.970878055195363639e-03
2.123999999999999844e+01,3.420034992565938910e-03
2.128000000000000114e+01,3.857659241229715718e-03
2.132000000000000028e+01,3.878953640589770119e-03
2.135999999999999943e+01,5.200892648776451327e-03
2.139999999999999858e+01,5.274029511659486871e-03
2.144000000000000128e+01,4.566630039878329279e-03
2.148000000000000043e+01,3.494930517093627290e-03
2.151999999999999957e+01,2.839373915817552940e-03
2.155999999999999872e+01,5.097377598862296716e-03
2.160000000000000142e+01,2.776689749112693038e-03
2.164000000000000057e+01,3.733769008196126567e-03
2.167999999999999972e+01,5.731345783855036971e-03
2.171999999999999886e+01,4.034733188850060139e-03
2.176000000000000156e+01,5.043563109402481037e-03
2.180000000000000071e+01,3.606912442442627553e-03
2.183999999999999986e+01,4.875704426700878426e-03
2.187999999999999901e+01,2.346248257659049475e-03
2.192000000000000171e+01,4.447327373711197455e-03
2.196000000000000085e+01,6.184107252723987889e-03
2.200000000000000000e+01,4.694963978694429232e-03
2.203999999999999915e+01,4.662555047543798410e-03
2.207999999999999829e+01,3.381345124205457995e-03
2.212000000000000099e+01,3.921076368258275338e-03
2.216000000000000014e+01,2.847800066932559479e-03
2.219999999999999929e+01,2.554874529082930626e-03
2.223999999999999844e+01,3.198388403476101413e-03
2.228000000000000114e+01,2.517729107878437862e-04
2.232000000000000028e+01,5.265583108139487711e-03
2.235999999999999943e+01,3.619521982321889739e-03
2.239999999999999858e+01,3.326136755898804424e-03
2.244000000000000128e+01,6.362549521894517515e-03
2.248000000000000043e+01,4.352006504554467060e-03
2.251999999999999957e+01,2.809637631460576782e-03
2.255999999999999872e+01,2.411826821167419380e-03
2.260000000000000142e+01,1.545658805162922114e-03
2.264000000000000057e+01,1.719989933662298626e-03
2.267999999999999972e+01,4.339617502923168862e-03
2.271999999999999886e+01,2.328525911660684570e-03
2.276000000000000156e+01,2.918819477756753877e-03
2.280000000000000071e+01,5.173966783423558126e-03
2.283999999999999986e+01,1.965922700397431180e-03
2.287999999999999901e+01,1.463323032178499980e-03
2.292000000000000171e+01,3.301961157745576542e-03
2.296000000000000085e+01,2.799179716838079944e-03
2.300000000000000000e+01,5.678226744953062538e-03
2.303999999999999915e+01,3.562348466335970611e-03
2.307999999999999829e+01,6.077007439892971596e-03
2.312000000000000099e+01,2.400062121866461916e-03
2.316000000000000014e+01,3.353654191674741367e-03
2.319999999999999929e+01,5.555864463526940557e-03
2.323999999999999844e+01,5.572744224653369827e-03
2.328000000000000114e+01,5.797651783908631604e-03
2.332000000000000028e+01,4.149406129971559137e-03
2.335999999999999943e+01,2.501070301908872237e-03
2.339999999999999858e+01,2.413530176914567300e-03
2.344000000000000128e+01,4.407081092606880690e-03
2.348000000000000043e+01,1.769914136552481381e-03
2.351999999999999957e+01,3.295019435996909742e-03
2.355999999999999872e+01,3.883503414849283353e-03
2.360000000000000142e+01,1.974480331576319164e-03
2.364000000000000057e+01,3.083080113759887556e-03
2.367999999999999972e+01,3.098970197906085119e-03
2.371999999999999886e+01,4.987833689636202855e-03
2.376000000000000156e+01,2.870334108177495167e-03
2.380000000000000071e+01,3.718428136517939065e-03
2.383999999999999986e+01,3.942078480951513760e-03
2.387999999999999901e+01,4.373757640969156042e-03
2.392000000000000171e+01,5.065495211380013039e-03
2.396000000000000085e+01,3.103637749202311970e-03
2.400000000000000000e+01,1.505897887036091462e-03
2.403999999999999915e+01,3.394047311439002488e-03
2.407999999999999829e+01,4.397605824023181897e-03
2.412000000000000099e+01,1.654949508785643784e-03
2.416000000000000014e+01,4.271245654844652365e-03
2.419999999999999929e+01,3.817710959466875508e-03
2.423999999999999844e+01,2.531615150570573885e-03
2.428000000000000114e+01,2.390080321180015465e-03
2.432000000000000028e+01,1.988309310698275437e-03
2.435999999999999943e+01,3.303424212149685089e-03
2.439999999999999858e+01,2.433210569955441670e-03
2.444000000000000128e+01,4.632650676803509379e-03
2.448000000000000043e+01,6.207648185030297146e-03
2.451999999999999957e+01,5.545287826123701871e-03
2.455999999999999872e+01,2.749628721871655388e-03
2.460000000000000142e+01,4.220302758495451771e-03
2.464000000000000057e+01,3.973914401264798564e-03
2.467999999999999972e+01,2.790906622691859563e-03
2.471999999999999886e+01,5.405966445676723721e-03
2.476000000000000156e+01,4.170753472167876980e-03
2.480000000000000071e+01,5.745047223280539544e-03
2.483999999999999986e+01,3.781245475432915178e-03
2.487999999999999901e+01,2.025474238928097991e-03
2.492000000000000171e+01,3.703564254281320293e-03
2.496000000000000085e+01,3.664592418422871374e-03
2.500000000000000000e+01,3.053208392716458709e-03
2.503999999999999915e+01,1.661294137077282693e-03
2.507999999999999829e+01,1.986267014317511046e-03
2.512000000000000099e+01,3.611890876437201872e-03
2.516000000000000014e+01,3.988718969306082919e-03
2.519999999999999929e+01,3.012692306796907298e-03
2.523999999999999844e+01,3.545434940573396164e-03
2.528000000000000114e+01,2.621263900674958205e-03
2.532000000000000028e+01,5.443131952810775949e-03
2.535999999999999943e+01,3.530226267268700251e-03
2.539999999999999858e+01,2.293617717673071543e-03
2.544000000000000128e+01,1.629247317896660718e-03
2.548000000000000043e+01,3.618296214921347224e-03
2.551999999999999957e+01,2.225339347038036986e-03
2.555999999999999872e+01,3.850008600468042726e-03
2.560000000000000142e+01,5.110384789420467297e-03
2.564000000000000057e+01,3.352962105807467084e-03
2.567999999999999972e+01,3.936781896274583505e-03
2.571999999999999886e+01,4.052249771797584131e-03
2.576000000000000156e+01,4.063572489058347309e-03
2.580000000000000071e+01,4.334956804738742710e-03
2.583999999999999986e+01,5.074520894584278081e-03
2.587999999999999901e+01,4.981526651955575473e-03
2.592000000000000171e+01,3.015383605107234237e-03
2.596000000000000085e+01,3.962808303918118925e-03
2.600000000000000000e+01,5.482472102173109769e-03
2.603999999999999915e+01,2.059245207951000516e-03
2.607999999999999829e+01,3.318590180157967272e-03
2.612000000000000099e+01,3.433200065000069096e-03
2.616000000000000014e+01,3.027429254053118270e-03
2.619999999999999929e+01,3.610134097532328654e-03
2.623999999999999844e+01,4.244783177649853398e-03
2.628000000000000114e+01,2.746136429126941596e-03
2.632000000000000028e+01,2.444083646436375455e-03
2.635999999999999943e+01,2.558181992726706478e-03
2.639999999999999858e+01,3.400608697700994911e-03
2.644000000000000128e+01,3.930773289613821893e-03
2.648000000000000043e+01,2.639819553910692333e-03
2.651999999999999957e+01,3.898227824640158011e-03
2.655999999999999872e+01,3.439576957371927139e-03
2.660000000000000142e+01,4.073461476790931832e-03
2.664000000000000057e+01,2.938257466894151921e-03
2.667999999999999972e+01,3.363854722154386093e-03
2.671999999999999886e+01,2.384570272611059947e-03
2.676000000000000156e+01,2.549851008055147809e-03
2.680000000000000071e+01,3.963756050274561994e-03
2.683999999999999986e+01,2.255805200881451280e-03
2.687999999999999901e+01,1.692419739966808225e-03
2.692000000000000171e+01,4.042603652639764795e-03
2.696000000000000085e+01,4.467610997703369037e-03
2.700000000000000000e+01,1.822792249454632894e-03
2.703999999999999915e+01,4.068665103478505234e-03
2.707999999999999829e+01,2.672387203084060012e-03
2.712000000000000099e+01,1.380084558574401531e-03
2.716000000000000014e+01,3.833824126295057744e-03
2.719999999999999929e+01,3.842092263600581110e-03
2.723999999999999844e+01,3.173892955600109665e-03
2.728000000000000114e+01,3.338082552508862474e-03
2.732000000000000028e+01,3.918424906326874874e-03
2.735999999999999943e+01,3.510122856457216847e-03
2.739999999999999858e+01,8.124382962605396089e-04
2.744000000000000128e+01,3.161534597576316687e-03
2.748000000000000043e+01,2.076598930692433089e-03
2.751999999999999957e+01,3.280879331105930868e-03
2.755999999999999872e+01,2.195777492513805232e-03
2.760000000000000142e+01,2.411330844282772758e-03
2.764000000000000057e+01,2.210565063943196063e-03
2.767999999999999972e+01,1.697539273282981610e-03
2.771999999999999886e+01,2.641257457411296927e-03
2.776000000000000156e+01,1.971977592409973699e-03
2.780000000000000071e+01,3.071618999730586861e-03
2.783999999999999986e+01,1.257524319112567415e-03
2.787999999999999901e+01,2.096853005116586059e-03
2.792000000000000171e+01,2.571892560803292361e-03
2.796000000000000085e+01,4.919912714090913380e-03
2.800000000000000000e+01,4.250137996803709205e-03
2.803999999999999915e+01,2.643749555923564053e-03
2.807999999999999829e+01,1.609603741665674437e-03
2.812000000000000099e+01,4.165413186630114763e-03
2.816000000000000014e+01,3.339221343489623753e-03
2.819999999999999929e+01,2.044681790886665202e-03
2.823999999999999844e+01,3.195448107463742370e-03
2.828000000000000114e+01,3.565689688366339982e-03
2.832000000000000028e+01,2.843229439552070158e-03
2.835999999999999943e+01,3.109248508002811912e-03
2.839999999999999858e+01,2.178506828439810000e-03
2.844000000000000128e+01,1.611890278057061254e-03
2.848000000000000043e+01,1.929694194472789679e-03
2.851999999999999957e+01,3.288007226453731110e-03
2.855999999999999872e+01,2.877234984975647700e-03
2.860000000000000142e+01,3.038706251914360425e-03
2.864000000000000057e+01,3.772421095100227800e-03
2.867999999999999972e+01,3.985759515809043224e-03
2.871999999999999886e+01,2.950308204168119054e-03
2.876000000000000156e+01,1.082303443838119640e-03
2.880000000000000071e+01,1.191339759503937199e-03
2.883999999999999986e+01,2.028708571505029225e-03
2.887999999999999901e+01,9.929335987323114395e-04
2.892000000000000171e+01,4.327558146470743099e-03
2.896000000000000085e+01,3.707857965944534595e-03
2.900000000000000000e+01,1.683279946944664590e-03
2.903999999999999915e+01,2.676333950498491036e-03
2.907999999999999829e+01,9.117425497908558532e-04
2.912000000000000099e+01,1.384340402615793532e-03
2.916000000000000014e+01,2.481212240461209105e-03
2.919999999999999929e+01,1.392763674302881748e-03
2.923999999999999844e+01,1.292795917677251258e-03
2.928000000000000114e+01,2.129279511435881907e-03
2.932000000000000028e+01,0.000000000000000000e+00
2.935999999999999943e+01,2.397209336145460397e-03
2.939999999999999858e+01,9.441537441177080825e-04
2.944000000000000128e+01,3.341203284607745412e-03
2.948000000000000043e+01,2.876549045182248080e-03
2.951999999999999957e+01,2.463844604483701566e-03
2.955999999999999872e+01,1.947001449406089019e-03
2.960000000000000142e+01,2.262551133397952639e-03
2.964000000000000057e+01,2.682080346586598277e-03
2.967999999999999972e+01,1.384555712544794422e-03
2.971999999999999886e+01,3.781048104896865027e-03
2.976000000000000156e+01,1.911039963718561127e-03
2.980000000000000071e+01,9.254545277402591872e-04
2.983999999999999986e+01,1.708793823431718978e-03
2.987999999999999901e+01,4.469176026538440767e-03
2.992000000000000171e+01,1.922467427860407013e-03
2.996000000000000085e+01,1.769038088088648042e-03
3.000000000000000000e+01,3.072356589435305298e-03
3.003999999999999915e+01,3.803271447558000638e-03
3.007999999999999829e+01,3.441487460499192182e-03
3.012000000000000099e+01,3.235713343580146843e-03
3.016000000000000014e+01,1.682365998614967313e-04
3.019999999999999929e+01,2.043486343991838660e-03
3.023999999999999844e+01,2.878067041240855561e-03
3.028000000000000114e+01,2.307772070587394038e-03
3.032000000000000028e+01,4.390904604207276386e-03
3.035999999999999943e+01,2.207537621752019095e-03
3.039999999999999858e+01,3.770218345785360942e-03
3.044000000000000128e+01,2.211049282937600519e-03
3.048000000000000043e+01,2.785012725896708532e-03
3.051999999999999957e+01,2.578455231680882274e-03
3.055999999999999872e+01,1.643406395099263236e-03
3.060000000000000142e+01,1.488722566367059637e-03
3.064000000000000057e+01,1.854256178420677194e-03
3.067999999999999972e+01,7.108557469177261652e-04
3.071999999999999886e+01,1.076233904458274559e-03
3.076000000000000156e+01,2.013859233254486694e-03
3.080000000000000071e+01,6.100782903245595412e-04
3.083999999999999986e+01,1.443489517632210589e-03
3.087999999999999901e+01,1.912616634068384181e-03
3.092000000000000171e+01,2.693843558187675354e-03
3.096000000000000085e+01,2.226284548456777639e-03
3.100000000000000000e+01,2.591120751857575472e-03
3.103999999999999915e+01,1.707171157068890395e-03
3.107999999999999829e+01,2.644177923669579350e-03
3.112000000000000099e+01,2.488487608677845270e-03
3.116000000000000014e+01,2.748956562308890739e-03
3.119999999999999929e+01,3.477614379371868087e-03
3.123999999999999844e+01,2.281102886672846820e-03
3.128000000000000114e+01,2.541341405663436349e-03
3.132000000000000028e+01,2.177148925022440434e-03
3.135999999999999943e+01,3.373765645689314873e-03
3.139999999999999858e+01,3.113479070724698393e-03
3.144000000000000128e+01,3.009204604301369494e-03
3.148000000000000043e+01,3.269060422164834188e-03
3.151999999999999957e+01,2.800426525590885875e-03
3.155999999999999872e+01,1.863450617303808333e-03
3.160000000000000142e+01,2.071048101476402614e-03
3.164000000000000057e+01,3.014474272117138019e-04
3.167999999999999972e+01,1.965719468134065253e-03
3.171999999999999886e+01,3.733974565431365071e-03
3.176000000000000156e+01,3.160825018930911879e-03
3.180000000000000071e+01,3.524131096126715320e-03
3.183999999999999986e+01,1.129796449355153750e-03
3.187999999999999901e+01,2.689630126710270026e-03
3.192000000000000171e+01,3.104738552101153973e-03
3.196000000000000085e+01,3.727889494806659477e-03
3.200000000000000000e+01,1.177163769035900883e-03
3.203999999999999915e+01,3.569167651310176624e-03
3.207999999999999829e+01,3.047442635662830131e-03
3.211999999999999744e+01,1.797228923033312433e-03
3.215999999999999659e+01,2.940298199979250217e-03
3.220000000000000284e+01,2.054140741134021647e-03
3.224000000000000199e+01,4.237650258249197124e-03
3.228000000000000114e+01,3.299313108679341033e-03
3.232000000000000028e+01,1.996694290130579964e-03
3.235999999999999943e+01,4.338529243908210292e-04
3.239999999999999858e+01,3.865771304148046209e-03
3.243999999999999773e+01,1.626396466581009077e-03
3.247999999999999687e+01,2.768866173829202370e-03
3.252000000000000313e+01,2.194286849801749956e-03
3.256000000000000227e+01,2.868341600119903370e-03
3.260000000000000142e+01,2.501731305547359643e-03
3.264000000000000057e+01,4.164198125662946226e-03
3.267999999999999972e+01,2.548730376460628649e-03
3.271999999999999886e+01,3.170457985522301576e-03
3.275999999999999801e+01,2.595432240078296166e-03
3.279999999999999716e+01,1.656125639619567425e-03
3.284000000000000341e+01,1.237040210615869378e-03
3.288000000000000256e+01,2.222677979536950409e-03
3.292000000000000171e+01,3.416359893701021496e-03
3.296000000000000085e+01,1.800373456168732423e-03
3.300000000000000000e+01,2.941878121500760609e-03
3.303999999999999915e+01,1.429803151733482439e-03
3.307999999999999829e+01,1.894776515809392086e-03
3.311999999999999744e+01,2.567794364280052283e-03
3.315999999999999659e+01,2.096089063527309046e-03
3.320000000000000284e+01,2.404753179596682937e-03
3.324000000000000199e+01,2.869432456573055290e-03
3.328000000000000114e+01,3.282008854371627152e-03
3.332000000000000028e+01,1.561301361671219414e-03
3.335999999999999943e+01,1.557495042732507523e-03
3.339999999999999858e+01,2.646235641640391247e-03
3.343999999999999773e+01,2.434164985200950714e-03
3.347999999999999687e+01,1.077371722180898127e-03
3.352000000000000313e+01,3.778808618289416013e-03
3.356000000000000227e+01,3.982755342029533317e-03
3.360000000000000142e+01,3.458215878510386559e-03
3.364000000000000057e+01,1.008511175050211435e-03
3.367999999999999972e+01,3.085302644849097133e-03
3.371999999999999886e+01,1.936190835897935248e-03
3.375999999999999801e+01,2.139774190160443484e-03
3.379999999999999716e+01,3.019668924742733001e-03
3.384000000000000341e+01,1.193955853853900795e-03
3.388000000000000256e+01,1.969646797160717021e-03
3.392000000000000171e+01,1.756704460957126193e-03
3.396000000000000085e+01,2.480221411288653210e-03
3.400000000000000000e+01,8.623375163219782489e-04
3.403999999999999915e+01,3.042537027384466762e-03
3.407999999999999829e+01,4.650339746088261346e-03
3.411999999999999744e+01,3.760653242048536682e-03
3.415999999999999659e+01,1.518127176628988970e-03
3.420000000000000284e+01,3.073684788560000422e-03
3.424000000000000199e+01,2.756107704984011968e-03
3.428000000000000114e+01,1.189750317476813554e-03
3.432000000000000028e+01,2.432915798214250677e-03
3.435999999999999943e+01,3.259773542341797004e-03
3.439999999999999858e+01,3.202057874880711186e-03
3.443999999999999773e+01,2.259768863661340468e-03
3.447999999999999687e+01,3.658737249198906315e-03
3.452000000000000313e+01,2.091951347487350839e-03
3.456000000000000227e+01,4.479338314535863744e-03
3.460000000000000142e+01,3.692853022080802745e-03
3.464000000000000057e+01,1.917735671061629498e-03
3.467999999999999972e+01,2.587935109908712748e-03
3.471999999999999886e+01,1.905295937000865995e-03
3.475999999999999801e+01,2.783471730980563875e-03
3.479999999999999716e+01,4.442019654996352471e-03
3.484000000000000341e+01,4.643670116790671668e-03
3.488000000000000256e+01,4.324954669812069302e-03
3.492000000000000171e+01,8.843970329514673837e-04
3.496000000000000085e+01,3.479194022305968827e-03
3.500000000000000000e+01,3.004178484417959448e-03
3.503999999999999915e+01,2.477063051887513218e-03
3.507999999999999829e+01,3.250615493993479037e-03
3.511999999999999744e+01,3.191625272435878128e-03
3.515999999999999659e+01,2.872417251811741103e-03
3.520000000000000284e+01,2.032843865057468689e-03
3.524000000000000199e+01,1.713495719579179004e-03
3.528000000000000114e+01,3.163081530698139392e-03
3.532000000000000028e+01,3.415918328453764179e-03
3.535999999999999943e+01,1.275327060164276050e-03
3.539999999999999858e+01,2.100349072475210781e-03
3.543999999999999773e+01,3.445596665213877460e-03
3.547999999999999687e+01,2.345386868419685640e-03
3.552000000000000313e+01,3.118170489162419307e-03
3.556000000000000227e+01,3.734796043099676902e-03
3.560000000000000142e+01,2.998584477549683710e-03
3.564000000000000057e+01,5.175957072603421666e-03
3.567999999999999972e+01,3.346986807912401187e-03
3.571999999999999886e+01,2.818685503143378117e-03
3.575999999999999801e+01,1.353783566038806218e-03
3.579999999999999716e+01,2.334200318050266496e-03
3.584000000000000341e+01,3.314548059005064783e-03
3.588000000000000256e+01,2.421763885497171202e-03
3.592000000000000171e+01,3.193855699914535835e-03
3.596000000000000085e+01,3.289494856042039349e-03
3.600000000000000000e+01,5.466246351585809203e-03
3.603999999999999915e+01,4.937393772327666221e-03
3.607999999999999829e+01,2.379321036822214762e-03
3.611999999999999744e+01,4.763984828057430537e-03
3.615999999999999659e+01,3.454483735384806815e-03
3.620000000000000284e+01,2.925357146810491239e-03
3.624000000000000199e+01,5.413874790252720844e-03
3.628000000000000114e+01,4.364316334214525007e-03
3.632000000000000028e+01,4.875575490447506440e-03
3.635999999999999943e+01,3.149496857330466495e-03
3.639999999999999858e+01,3.972796984742276230e-03
3.643999999999999773e+01,5.004147226467816310e-03
3.647999999999999687e+01,3.173805558588924276e-03
3.652000000000000313e+01,4.673285759411754080e-03
3.656000000000000227e+01,5.184137157527228361e-03
3.660000000000000142e+01,5.226655090553580449e-03
3.664000000000000057e+01,5.841430165896923689e-03
3.667999999999999972e+01,4.531045156405770317e-03
3.671999999999999886e+01,5.665980396128683823e-03
3.675999999999999801e+01,3.731106093144458818e-03
3.679999999999999716e+01,3.669227378268325249e-03
3.684000000000000341e+01,3.555251821115474817e-03
3.688000000000000256e+01,4.377740502113229223e-03
3.692000000000000171e+01,7.281343082625276429e-03
3.696000000000000085e+01,5.554250650218283021e-03
3.700000000000000000e+01,5.283917929240823132e-03
3.703999999999999915e+01,6.782522149395979125e-03
3.707999999999999829e+01,7.188439394680740807e-03
3.711999999999999744e+01,5.617167774286059914e-03
3.715999999999999659e+01,6.595276203196865326e-03
3.720000000000000284e+01,8.353760831964696792e-03
3.724000000000000199e+01,8.187086325522927727e-03
3.728000000000000114e+01,5.835105116807965363e-03
3.732000000000000028e+01,9.258334901404744258e-03
3.735999999999999943e+01,9.143490417940533521e-03
3.739999999999999858e+01,1.001714058140025683e-02
3.743999999999999773e+01,1.156710829774152891e-02
3.747999999999999687e+01,1.259671451428257677e-02
3.752000000000000313e+01,9.515921937317350573e-03
3.756000000000000227e+01,1.371919704303083305e-02
3.760000000000000142e+01,1.490469355745329891e-02
3.764000000000000057e+01,1.676650796390905668e-02
3.767999999999999972e+01,1.561054391473450098e-02
3.771999999999999886e+01,1.996964390228125191e-02
3.775999999999999801e+01,2.209140847454019868e-02
3.779999999999999716e+01,2.551384553389930698e-02
3.784000000000000341e+01,3.309857913202226415e-02
3.788000000000000256e+01,4.011092238166969609e-02
3.792000000000000171e+01,5.336674338489321573e-02
3.796000000000000085e+01,6.969224106381709249e-02
3.800000000000000000e+01,1.002217342597323396e-01
3.803999999999999915e+01,1.523434158714572773e-01
3.807999999999999829e+01,2.683052618735982664e-01
3.811999999999999744e+01,4.773478664960646989e-01
3.815999999999999659e+01,7.559018540852956436e-01
3.820000000000000284e+01,9.512085334993996000e-01
3.824000000000000199e+01,1.000000000000000000e+00
3.828000000000000114e+01,8.888526356943999840e-01
3.832000000000000028e+01,6.953944949027819344e-01
3.835999999999999943e+01,4.820089805405433081e-01
3.839999999999999858e+01,2.940138106740390889e-01
3.843999999999999773e+01,1.737610203318332158e-01
3.847999999999999687e+01,1.120934128334892532e-01
3.852000000000000313e+01,7.659659293905250743e-02
3.856000000000000227e+01,6.024657457421692813e-02
3.860000000000000142e+01,4.540534816100364607e-02
3.864000000000000057e+01,3.769210268095211230e-02
3.867999999999999972e+01,3.138359023422600952e-02
3.871999999999999886e+01,2.819678527895567652e-02
3.875999999999999801e+01,2.500991626424416137e-02
3.879999999999999716e+01,2.052224508345212514e-02
3.884000000000000341e+01,2.061310835301297800e-02
3.888000000000000256e+01,1.883084479538733175e-02
3.892000000000000171e+01,1.689242886870554253e-02
3.896000000000000085e+01,1.490191969475554434e-02
3.900000000000000000e+01,1.353570119209192464e-02
3.903999999999999915e+01,1.430262971092989208e-02
3.907999999999999829e+01,1.205178214819976890e-02
3.911999999999999744e+01,1.183002268867435446e-02
3.915999999999999659e+01,1.098384552426580167e-02
3.920000000000000284e+01,9.305132614889308554e-03
3.924000000000000199e+01,8.823035580547962040e-03
3.928000000000000114e+01,8.288845841581194904e-03
3.932000000000000028e+01,8.378947316543605001e-03
3.935999999999999943e+01,8.885221965350385137e-03
3.939999999999999858e+01,7.934606884595509987e-03
3.943999999999999773e+01,8.336696598963891716e-03
3.947999999999999687e+01,5.981158544961608266e-03
3.952000000000000313e+01,6.539211231106934440e-03
3.956000000000000227e+01,6.004581147863516724e-03
3.960000000000000142e+01,7.238892346895064132e-03
3.964000000000000057e+01,6.652107534495527684e-03
3.967999999999999972e+01,5.544964952964976344e-03
3.971999999999999886e+01,5.946616222306484040e-03
3.975999999999999801e+01,4.683260264644330609e-03
3.979999999999999716e+01,5.969288833090707208e-03
3.984000000000000341e+01,5.226103621342599939e-03
3.988000000000000256e+01,7.344480233236452306e-03
3.992000000000000171e+01,6.080875499148020134e-03
3.996000000000000085e+01,6.065917388019811257e-03
4.000000000000000000e+01,5.634661104360952182e-03
4.003999999999999915e+01,5.203342931832094682e-03
4.007999999999999829e+01,4.823992465242375044e-03
4.011999999999999744e+01,5.381111731061545556e-03
4.015999999999999659e+01,4.689460664010848372e-03
4.020000000000000284e+01,4.778190884093373031e-03
4.024000000000000199e+01,4.554682392584916834e-03
4.028000000000000114e+01,4.851407688976438690e-03
4.032000000000000028e+01,5.356189679225563730e-03
4.035999999999999943e+01,4.716260729714143174e-03
4.039999999999999858e+01,4.180329555763443936e-03
4.043999999999999773e+01,3.748396225203811955e-03
4.047999999999999687e+01,3.784667494717122976e-03
4.052000000000000313e+01,3.924936743282200075e-03
4.056000000000000227e+01,4.065144984771819348e-03
4.060000000000000142e+01,4.205292287016332807e-03
4.064000000000000057e+01,4.865673987633965976e-03
4.067999999999999972e+01,3.340754751558085763e-03
4.071999999999999886e+01,3.220572008155424357e-03
4.075999999999999801e+01,4.244978190362388125e-03
4.079999999999999716e+01,3.864526544048711102e-03
4.084000000000000341e+01,3.900250581302326224e-03
4.088000000000000256e+01,3.103441722462666266e-03
4.092000000000000171e+01,4.335724019193428098e-03
4.096000000000000085e+01,4.735473555491614972e-03
4.100000000000000000e+01,3.730365602420900734e-03
4.103999999999999915e+01,3.089404145090440118e-03
4.107999999999999829e+01,3.228825467160884033e-03
4.111999999999999744e+01,3.680363893653487879e-03
4.115999999999999659e+01,4.600108073334961689e-03
4.120000000000000284e+01,4.167024629778071781e-03
4.124000000000000199e+01,3.577792751325300797e-03
4.128000000000000114e+01,3.196619194658503662e-03
4.132000000000000028e+01,3.543799297395925415e-03
4.135999999999999943e+01,4.463244546431536196e-03
4.139999999999999858e+01,3.561596768571437168e-03
4.143999999999999773e+01,3.388302853606599187e-03
4.147999999999999687e+01,5.035982935921920305e-03
4.152000000000000313e+01,4.238215871087120876e-03
4.156000000000000227e+01,2.711976117232554884e-03
4.160000000000000142e+01,3.891212522788600834e-03
4.164000000000000057e+01,4.185887794049213649e-03
4.167999999999999972e+01,3.596001998844750112e-03
4.171999999999999886e+01,2.485761893857066016e-03
4.175999999999999801e+01,4.185057273558972189e-03
4.179999999999999716e+01,4.739644155392898524e-03
4.184000000000000341e+01,3.421109229486169953e-03
4.188000000000000256e+01,4.079637560099457806e-03
4.192000000000000171e+01,2.552867056760052284e-03
4.196000000000000085e+01,3.887661904240764885e-03
4.200000000000000000e+01,3.297305688323425975e-03
4.203999999999999915e+01,4.736042527226288004e-03
4.207999999999999829e+01,4.613835127243317603e-03
4.211999999999999744e+01,2.722565448289708447e-03
4.215999999999999659e+01,4.265186256074635258e-03
4.220000000000000284e+01,1.645386679525353939e-03
4.224000000000000199e+01,3.396009210993501063e-03
4.228000000000000114e+01,3.637717369706344479e-03
4.232000000000000028e+01,3.775308451921515190e-03
4.235999999999999943e+01,4.797343538066344004e-03
4.239999999999999858e+01,4.050316820052978634e-03
4.243999999999999773e+01,3.095114175075412439e-03
4.247999999999999687e+01,3.596680534285220769e-03
4.252000000000000313e+01,3.525864413340010738e-03
4.256000000000000227e+01,4.807758378285299436e-03
4.260000000000000142e+01,4.736827094054446401e-03
4.264000000000000057e+01,2.584657250774759652e-03
4.267999999999999972e+01,3.398113033219051123e-03
4.271999999999999886e+01,4.627747687257050511e-03
4.275999999999999801e+01,4.868764052291822166e-03
4.279999999999999716e+01,4.121162196153713327e-03
4.284000000000000341e+01,2.489001240630647153e-03
4.288000000000000256e+01,3.510289088110578500e-03
4.292000000000000171e+01,6.352553374763245109e-03
4.296000000000000085e+01,3.783689918367427914e-03
4.300000000000000000e+01,3.347980198677770382e-03
4.303999999999999915e+01,4.577158540715531819e-03
4.307999999999999829e+01,5.285984879201947005e-03
4.311999999999999744e+01,3.757484891667360345e-03
4.315999999999999659e+01,4.674316074033064809e-03
4.320000000000000284e+01,5.539061199147563529e-03
4.324000000000000199e+01,4.738804998498785497e-03
4.328000000000000114e+01,4.875023888856477167e-03
4.332000000000000028e+01,6.832219896690393431e-03
4.335999999999999943e+01,5.459469918930852199e-03
4.339999999999999858e+01,4.867106654732464809e-03
4.343999999999999773e+01,6.563986454310446854e-03
4.347999999999999687e+01,6.803983443022390033e-03
4.352000000000000313e+01,8.448721672532003360e-03
4.356000000000000227e+01,6.087130404875647390e-03
4.360000000000000142e+01,7.523638754701919042e-03
4.364000000000000057e+01,8.751973212474464803e-03
4.367999999999999972e+01,8.887631887384239010e-03
4.371999999999999886e+01,8.190762482155529781e-03
4.375999999999999801e+01,1.014734337219749642e-02
4.379999999999999716e+01,1.111530773682531392e-02
4.384000000000000341e+01,1.088653753595417856e-02
4.388000000000000256e+01,1.206250918635385326e-02
4.392000000000000171e+01,1.453916370189710545e-02
4.396000000000000085e+01,1.701576297594458581e-02
4.400000000000000000e+01,1.730706694321753128e-02
4.403999999999999915e+01,1.879499492516752829e-02
4.407999999999999829e+01,2.199984225941280236e-02
4.411999999999999744e+01,3.035555779438374457e-02
4.415999999999999659e+01,3.543335822734698659e-02
4.420000000000000284e+01,4.233213727005414456e-02
4.424000000000000199e+01,5.094783593637797897e-02
4.428000000000000114e+01,7.028156246147920783e-02
4.432000000000000028e+01,9.950084448152758665e-02
4.435999999999999943e+01,1.304370463286836646e-01
4.439999999999999858e+01,1.756292840726658144e-01
4.443999999999999773e+01,2.062531998350556617e-01
4.447999999999999687e+01,2.170538114588259626e-01
4.452000000000000313e+01,2.181248472456918941e-01
4.456000000000000227e+01,1.955744235601475089e-01
4.460000000000000142e+01,1.636586308622110242e-01
4.464000000000000057e+01,1.296095734697643997e-01
4.467999999999999972e+01,9.993094232298647961e-02
4.471999999999999886e+01,7.056443438536214030e-02
4.475999999999999801e+01,5.321669329494912309e-02
4.479999999999999716e+01,3.919878811412009362e-02
4.484000000000000341e+01,2.981145708517512344e-02
4.488000000000000256e+01,2.474252311407183422e-02
4.492000000000000171e+01,1.982962411033751399e-02
4.496000000000000085e+01,1.892294513823283841e-02
4.500000000000000000e+01,1.525864775834568851e-02
4.503999999999999915e+01,1.289503514285190479e-02
4.507999999999999829e+01,1.198819594051818774e-02
4.511999999999999744e+01,9.624476708362752000e-03
4.515999999999999659e+01,1.074668257720082752e-02
4.520000000000000284e+01,8.070679837832410095e-03
4.524000000000000199e+01,8.776543281160628998e-03
4.528000000000000114e+01,8.233645073903674352e-03
4.532000000000000028e+01,7.222428188573721229e-03
4.535999999999999943e+01,6.419276543725371820e-03
4.539999999999999858e+01,5.720131153231388342e-03
4.543999999999999773e+01,5.281080665858492104e-03
4.547999999999999687e+01,5.154154676415819390e-03
4.552000000000000313e+01,4.454851294094321068e-03
4.556000000000000227e+01,5.004204030981927037e-03
4.560000000000000142e+01,6.438006266057482059e-03
4.564000000000000057e+01,4.125630166039164978e-03
4.567999999999999972e+01,3.374087550593742480e-03
4.571999999999999886e+01,3.350906055890936694e-03
4.575999999999999801e+01,3.847967641845953871e-03
4.579999999999999716e+01,4.917301903267928993e-03
4.584000000000000341e+01,2.968871546450819153e-03
4.588000000000000256e+01,3.882013187828053154e-03
4.592000000000000171e+01,3.702482844842068695e-03
4.596000000000000085e+01,4.615520718432315934e-03
4.600000000000000000e+01,4.123709581447320555e-03
4.603999999999999915e+01,3.007492406399238979e-03
4.607999999999999829e+01,4.440670406824520113e-03
4.611999999999999744e+01,3.064202371738315722e-03
4.615999999999999659e+01,3.976982012892222446e-03
4.620000000000000284e+01,3.484912982622627095e-03
4.624000000000000199e+01,4.605707913529590199e-03
4.628000000000000114e+01,2.968886607225260533e-03
4.632000000000000028e+01,3.517254194524863271e-03
4.635999999999999943e+01,3.129039124531446479e-03
4.639999999999999858e+01,3.157009166523867729e-03
4.643999999999999773e+01,3.757252969268829682e-03
4.647999999999999687e+01,2.640471413530002046e-03
4.652000000000000313e+01,2.824377131907457924e-03
4.656000000000000227e+01,2.331848167037584366e-03
4.660000000000000142e+01,3.140006611944692709e-03
4.664000000000000057e+01,3.844055306031838194e-03
4.667999999999999972e+01,2.674990399850580083e-03
4.671999999999999886e+01,2.234288310170674807e-03
4.675999999999999801e+01,2.001653835034587423e-03
4.679999999999999716e+01,1.977087042272673845e-03
4.684000000000000341e+01,2.680883269503161331e-03
4.688000000000000256e+01,3.228540625916999016e-03
4.692000000000000171e+01,2.787586747683925507e-03
4.696000000000000085e+01,3.127025619913089902e-03
4.700000000000000000e+01,3.102207716901496989e-03
4.703999999999999915e+01,2.140808309712828421e-03
4.707999999999999829e+01,1.439506586689566405e-03
4.711999999999999744e+01,3.391660856686309899e-03
4.715999999999999659e+01,1.805757477057615265e-03
4.720000000000000284e+01,2.405044483300532686e-03
4.724000000000000199e+01,1.755573162645397006e-03
4.728000000000000114e+01,3.655499052374086393e-03
4.732000000000000028e+01,2.069397090777521514e-03
4.735999999999999943e+01,1.575865719819412921e-03
4.739999999999999858e+01,1.966786899414966865e-03
4.743999999999999773e+01,1.837363468967238367e-03
4.747999999999999687e+01,2.592392724733858650e-03
4.752000000000000313e+01,2.410841290287596850e-03
4.756000000000000227e+01,1.240679706480011602e-03
4.760000000000000142e+01,2.619915875699051905e-03
4.764000000000000057e+01,1.917921964662909614e-03
4.767999999999999972e+01,2.204440132950444709e-03
4.771999999999999886e+01,2.386850381837449936e-03
4.775999999999999801e+01,2.933418521963368497e-03
4.779999999999999716e+01,2.959642662519160368e-03
4.784000000000000341e+01,2.205375236441220205e-03
4.788000000000000256e+01,1.659177324156876432e-03
4.792000000000000171e+01,1.945403317241941113e-03
4.796000000000000085e+01,2.335639905823723352e-03
4.800000000000000000e+01,1.321030875347715483e-03
4.803999999999999915e+01,1.711170750498838562e-03
4.807999999999999829e+01,2.361410005574086316e-03
4.811999999999999744e+01,2.439276276743211017e-03
4.815999999999999659e+01,2.725212536518369522e-03
4.820000000000000284e+01,1.866451151281431483e-03
4.824000000000000199e+01,2.412439010823364937e-03
4.828000000000000114e+01,3.166497062462383244e-03
4.832000000000000028e+01,1.787296659983378779e-03
4.835999999999999943e+01,3.113583880243989306e-03
4.839999999999999858e+01,1.942406093195756921e-03
4.843999999999999773e+01,9.792987695660050791e-04
4.847999999999999687e+01,2.253413529357833726e-03
4.852000000000000313e+01,1.602388282098530028e-03
4.856000000000000227e+01,2.304083295282106231e-03
4.860000000000000142e+01,2.849642354354041222e-03
4.864000000000000057e+01,2.146445460590142278e-03
4.867999999999999972e+01,7.668174785874228797e-04
4.871999999999999886e+01,2.040648202818686266e-03
4.875999999999999801e+01,3.158343244259710202e-03
4.879999999999999716e+01,2.142780645546894531e-03
4.884000000000000341e+01,2.323850201153032733e-03
4.888000000000000256e+01,4.757213062236077990e-04
4.892000000000000171e+01,2.477730577192033788e-03
4.896000000000000085e+01,1.722128155582558842e-03
4.900000000000000000e+01,1.903010524719494318e-03
4.903999999999999915e+01,2.604141536602884444e-03
4.907999999999999829e+01,1.796369706890335897e-03
4.911999999999999744e+01,2.913643884012223715e-03
4.915999999999999659e+01,2.886222044050389124e-03
4.920000000000000284e+01,1.974251889729120458e-03
4.924000000000000199e+01,2.206885041051515062e-03
4.928000000000000114e+01,3.063826296060034524e-03
4.932000000000000028e+01,2.307806062497134991e-03
4.935999999999999943e+01,2.072035014323484522e-03
4.939999999999999858e+01,1.940277003539123872e-03
4.943999999999999773e+01,3.733565542231990966e-03
4.947999999999999687e+01,1.364446041714214609e-03
4.952000000000000313e+01,3.365760994337413381e-03
4.956000000000000227e+01,2.297288109965217682e-03
4.960000000000000142e+01,2.893714411497703889e-03
4.964000000000000057e+01,1.929209294080357160e-03
4.967999999999999972e+01,1.901190120525353671e-03
4.971999999999999886e+01,1.352830203256978050e-03
4.975999999999999801e+01,3.145753593938933456e-03
4.979999999999999716e+01,2.129037189501526307e-03
4.984000000000000341e+01,1.788659365353923066e-03
4.988000000000000256e+01,1.916502081411317624e-03
4.992000000000000171e+01,1.992270135716183495e-03
4.996000000000000085e+01,1.651756907247343975e-03
5.000000000000000000e+01,2.820054962050316371e-03
5.003999999999999915e+01,3.103806126931192740e-03
5.007999999999999829e+01,8.380656063990909142e-04
5.011999999999999744e+01,2.370435759696533709e-03
5.015999999999999659e+01,2.706082064690197488e-03
5.020000000000000284e+01,2.573417966913464378e-03
5.024000000000000199e+01,3.013034073772452928e-03
5.028000000000000114e+01,2.047808427903555824e-03
5.032000000000000028e+01,1.394715487437135941e-03
5.035999999999999943e+01,2.978847818418702779e-03
5.039999999999999858e+01,3.106109073184639899e-03
5.043999999999999773e+01,3.493473709865317980e-03
5.047999999999999687e+01,2.788174094842586076e-03
5.052000000000000313e+01,2.134859889480131712e-03
5.056000000000000227e+01,3.406594132844689010e-03
5.060000000000000142e+01,2.701162369357475168e-03
5.064000000000000057e+01,1.995686692042809764e-03
5.067999999999999972e+01,1.758432911540121039e-03
5.071999999999999886e+01,3.029991635255536216e-03
5.075999999999999801e+01,2.532502731355737533e-03
5.079999999999999716e+01,3.439767413377155681e-03
5.084000000000000341e+01,2.005659806677387129e-03
5.088000000000000256e+01,2.080364975517117951e-03
5.092000000000000171e+01,2.831410556066077215e-03
5.096000000000000085e+01,2.593851752833393597e-03
5.100000000000000000e+01,2.668426808119121318e-03
5.103999999999999915e+01,2.899047208817249165e-03
5.107999999999999829e+01,2.245122483182352639e-03
5.111999999999999744e+01,9.147708069599425236e-04
5.115999999999999659e+01,1.925704812750087154e-03
5.120000000000000284e+01,2.416300584549769398e-03
5.124000000000000199e+01,2.750764879040872371e-03
5.128000000000000114e+01,2.564891075202217850e-03
5.132000000000000028e+01,2.378974510652036561e-03
5.135999999999999943e+01,1.464601875517649969e-03
5.139999999999999858e+01,3.203692491250636695e-03
5.143999999999999773e+01,2.601411835717670502e-03
5.147999999999999687e+01,2.259236325688526465e-03
5.152000000000000313e+01,3.009638460654157858e-03
5.156000000000000227e+01,2.095053378569135174e-03
5.160000000000000142e+01,2.377105131097163090e-03
5.164000000000000057e+01,2.815203246492821876e-03
5.167999999999999972e+01,2.368757253010701346e-03
5.171999999999999886e+01,2.442564446908436406e-03
5.175999999999999801e+01,2.724447734143637442e-03
5.179999999999999716e+01,2.069757589013319216e-03
5.184000000000000341e+01,1.102848403093289239e-03
5.188000000000000256e+01,3.153609970856339258e-03
5.192000000000000171e+01,1.926469595699442780e-03
5.196000000000000085e+01,3.300763894056020584e-03
5.200000000000000000e+01,2.489776451707911061e-03
5.203999999999999915e+01,3.239633278958206804e-03
5.207999999999999829e+01,2.948858094697848035e-03
5.211999999999999744e+01,2.606011979354166865e-03
5.215999999999999659e+01,2.107035946799927246e-03
5.220000000000000284e+01,2.336432023504878431e-03
5.224000000000000199e+01,2.929993588447860411e-03
5.228000000000000114e+01,1.910598684265262838e-03
5.232000000000000028e+01,3.076402848238973635e-03
5.235999999999999943e+01,2.837368786662960302e-03
5.239999999999999858e+01,3.326707173497889594e-03
5.243999999999999773e+01,3.347738956061974656e-03
5.247999999999999687e+01,2.120021297503745742e-03
5.252000000000000313e+01,2.609237303444485179e-03
5.256000000000000227e+01,3.046383124435731848e-03
5.260000000000000142e+01,2.494927342689655381e-03
5.264000000000000057e+01,2.359667254463887216e-03
5.267999999999999972e+01,2.588573400609982082e-03
5.271999999999999886e+01,2.869468687085563376e-03
5.275999999999999801e+01,3.358441762657343732e-03
5.279999999999999716e+01,2.078370669961730147e-03
5.284000000000000341e+01,2.255086149513924575e-03
5.288000000000000256e+01,2.067554824886695067e-03
5.292000000000000171e+01,2.192160614634648588e-03
5.296000000000000085e+01,3.461376018248728866e-03
5.300000000000000000e+01,1.920957053171385310e-03
5.303999999999999915e+01,2.409649796260283222e-03
5.307999999999999829e+01,3.262509452024533498e-03
5.311999999999999744e+01,3.334886494761151333e-03
5.315999999999999659e+01,2.678810519279276482e-03
5.320000000000000284e+01,4.051846523285028596e-03
5.324000000000000199e+01,1.314510391111746576e-03
5.328000000000000114e+01,2.999644615111055068e-03
5.332000000000000028e+01,2.395440282849617842e-03
5.335999999999999943e+01,3.195993877651745387e-03
5.339999999999999858e+01,2.071415740705342175e-03
5.343999999999999773e+01,1.935359450652904094e-03
5.347999999999999687e+01,2.163470751579312911e-03
5.352000000000000313e+01,2.391543022463404281e-03
5.356000000000000227e+01,2.983783019987049610e-03
5.360000000000000142e+01,1.754950678871480861e-03
5.364000000000000057e+01,3.335673968059208686e-03
5.367999999999999972e+01,2.991266000310849674e-03
5.371999999999999886e+01,2.334642179799195118e-03
5.375999999999999801e+01,2.874658856739444133e-03
5.379999999999999716e+01,2.061869277001321214e-03
5.384000000000000341e+01,2.185572695481871521e-03
5.388000000000000256e+01,4.130271138650829128e-03
5.392000000000000171e+01,2.745041503438511513e-03
5.396000000000000085e+01,2.296305069935913185e-03
5.400000000000000000e+01,3.772622918570344569e-03
5.403999999999999915e+01,2.959603431890318968e-03
5.407999999999999829e+01,3.291195458326202743e-03
5.411999999999999744e+01,3.362601837281072818e-03
5.415999999999999659e+01,3.277881690542840641e-03
5.420000000000000284e+01,2.308621708238828979e-03
5.424000000000000199e+01,3.108327834117590241e-03
5.428000000000000114e+01,1.930874193536710488e-03
5.432000000000000028e+01,2.366298215862929714e-03
5.435999999999999943e+01,3.269950375393265284e-03
5.439999999999999858e+01,3.653269727361077839e-03
5.443999999999999773e+01,3.152049650745204334e-03
5.447999999999999687e+01,2.390644537121453146e-03
5.452000000000000313e+01,3.346176479514129543e-03
5.456000000000000227e+01,2.480637711195974888e-03
5.460000000000000142e+01,2.499563702894331500e-03
5.464000000000000057e+01,2.934688779630459550e-03
5.467999999999999972e+01,2.121068145913472969e-03
5.471999999999999886e+01,2.764237272470716680e-03
5.475999999999999801e+01,2.106631297256765945e-03
5.479999999999999716e+01,2.541608529126217989e-03
5.484000000000000341e+01,2.768430861439722616e-03
5.488000000000000256e+01,4.191895590454919503e-03
5.492000000000000171e+01,2.493552044762719581e-03
5.496000000000000085e+01,3.500707313817761745e-03
5.500000000000000000e+01,2.634763091317030795e-03
5.503999999999999915e+01,3.173579644754539412e-03
5.507999999999999829e+01,3.972507448427283275e-03
5.511999999999999744e+01,3.678778868717125748e-03
5.515999999999999659e+01,3.072836878136243205e-03
5.520000000000000284e+01,3.819626407836199285e-03
5.524000000000000199e+01,2.225051110153381233e-03
5.528000000000000114e+01,2.711620846115143750e-03
5.532000000000000028e+01,2.365682172739688033e-03
5.535999999999999943e+01,4.309006776584658333e-03
5.539999999999999858e+01,1.985874326153088364e-03
5.543999999999999773e+01,2.160123396517802438e-03
5.547999999999999687e+01,1.918100544696996982e-03
5.552000000000000313e+01,2.508514486011948451e-03
5.556000000000000227e+01,3.046863329653608145e-03
5.560000000000000142e+01,3.481117616473522990e-03
5.564000000000000057e+01,4.175484103153573497e-03
5.567999999999999972e+01,3.412988467224096264e-03
5.571999999999999886e+01,1.817985100260888177e-03
5.575999999999999801e+01,3.760954336312520314e-03
5.579999999999999716e+01,2.842264424818381589e-03
5.584000000000000341e+01,2.651952795145223491e-03
5.588000000000000256e+01,3.398137623038533818e-03
5.592000000000000171e+01,3.311815059049864462e-03
5.596000000000000085e+01,2.549073751945937598e-03
5.600000000000000000e+01,3.087035794751041579e-03
5.603999999999999915e+01,3.468874499889466022e-03
5.607999999999999829e+01,3.226324192382466760e-03
5.611999999999999744e+01,2.775621155890686028e-03
5.615999999999999659e+01,3.001267416883886957e-03
5.620000000000000284e+01,2.550495341743924671e-03
5.624000000000000199e+01,3.140279388601146214e-03
5.628000000000000114e+01,3.365822396858630678e-03
5.632000000000000028e+01,4.111626392986119510e-03
5.635999999999999943e+01,2.099831245150313164e-03
5.639999999999999858e+01,3.626009785614927195e-03
5.643999999999999773e+01,3.383150330373913255e-03
5.647999999999999687e+01,2.359813959854607790e-03
5.652000000000000313e+01,3.001388509890389258e-03
5.656000000000000227e+01,2.810456753329781607e-03
5.660000000000000142e+01,2.723550243621325733e-03
5.664000000000000057e+01,2.272403305786267497e-03
5.667999999999999972e+01,3.278049451912551544e-03
5.671999999999999886e+01,2.670746658082018016e-03
5.675999999999999801e+01,3.156030395022004897e-03
5.679999999999999716e+01,3.068955867241637825e-03
5.684000000000000341e+01,3.606202263083389033e-03
5.688000000000000256e+01,3.050795260077612467e-03
5.692000000000000171e+01,3.640004586142535185e-03
5.696000000000000085e+01,3.708885445787285864e-03
5.700000000000000000e+01,4.037880811524047382e-03
5.703999999999999915e+01,4.522931697225583692e-03
5.707999999999999829e+01,3.395034253443441480e-03
5.711999999999999744e+01,1.850867668520105340e-03
5.715999999999999659e+01,3.012203629013223641e-03
5.720000000000000284e+01,2.872768625386437884e-03
5.724000000000000199e+01,2.993448534833750320e-03
5.728000000000000114e+01,2.801918628418845637e-03
5.732000000000000028e+01,3.650946675420556689e-03
5.735999999999999943e+01,3.095144975666189093e-03
5.739999999999999858e+01,2.591340352392168967e-03
5.743999999999999773e+01,3.024034832068238192e-03
5.747999999999999687e+01,2.364076930352006049e-03
5.752000000000000313e+01,1.756116308607171342e-03
5.756000000000000227e+01,3.281334113815598773e-03
5.760000000000000142e+01,2.413161566653066088e-03
5.764000000000000057e+01,3.886285690019659639e-03
5.767999999999999972e+01,3.642403447400242942e-03
5.771999999999999886e+01,3.658636931819108252e-03
5.775999999999999801e+01,3.466720468297518776e-03
5.779999999999999716e+01,3.430860813517345922e-03
5.784000000000000341e+01,3.030762765521046939e-03
5.788000000000000256e+01,3.463105512651102735e-03
5.792000000000000171e+01,2.646708043586340486e-03
5.796000000000000085e+01,3.495223936969240903e-03
5.800000000000000000e+01,3.094999749818016024e-03
5.803999999999999915e+01,3.319098521199390864e-03
5.807999999999999829e+01,2.970841198431592011e-03
5.811999999999999744e+01,2.986759334963149087e-03
5.815999999999999659e+01,3.574971106539558130e-03
5.820000000000000284e+01,2.758354555797234379e-03
5.824000000000000199e+01,3.658681369293805170e-03
5.828000000000000114e+01,4.090711481750513960e-03
5.832000000000000028e+01,4.262563068912879338e-03
5.835999999999999943e+01,3.653940928823344678e-03
5.839999999999999858e+01,3.201376614930465190e-03
5.843999999999999773e+01,2.644722560170635964e-03
5.847999999999999687e+01,3.440805587780294394e-03
5.852000000000000313e+01,3.612503740395817987e-03
5.856000000000000227e+01,3.888230463550600580e-03
5.860000000000000142e+01,4.215956298096213382e-03
5.864000000000000057e+01,3.763208880202370717e-03
5.867999999999999972e+01,3.778696925190350338e-03
5.871999999999999886e+01,3.377918542251108752e-03
5.875999999999999801e+01,2.821021434108921064e-03
5.879999999999999716e+01,3.616861950979009376e-03
5.884000000000000341e+01,4.152524824349279262e-03
5.888000000000000256e+01,2.971183366644017301e-03
5.892000000000000171e+01,4.339258857954195886e-03
5.896000000000000085e+01,3.990330153849540144e-03
5.900000000000000000e+01,4.681962252036177968e-03
5.903999999999999915e+01,2.980206439744420132e-03
5.907999999999999829e+01,4.348163117577390040e-03
5.911999999999999744e+01,4.623470195062384831e-03
5.915999999999999659e+01,3.493950578157005351e-03
5.920000000000000284e+01,4.289494061334061560e-03
5.924000000000000199e+01,4.408624363484494983e-03
5.928000000000000114e+01,4.683813984099254556e-03
5.932000000000000028e+01,4.802885829135964540e-03
5.935999999999999943e+01,4.453662804552247466e-03
5.939999999999999858e+01,3.271938289326934649e-03
5.943999999999999773e+01,3.755129646272206603e-03
5.947999999999999687e+01,3.249731067300214073e-03
5.952000000000000313e+01,3.940982753350418498e-03
5.956000000000000227e+01,2.915231261441015870e-03
5.960000000000000142e+01,4.438897871663002002e-03
5.964000000000000057e+01,3.985413804692148135e-03
5.967999999999999972e+01,4.468432639170934542e-03
5.971999999999999886e+01,3.390537147947878666e-03
5.975999999999999801e+01,4.289735233410938396e-03
5.979999999999999716e+01,4.148314398620739883e-03
5.984000000000000341e+01,3.694688089110665687e-03
5.988000000000000256e+01,4.281624074159568610e-03
5.992000000000000171e+01,4.296207085255352928e-03
5.996000000000000085e+01,4.206702933037455988e-03
