2.003999999999999915e+01,4.814426425898293838e-02
2.007999999999999829e+01,3.643123047989150348e-02
2.012000000000000099e+01,4.879978277011743498e-02
2.016000000000000014e+01,4.685043195842869546e-02
2.019999999999999929e+01,3.888137070644118176e-02
2.023999999999999844e+01,5.108885788347843071e-02
2.028000000000000114e+01,5.483598588615393177e-02
2.032000000000000028e+01,4.263810717473771883e-02
2.035999999999999943e+01,3.515935106344357519e-02
2.039999999999999858e+01,4.834526577536204378e-02
2.044000000000000128e+01,4.021674889772240691e-02
2.048000000000000043e+01,4.559367301810908490e-02
2.051999999999999957e+01,3.958145346747454080e-02
2.055999999999999872e+01,4.007815478247757357e-02
2.060000000000000142e+01,5.505655023913758744e-02
2.064000000000000057e+01,4.514089250944202519e-02
2.067999999999999972e+01,5.084589342888289759e-02
2.071999999999999886e+01,5.378535604030691697e-02
2.076000000000000156e+01,4.435940679761886385e-02
2.080000000000000071e+01,5.201849842609001379e-02
2.083999999999999986e+01,4.438340038799423043e-02
2.087999999999999901e+01,4.602327462468206593e-02
2.092000000000000171e+01,4.359592465571866110e-02
2.096000000000000085e+01,4.116909112998688725e-02
2.100000000000000000e+01,3.565128821328578113e-02
2.103999999999999915e+01,4.038470904394793337e-02
2.107999999999999829e+01,4.235257652713327048e-02
2.112000000000000099e+01,3.569734005108547020e-02
2.116000000000000014e+01,2.709009534944547756e-02
2.119999999999999929e+01,4.337794006272670949e-02
2.123999999999999844e+01,3.867673915102192578e-02
2.128000000000000114e+01,4.341320349638683185e-02
2.132000000000000028e+01,4.099094276243941959e-02
2.135999999999999943e+01,4.507756947310662815e-02
2.139999999999999858e+01,2.199217554828385157e-02
2.144000000000000128e+01,4.007283029181153006e-02
2.148000000000000043e+01,5.766585067651423119e-02
2.151999999999999957e+01,3.881239292312373829e-02
2.155999999999999872e+01,5.510472019142795275e-02
2.160000000000000142e+01,3.983185676345776804e-02
2.164000000000000057e+01,5.075574191122514400e-02
2.167999999999999972e+01,5.191753185546216232e-02
2.171999999999999886e+01,5.568316157771707742e-02
2.176000000000000156e+01,5.391714476707083065e-02
2.180000000000000071e+01,5.800915824828740963e-02
2.183999999999999986e+01,4.810861782903786549e-02
2.187999999999999901e+01,6.131333179606911904e-02
2.192000000000000171e+01,5.336626203744802843e-02
2.196000000000000085e+01,5.746018421278498850e-02
2.200000000000000000e+01,4.918864273142484894e-02
2.203999999999999915e+01,5.019202506436538924e-02
2.207999999999999829e+01,5.314839336467420267e-02
2.212000000000000099e+01,4.601722869429555191e-02
2.216000000000000014e+01,2.131388351349954025e-02
2.219999999999999929e+01,3.598674863031161436e-02
2.223999999999999844e+01,4.919568948154290355e-02
2.228000000000000114e+01,4.873747743634018748e-02
2.232000000000000028e+01,3.331043328127334530e-02
2.235999999999999943e+01,4.115133315267129749e-02
2.239999999999999858e+01,3.857926897042922298e-02
2.244000000000000128e+01,4.934985421191036975e-02
2.248000000000000043e+01,3.457547062749442845e-02
2.251999999999999957e+01,4.485883100610979501e-02
2.255999999999999872e+01,4.993593081639609299e-02
2.260000000000000142e+01,5.777954333437271967e-02
2.264000000000000057e+01,6.285753733387833275e-02
2.267999999999999972e+01,5.980049128154900362e-02
2.271999999999999886e+01,5.056091981990170486e-02
2.276000000000000156e+01,6.768075983735774570e-02
2.280000000000000071e+01,8.203497465213822892e-02
2.283999999999999986e+01,7.881698054863221781e-02
2.287999999999999901e+01,8.910432718008455544e-02
2.292000000000000171e+01,8.849055895583990416e-02
2.296000000000000085e+01,8.852806239345978323e-02
2.300000000000000000e+01,6.643747883026249190e-02
2.303999999999999915e+01,6.842835934964749955e-02
2.307999999999999829e+01,6.700276419780962223e-02
2.312000000000000099e+01,6.850636972279483539e-02
2.316000000000000014e+01,4.576665555639257421e-02
2.319999999999999929e+01,6.191498083292812371e-02
2.323999999999999844e+01,6.634862942137065289e-02
2.328000000000000114e+01,3.726450081582284579e-02
2.332000000000000028e+01,3.649227660823099045e-02
2.335999999999999943e+01,3.295440380324760749e-02
2.339999999999999858e+01,4.210830154557099192e-02
2.344000000000000128e+01,3.547977192461190116e-02
2.348000000000000043e+01,4.365823551522310386e-02
2.351999999999999957e+01,5.102356013780678240e-02
2.355999999999999872e+01,4.049122637758877791e-02
2.360000000000000142e+01,5.192510729887156451e-02
2.364000000000000057e+01,5.343410144232119824e-02
2.367999999999999972e+01,4.648259437206268135e-02
2.371999999999999886e+01,3.041974564585555804e-02
2.376000000000000156e+01,2.656052334910298865e-02
2.380000000000000071e+01,2.058647284458606924e-02
2.383999999999999986e+01,2.323643218587947631e-02
2.387999999999999901e+01,3.076807676759278631e-02
2.392000000000000171e+01,2.918837133810178730e-02
2.396000000000000085e+01,4.078854213959384051e-02
2.400000000000000000e+01,2.765722907923270565e-02
2.403999999999999915e+01,3.470230569803887943e-02
2.407999999999999829e+01,3.019538022947575173e-02
2.412000000000000099e+01,2.991929120383636856e-02
2.416000000000000014e+01,1.988100336949636532e-02
2.419999999999999929e+01,2.888013068053779317e-02
2.423999999999999844e+01,3.218479816071031369e-02
2.428000000000000114e+01,1.954429349272918809e-02
2.432000000000000028e+01,3.261229636166783352e-02
2.435999999999999943e+01,2.761989773398470030e-02
2.439999999999999858e+01,2.116348460395983677e-02
2.444000000000000128e+01,3.455802505699626104e-02
2.448000000000000043e+01,1.931602896842908937e-02
2.451999999999999957e+01,1.855556325850805585e-02
2.455999999999999872e+01,1.551752789805380638e-02
2.460000000000000142e+01,2.468308387498028417e-02
2.464000000000000057e+01,3.254732501605558936e-02
2.467999999999999972e+01,2.300199006328952633e-02
2.471999999999999886e+01,4.697521119120525585e-02
2.476000000000000156e+01,2.701717295720757264e-02
2.480000000000000071e+01,9.337426444695864566e-03
2.483999999999999986e+01,1.199674588312635640e-02
2.487999999999999901e+01,2.116480571367202607e-02
2.492000000000000171e+01,1.650289266561160914e-02
2.496000000000000085e+01,2.469539468666125115e-02
2.500000000000000000e+01,1.612914601665009842e-02
2.503999999999999915e+01,1.927834122406521522e-02
2.507999999999999829e+01,1.949910628609287030e-02
2.512000000000000099e+01,2.899466649148411956e-02
2.516000000000000014e+01,2.710088918392293197e-02
2.519999999999999929e+01,2.781080627293122318e-02
2.523999999999999844e+01,1.452802742212697985e-02
2.528000000000000114e+01,2.565203846063646501e-02
2.532000000000000028e+01,3.498657717703325398e-02
2.535999999999999943e+01,2.333189815017761709e-02
2.539999999999999858e+01,2.550787396765375609e-02
2.544000000000000128e+01,2.019953320195619698e-02
2.548000000000000043e+01,3.213874748723274943e-02
2.551999999999999957e+01,3.529196430485440072e-02
2.555999999999999872e+01,2.266266519348357489e-02
2.560000000000000142e+01,2.435214164958092106e-02
2.564000000000000057e+01,1.758103501046472811e-02
2.567999999999999972e+01,2.529141028951195982e-02
2.571999999999999886e+01,2.226326343208009928e-02
2.576000000000000156e+01,2.476756204685458956e-02
2.580000000000000071e+01,2.694675552207896271e-02
2.583999999999999986e+01,2.766187433712080992e-02
2.587999999999999901e+01,3.407214330401273777e-02
2.592000000000000171e+01,2.177110683209938780e-02
2.596000000000000085e+01,2.362612119539675773e-02
2.600000000000000000e+01,2.466789298549634801e-02
2.603999999999999915e+01,1.676093589147903754e-02
2.607999999999999829e+01,2.610150878266893903e-02
2.612000000000000099e+01,3.186276930995239620e-02
2.616000000000000014e+01,2.721090870478939244e-02
2.619999999999999929e+01,2.467457164152545013e-02
2.623999999999999844e+01,1.855891720120188618e-02
2.628000000000000114e+01,3.050433285481662232e-02
2.632000000000000028e+01,3.008410437821179215e-02
2.635999999999999943e+01,3.454545753685682452e-02
2.639999999999999858e+01,2.729200199436948929e-02
2.644000000000000128e+01,3.565896446965553801e-02
2.648000000000000043e+01,3.312466336569392517e-02
2.651999999999999957e+01,1.806200008345976507e-02
2.655999999999999872e+01,2.415187936095585311e-02
2.660000000000000142e+01,3.203184608424497481e-02
2.664000000000000057e+01,3.470538179198956463e-02
2.667999999999999972e+01,2.110822570291772185e-02
2.671999999999999886e+01,2.980257333895326710e-02
2.676000000000000156e+01,3.019900078314084746e-02
2.680000000000000071e+01,1.725350588771129567e-02
2.683999999999999986e+01,2.367073523388305012e-02
2.687999999999999901e+01,3.138991125009786554e-02
2.692000000000000171e+01,3.016032161907079498e-02
2.696000000000000085e+01,4.145964411900248531e-02
2.700000000000000000e+01,2.330877633712266292e-02
2.703999999999999915e+01,4.453391665566387020e-02
2.707999999999999829e+01,2.947505625280195246e-02
2.712000000000000099e+01,2.954845638145203388e-02
2.716000000000000014e+01,4.149992151461579654e-02
2.719999999999999929e+01,3.571628589212230698e-02
2.723999999999999844e+01,4.164800223924277484e-02
2.728000000000000114e+01,3.537674404371407566e-02
2.732000000000000028e+01,4.147167324688654649e-02
2.735999999999999943e+01,3.731614087887581005e-02
2.739999999999999858e+01,4.471324410347721212e-02
2.744000000000000128e+01,6.040878739369242439e-02
2.748000000000000043e+01,6.308779932201584451e-02
2.751999999999999957e+01,8.187531322812420520e-02
2.755999999999999872e+01,7.999893686876258236e-02
2.760000000000000142e+01,8.755996174039169799e-02
2.764000000000000057e+01,8.503322303627701417e-02
2.767999999999999972e+01,9.828956024014803838e-02
2.771999999999999886e+01,1.125223896363936049e-01
2.776000000000000156e+01,1.121115790454159239e-01
2.780000000000000071e+01,1.045417726648424361e-01
2.783999999999999986e+01,1.127550355080500361e-01
2.787999999999999901e+01,1.125076216771807580e-01
2.792000000000000171e+01,1.347143711326821980e-01
2.796000000000000085e+01,1.378843105401758307e-01
2.800000000000000000e+01,1.447967952202413588e-01
2.803999999999999915e+01,1.767667932582818457e-01
2.807999999999999829e+01,1.757069426545882773e-01
2.812000000000000099e+01,1.946606015900491371e-01
2.816000000000000014e+01,2.046654430756831011e-01
2.819999999999999929e+01,2.236195316481487949e-01
2.823999999999999844e+01,2.254893147888172300e-01
2.828000000000000114e+01,2.457455038564620164e-01
2.832000000000000028e+01,2.316701567136870143e-01
2.835999999999999943e+01,2.088086934586268761e-01
2.839999999999999858e+01,1.978252434054952047e-01
2.844000000000000128e+01,1.785438029763680989e-01
2.848000000000000043e+01,1.698386948646884720e-01
2.851999999999999957e+01,1.412832048462985546e-01
2.855999999999999872e+01,1.187481724049275766e-01
2.860000000000000142e+01,9.377269184406174241e-02
2.864000000000000057e+01,7.677018183168096699e-02
2.867999999999999972e+01,7.636425441499428146e-02
2.871999999999999886e+01,7.302974478726724505e-02
2.876000000000000156e+01,5.977013448716211874e-02
2.880000000000000071e+01,6.440877931197666606e-02
2.883999999999999986e+01,7.132554708211288896e-02
2.887999999999999901e+01,6.750366070273090824e-02
2.892000000000000171e+01,5.115331188200857720e-02
2.896000000000000085e+01,4.114882331338861471e-02
2.900000000000000000e+01,4.269690349533551005e-02
2.903999999999999915e+01,2.960129021642297908e-02
2.907999999999999829e+01,3.049888773793543381e-02
2.912000000000000099e+01,1.659007876368880433e-02
2.916000000000000014e+01,2.741331697239075826e-02
2.919999999999999929e+01,3.303001721827573955e-02
2.923999999999999844e+01,2.676908042560064913e-02
2.928000000000000114e+01,1.888121556954827293e-02
2.932000000000000028e+01,2.807803565076390923e-02
2.935999999999999943e+01,2.181760043872430291e-02
2.939999999999999858e+01,4.330360275109661726e-03
2.944000000000000128e+01,2.166315655052204053e-02
2.948000000000000043e+01,2.646746698987818489e-02
2.951999999999999957e+01,2.411270978443991880e-02
2.955999999999999872e+01,4.673592002517053257e-03
2.960000000000000142e+01,1.505598996517578661e-03
2.964000000000000057e+01,1.037827708265890228e-02
2.967999999999999972e+01,2.820014042674012442e-02
2.971999999999999886e+01,1.120227999521972682e-02
2.976000000000000156e+01,2.300418400081503251e-02
2.980000000000000071e+01,1.153874907731917282e-02
2.983999999999999986e+01,1.178855750511386205e-02
2.987999999999999901e+01,2.017399437160581274e-02
2.992000000000000171e+01,1.424112039970814279e-02
2.996000000000000085e+01,9.284645041321655523e-03
3.000000000000000000e+01,1.750779358519737039e-02
3.003999999999999915e+01,2.524295016530586286e-02
3.007999999999999829e+01,1.979875707240156060e-02
3.012000000000000099e+01,1.858514976475122982e-02
3.016000000000000014e+01,1.899877148654585679e-02
3.019999999999999929e+01,2.836155674261561788e-02
3.023999999999999844e+01,2.421956625587348352e-02
3.028000000000000114e+01,2.105396101423347155e-02
3.032000000000000028e+01,2.879003060728360999e-02
3.035999999999999943e+01,7.401188935821638448e-03
3.039999999999999858e+01,1.709002066382030866e-02
3.044000000000000128e+01,1.359948767934614396e-02
3.048000000000000043e+01,4.251524487229385758e-03
3.051999999999999957e+01,1.247632517923873662e-02
3.055999999999999872e+01,1.289117600793484274e-02
3.060000000000000142e+01,1.281801147814777032e-02
3.064000000000000057e+01,1.648728193155779911e-02
3.067999999999999972e+01,5.350080718214625906e-03
3.071999999999999886e+01,7.555183021010561384e-03
3.076000000000000156e+01,1.789587699937895265e-02
3.080000000000000071e+01,2.140286924491151613e-02
3.083999999999999986e+01,3.516067583027990967e-02
3.087999999999999901e+01,1.068180663081939007e-02
3.092000000000000171e+01,1.158574985924707215e-02
3.096000000000000085e+01,2.290321210715463851e-02
3.100000000000000000e+01,2.348193163983399931e-02
3.103999999999999915e+01,3.577584439226989821e-02
3.107999999999999829e+01,2.512778412757306346e-02
3.112000000000000099e+01,2.928639790368038273e-02
3.116000000000000014e+01,1.652329395405513143e-02
3.119999999999999929e+01,2.507524841502618493e-02
3.123999999999999844e+01,1.898341750732553124e-02
3.128000000000000114e+01,2.948806057699547220e-02
3.132000000000000028e+01,2.730143124945980798e-02
3.135999999999999943e+01,2.918262621179552874e-02
3.139999999999999858e+01,4.033835396246709254e-02
3.144000000000000128e+01,3.750112676040072424e-02
3.148000000000000043e+01,4.279946115498652059e-02
3.151999999999999957e+01,4.891141929929199855e-02
3.155999999999999872e+01,5.128112812393987446e-02
3.160000000000000142e+01,4.714252118032393607e-02
3.164000000000000057e+01,5.569534054748173646e-02
3.167999999999999972e+01,5.725171172588131713e-02
3.171999999999999886e+01,5.832002075636604638e-02
3.176000000000000156e+01,5.109020071361141530e-02
3.180000000000000071e+01,5.817889722539963671e-02
3.183999999999999986e+01,5.583049347226463205e-02
3.187999999999999901e+01,5.055337549504986677e-02
3.192000000000000171e+01,3.730354114598594811e-02
3.196000000000000085e+01,5.155170178384652774e-02
3.200000000000000000e+01,4.188159281361438641e-02
3.203999999999999915e+01,3.221153740545033839e-02
3.207999999999999829e+01,3.507018023370019055e-02
3.211999999999999744e+01,4.525080945779717811e-02
3.215999999999999659e+01,3.916051795107284433e-02
3.220000000000000284e+01,3.128046670144116193e-02
3.224000000000000199e+01,2.681736420736658549e-02
3.228000000000000114e+01,4.090321022795263828e-02
3.232000000000000028e+01,4.148419361106790715e-02
3.235999999999999943e+01,3.702121671112412055e-02
3.239999999999999858e+01,2.312111615154133562e-02
3.243999999999999773e+01,3.541731298389061422e-02
3.247999999999999687e+01,4.104244759205378373e-02
3.252000000000000313e+01,2.844413011636703903e-02
3.256000000000000227e+01,2.219152249818091491e-02
3.260000000000000142e+01,2.000668736728112088e-02
3.264000000000000057e+01,2.075065520303506078e-02
3.267999999999999972e+01,1.368458460976567856e-02
3.271999999999999886e+01,2.061157275126834429e-02
3.275999999999999801e+01,2.607419714074253603e-02
3.279999999999999716e+01,2.128613269607967581e-02
3.284000000000000341e+01,3.195550920821163543e-02
3.288000000000000256e+01,3.693006494243039617e-02
3.292000000000000171e+01,1.587108662801453920e-02
3.296000000000000085e+01,6.005871025323280404e-02
3.300000000000000000e+01,1.131953804391470225e-01
3.303999999999999915e+01,3.193385616023049212e-02
3.307999999999999829e+01,2.486796191164956926e-02
3.311999999999999744e+01,2.056814088431134849e-02
3.315999999999999659e+01,3.221387652375105881e-02
3.320000000000000284e+01,1.750064703160360280e-02
3.324000000000000199e+01,1.710587393615818630e-02
3.328000000000000114e+01,3.005329740957944987e-02
3.332000000000000028e+01,3.551607510275402863e-02
3.335999999999999943e+01,1.640968760090791290e-02
3.339999999999999858e+01,1.422510489631707842e-02
3.343999999999999773e+01,0.000000000000000000e+00
3.347999999999999687e+01,1.603889136821964878e-02
3.352000000000000313e+01,2.687106430010000394e-02
3.356000000000000227e+01,1.947974170080105094e-02
3.360000000000000142e+01,2.738311861552808826e-02
3.364000000000000057e+01,2.373409406166538879e-02
3.367999999999999972e+01,2.838324888943987920e-02
3.371999999999999886e+01,1.399535303784371978e-02
3.375999999999999801e+01,2.612911881908701328e-02
3.379999999999999716e+01,2.296815351319668116e-02
3.384000000000000341e+01,2.241052165683138364e-02
3.388000000000000256e+01,2.771041543488720130e-02
3.392000000000000171e+01,3.837970409792094278e-02
3.396000000000000085e+01,3.342883560402182958e-02
3.400000000000000000e+01,2.668813216991445386e-02
3.403999999999999915e+01,3.670649710344688760e-02
3.407999999999999829e+01,2.606069939017487472e-02
3.411999999999999744e+01,3.591628963677973713e-02
3.415999999999999659e+01,4.023971532463248291e-02
3.420000000000000284e+01,5.042065327849732520e-02
3.424000000000000199e+01,3.668322804540596893e-02
3.428000000000000114e+01,3.986757084644494686e-02
3.432000000000000028e+01,4.435354950201648994e-02
3.435999999999999943e+01,3.061599920538611921e-02
3.439999999999999858e+01,4.177298687680342654e-02
3.443999999999999773e+01,3.730979733867429565e-02
3.447999999999999687e+01,5.107004502179878641e-02
3.452000000000000313e+01,3.554249795829623332e-02
3.456000000000000227e+01,3.107915829086108084e-02
3.460000000000000142e+01,4.060879881879483205e-02
3.464000000000000057e+01,3.939954456584728731e-02
3.467999999999999972e+01,4.730197638224549472e-02
3.471999999999999886e+01,2.770641171753193341e-02
3.475999999999999801e+01,3.186640213182435205e-02
3.479999999999999716e+01,3.358568541369642835e-02
3.484000000000000341e+01,3.725742159762582273e-02
3.488000000000000256e+01,4.385786716934551160e-02
3.492000000000000171e+01,3.548895425009464255e-02
3.496000000000000085e+01,2.581829536380045656e-02
3.500000000000000000e+01,3.795066521663709169e-02
3.503999999999999915e+01,3.787973634290492386e-02
3.507999999999999829e+01,3.845957280254436866e-02
3.511999999999999744e+01,3.969017292450428835e-02
3.515999999999999659e+01,4.840534213522271895e-02
3.520000000000000284e+01,4.459178654957308974e-02
3.524000000000000199e+01,4.728653855379553322e-02
3.528000000000000114e+01,4.640159552340254040e-02
3.532000000000000028e+01,6.243837707981051560e-02
3.535999999999999943e+01,5.065171603269389561e-02
3.539999999999999858e+01,6.099348639979153969e-02
3.543999999999999773e+01,6.417594180652724800e-02
3.547999999999999687e+01,6.719559737213645634e-02
3.552000000000000313e+01,6.224238617129464191e-02
3.556000000000000227e+01,7.274650229577077354e-02
3.560000000000000142e+01,6.600329582224402636e-02
3.564000000000000057e+01,7.325302609675665710e-02
3.567999999999999972e+01,6.390626920235360775e-02
3.571999999999999886e+01,5.293231520534098095e-02
3.575999999999999801e+01,6.408677758308244099e-02
3.579999999999999716e+01,6.254978040589150023e-02
3.584000000000000341e+01,5.759577449216660150e-02
3.588000000000000256e+01,7.037701823451365801e-02
3.592000000000000171e+01,7.030408771597757012e-02
3.596000000000000085e+01,7.039375668929605256e-02
3.600000000000000000e+01,6.430034546432096543e-02
3.603999999999999915e+01,5.950849823867972871e-02
3.607999999999999829e+01,6.138763320363414822e-02
3.611999999999999744e+01,6.587000636819916044e-02
3.615999999999999659e+01,8.060297162279954353e-02
3.620000000000000284e+01,7.922755706321155111e-02
3.624000000000000199e+01,6.304543856076298691e-02
3.628000000000000114e+01,8.086952228361125872e-02
3.632000000000000028e+01,7.331076868966814042e-02
3.635999999999999943e+01,7.258569528176019026e-02
3.639999999999999858e+01,7.836888100324147788e-02
3.643999999999999773e+01,9.245013080383186754e-02
3.647999999999999687e+01,8.993486001448398881e-02
3.652000000000000313e+01,8.156190668877248695e-02
3.656000000000000227e+01,7.611759256670372342e-02
3.660000000000000142e+01,7.880862614674223610e-02
3.664000000000000057e+01,8.996042514343154106e-02
3.667999999999999972e+01,7.361414577750370614e-02
3.671999999999999886e+01,6.719301572130059741e-02
3.675999999999999801e+01,7.915793732923397108e-02
3.679999999999999716e+01,6.964503419489916081e-02
3.684000000000000341e+01,7.835546968980115767e-02
3.688000000000000256e+01,7.909298160251368448e-02
3.692000000000000171e+01,7.397279426835129401e-02
3.696000000000000085e+01,7.487271359047026342e-02
3.700000000000000000e+01,6.259299414773074333e-02
3.703999999999999915e+01,7.960086408919300749e-02
3.707999999999999829e+01,6.243954155283495261e-02
3.711999999999999744e+01,7.521664382976581131e-02
3.715999999999999659e+01,5.919397014908701904e-02
3.720000000000000284e+01,6.123191036538749854e-02
3.724000000000000199e+01,7.628646233089793338e-02
3.728000000000000114e+01,8.206639646132872501e-02
3.732000000000000028e+01,6.506680658344762835e-02
3.735999999999999943e+01,6.010756528483893885e-02
3.739999999999999858e+01,6.962931628641196025e-02
3.743999999999999773e+01,7.557128201660841260e-02
3.747999999999999687e+01,7.565552510521408869e-02
3.752000000000000313e+01,7.427520558670662465e-02
3.756000000000000227e+01,6.427109530695099271e-02
3.760000000000000142e+01,8.404268009507337434e-02
3.764000000000000057e+01,8.087201781367751863e-02
3.767999999999999972e+01,8.730104535118454745e-02
3.771999999999999886e+01,8.364188820806267577e-02
3.775999999999999801e+01,8.470112675782057177e-02
3.779999999999999716e+01,8.234327468953905882e-02
3.784000000000000341e+01,1.063442041140842259e-01
3.788000000000000256e+01,1.059384892076280227e-01
3.792000000000000171e+01,9.951232358522134336e-02
3.796000000000000085e+01,1.155399018153511620e-01
3.800000000000000000e+01,1.068354113157315988e-01
3.803999999999999915e+01,1.191202740913700486e-01
3.807999999999999829e+01,1.323811962571399548e-01
3.811999999999999744e+01,1.285574002414830164e-01
3.815999999999999659e+01,1.414925004751993176e-01
3.820000000000000284e+01,1.628883009545723237e-01
3.824000000000000199e+01,1.722433787160833341e-01
3.828000000000000114e+01,1.879439273747830486e-01
3.832000000000000028e+01,2.168237523571095449e-01
3.835999999999999943e+01,2.239002680405789147e-01
3.839999999999999858e+01,2.871114156040761589e-01
3.843999999999999773e+01,3.231498306643013074e-01
3.847999999999999687e+01,3.486119002155337321e-01
3.852000000000000313e+01,4.012462713157104455e-01
3.856000000000000227e+01,4.939070080247717764e-01
3.860000000000000142e+01,6.108112684703224105e-01
3.864000000000000057e+01,7.397558240215093006e-01
3.867999999999999972e+01,8.952218356662463572e-01
3.871999999999999886e+01,9.862545834597575833e-01
3.875999999999999801e+01,1.000000000000000000e+00
3.879999999999999716e+01,9.496375687325089299e-01
3.884000000000000341e+01,8.008355428059900083e-01
3.888000000000000256e+01,6.814837390881181012e-01
3.892000000000000171e+01,5.585520882699777090e-01
3.896000000000000085e+01,4.867110454604312575e-01
3.900000000000000000e+01,4.013648609478749352e-01
3.903999999999999915e+01,3.612517321611053989e-01
3.907999999999999829e+01,3.216264919097968078e-01
3.911999999999999744e+01,2.943669460971055085e-01
3.915999999999999659e+01,2.739409634968701934e-01
3.920000000000000284e+01,2.676704786139208481e-01
3.924000000000000199e+01,2.374814216626238150e-01
3.928000000000000114e+01,2.321866988111363772e-01
3.932000000000000028e+01,2.374678554222397209e-01
3.935999999999999943e+01,2.424233404074593590e-01
3.939999999999999858e+01,2.377786996062945246e-01
3.943999999999999773e+01,2.305304481379807369e-01
3.947999999999999687e+01,2.359732954544188632e-01
3.952000000000000313e+01,2.362091736768479333e-01
3.956000000000000227e+01,2.546682768970368049e-01
3.960000000000000142e+01,2.817507315688901892e-01
3.964000000000000057e+01,2.883315010106290432e-01
3.967999999999999972e+01,2.963763920788463069e-01
3.971999999999999886e+01,3.052345643313011392e-01
3.975999999999999801e+01,3.339430501542338670e-01
3.979999999999999716e+01,3.642783622832887480e-01
3.984000000000000341e+01,4.077928872360274681e-01
3.988000000000000256e+01,4.373141046442394209e-01
3.992000000000000171e+01,4.735061438221384034e-01
3.996000000000000085e+01,5.285722300584753119e-01
4.000000000000000000e+01,6.018615229110096942e-01
4.003999999999999915e+01,6.520457587381606190e-01
4.007999999999999829e+01,7.513680394709054688e-01
4.011999999999999744e+01,8.207514527386750025e-01
4.015999999999999659e+01,8.802092890844943618e-01
4.020000000000000284e+01,9.269754820597565503e-01
4.024000000000000199e+01,9.501484805759874419e-01
4.028000000000000114e+01,9.368742172311446126e-01
4.032000000000000028e+01,9.133489508945517033e-01
4.035999999999999943e+01,8.769693248104001304e-01
4.039999999999999858e+01,7.987730119897080705e-01
4.043999999999999773e+01,7.246441441302808872e-01
4.047999999999999687e+01,6.448201379932252397e-01
4.052000000000000313e+01,5.632060245346268701e-01
4.056000000000000227e+01,5.212927737467616396e-01
4.060000000000000142e+01,4.557863134604052124e-01
4.064000000000000057e+01,3.906049668457182156e-01
4.067999999999999972e+01,3.473891213736987615e-01
4.071999999999999886e+01,3.106813545575462521e-01
4.075999999999999801e+01,2.850375361245358619e-01
4.079999999999999716e+01,2.480037267975804538e-01
4.084000000000000341e+01,2.054374738463339289e-01
4.088000000000000256e+01,2.097312966804955603e-01
4.092000000000000171e+01,1.818082829294965230e-01
4.096000000000000085e+01,1.735728229246440435e-01
4.100000000000000000e+01,1.645234937024193100e-01
4.103999999999999915e+01,1.650737139308025569e-01
4.107999999999999829e+01,1.387765107521334584e-01
4.111999999999999744e+01,1.472988560655609791e-01
4.115999999999999659e+01,1.245806129243052646e-01
4.120000000000000284e+01,1.283837206003784759e-01
4.124000000000000199e+01,1.048512691068027858e-01
4.128000000000000114e+01,1.081655844740484901e-01
4.132000000000000028e+01,1.013915647660633412e-01
4.135999999999999943e+01,1.066577265322374152e-01
4.139999999999999858e+01,9.988303356751009054e-02
4.143999999999999773e+01,8.985380761188770105e-02
4.147999999999999687e+01,9.349185504524480661e-02
4.152000000000000313e+01,8.362465549937081466e-02
4.156000000000000227e+01,7.684859596854551334e-02
4.160000000000000142e+01,8.552961143431719870e-02
4.164000000000000057e+01,8.412227845644902613e-02
4.167999999999999972e+01,7.848414430459486890e-02
4.171999999999999886e+01,7.154398177805612602e-02
4.175999999999999801e+01,6.248824074179479271e-02
4.179999999999999716e+01,6.189304955658828794e-02
4.184000000000000341e+01,6.162292191151736570e-02
4.188000000000000256e+01,6.005075920755733460e-02
4.192000000000000171e+01,6.156972147918581689e-02
4.196000000000000085e+01,6.097309688583605475e-02
4.200000000000000000e+01,5.468127051491500357e-02
4.203999999999999915e+01,5.717540335433667076e-02
4.207999999999999829e+01,5.934375093639773086e-02
4.211999999999999744e+01,4.442721323191879679e-02
4.215999999999999659e+01,5.017443729883661052e-02
4.220000000000000284e+01,5.364335478167204380e-02
4.224000000000000199e+01,5.987796448609216532e-02
4.228000000000000114e+01,5.683774747404117533e-02
4.232000000000000028e+01,4.712605715922563165e-02
4.235999999999999943e+01,5.303411978383296838e-02
4.239999999999999858e+01,4.559960835888170888e-02
4.243999999999999773e+01,4.581207158418035275e-02
4.247999999999999687e+01,5.236983024629886241e-02
4.252000000000000313e+01,4.151726752577134666e-02
4.256000000000000227e+01,3.945064229192182803e-02
4.260000000000000142e+01,4.503098502411766874e-02
4.264000000000000057e+01,4.198732477157165327e-02
4.267999999999999972e+01,4.317372559422411743e-02
4.271999999999999886e+01,4.256992718752160981e-02
4.275999999999999801e+01,3.806070187404724664e-02
4.279999999999999716e+01,4.494075910570191623e-02
4.284000000000000341e+01,4.433577284694058263e-02
4.288000000000000256e+01,3.282883787796747610e-02
4.292000000000000171e+01,3.629079368251191678e-02
4.296000000000000085e+01,4.040318562335504238e-02
4.300000000000000000e+01,3.703052738957754442e-02
4.303999999999999915e+01,3.024055963006242950e-02
4.307999999999999829e+01,3.874489534545507569e-02
4.311999999999999744e+01,3.341849785397668637e-02
4.315999999999999659e+01,4.159659387453282925e-02
4.320000000000000284e+01,4.586924460675466386e-02
4.324000000000000199e+01,3.663657650454676257e-02
4.328000000000000114e+01,3.586439642450187093e-02
4.332000000000000028e+01,3.606805682689005754e-02
4.335999999999999943e+01,3.757297542625507442e-02
4.339999999999999858e+01,3.354534345405654067e-02
4.343999999999999773e+01,4.334761268212934671e-02
4.347999999999999687e+01,3.346158472316588389e-02
4.352000000000000313e+01,4.261216479188705691e-02
4.356000000000000227e+01,3.109818617468552288e-02
4.360000000000000142e+01,4.724442596132657352e-02
4.364000000000000057e+01,3.963461955679274673e-02
4.367999999999999972e+01,4.910889818217074182e-02
4.371999999999999886e+01,4.003383744378719022e-02
4.375999999999999801e+01,5.390040733391817523e-02
4.379999999999999716e+01,3.831608510076216223e-02
4.384000000000000341e+01,3.900229274932656698e-02
4.388000000000000256e+01,5.628444799415501659e-02
4.392000000000000171e+01,5.436641674877688846e-02
4.396000000000000085e+01,4.659039215152459279e-02
4.400000000000000000e+01,4.857650303989376195e-02
4.403999999999999915e+01,5.837223142926487723e-02
4.407999999999999829e+01,5.271008957856422594e-02
4.411999999999999744e+01,6.250491744823925833e-02
4.415999999999999659e+01,7.164845378030008927e-02
4.420000000000000284e+01,6.305617915997260847e-02
4.424000000000000199e+01,7.415132125959887632e-02
4.428000000000000114e+01,7.271735923425011461e-02
4.432000000000000028e+01,7.925571270534276236e-02
4.435999999999999943e+01,1.023899937200859200e-01
4.439999999999999858e+01,1.007919386368985454e-01
4.443999999999999773e+01,1.091187103505675687e-01
4.447999999999999687e+01,1.060553374335874433e-01
4.452000000000000313e+01,1.132422073569561566e-01
4.456000000000000227e+01,9.618486357658193042e-02
4.460000000000000142e+01,8.937775929445426759e-02
4.464000000000000057e+01,8.533624697084339628e-02
4.467999999999999972e+01,9.951774575044756987e-02
4.471999999999999886e+01,8.278392673741238883e-02
4.475999999999999801e+01,8.004266347275862392e-02
4.479999999999999716e+01,7.128066207135956567e-02
4.484000000000000341e+01,7.699934215463175025e-02
4.488000000000000256e+01,8.353108785654551893e-02
4.492000000000000171e+01,9.152673627723934002e-02
4.496000000000000085e+01,9.561686588334906978e-02
4.500000000000000000e+01,8.864224852073970817e-02
4.503999999999999915e+01,9.012804565404344825e-02
4.507999999999999829e+01,1.041419979321432654e-01
4.511999999999999744e+01,1.062776497643837248e-01
4.515999999999999659e+01,1.294023574247807895e-01
4.520000000000000284e+01,1.416250194540004392e-01
4.524000000000000199e+01,1.466879571153308914e-01
4.528000000000000114e+01,1.517503952208048568e-01
4.532000000000000028e+01,1.657613652032261520e-01
4.535999999999999943e+01,1.688702828702655090e-01
4.539999999999999858e+01,1.550568879173694070e-01
4.543999999999999773e+01,1.441717611947648248e-01
4.547999999999999687e+01,1.451639341352555235e-01
4.552000000000000313e+01,1.253287568155207476e-01
4.556000000000000227e+01,1.097235202553029226e-01
4.560000000000000142e+01,1.168971277624502730e-01
4.564000000000000057e+01,1.016162830682450918e-01
4.567999999999999972e+01,1.045584077009766300e-01
4.571999999999999886e+01,8.293085078388764964e-02
4.575999999999999801e+01,8.050251800841728977e-02
4.579999999999999716e+01,6.033830743851339301e-02
4.584000000000000341e+01,7.206467370632001213e-02
4.588000000000000256e+01,6.410264252402252116e-02
4.592000000000000171e+01,6.118408552576864307e-02
4.596000000000000085e+01,5.012951592392100864e-02
4.600000000000000000e+01,5.030138549031445971e-02
4.603999999999999915e+01,4.233723911101194837e-02
4.607999999999999829e+01,3.583694699000655043e-02
4.611999999999999744e+01,3.909870178891265702e-02
4.615999999999999659e+01,4.577682381758194780e-02
4.620000000000000284e+01,4.187827782439027674e-02
4.624000000000000199e+01,4.172151510445434169e-02
4.628000000000000114e+01,3.619479119007071310e-02
4.632000000000000028e+01,3.359629874285372658e-02
4.635999999999999943e+01,3.978358503245724154e-02
4.639999999999999858e+01,3.279083986018634100e-02
4.643999999999999773e+01,3.377032161864684801e-02
4.647999999999999687e+01,2.531209150747002964e-02
4.652000000000000313e+01,3.263615023919570063e-02
4.656000000000000227e+01,3.068520345197908727e-02
4.660000000000000142e+01,4.256402585199441785e-02
4.664000000000000057e+01,3.280190273836577214e-02
4.667999999999999972e+01,2.873406082999864844e-02
4.671999999999999886e+01,3.459095046857343231e-02
4.675999999999999801e+01,2.629153544902944686e-02
4.679999999999999716e+01,3.458794603901683279e-02
4.684000000000000341e+01,2.498572569444390892e-02
4.688000000000000256e+01,2.791158529736606150e-02
4.692000000000000171e+01,2.611829574021187067e-02
4.696000000000000085e+01,1.781604873115925566e-02
4.700000000000000000e+01,2.236729604204304445e-02
4.703999999999999915e+01,2.040958255892613704e-02
4.707999999999999829e+01,2.040381063622021679e-02
4.711999999999999744e+01,2.576688215161867038e-02
4.715999999999999659e+01,2.055324553992902981e-02
4.720000000000000284e+01,3.274896629124628145e-02
4.724000000000000199e+01,3.257816895260213369e-02
4.728000000000000114e+01,2.378317478728474502e-02
4.732000000000000028e+01,2.702811310950797852e-02
4.735999999999999943e+01,2.653014204687661678e-02
4.739999999999999858e+01,2.147571146435266545e-02
4.743999999999999773e+01,1.153940030529031040e-02
4.747999999999999687e+01,1.852430573348480547e-02
4.752000000000000313e+01,3.022719911808301532e-02
4.756000000000000227e+01,2.045181824765852918e-02
4.760000000000000142e+01,2.515700355937709048e-02
4.764000000000000057e+01,2.725823563846468262e-02
4.767999999999999972e+01,1.992170571638090734e-02
4.771999999999999886e+01,3.080805989762615618e-02
4.775999999999999801e+01,2.883974518685318914e-02
4.779999999999999716e+01,1.873534100413444189e-02
4.784000000000000341e+01,2.669110621879391271e-02
4.788000000000000256e+01,2.162948783548442749e-02
4.792000000000000171e+01,2.470274424681187866e-02
4.796000000000000085e+01,1.882635603800221491e-02
4.800000000000000000e+01,1.962045204655088124e-02
4.803999999999999915e+01,2.204103012468866529e-02
4.807999999999999829e+01,2.804060491493270621e-02
4.811999999999999744e+01,2.216175393048254103e-02
4.815999999999999659e+01,2.490589679275464000e-02
4.820000000000000284e+01,1.512077176704079012e-02
4.824000000000000199e+01,2.664999328414110330e-02
4.828000000000000114e+01,1.946697524485350647e-02
4.832000000000000028e+01,1.732733112654161883e-02
4.835999999999999943e+01,3.064447959718550121e-02
4.839999999999999858e+01,2.004267332877253741e-02
4.843999999999999773e+01,3.026707616952595270e-02
4.847999999999999687e+01,1.787419847149910798e-02
4.852000000000000313e+01,2.956172039648366501e-02
4.856000000000000227e+01,1.814382936219363987e-02
4.860000000000000142e+01,2.966736675923117850e-02
4.864000000000000057e+01,2.833619850112562011e-02
4.867999999999999972e+01,2.879419526858837883e-02
4.871999999999999886e+01,3.104135539056836549e-02
4.875999999999999801e+01,2.677948286334898287e-02
4.879999999999999716e+01,1.910006017902893261e-02
4.884000000000000341e+01,2.785366818783515871e-02
4.888000000000000256e+01,2.163733450882588880e-02
4.892000000000000171e+01,2.550835016174354819e-02
4.896000000000000085e+01,2.352116358139565849e-02
4.900000000000000000e+01,2.462480620058592889e-02
4.903999999999999915e+01,2.540237279951857580e-02
4.907999999999999829e+01,1.723024798888244183e-02
4.911999999999999744e+01,1.768107691974129744e-02
4.915999999999999659e+01,2.968363239139659021e-02
4.920000000000000284e+01,2.541455526444839561e-02
4.924000000000000199e+01,2.586339423870519239e-02
4.928000000000000114e+01,2.598614716639761207e-02
4.932000000000000028e+01,2.008797312856688486e-02
4.935999999999999943e+01,2.411442034830333855e-02
4.939999999999999858e+01,2.911645405070091910e-02
4.943999999999999773e+01,2.826026546721931501e-02
4.947999999999999687e+01,2.480004678275466237e-02
4.952000000000000313e+01,3.419321714200514867e-02
4.956000000000000227e+01,3.854170866620987290e-02
4.960000000000000142e+01,4.028616507627810761e-02
4.964000000000000057e+01,4.007742347234817537e-02
4.967999999999999972e+01,5.158309637834735534e-02
4.971999999999999886e+01,5.723053530110943504e-02
4.975999999999999801e+01,5.083677024328355637e-02
4.979999999999999716e+01,5.322864021188082606e-02
4.984000000000000341e+01,5.724691705276625797e-02
4.988000000000000256e+01,5.491882414781799199e-02
4.992000000000000171e+01,4.347829504842969095e-02
4.996000000000000085e+01,5.318933094385957377e-02
5.000000000000000000e+01,3.702882894461891755e-02
5.003999999999999915e+01,3.583692027179442158e-02
5.007999999999999829e+01,3.317992428180140119e-02
5.011999999999999744e+01,4.451526011933807508e-02
5.015999999999999659e+01,4.201956864500447364e-02
5.020000000000000284e+01,2.715723542292574830e-02
5.024000000000000199e+01,2.563639024403386799e-02
5.028000000000000114e+01,2.932154679740963527e-02
5.032000000000000028e+01,2.828741215136284029e-02
5.035999999999999943e+01,2.399837187001863104e-02
5.039999999999999858e+01,3.109829663408841816e-02
5.043999999999999773e+01,2.501802116011944341e-02
5.047999999999999687e+01,3.471986909499098772e-02
5.052000000000000313e+01,2.733648082258483686e-02
5.056000000000000227e+01,3.264372845376704163e-02
5.060000000000000142e+01,2.786225332585583886e-02
5.064000000000000057e+01,1.982586086528930272e-02
5.067999999999999972e+01,3.163932577824159903e-02
5.071999999999999886e+01,4.003516032363896304e-02
5.075999999999999801e+01,2.939323232188351814e-02
5.079999999999999716e+01,3.567238221014102512e-02
5.084000000000000341e+01,3.300176716257988835e-02
5.088000000000000256e+01,2.756435383444867659e-02
5.092000000000000171e+01,2.961085120093006826e-02
5.096000000000000085e+01,3.051764387271277759e-02
5.100000000000000000e+01,3.484060157707175726e-02
5.103999999999999915e+01,3.363068953910101910e-02
5.107999999999999829e+01,4.494868198825656413e-02
5.111999999999999744e+01,2.600192804778116845e-02
5.115999999999999659e+01,3.113546344094247215e-02
5.120000000000000284e+01,4.310205906016897209e-02
5.124000000000000199e+01,2.870893590374781756e-02
5.128000000000000114e+01,3.465377413347064950e-02
5.132000000000000028e+01,3.474031153791111437e-02
5.135999999999999943e+01,2.132119088454208222e-02
5.139999999999999858e+01,3.572467247284224351e-02
5.143999999999999773e+01,3.645978296843328109e-02
5.147999999999999687e+01,3.638058643125566954e-02
5.152000000000000313e+01,3.451082303347401820e-02
5.156000000000000227e+01,2.759629724809004730e-02
5.160000000000000142e+01,3.744010623889904021e-02
5.164000000000000057e+01,3.345282608894586951e-02
5.167999999999999972e+01,3.092916625013142351e-02
5.171999999999999886e+01,2.954370566580985513e-02
5.175999999999999801e+01,3.515399160563501685e-02
5.179999999999999716e+01,2.514337509972253137e-02
5.184000000000000341e+01,2.831147010215429374e-02
5.188000000000000256e+01,2.431956334220893023e-02
5.192000000000000171e+01,1.658455669757990733e-02
5.196000000000000085e+01,3.081457995919923212e-02
5.200000000000000000e+01,2.291530470793079824e-02
5.203999999999999915e+01,2.217447397624854391e-02
5.207999999999999829e+01,2.550060192995146427e-02
5.211999999999999744e+01,2.427007317972830480e-02
5.215999999999999659e+01,2.434043499523289716e-02
5.220000000000000284e+01,1.334574905281461603e-02
5.224000000000000199e+01,2.854653333201819312e-02
5.228000000000000114e+01,2.617387879930222969e-02
5.232000000000000028e+01,3.340030248077491271e-02
5.235999999999999943e+01,2.533121970738884052e-02
5.239999999999999858e+01,2.572224395650769824e-02
5.243999999999999773e+01,2.415995321804911139e-02
5.247999999999999687e+01,2.308499121292243925e-02
5.252000000000000313e+01,2.331090473406339028e-02
5.256000000000000227e+01,2.337330487524451675e-02
5.260000000000000142e+01,2.262135119422525181e-02
5.264000000000000057e+01,2.772613942464633927e-02
5.267999999999999972e+01,2.648444093565445120e-02
5.271999999999999886e+01,2.198773821934837253e-02
5.275999999999999801e+01,2.399861117251866210e-02
5.279999999999999716e+01,3.479499382327726209e-02
5.284000000000000341e+01,2.020784901312708270e-02
5.288000000000000256e+01,2.888737321742812503e-02
5.292000000000000171e+01,2.520014204250705867e-02
5.296000000000000085e+01,3.094925265215918431e-02
5.300000000000000000e+01,2.579599177566321497e-02
5.303999999999999915e+01,2.194358470177011980e-02
5.307999999999999829e+01,2.850377255608100777e-02
5.311999999999999744e+01,2.383616452549566778e-02
5.315999999999999659e+01,3.088282562339093179e-02
5.320000000000000284e+01,2.816607472946396420e-02
5.324000000000000199e+01,1.942823310700293044e-02
5.328000000000000114e+01,1.931317143671926889e-02
5.332000000000000028e+01,2.066166156447791710e-02
5.335999999999999943e+01,3.128376707350107727e-02
5.339999999999999858e+01,2.368154820998353075e-02
5.343999999999999773e+01,2.730545769919663288e-02
5.347999999999999687e+01,2.718620213273188757e-02
5.352000000000000313e+01,2.934403847304062687e-02
5.356000000000000227e+01,2.857225487955615886e-02
5.360000000000000142e+01,2.194207521087476742e-02
5.364000000000000057e+01,2.279569260532901889e-02
5.367999999999999972e+01,2.673994368633901206e-02
5.371999999999999886e+01,2.384953552221456829e-02
5.375999999999999801e+01,2.470059647373306147e-02
5.379999999999999716e+01,2.896770548424858899e-02
5.384000000000000341e+01,2.916621501403145189e-02
5.388000000000000256e+01,3.359431772469588517e-02
5.392000000000000171e+01,2.728272020783355581e-02
5.396000000000000085e+01,2.715322884331893005e-02
5.400000000000000000e+01,3.157874503212722284e-02
5.403999999999999915e+01,3.437629877690758645e-02
5.407999999999999829e+01,3.115272670108011274e-02
5.411999999999999744e+01,3.378583470780110315e-02
5.415999999999999659e+01,3.088594263020407946e-02
5.420000000000000284e+01,2.749704927395611037e-02
5.424000000000000199e+01,3.712405747018712732e-02
5.428000000000000114e+01,2.478438159641321165e-02
5.432000000000000028e+01,2.871479778896322138e-02
5.435999999999999943e+01,2.548510861396592955e-02
5.439999999999999858e+01,2.632228120338818769e-02
5.443999999999999773e+01,3.155173327177356046e-02
5.447999999999999687e+01,3.141088158022924126e-02
5.452000000000000313e+01,2.492346630091994350e-02
5.456000000000000227e+01,2.461813210819132833e-02
5.460000000000000142e+01,2.772881255343714879e-02
5.464000000000000057e+01,2.302853716258835073e-02
5.467999999999999972e+01,2.792724139391143667e-02
5.471999999999999886e+01,2.452685736864552296e-02
5.475999999999999801e+01,3.105086900904401384e-02
5.479999999999999716e+01,2.406907888123562336e-02
5.484000000000000341e+01,2.945232646894978615e-02
5.488000000000000256e+01,2.897712450783084676e-02
5.492000000000000171e+01,2.085366470605668973e-02
5.496000000000000085e+01,2.981381869777513863e-02
5.500000000000000000e+01,2.152583963169179757e-02
5.503999999999999915e+01,2.755540623944366038e-02
5.507999999999999829e+01,2.821464402149883449e-02
5.511999999999999744e+01,3.277800379625583210e-02
5.515999999999999659e+01,2.936767631845612139e-02
5.520000000000000284e+01,2.465475732174036635e-02
5.524000000000000199e+01,2.921537516688593739e-02
5.528000000000000114e+01,3.523946292856839496e-02
5.532000000000000028e+01,3.166275982551595980e-02
5.535999999999999943e+01,2.694616821214031177e-02
5.539999999999999858e+01,3.915046231789749004e-02
5.543999999999999773e+01,3.524557283387195344e-02
5.547999999999999687e+01,3.426853214630382755e-02
5.552000000000000313e+01,2.645675701630034737e-02
5.556000000000000227e+01,3.182353798688584284e-02
5.560000000000000142e+01,3.751480765601759165e-02
5.564000000000000057e+01,3.946282203271041927e-02
5.567999999999999972e+01,3.701674067472383173e-02
5.571999999999999886e+01,3.440701392373795436e-02
5.575999999999999801e+01,4.172164106213816642e-02
5.579999999999999716e+01,4.268965113913717607e-02
5.584000000000000341e+01,3.796188125487327120e-02
5.588000000000000256e+01,4.803975103076289083e-02
5.592000000000000171e+01,3.501190037396967325e-02
5.596000000000000085e+01,2.881691108815698232e-02
5.600000000000000000e+01,3.498691105738400281e-02
5.603999999999999915e+01,3.236963854694261539e-02
5.607999999999999829e+01,3.398186730957057644e-02
5.611999999999999744e+01,3.380333704071436518e-02
5.615999999999999659e+01,3.769159501002789653e-02
5.620000000000000284e+01,2.888754118833185627e-02
5.624000000000000199e+01,3.212304720977394307e-02
5.628000000000000114e+01,3.828636860665084879e-02
5.632000000000000028e+01,3.566240582650139629e-02
5.635999999999999943e+01,4.101025555640272491e-02
5.639999999999999858e+01,4.033688254473055679e-02
5.643999999999999773e+01,3.836086621155728599e-02
5.647999999999999687e+01,3.117717225869511694e-02
5.652000000000000313e+01,3.782283307238414743e-02
5.656000000000000227e+01,4.951152357051575442e-02
5.660000000000000142e+01,4.444014324719242764e-02
5.664000000000000057e+01,3.936778878949118848e-02
5.667999999999999972e+01,5.316878289085488068e-02
5.671999999999999886e+01,4.597924914487878240e-02
5.675999999999999801e+01,3.504641331703210738e-02
5.679999999999999716e+01,4.331234042069166679e-02
5.684000000000000341e+01,3.400463821260261976e-02
5.688000000000000256e+01,4.340756651552551276e-02
5.692000000000000171e+01,3.702666878536849809e-02
5.696000000000000085e+01,4.577678498257917172e-02
5.700000000000000000e+01,4.866836306524678635e-02
5.703999999999999915e+01,4.065740088560196308e-02
5.707999999999999829e+01,4.289615683625056658e-02
5.711999999999999744e+01,3.992720843039215123e-02
5.715999999999999659e+01,3.809623201607269249e-02
5.720000000000000284e+01,4.374890394133813115e-02
5.724000000000000199e+01,4.338031803295629846e-02
5.728000000000000114e+01,3.552608538469985422e-02
5.732000000000000028e+01,4.654517455869024850e-02
5.735999999999999943e+01,5.235654934986676973e-02
5.739999999999999858e+01,4.563827191129711525e-02
5.743999999999999773e+01,4.266130985166623202e-02
5.747999999999999687e+01,5.042217829020954195e-02
5.752000000000000313e+01,4.874487364900312314e-02
5.756000000000000227e+01,4.055816872734833989e-02
5.760000000000000142e+01,4.620077345386423839e-02
5.764000000000000057e+01,4.891358779937145240e-02
5.767999999999999972e+01,3.991028668176132416e-02
5.771999999999999886e+01,4.278377388560013900e-02
5.775999999999999801e+01,4.777146617199505563e-02
5.779999999999999716e+01,4.624974815163485076e-02
5.784000000000000341e+01,4.749307064291791863e-02
5.788000000000000256e+01,5.670814214430872080e-02
5.792000000000000171e+01,5.860024986180419754e-02
5.796000000000000085e+01,4.275597178532201253e-02
5.800000000000000000e+01,6.205595640295354792e-02
5.803999999999999915e+01,5.499593816624500503e-02
5.807999999999999829e+01,5.135178918606246590e-02
5.811999999999999744e+01,5.714376642485714808e-02
5.815999999999999659e+01,5.902967340219421322e-02
5.820000000000000284e+01,4.806047534316772868e-02
5.824000000000000199e+01,5.498830251542784209e-02
5.828000000000000114e+01,5.410502178594030209e-02
5.832000000000000028e+01,5.435966458750888380e-02
5.835999999999999943e+01,5.868100371943495847e-02
5.839999999999999858e+01,5.779458502121778002e-02
5.843999999999999773e+01,5.349021344257718497e-02
5.847999999999999687e+01,5.878466273625099908e-02
5.852000000000000313e+01,5.708154256585715181e-02
5.856000000000000227e+01,5.798072313538891326e-02
5.860000000000000142e+01,5.399755690511651163e-02
5.864000000000000057e+01,5.473191407903306438e-02
5.867999999999999972e+01,5.660417974454557549e-02
5.871999999999999886e+01,5.310596451870840812e-02
5.875999999999999801e+01,5.188462229194643754e-02
5.879999999999999716e+01,6.709589466657894796e-02
5.884000000000000341e+01,4.618454919800711600e-02
5.888000000000000256e+01,5.879033273245047597e-02
5.892000000000000171e+01,6.081891685077293885e-02
5.896000000000000085e+01,5.031778356835503452e-02
5.900000000000000000e+01,4.616125557863958589e-02
5.903999999999999915e+01,4.818662151777806241e-02
5.907999999999999829e+01,4.646858845408029931e-02
5.911999999999999744e+01,3.759025116775061015e-02
5.915999999999999659e+01,3.782257726747394883e-02
5.920000000000000284e+01,3.724027382156013671e-02
5.924000000000000199e+01,4.137546871406840715e-02
5.928000000000000114e+01,4.209267563407948637e-02
5.932000000000000028e+01,3.662582813298710660e-02
5.935999999999999943e+01,3.978150658430006092e-02
5.939999999999999858e+01,4.114628897793604079e-02
5.943999999999999773e+01,4.478791596277797993e-02
5.947999999999999687e+01,4.696406293343542704e-02
5.952000000000000313e+01,4.295614712773376809e-02
5.956000000000000227e+01,3.813358673693478113e-02
5.960000000000000142e+01,3.526244486754250701e-02
5.964000000000000057e+01,3.808504278284512157e-02
5.967999999999999972e+01,3.163208707443423279e-02
5.971999999999999886e+01,3.673041674932092659e-02
5.975999999999999801e+01,3.483112515755497351e-02
5.979999999999999716e+01,3.537137281033214675e-02
5.984000000000000341e+01,3.672406110862765083e-02
5.988000000000000256e+01,3.823834961020099871e-02
5.992000000000000171e+01,3.487023616728281150e-02
5.996000000000000085e+01,2.092487986091429511e-02
