2.003999999999999915e+01,1.390504102651321239e-01
2.007999999999999829e+01,1.440627998889036365e-01
2.012000000000000099e+01,1.408879385292331476e-01
2.016000000000000014e+01,1.297987742940833744e-01
2.019999999999999929e+01,1.400010649930129580e-01
2.023999999999999844e+01,1.564825007784370614e-01
2.028000000000000114e+01,1.227422144948372568e-01
2.032000000000000028e+01,1.255786323200203392e-01
2.035999999999999943e+01,1.499794444064022070e-01
2.039999999999999858e+01,1.176077008048142664e-01
2.044000000000000128e+01,1.204478973565555749e-01
2.048000000000000043e+01,1.189221310711856688e-01
2.051999999999999957e+01,9.883694520588251486e-02
2.055999999999999872e+01,1.202415645162318719e-01
2.060000000000000142e+01,1.353695549641752149e-01
2.064000000000000057e+01,1.054618666640341207e-01
2.067999999999999972e+01,1.156792195840920384e-01
2.071999999999999886e+01,1.482797935275580181e-01
2.076000000000000156e+01,1.325692675230414619e-01
2.080000000000000071e+01,1.283239152912079573e-01
2.083999999999999986e+01,1.292658601019330000e-01
2.087999999999999901e+01,1.187450858981084906e-01
2.092000000000000171e+01,1.439821187940513447e-01
2.096000000000000085e+01,1.329178826437677485e-01
2.100000000000000000e+01,1.234925683742737063e-01
2.103999999999999915e+01,1.012397682078258337e-01
2.107999999999999829e+01,1.144718123984239527e-01
2.112000000000000099e+01,1.006829110222956930e-01
2.116000000000000014e+01,1.100960515778848653e-01
2.119999999999999929e+01,1.061357924588782337e-01
2.123999999999999844e+01,8.634557142403997965e-02
2.128000000000000114e+01,1.017672290765756632e-01
2.132000000000000028e+01,1.065449886228710119e-01
2.135999999999999943e+01,1.511747885962905213e-01
2.139999999999999858e+01,1.043671782730655195e-01
2.144000000000000128e+01,1.397190129357602228e-01
2.148000000000000043e+01,1.106555839050514661e-01
2.151999999999999957e+01,1.208982815238246328e-01
2.155999999999999872e+01,9.647737240164126760e-02
2.160000000000000142e+01,1.029011019925001741e-01
2.164000000000000057e+01,1.101448535281828733e-01
2.167999999999999972e+01,1.162979668372945974e-01
2.171999999999999886e+01,8.505795134844272576e-02
2.176000000000000156e+01,8.848387735372080509e-02
2.180000000000000071e+01,1.115634350055442897e-01
2.183999999999999986e+01,1.248179096055362508e-01
2.187999999999999901e+01,1.050464602584937346e-01
2.192000000000000171e+01,1.262188145009541518e-01
2.196000000000000085e+01,1.075414630694639662e-01
2.200000000000000000e+01,1.164333086624661784e-01
2.203999999999999915e+01,8.083527513396659980e-02
2.207999999999999829e+01,6.762036311256720833e-02
2.212000000000000099e+01,8.361234554433309707e-02
2.216000000000000014e+01,8.322839667057045643e-02
2.219999999999999929e+01,7.820540806591574912e-02
2.223999999999999844e+01,1.081212768669086582e-01
2.228000000000000114e+01,9.054478760057169118e-02
2.232000000000000028e+01,6.942105396217421176e-02
2.235999999999999943e+01,8.514682619301817967e-02
2.239999999999999858e+01,9.950895647726619442e-02
2.244000000000000128e+01,9.312791840860402959e-02
2.248000000000000043e+01,9.984963739023848539e-02
2.251999999999999957e+01,7.627489594284062036e-02
2.255999999999999872e+01,9.227915607913887708e-02
2.260000000000000142e+01,1.200214093102798946e-01
2.264000000000000057e+01,9.399340432836461590e-02
2.267999999999999972e+01,8.407060314612135876e-02
2.271999999999999886e+01,1.115431835604084598e-01
2.276000000000000156e+01,9.643648941253375739e-02
2.280000000000000071e+01,1.031669620168136625e-01
2.283999999999999986e+01,1.000722783955056844e-01
2.287999999999999901e+01,1.076237632407062439e-01
2.292000000000000171e+01,9.115663219054638555e-02
2.296000000000000085e+01,7.277991614664605646e-02
2.300000000000000000e+01,9.616577776935417154e-02
2.303999999999999915e+01,8.925514091267686134e-02
2.307999999999999829e+01,8.725868615442379517e-02
2.312000000000000099e+01,5.878704155177353480e-02
2.316000000000000014e+01,7.480747325713690832e-02
2.319999999999999929e+01,6.899287685785321367e-02
2.323999999999999844e+01,8.556131708411228443e-02
2.328000000000000114e+01,7.428980058357015359e-02
2.332000000000000028e+01,7.202671414356012769e-02
2.335999999999999943e+01,8.013681001173512952e-02
2.339999999999999858e+01,8.524548455003451430e-02
2.344000000000000128e+01,7.643469343468320409e-02
2.348000000000000043e+01,1.011979138149188412e-01
2.351999999999999957e+01,1.019424743955404389e-01
2.355999999999999872e+01,9.067821778610493655e-02
2.360000000000000142e+01,6.904284726918570592e-02
2.364000000000000057e+01,6.460441444481550277e-02
2.367999999999999972e+01,5.825634394160019575e-02
2.371999999999999886e+01,8.984948393100054831e-02
2.376000000000000156e+01,9.988050587337082842e-02
2.380000000000000071e+01,9.135186822588764466e-02
2.383999999999999986e+01,8.746440602985368351e-02
2.387999999999999901e+01,5.846645355197069294e-02
2.392000000000000171e+01,7.286871763036445460e-02
2.396000000000000085e+01,1.025572387412607561e-01
2.400000000000000000e+01,7.765654901803058230e-02
2.403999999999999915e+01,4.784373388927645049e-02
2.407999999999999829e+01,6.825489948201360346e-02
2.412000000000000099e+01,8.484573795500897908e-02
2.416000000000000014e+01,6.895638771464694672e-02
2.419999999999999929e+01,6.234835417683239761e-02
2.423999999999999844e+01,5.519539715747272257e-02
2.428000000000000114e+01,6.933359652326717693e-02
2.432000000000000028e+01,8.865883828694910707e-02
2.435999999999999943e+01,7.659568084220504114e-02
2.439999999999999858e+01,8.445891582716147372e-02
2.444000000000000128e+01,7.348949335613973177e-02
2.448000000000000043e+01,8.026284918155314474e-02
2.451999999999999957e+01,8.649126103676969823e-02
2.455999999999999872e+01,6.897388802658641072e-02
2.460000000000000142e+01,6.537797004309861548e-02
2.464000000000000057e+01,6.615021793713450615e-02
2.467999999999999972e+01,6.665046118809309084e-02
2.471999999999999886e+01,6.060082306585003881e-02
2.476000000000000156e+01,6.819967722758092654e-02
2.480000000000000071e+01,7.197815451141578724e-02
2.483999999999999986e+01,5.119197333643719927e-02
2.487999999999999901e+01,5.497231706140683766e-02
2.492000000000000171e+01,4.401423373080482621e-02
2.496000000000000085e+01,7.454563361132880706e-02
2.500000000000000000e+01,6.741071364904872854e-02
2.503999999999999915e+01,5.863900752653623816e-02
2.507999999999999829e+01,5.942150474858637343e-02
2.512000000000000099e+01,5.310818925809104168e-02
2.516000000000000014e+01,7.136137817889219581e-02
2.519999999999999929e+01,8.715891612689788404e-02
2.523999999999999844e+01,4.263518077198663603e-02
2.528000000000000114e+01,8.190831562529546361e-02
2.532000000000000028e+01,8.788232377892830904e-02
2.535999999999999943e+01,4.882030780434792883e-02
2.539999999999999858e+01,4.005675041269558118e-02
2.544000000000000128e+01,4.903590107067239134e-02
2.548000000000000043e+01,5.692413544180518342e-02
2.551999999999999957e+01,5.990013611025520046e-02
2.555999999999999872e+01,6.369587188240516396e-02
2.560000000000000142e+01,3.282770529162421652e-02
2.564000000000000057e+01,3.962765766492649250e-02
2.567999999999999972e+01,5.188750395472833260e-02
2.571999999999999886e+01,6.032690604677866386e-02
2.576000000000000156e+01,5.348191754746135090e-02
2.580000000000000071e+01,6.274190454569703035e-02
2.583999999999999986e+01,4.661830680660149911e-02
2.587999999999999901e+01,2.039637935877909938e-02
2.592000000000000171e+01,5.531633938956161817e-02
2.596000000000000085e+01,4.656498656248039825e-02
2.600000000000000000e+01,4.764072079502715967e-02
2.603999999999999915e+01,5.090091018247389076e-02
2.607999999999999829e+01,6.480703388040984225e-02
2.612000000000000099e+01,3.940904957141116993e-02
2.616000000000000014e+01,6.423489378249087889e-02
2.619999999999999929e+01,3.638202342162518560e-02
2.623999999999999844e+01,5.547756330789015838e-02
2.628000000000000114e+01,5.628621316830730720e-02
2.632000000000000028e+01,5.545798320608407578e-02
2.635999999999999943e+01,5.244696842442938406e-02
2.639999999999999858e+01,2.377937689321905912e-02
2.644000000000000128e+01,2.541016784423049193e-02
2.648000000000000043e+01,2.731472450924498502e-02
2.651999999999999957e+01,6.115536401210449474e-02
2.655999999999999872e+01,5.869432469570332045e-02
2.660000000000000142e+01,5.213982575372448636e-02
2.664000000000000057e+01,4.531317874810695395e-02
2.667999999999999972e+01,1.992666141221824741e-02
2.671999999999999886e+01,2.210899572069331340e-02
2.676000000000000156e+01,3.903148010531256457e-02
2.680000000000000071e+01,4.121539986769907904e-02
2.683999999999999986e+01,5.622880660788500545e-02
2.687999999999999901e+01,5.104462217352513653e-02
2.692000000000000171e+01,3.876449331385887348e-02
2.696000000000000085e+01,4.914007990828368755e-02
2.700000000000000000e+01,2.648936790604284122e-02
2.703999999999999915e+01,3.550174965637310776e-02
2.707999999999999829e+01,4.042063665772289982e-02
2.712000000000000099e+01,4.697799771647495626e-02
2.716000000000000014e+01,3.497545332155327369e-02
2.719999999999999929e+01,4.180729233013233404e-02
2.723999999999999844e+01,4.509152695177152947e-02
2.728000000000000114e+01,3.199945561825103674e-02
2.732000000000000028e+01,5.057045754864980536e-02
2.735999999999999943e+01,1.509790485094303185e-02
2.739999999999999858e+01,5.905485067436373053e-02
2.744000000000000128e+01,3.286412495546147533e-02
2.748000000000000043e+01,3.424219526886856935e-02
2.751999999999999957e+01,3.944231864954036992e-02
2.755999999999999872e+01,3.645464663401955241e-02
2.760000000000000142e+01,3.264885423821263510e-02
2.764000000000000057e+01,5.177167857326325090e-02
2.767999999999999972e+01,4.824029388047747918e-02
2.771999999999999886e+01,6.108669522655405665e-02
2.776000000000000156e+01,4.745756720200521028e-02
2.780000000000000071e+01,3.819637382591076907e-02
2.783999999999999986e+01,4.203754528878031471e-02
2.787999999999999901e+01,2.595400343826842135e-02
2.792000000000000171e+01,3.962283370297817187e-02
2.796000000000000085e+01,2.818087513691425530e-02
2.800000000000000000e+01,3.530029040042580168e-02
2.803999999999999915e+01,1.485235166497789541e-02
2.807999999999999829e+01,4.790351337504423351e-02
2.812000000000000099e+01,3.045942829891834513e-02
2.816000000000000014e+01,3.212260741440816497e-02
2.819999999999999929e+01,4.579632088662736328e-02
2.823999999999999844e+01,5.128218920449992974e-02
2.828000000000000114e+01,2.346871422837827972e-02
2.832000000000000028e+01,2.960868852784872738e-04
2.835999999999999943e+01,3.198729467364452156e-02
2.839999999999999858e+01,3.447341591097494162e-02
2.844000000000000128e+01,9.392153879843448405e-03
2.848000000000000043e+01,1.952224368504231269e-02
2.851999999999999957e+01,4.166284443136855642e-02
2.855999999999999872e+01,3.732785726806457649e-02
2.860000000000000142e+01,1.224925100151304930e-02
2.864000000000000057e+01,0.000000000000000000e+00
2.867999999999999972e+01,2.023257585086002397e-02
2.871999999999999886e+01,2.736415279539926304e-02
2.876000000000000156e+01,4.295785966539614198e-02
2.880000000000000071e+01,3.425956934342653387e-02
2.883999999999999986e+01,1.846519410253881499e-02
2.887999999999999901e+01,1.604605863482947564e-02
2.892000000000000171e+01,2.481855173398322609e-02
2.896000000000000085e+01,4.341791529844678948e-02
2.900000000000000000e+01,3.090149116317681549e-02
2.903999999999999915e+01,2.930373577899873447e-02
2.907999999999999829e+01,3.562218483483523684e-02
2.912000000000000099e+01,3.921174504183225218e-02
2.916000000000000014e+01,2.587895965716676544e-02
2.919999999999999929e+01,2.182712510626856964e-02
2.923999999999999844e+01,2.978574881139329708e-02
2.928000000000000114e+01,4.566056232178171415e-02
2.932000000000000028e+01,2.550644608826337437e-02
2.935999999999999943e+01,2.909967383150406650e-02
2.939999999999999858e+01,2.832628602772963369e-02
2.944000000000000128e+01,3.710678253094143453e-02
2.948000000000000043e+01,4.916328661101496134e-02
2.951999999999999957e+01,5.221299876957211789e-02
2.955999999999999872e+01,1.131818360982321525e-02
2.960000000000000142e+01,1.300431627465465853e-02
2.964000000000000057e+01,2.751973103076863977e-02
2.967999999999999972e+01,1.665128006232784175e-02
2.971999999999999886e+01,3.608097156618894630e-02
2.976000000000000156e+01,1.866284802492886377e-02
2.980000000000000071e+01,2.144367281000704797e-02
2.983999999999999986e+01,9.212759489713152894e-03
2.987999999999999901e+01,1.417832725773020101e-02
2.992000000000000171e+01,2.132806626647388779e-02
2.996000000000000085e+01,4.540132947470739561e-02
3.000000000000000000e+01,2.007101246977001027e-02
3.003999999999999915e+01,2.258225520724655919e-02
3.007999999999999829e+01,1.990797953479208487e-02
3.012000000000000099e+01,2.433097909688409707e-02
3.016000000000000014e+01,2.274960129038254911e-02
3.019999999999999929e+01,3.727287701690783217e-02
3.023999999999999844e+01,3.869504261300282799e-02
3.028000000000000114e+01,1.882756410409877970e-02
3.032000000000000028e+01,1.097046482356155150e-02
3.035999999999999943e+01,3.914343291745493725e-02
3.039999999999999858e+01,2.473656740169027229e-02
3.044000000000000128e+01,3.134745648582189931e-02
3.048000000000000043e+01,3.277279789051997655e-02
3.051999999999999957e+01,5.385113286661057097e-02
3.055999999999999872e+01,2.225043423317948216e-02
3.060000000000000142e+01,3.432241439025504603e-02
3.064000000000000057e+01,4.393834550930220822e-02
3.067999999999999972e+01,3.390230946337177004e-02
3.071999999999999886e+01,3.806023165567042066e-02
3.076000000000000156e+01,3.594078154020124982e-02
3.080000000000000071e+01,5.047184312334624529e-02
3.083999999999999986e+01,4.316731755434774498e-02
3.087999999999999901e+01,7.161987027450630872e-02
3.092000000000000171e+01,5.612779616005038330e-02
3.096000000000000085e+01,7.584689241100987800e-02
3.100000000000000000e+01,5.134840493853411181e-02
3.103999999999999915e+01,3.940614607916159001e-02
3.107999999999999829e+01,6.758816743292499207e-02
3.112000000000000099e+01,6.492719699351252871e-02
3.116000000000000014e+01,6.363145395460723108e-02
3.119999999999999929e+01,6.670339677338592288e-02
3.123999999999999844e+01,8.806352530384967126e-02
3.128000000000000114e+01,6.793555997143249647e-02
3.132000000000000028e+01,1.100408911190198513e-01
3.135999999999999943e+01,1.013777873625248405e-01
3.139999999999999858e+01,1.014495713876923111e-01
3.144000000000000128e+01,1.361865885850308544e-01
3.148000000000000043e+01,1.597330621609263368e-01
3.151999999999999957e+01,1.505258574296991780e-01
3.155999999999999872e+01,1.669764929374120965e-01
3.160000000000000142e+01,2.109956230015590239e-01
3.164000000000000057e+01,2.072487590570986637e-01
3.167999999999999972e+01,2.269761182913626052e-01
3.171999999999999886e+01,2.726342570916861496e-01
3.176000000000000156e+01,2.699804910327104346e-01
3.180000000000000071e+01,2.506771372382769481e-01
3.183999999999999986e+01,2.766840777084166314e-01
3.187999999999999901e+01,2.459176224558668744e-01
3.192000000000000171e+01,2.765655666743062069e-01
3.196000000000000085e+01,2.537155217352032865e-01
3.200000000000000000e+01,1.929256937020831786e-01
3.203999999999999915e+01,2.202994577813220667e-01
3.207999999999999829e+01,2.029096570396279053e-01
3.211999999999999744e+01,1.762399230897308822e-01
3.215999999999999659e+01,1.558484619951561734e-01
3.220000000000000284e+01,1.340926418511762253e-01
3.224000000000000199e+01,1.371757590832202167e-01
3.228000000000000114e+01,1.345272948532284796e-01
3.232000000000000028e+01,1.250554420945683698e-01
3.235999999999999943e+01,1.262290641152091775e-01
3.239999999999999858e+01,1.132096138104244643e-01
3.243999999999999773e+01,1.018282482786597165e-01
3.247999999999999687e+01,1.166505577358206841e-01
3.252000000000000313e+01,1.036322343406742424e-01
3.256000000000000227e+01,9.225198693769715019e-02
3.260000000000000142e+01,8.442046984438339452e-02
3.264000000000000057e+01,7.440570840044989642e-02
3.267999999999999972e+01,1.105200328598961307e-01
3.271999999999999886e+01,7.512154424498446170e-02
3.275999999999999801e+01,9.103820534304382650e-02
3.279999999999999716e+01,6.410190617950989322e-02
3.284000000000000341e+01,7.128483567504750873e-02
3.288000000000000256e+01,5.772383288366159798e-02
3.292000000000000171e+01,8.592468187522414591e-02
3.296000000000000085e+01,1.668054211196095260e-01
3.300000000000000000e+01,1.819052985343183604e-01
3.303999999999999915e+01,7.772590834795878312e-02
3.307999999999999829e+01,6.935266315102943391e-02
3.311999999999999744e+01,7.026008194674339402e-02
3.315999999999999659e+01,6.625470799227821395e-02
3.320000000000000284e+01,4.887505627814436177e-02
3.324000000000000199e+01,5.742607290596091207e-02
3.328000000000000114e+01,8.044381148211156296e-02
3.332000000000000028e+01,5.323887380345917325e-02
3.335999999999999943e+01,9.072364264463446404e-02
3.339999999999999858e+01,7.689392523742370755e-02
3.343999999999999773e+01,7.234484840725428911e-02
3.347999999999999687e+01,6.861492714463685028e-02
3.352000000000000313e+01,6.925252197658904318e-02
3.356000000000000227e+01,7.616828722060510481e-02
3.360000000000000142e+01,8.854336684497292331e-02
3.364000000000000057e+01,7.962855650052132195e-02
3.367999999999999972e+01,8.163207538093343596e-02
3.371999999999999886e+01,9.619162676878265095e-02
3.375999999999999801e+01,1.042006352926752727e-01
3.379999999999999716e+01,9.992712629232815280e-02
3.384000000000000341e+01,8.473585201539399203e-02
3.388000000000000256e+01,1.164924289380941946e-01
3.392000000000000171e+01,1.258672912636409347e-01
3.396000000000000085e+01,1.213219181476230257e-01
3.400000000000000000e+01,1.219628791075339086e-01
3.403999999999999915e+01,1.602713443719769870e-01
3.407999999999999829e+01,1.508136370838479290e-01
3.411999999999999744e+01,1.612816109765103090e-01
3.415999999999999659e+01,1.450006361515877307e-01
3.420000000000000284e+01,1.633846925392697935e-01
3.424000000000000199e+01,1.705780033459417533e-01
3.428000000000000114e+01,1.564813773525904061e-01
3.432000000000000028e+01,1.653128792894063004e-01
3.435999999999999943e+01,1.621347737595994487e-01
3.439999999999999858e+01,1.649618261409807329e-01
3.443999999999999773e+01,2.010891369986619048e-01
3.447999999999999687e+01,2.033707488152202147e-01
3.452000000000000313e+01,1.663476379652928938e-01
3.456000000000000227e+01,1.729969161377982179e-01
3.460000000000000142e+01,1.870160927613436219e-01
3.464000000000000057e+01,1.677354607058063329e-01
3.467999999999999972e+01,1.708370281680425817e-01
3.471999999999999886e+01,1.712092970084053423e-01
3.475999999999999801e+01,1.532940553094686298e-01
3.479999999999999716e+01,1.664954374649148527e-01
3.484000000000000341e+01,1.368437100843052923e-01
3.488000000000000256e+01,1.669684593708431752e-01
3.492000000000000171e+01,1.343146677182197046e-01
3.496000000000000085e+01,1.491545503074152568e-01
3.500000000000000000e+01,1.446151006559275309e-01
3.503999999999999915e+01,1.398028882812498153e-01
3.507999999999999829e+01,1.377203716405585310e-01
3.511999999999999744e+01,1.121642484545240931e-01
3.515999999999999659e+01,1.256403027930182159e-01
3.520000000000000284e+01,1.402083378751243781e-01
3.524000000000000199e+01,1.258437369326241839e-01
3.528000000000000114e+01,1.395932633369768860e-01
3.532000000000000028e+01,1.437896713421868422e-01
3.535999999999999943e+01,1.542641180466996775e-01
3.539999999999999858e+01,1.677411881045178244e-01
3.543999999999999773e+01,1.536503626775814202e-01
3.547999999999999687e+01,1.630334823690962609e-01
3.552000000000000313e+01,2.018954670203656210e-01
3.556000000000000227e+01,1.768870597615874174e-01
3.560000000000000142e+01,2.026476923324717627e-01
3.564000000000000057e+01,2.133961623901988458e-01
3.567999999999999972e+01,2.151373897760721909e-01
3.571999999999999886e+01,2.411713978234572009e-01
3.575999999999999801e+01,2.729375132308013430e-01
3.579999999999999716e+01,2.910562095917905712e-01
3.584000000000000341e+01,3.053537212366168041e-01
3.588000000000000256e+01,3.253833314605514837e-01
3.592000000000000171e+01,3.579688132096599529e-01
3.596000000000000085e+01,3.662617738427083047e-01
3.600000000000000000e+01,3.797409222041731591e-01
3.603999999999999915e+01,4.251554567893249259e-01
3.607999999999999829e+01,4.056077572743935211e-01
3.611999999999999744e+01,4.401044719578189324e-01
3.615999999999999659e+01,4.402094625983698495e-01
3.620000000000000284e+01,4.397686545992531837e-01
3.624000000000000199e+01,4.597992747224063370e-01
3.628000000000000114e+01,4.702767061996108167e-01
3.632000000000000028e+01,4.490919122753461168e-01
3.635999999999999943e+01,4.377334473305963258e-01
3.639999999999999858e+01,4.203701484130152877e-01
3.643999999999999773e+01,4.311208919607301127e-01
3.647999999999999687e+01,3.766364211039385790e-01
3.652000000000000313e+01,3.734668248267951629e-01
3.656000000000000227e+01,3.367243283420368605e-01
3.660000000000000142e+01,3.332819322782655247e-01
3.664000000000000057e+01,3.306584605529767074e-01
3.667999999999999972e+01,3.198465260868399440e-01
3.671999999999999886e+01,2.888362804163976949e-01
3.675999999999999801e+01,2.643769220369205364e-01
3.679999999999999716e+01,2.505627135452674348e-01
3.684000000000000341e+01,2.378403657922663061e-01
3.688000000000000256e+01,2.202049530827135948e-01
3.692000000000000171e+01,2.443310994610848885e-01
3.696000000000000085e+01,2.370679246417038422e-01
3.700000000000000000e+01,2.396310319706337899e-01
3.703999999999999915e+01,2.348245033209253874e-01
3.707999999999999829e+01,2.029958612513437510e-01
3.711999999999999744e+01,2.369484547079496184e-01
3.715999999999999659e+01,1.876510156971341048e-01
3.720000000000000284e+01,2.016782470443198028e-01
3.724000000000000199e+01,1.867726960193870911e-01
3.728000000000000114e+01,2.240008170668097709e-01
3.732000000000000028e+01,2.050010463961514096e-01
3.735999999999999943e+01,2.258521453725202410e-01
3.739999999999999858e+01,2.311450509800798137e-01
3.743999999999999773e+01,2.317978016887049519e-01
3.747999999999999687e+01,2.286292476762072090e-01
3.752000000000000313e+01,2.352869377616672308e-01
3.756000000000000227e+01,2.506790648784524289e-01
3.760000000000000142e+01,2.543342984805659901e-01
3.764000000000000057e+01,2.773690536220083658e-01
3.767999999999999972e+01,2.862103500805931455e-01
3.771999999999999886e+01,3.400885595071445056e-01
3.775999999999999801e+01,3.849593740604294601e-01
3.779999999999999716e+01,4.582170825976227824e-01
3.784000000000000341e+01,4.542296316774941944e-01
3.788000000000000256e+01,4.947331799476900049e-01
3.792000000000000171e+01,5.720850955034827434e-01
3.796000000000000085e+01,6.404296015512578322e-01
3.800000000000000000e+01,7.265158965862859031e-01
3.803999999999999915e+01,8.199718383546329425e-01
3.807999999999999829e+01,8.986883901007787223e-01
3.811999999999999744e+01,9.733106392596770906e-01
3.815999999999999659e+01,9.889754248853330765e-01
3.820000000000000284e+01,1.000000000000000000e+00
3.824000000000000199e+01,9.444244767497466109e-01
3.828000000000000114e+01,8.749284019473027030e-01
3.832000000000000028e+01,7.541174808815926944e-01
3.835999999999999943e+01,6.930827818383590300e-01
3.839999999999999858e+01,5.900135658652599924e-01
3.843999999999999773e+01,5.641894322956565455e-01
3.847999999999999687e+01,4.941471676629222154e-01
3.852000000000000313e+01,4.306556615353423489e-01
3.856000000000000227e+01,4.091985455256471615e-01
3.860000000000000142e+01,3.661782255703818767e-01
3.864000000000000057e+01,3.441750601902131002e-01
3.867999999999999972e+01,2.656709525407344730e-01
3.871999999999999886e+01,2.717815847489563619e-01
3.875999999999999801e+01,2.514158826752361797e-01
3.879999999999999716e+01,2.528861765735733735e-01
3.884000000000000341e+01,2.240588158471791269e-01
3.888000000000000256e+01,1.941395583056097496e-01
3.892000000000000171e+01,1.808702182917553414e-01
3.896000000000000085e+01,1.946229322056489963e-01
3.900000000000000000e+01,1.816263432409784273e-01
3.903999999999999915e+01,1.959247533850762835e-01
3.907999999999999829e+01,1.793795892728999863e-01
3.911999999999999744e+01,1.753900625298781546e-01
3.915999999999999659e+01,1.763135412512830125e-01
3.920000000000000284e+01,1.788746100911169923e-01
3.924000000000000199e+01,1.746117840398904719e-01
3.928000000000000114e+01,1.654357174150976884e-01
3.932000000000000028e+01,1.663587142104224481e-01
3.935999999999999943e+01,1.839315963370094509e-01
3.939999999999999858e+01,1.561944759409276406e-01
3.943999999999999773e+01,1.683080729904601613e-01
3.947999999999999687e+01,1.662280796443741937e-01
3.952000000000000313e+01,1.777954985376225816e-01
3.956000000000000227e+01,1.664348880638920058e-01
3.960000000000000142e+01,1.878282564200387805e-01
3.964000000000000057e+01,1.821993240314968565e-01
3.967999999999999972e+01,1.530964514252840525e-01
3.971999999999999886e+01,1.663008350903195098e-01
3.975999999999999801e+01,1.715894816742589146e-01
3.979999999999999716e+01,1.727837027390407010e-01
3.984000000000000341e+01,1.808015367545394436e-01
3.988000000000000256e+01,1.847249393969801479e-01
3.992000000000000171e+01,1.850998098092538069e-01
3.996000000000000085e+01,1.862933616231399747e-01
4.000000000000000000e+01,1.814818160386729995e-01
4.003999999999999915e+01,1.793996032463624768e-01
4.007999999999999829e+01,1.991532927637015560e-01
4.011999999999999744e+01,1.899739891685046922e-01
4.015999999999999659e+01,2.069977985877868576e-01
4.020000000000000284e+01,2.084632097517429561e-01
4.024000000000000199e+01,2.320374625524683210e-01
4.028000000000000114e+01,2.094827953328576575e-01
4.032000000000000028e+01,2.265058301310354516e-01
4.035999999999999943e+01,2.290622591057686064e-01
4.039999999999999858e+01,2.310725821110587441e-01
4.043999999999999773e+01,2.295343348358285518e-01
4.047999999999999687e+01,2.370032619594763523e-01
4.052000000000000313e+01,2.406506619137829539e-01
4.056000000000000227e+01,2.352904621083059533e-01
4.060000000000000142e+01,2.561333431208554501e-01
4.064000000000000057e+01,2.524104095292458161e-01
4.067999999999999972e+01,2.612429991557309594e-01
4.071999999999999886e+01,2.591573200701874913e-01
4.075999999999999801e+01,2.991058701202654047e-01
4.079999999999999716e+01,2.817344696679086602e-01
4.084000000000000341e+01,2.739161193417189999e-01
4.088000000000000256e+01,2.748319631099843674e-01
4.092000000000000171e+01,2.760205159632153071e-01
4.096000000000000085e+01,2.905834246506512342e-01
4.100000000000000000e+01,2.601091647723292599e-01
4.103999999999999915e+01,2.763092811346275490e-01
4.107999999999999829e+01,2.679435506963139257e-01
4.111999999999999744e+01,2.415627953685331175e-01
4.115999999999999659e+01,2.531219743830618873e-01
4.120000000000000284e+01,2.245570888256527287e-01
4.124000000000000199e+01,2.312026214074464903e-01
4.128000000000000114e+01,2.132822925538771786e-01
4.132000000000000028e+01,2.120117056110082943e-01
4.135999999999999943e+01,2.129244528010964532e-01
4.139999999999999858e+01,2.121992167083029956e-01
4.143999999999999773e+01,2.079253371612331813e-01
4.147999999999999687e+01,1.826339449980171059e-01
4.152000000000000313e+01,1.614365325044015975e-01
4.156000000000000227e+01,1.593454036740705460e-01
4.160000000000000142e+01,1.482465989832498499e-01
4.164000000000000057e+01,1.499761982986387299e-01
4.167999999999999972e+01,1.448817241790024690e-01
4.171999999999999886e+01,1.605312282243734345e-01
4.175999999999999801e+01,1.497041784665339992e-01
4.179999999999999716e+01,1.328718995975804729e-01
4.184000000000000341e+01,1.253196466461173331e-01
4.188000000000000256e+01,1.185859346026552075e-01
4.192000000000000171e+01,1.418765212767501560e-01
4.196000000000000085e+01,1.466061195255814464e-01
4.200000000000000000e+01,1.139411050126761943e-01
4.203999999999999915e+01,1.233102259729845773e-01
4.207999999999999829e+01,1.171208111113053729e-01
4.211999999999999744e+01,1.218491078879887085e-01
4.215999999999999659e+01,1.268500230141800245e-01
4.220000000000000284e+01,1.168382956073743401e-01
4.224000000000000199e+01,1.234762427914133931e-01
4.228000000000000114e+01,9.708677328379405891e-02
4.232000000000000028e+01,1.160068311797840673e-01
4.235999999999999943e+01,9.807815204132661058e-02
4.239999999999999858e+01,7.605485713194568009e-02
4.243999999999999773e+01,8.896894151833990849e-02
4.247999999999999687e+01,1.119818580957824133e-01
4.252000000000000313e+01,8.013125762621553516e-02
4.256000000000000227e+01,7.502949662395441699e-02
4.260000000000000142e+01,9.039869835887447136e-02
4.264000000000000057e+01,8.939047018974183301e-02
4.267999999999999972e+01,8.046629127214537103e-02
4.271999999999999886e+01,9.037536010135575892e-02
4.275999999999999801e+01,7.981272472185337030e-02
4.279999999999999716e+01,8.562677192097163659e-02
4.284000000000000341e+01,8.625436701303139386e-02
4.288000000000000256e+01,7.077746567425759194e-02
4.292000000000000171e+01,7.276904227293629068e-02
4.296000000000000085e+01,8.185695455513360141e-02
4.300000000000000000e+01,9.285512993040756502e-02
4.303999999999999915e+01,8.174387439879336748e-02
4.307999999999999829e+01,7.254287610635522243e-02
4.311999999999999744e+01,7.617017352296781563e-02
4.315999999999999659e+01,6.342000298517457002e-02
4.320000000000000284e+01,7.605386990888006460e-02
4.324000000000000199e+01,9.605700306237310859e-02
4.328000000000000114e+01,8.303264635045169706e-02
4.332000000000000028e+01,8.201771760806791933e-02
4.335999999999999943e+01,8.291302561620859934e-02
4.339999999999999858e+01,7.343577087649551249e-02
4.343999999999999773e+01,7.378432704610449200e-02
4.347999999999999687e+01,1.052488719218934859e-01
4.352000000000000313e+01,1.023211541959634374e-01
4.356000000000000227e+01,9.147742132866436282e-02
4.360000000000000142e+01,7.954144626606141077e-02
4.364000000000000057e+01,1.009050564812025153e-01
4.367999999999999972e+01,9.142475584079172435e-02
4.371999999999999886e+01,8.521942078295632883e-02
4.375999999999999801e+01,1.027603759997924998e-01
4.379999999999999716e+01,1.140230047230818972e-01
4.384000000000000341e+01,1.301982964576196833e-01
4.388000000000000256e+01,1.062493275145531407e-01
4.392000000000000171e+01,1.186023847447058438e-01
4.396000000000000085e+01,1.214016913544633397e-01
4.400000000000000000e+01,1.269300409883032388e-01
4.403999999999999915e+01,1.316390672653072191e-01
4.407999999999999829e+01,1.450820534807467643e-01
4.411999999999999744e+01,1.536114449616407529e-01
4.415999999999999659e+01,1.629592105143717884e-01
4.420000000000000284e+01,1.769466617008783604e-01
4.424000000000000199e+01,1.677327900323070109e-01
4.428000000000000114e+01,1.950938692293232857e-01
4.432000000000000028e+01,2.063503466252971930e-01
4.435999999999999943e+01,1.963161496297868569e-01
4.439999999999999858e+01,1.805494843063172039e-01
4.443999999999999773e+01,1.825241367311114249e-01
4.447999999999999687e+01,1.733072942756336277e-01
4.452000000000000313e+01,1.763727430161066978e-01
4.456000000000000227e+01,1.753434179303433316e-01
4.460000000000000142e+01,1.535693029612353877e-01
4.464000000000000057e+01,1.192389262294512586e-01
4.467999999999999972e+01,1.217564221286729503e-01
4.471999999999999886e+01,1.335537332049676618e-01
4.475999999999999801e+01,1.276087040742436562e-01
4.479999999999999716e+01,1.096533035428836067e-01
4.484000000000000341e+01,1.121687018394912777e-01
4.488000000000000256e+01,9.230158355457900032e-02
4.492000000000000171e+01,8.444377616119458363e-02
4.496000000000000085e+01,8.750347259270545297e-02
4.500000000000000000e+01,7.746097884914664167e-02
4.503999999999999915e+01,6.932859892420213666e-02
4.507999999999999829e+01,7.265961611314331048e-02
4.511999999999999744e+01,6.152367917156109645e-02
4.515999999999999659e+01,8.232246110901055014e-02
4.520000000000000284e+01,5.590015887156169622e-02
4.524000000000000199e+01,5.841010827511735476e-02
4.528000000000000114e+01,6.883507670383939847e-02
4.532000000000000028e+01,4.896191634189080849e-02
4.535999999999999943e+01,7.330625679565062891e-02
4.539999999999999858e+01,7.390328744293424290e-02
4.543999999999999773e+01,5.266366260123570009e-02
4.547999999999999687e+01,5.298659389598342484e-02
4.552000000000000313e+01,3.092696177800727947e-02
4.556000000000000227e+01,4.680694203781416568e-02
4.560000000000000142e+01,6.350519099924936683e-02
4.564000000000000057e+01,6.000447604647499850e-02
4.567999999999999972e+01,4.531217840492117455e-02
4.571999999999999886e+01,4.808815381430281422e-02
4.575999999999999801e+01,5.004468000798822924e-02
4.579999999999999716e+01,4.162846783680529406e-02
4.584000000000000341e+01,2.092885712935957376e-02
4.588000000000000256e+01,3.489342296504738955e-02
4.592000000000000171e+01,4.585491959787298816e-02
4.596000000000000085e+01,3.961989028501381599e-02
4.600000000000000000e+01,4.866950525507353353e-02
4.603999999999999915e+01,4.625456015888095018e-02
4.607999999999999829e+01,4.957096726948504589e-02
4.611999999999999744e+01,4.360641673930139989e-02
4.615999999999999659e+01,4.555682084137886029e-02
4.620000000000000284e+01,5.869758906781467889e-02
4.624000000000000199e+01,5.054754533610471973e-02
4.628000000000000114e+01,4.621818193199580399e-02
4.632000000000000028e+01,4.598244696345837185e-02
4.635999999999999943e+01,3.291737333846363883e-02
4.639999999999999858e+01,4.332544577450395118e-02
4.643999999999999773e+01,5.537057855097946707e-02
4.647999999999999687e+01,5.212980457586132571e-02
4.652000000000000313e+01,4.424821128410361820e-02
4.656000000000000227e+01,4.073317990113652781e-02
4.660000000000000142e+01,5.987242683969139223e-02
4.664000000000000057e+01,4.216262356012273615e-02
4.667999999999999972e+01,3.973741480531866460e-02
4.671999999999999886e+01,4.577302177531367144e-02
4.675999999999999801e+01,5.180795946061809987e-02
4.679999999999999716e+01,4.010040766444145088e-02
4.684000000000000341e+01,5.022826352332340066e-02
4.688000000000000256e+01,5.653412682777553266e-02
4.692000000000000171e+01,6.010979879052983504e-02
4.696000000000000085e+01,5.003723508781145884e-02
4.700000000000000000e+01,5.497629145933519840e-02
4.703999999999999915e+01,6.974089531465903213e-02
4.707999999999999829e+01,6.485233195540580919e-02
4.711999999999999744e+01,6.050897503875105748e-02
4.715999999999999659e+01,6.162394026631573540e-02
4.720000000000000284e+01,4.390458260321445511e-02
4.724000000000000199e+01,5.320667298916113147e-02
4.728000000000000114e+01,5.159001464323939579e-02
4.732000000000000028e+01,5.788822604802171951e-02
4.735999999999999943e+01,5.299473183211439453e-02
4.739999999999999858e+01,6.857184911935920724e-02
4.743999999999999773e+01,6.012855629074481678e-02
4.747999999999999687e+01,7.679603670503255819e-02
4.752000000000000313e+01,5.634145147337085019e-02
4.756000000000000227e+01,4.816893498944166407e-02
4.760000000000000142e+01,4.982192501200917445e-02
4.764000000000000057e+01,5.720615309031390483e-02
4.767999999999999972e+01,7.004866526248487713e-02
4.771999999999999886e+01,5.341172613173252037e-02
4.775999999999999801e+01,7.416833632665856268e-02
4.779999999999999716e+01,6.926680385364951398e-02
4.784000000000000341e+01,7.200715204607072151e-02
4.788000000000000256e+01,6.191805035792548317e-02
4.792000000000000171e+01,6.056262762099247354e-02
4.796000000000000085e+01,7.258104850197212576e-02
4.800000000000000000e+01,8.105034590883569701e-02
4.803999999999999915e+01,5.840246238765016418e-02
4.807999999999999829e+01,5.486038543685962249e-02
4.811999999999999744e+01,5.240934382475275627e-02
4.815999999999999659e+01,6.305918016088664368e-02
4.820000000000000284e+01,4.313772593101178332e-02
4.824000000000000199e+01,4.859994036690513247e-02
4.828000000000000114e+01,7.098433845907714534e-02
4.832000000000000028e+01,5.488185719169182131e-02
4.835999999999999943e+01,4.560236543462167780e-02
4.839999999999999858e+01,5.215324441329714789e-02
4.843999999999999773e+01,4.587463253410262176e-02
4.847999999999999687e+01,4.723785448913456197e-02
4.852000000000000313e+01,4.477896388477670131e-02
4.856000000000000227e+01,5.432911781947458857e-02
4.860000000000000142e+01,4.995796504881917788e-02
4.864000000000000057e+01,2.811713919189224795e-02
4.867999999999999972e+01,3.711897050269311049e-02
4.871999999999999886e+01,3.820440909554360248e-02
4.875999999999999801e+01,4.775051413873072914e-02
4.879999999999999716e+01,3.900808128308336925e-02
4.884000000000000341e+01,4.254762351276073634e-02
4.888000000000000256e+01,3.980846752621052670e-02
4.892000000000000171e+01,3.706848419965661640e-02
4.896000000000000085e+01,4.742932028233871888e-02
4.900000000000000000e+01,2.776470932984836590e-02
4.903999999999999915e+01,4.221814162158126632e-02
4.907999999999999829e+01,3.483465207185992840e-02
4.911999999999999744e+01,3.809541090928796059e-02
4.915999999999999659e+01,4.708729657834394289e-02
4.920000000000000284e+01,3.697176197430113165e-02
4.924000000000000199e+01,4.350538974481066301e-02
4.928000000000000114e+01,3.939307347086012934e-02
4.932000000000000028e+01,3.637170472708607660e-02
4.935999999999999943e+01,2.761750471352266215e-02
4.939999999999999858e+01,3.851491675083741628e-02
4.943999999999999773e+01,4.750080615335103285e-02
4.947999999999999687e+01,4.747844308617713699e-02
4.952000000000000313e+01,4.909291498426972961e-02
4.956000000000000227e+01,3.705896096512378834e-02
4.960000000000000142e+01,4.030938780337484095e-02
4.964000000000000057e+01,3.591630563874054216e-02
4.967999999999999972e+01,4.353218605855529305e-02
4.971999999999999886e+01,5.360373991364715540e-02
4.975999999999999801e+01,5.002685321674926050e-02
4.979999999999999716e+01,4.699497685678366565e-02
4.984000000000000341e+01,3.904908720838767833e-02
4.988000000000000256e+01,4.420394964937204157e-02
4.992000000000000171e+01,3.980462535437499089e-02
4.996000000000000085e+01,4.113636935200106620e-02
5.000000000000000000e+01,4.355901112164940053e-02
5.003999999999999915e+01,5.034796015541725955e-02
5.007999999999999829e+01,4.266959211683156450e-02
5.011999999999999744e+01,4.345179101227421292e-02
5.015999999999999659e+01,5.569701529892178565e-02
5.020000000000000284e+01,3.163883093871546620e-02
5.024000000000000199e+01,2.996170751263837334e-02
5.028000000000000114e+01,4.002055173183603071e-02
5.032000000000000028e+01,4.707600478364482727e-02
5.035999999999999943e+01,3.966412027444834315e-02
5.039999999999999858e+01,4.289639048999346199e-02
5.043999999999999773e+01,5.431625318904433064e-02
5.047999999999999687e+01,4.444499367322374273e-02
5.052000000000000313e+01,4.931214562510332494e-02
5.056000000000000227e+01,3.179636536852846473e-02
5.060000000000000142e+01,4.321244454162555260e-02
5.064000000000000057e+01,3.470214496665328247e-02
5.067999999999999972e+01,3.874663687221522462e-02
5.071999999999999886e+01,3.296393246787039655e-02
5.075999999999999801e+01,5.392946750603148931e-02
5.079999999999999716e+01,4.268581551689433484e-02
5.084000000000000341e+01,4.099448191636366479e-02
5.088000000000000256e+01,5.376858240606032652e-02
5.092000000000000171e+01,6.026383540506698860e-02
5.096000000000000085e+01,5.283760900865600713e-02
5.100000000000000000e+01,5.769319964225672059e-02
5.103999999999999915e+01,5.681583607415788273e-02
5.107999999999999829e+01,5.266207469169489896e-02
5.111999999999999744e+01,5.751470913934540047e-02
5.115999999999999659e+01,3.397944470603420780e-02
5.120000000000000284e+01,4.729157581083925921e-02
5.124000000000000199e+01,5.541664014903483620e-02
5.128000000000000114e+01,5.207676099049644847e-02
5.132000000000000028e+01,5.446785060827286779e-02
5.135999999999999943e+01,4.512103984049424532e-02
5.139999999999999858e+01,5.351503753163723565e-02
5.143999999999999773e+01,5.535719864681643704e-02
5.147999999999999687e+01,4.737210784003417080e-02
5.152000000000000313e+01,4.893928566370414623e-02
5.156000000000000227e+01,4.668412847976586427e-02
5.160000000000000142e+01,3.651236783745973047e-02
5.164000000000000057e+01,3.971418153364381087e-02
5.167999999999999972e+01,4.482562317470188684e-02
5.171999999999999886e+01,4.584176706543008351e-02
5.175999999999999801e+01,3.757654061538630297e-02
5.179999999999999716e+01,3.285863953888949057e-02
5.184000000000000341e+01,4.233315127089362639e-02
5.188000000000000256e+01,5.562793355746480095e-02
5.192000000000000171e+01,5.418231309705070359e-02
5.196000000000000085e+01,3.908809110238351675e-02
5.200000000000000000e+01,4.855840953539986710e-02
5.203999999999999915e+01,4.219651230089765948e-02
5.207999999999999829e+01,5.985324757033724796e-02
5.211999999999999744e+01,4.912201371200933253e-02
5.215999999999999659e+01,6.077170029419895481e-02
5.220000000000000284e+01,4.976538362805361243e-02
5.224000000000000199e+01,6.414244293265213004e-02
5.228000000000000114e+01,4.876676622707915021e-02
5.232000000000000028e+01,4.758346720660408535e-02
5.235999999999999943e+01,5.404171810618190602e-02
5.239999999999999858e+01,5.613167046235507940e-02
5.243999999999999773e+01,5.767463583706202573e-02
5.247999999999999687e+01,6.058126854779678772e-02
5.252000000000000313e+01,5.256876909618140442e-02
5.256000000000000227e+01,6.502650357113677615e-02
5.260000000000000142e+01,5.209869517904851255e-02
5.264000000000000057e+01,6.155177210407489219e-02
5.267999999999999972e+01,5.053241893672836410e-02
5.271999999999999886e+01,5.479721832465987708e-02
5.275999999999999801e+01,6.015271352504695385e-02
5.279999999999999716e+01,4.858413330617845916e-02
5.284000000000000341e+01,6.130708101411774802e-02
5.288000000000000256e+01,5.683299641398025653e-02
5.292000000000000171e+01,4.662582004548188747e-02
5.296000000000000085e+01,6.125606489278182659e-02
5.300000000000000000e+01,5.568680726702750217e-02
5.303999999999999915e+01,6.103446222221937251e-02
5.307999999999999829e+01,6.010311163140806545e-02
5.311999999999999744e+01,5.562226291684962964e-02
5.315999999999999659e+01,5.960175868810111549e-02
5.320000000000000284e+01,7.586291050710088080e-02
5.324000000000000199e+01,6.564666848817066191e-02
5.328000000000000114e+01,6.825797873292958895e-02
5.332000000000000028e+01,6.022304931125393307e-02
5.335999999999999943e+01,7.183944217238234786e-02
5.339999999999999858e+01,5.916203776714480667e-02
5.343999999999999773e+01,5.931217391779541881e-02
5.347999999999999687e+01,5.755049181167030958e-02
5.352000000000000313e+01,5.797125404562868123e-02
5.356000000000000227e+01,7.749742185779870396e-02
5.360000000000000142e+01,5.580681360377304223e-02
5.364000000000000057e+01,5.895357680739157086e-02
5.367999999999999972e+01,6.482867471313379093e-02
5.371999999999999886e+01,6.333291610198657495e-02
5.375999999999999801e+01,6.156302495493571475e-02
5.379999999999999716e+01,6.743457835772902198e-02
5.384000000000000341e+01,7.002953198659139789e-02
5.388000000000000256e+01,5.815689048282714213e-02
5.392000000000000171e+01,7.248635512265853842e-02
5.396000000000000085e+01,5.870066702993184671e-02
5.400000000000000000e+01,5.610477230626611383e-02
5.403999999999999915e+01,6.524457009455235379e-02
5.407999999999999829e+01,4.981756982339789058e-02
5.411999999999999744e+01,6.386807348013523455e-02
5.415999999999999659e+01,6.481571669019738080e-02
5.420000000000000284e+01,5.129574135203099350e-02
5.424000000000000199e+01,7.380408599900066535e-02
5.428000000000000114e+01,6.355708690415966255e-02
5.432000000000000028e+01,6.859412328658706648e-02
5.435999999999999943e+01,6.871681563520672109e-02
5.439999999999999858e+01,6.201450377862388619e-02
5.443999999999999773e+01,7.496343517718867533e-02
5.447999999999999687e+01,5.270044888490608287e-02
5.452000000000000313e+01,5.964198621609227008e-02
5.456000000000000227e+01,5.948555659935447770e-02
5.460000000000000142e+01,6.833526816805908510e-02
5.464000000000000057e+01,5.889601450319383730e-02
5.467999999999999972e+01,6.283011272860039576e-02
5.471999999999999886e+01,6.184984057764699589e-02
5.475999999999999801e+01,5.459043994878028105e-02
5.479999999999999716e+01,6.834701140711200995e-02
5.484000000000000341e+01,5.289656160029785475e-02
5.488000000000000256e+01,6.446700079503532577e-02
5.492000000000000171e+01,6.102386668659863511e-02
5.496000000000000085e+01,6.385733707184595986e-02
5.500000000000000000e+01,6.969199660477960745e-02
5.503999999999999915e+01,6.542619268225952078e-02
5.507999999999999829e+01,7.071239689162017727e-02
5.511999999999999744e+01,5.689074763924618916e-02
5.515999999999999659e+01,6.899816276008967353e-02
5.520000000000000284e+01,7.646412341609089280e-02
5.524000000000000199e+01,5.909025009617367707e-02
5.528000000000000114e+01,4.144213301624366519e-02
5.532000000000000028e+01,7.292390656998280762e-02
5.535999999999999943e+01,6.400762837647747117e-02
5.539999999999999858e+01,7.392367008655201244e-02
5.543999999999999773e+01,7.292036596690858186e-02
5.547999999999999687e+01,6.836739103345365609e-02
5.552000000000000313e+01,7.718770652431541923e-02
5.556000000000000227e+01,7.454276533476732192e-02
5.560000000000000142e+01,8.281454940134980180e-02
5.564000000000000057e+01,8.180467921298684164e-02
5.567999999999999972e+01,5.950330630622090167e-02
5.571999999999999886e+01,8.251048027473303903e-02
5.575999999999999801e+01,8.040483118205295210e-02
5.579999999999999716e+01,6.273964232345211056e-02
5.584000000000000341e+01,7.455183153388275641e-02
5.588000000000000256e+01,7.599054478798394907e-02
5.592000000000000171e+01,8.261398814928082313e-02
5.596000000000000085e+01,7.531558624637975374e-02
5.600000000000000000e+01,7.893388033010692584e-02
5.603999999999999915e+01,8.036721779732229620e-02
5.607999999999999829e+01,7.961559572107569649e-02
5.611999999999999744e+01,9.633148568870143758e-02
5.615999999999999659e+01,1.100435571542028174e-01
5.620000000000000284e+01,9.263785059380581777e-02
5.624000000000000199e+01,1.077119542170644623e-01
5.628000000000000114e+01,1.072264829509994993e-01
5.632000000000000028e+01,1.111068594178659524e-01
5.635999999999999943e+01,1.117104517129361985e-01
5.639999999999999858e+01,1.205012003759261263e-01
5.643999999999999773e+01,1.120946562322676504e-01
5.647999999999999687e+01,1.252498633137387740e-01
5.652000000000000313e+01,1.452274628076755947e-01
5.656000000000000227e+01,1.264446289553843861e-01
5.660000000000000142e+01,1.456005996426092131e-01
5.664000000000000057e+01,1.262690821646261230e-01
5.667999999999999972e+01,1.383255385341636556e-01
5.671999999999999886e+01,1.181723746877670622e-01
5.675999999999999801e+01,1.405981712667360439e-01
5.679999999999999716e+01,1.379110686838065369e-01
5.684000000000000341e+01,1.207561543739325005e-01
5.688000000000000256e+01,1.311678847879392262e-01
5.692000000000000171e+01,1.241093362369740383e-01
5.696000000000000085e+01,1.208706865178951623e-01
5.700000000000000000e+01,1.274568554720059976e-01
5.703999999999999915e+01,1.201211001342622764e-01
5.707999999999999829e+01,1.127839203586654265e-01
5.711999999999999744e+01,1.169092566849312537e-01
5.715999999999999659e+01,1.054749537289682154e-01
5.720000000000000284e+01,9.322036444953939183e-02
5.724000000000000199e+01,9.433893973556685408e-02
5.728000000000000114e+01,9.900443940295808321e-02
5.732000000000000028e+01,9.329635774381112023e-02
5.735999999999999943e+01,1.017802849740316040e-01
5.739999999999999858e+01,9.361275122063919540e-02
5.743999999999999773e+01,9.527000394398379979e-02
5.747999999999999687e+01,9.528809675044912220e-02
5.752000000000000313e+01,8.302193635118076953e-02
5.756000000000000227e+01,7.703219019383057697e-02
5.760000000000000142e+01,8.878279881811451668e-02
5.764000000000000057e+01,8.033356544311602565e-02
5.767999999999999972e+01,7.925254166886749885e-02
5.771999999999999886e+01,8.717743077794241902e-02
5.775999999999999801e+01,9.428199258624819779e-02
5.779999999999999716e+01,7.600063102397884574e-02
5.784000000000000341e+01,8.637764807846690096e-02
5.788000000000000256e+01,8.556218972435147840e-02
5.792000000000000171e+01,7.573786131404744437e-02
5.796000000000000085e+01,7.410057512060354290e-02
5.800000000000000000e+01,7.109704199484777332e-02
5.803999999999999915e+01,7.709939833681354882e-02
5.807999999999999829e+01,6.917975428621857270e-02
5.811999999999999744e+01,8.145698628118999696e-02
5.815999999999999659e+01,7.189663201700216555e-02
5.820000000000000284e+01,7.243395965241732071e-02
5.824000000000000199e+01,7.624519038746978283e-02
5.828000000000000114e+01,7.568769231743190107e-02
5.832000000000000028e+01,6.393768664233796806e-02
5.835999999999999943e+01,7.238453945110900900e-02
5.839999999999999858e+01,7.646265467393900672e-02
5.843999999999999773e+01,8.354170732673445177e-02
5.847999999999999687e+01,8.106594687619661510e-02
5.852000000000000313e+01,7.067307660489891008e-02
5.856000000000000227e+01,5.945982049382719792e-02
5.860000000000000142e+01,7.635898531761713126e-02
5.864000000000000057e+01,6.869101840963856564e-02
5.867999999999999972e+01,8.176578863976430300e-02
5.871999999999999886e+01,6.945456817945931671e-02
5.875999999999999801e+01,7.106230313034263280e-02
5.879999999999999716e+01,6.120454431784633220e-02
5.884000000000000341e+01,7.372721714517709024e-02
5.888000000000000256e+01,7.232783104094220317e-02
5.892000000000000171e+01,7.420229827819047053e-02
5.896000000000000085e+01,7.143503591727362600e-02
5.900000000000000000e+01,6.539079620584462016e-02
5.903999999999999915e+01,7.435729555663464496e-02
5.907999999999999829e+01,6.803696616650470319e-02
5.911999999999999744e+01,6.499047548310679656e-02
5.915999999999999659e+01,6.849323299853794789e-02
5.920000000000000284e+01,7.472392129695930307e-02
5.924000000000000199e+01,6.266530776253292911e-02
5.928000000000000114e+01,7.790021230005207686e-02
5.932000000000000028e+01,7.184334776669613898e-02
5.935999999999999943e+01,5.977996919106959989e-02
5.939999999999999858e+01,7.473714887161729548e-02
5.943999999999999773e+01,6.894845277028037456e-02
5.947999999999999687e+01,6.424996075375824511e-02
5.952000000000000313e+01,6.118757196494194889e-02
5.956000000000000227e+01,6.440145107053170392e-02
5.960000000000000142e+01,6.897847651500624289e-02
5.964000000000000057e+01,7.437274330157390978e-02
5.967999999999999972e+01,7.457932573503091300e-02
5.971999999999999886e+01,8.024331125033119794e-02
5.975999999999999801e+01,6.598025067290676227e-02
5.979999999999999716e+01,5.990409767263135676e-02
5.984000000000000341e+01,6.556321277652274460e-02
5.988000000000000256e+01,6.958299234652029486e-02
5.992000000000000171e+01,6.732326586202323770e-02
5.996000000000000085e+01,7.297748421195360269e-02
