2.003999999999999915e+01,2.567794262779974843e-02
2.007999999999999829e+01,3.578204868701959085e-02
2.012000000000000099e+01,2.464986077199377013e-02
2.016000000000000014e+01,2.944533485748389995e-02
2.019999999999999929e+01,2.710418780774451891e-02
2.023999999999999844e+01,3.390196896961637785e-02
2.028000000000000114e+01,2.581700990357361017e-02
2.032000000000000028e+01,3.609669034164395690e-02
2.035999999999999943e+01,3.184176902743460907e-02
2.039999999999999858e+01,4.264415453308691151e-02
2.044000000000000128e+01,3.473425532604459964e-02
2.048000000000000043e+01,3.230780826623575602e-02
2.051999999999999957e+01,3.736661817142106212e-02
2.055999999999999872e+01,2.545384146399288366e-02
2.060000000000000142e+01,2.711877201987239472e-02
2.064000000000000057e+01,3.383197631524268584e-02
2.067999999999999972e+01,2.696795762279126027e-02
2.071999999999999886e+01,3.141873302337689494e-02
2.076000000000000156e+01,2.768845551352356466e-02
2.080000000000000071e+01,2.848423830780211566e-02
2.083999999999999986e+01,2.919322412513110018e-02
2.087999999999999901e+01,2.546366076727822267e-02
2.092000000000000171e+01,2.782678575840560539e-02
2.096000000000000085e+01,2.105146844823817948e-02
2.100000000000000000e+01,2.628721973013196239e-02
2.103999999999999915e+01,2.255859713113307283e-02
2.107999999999999829e+01,2.091904834110182992e-02
2.112000000000000099e+01,2.015008215599424501e-02
2.116000000000000014e+01,3.887719366829244655e-02
2.119999999999999929e+01,2.322569996606489717e-02
2.123999999999999844e+01,2.968133315490299046e-02
2.128000000000000114e+01,2.656334236504269072e-02
2.132000000000000028e+01,2.440296512064616188e-02
2.135999999999999943e+01,3.103335308976912232e-02
2.139999999999999858e+01,2.199766269480393083e-02
2.144000000000000128e+01,2.819332792213713815e-02
2.148000000000000043e+01,2.612089049794096007e-02
2.151999999999999957e+01,2.813932352632075515e-02
2.155999999999999872e+01,3.137647027852204923e-02
2.160000000000000142e+01,2.103637524235128092e-02
2.164000000000000057e+01,2.514431649285572487e-02
2.167999999999999972e+01,2.359520183324479575e-02
2.171999999999999886e+01,2.570177840105206807e-02
2.176000000000000156e+01,2.145501720298285259e-02
2.180000000000000071e+01,1.894917498994178398e-02
2.183999999999999986e+01,2.157861702155108169e-02
2.187999999999999901e+01,2.708043176237052985e-02
2.192000000000000171e+01,2.396599474962761434e-02
2.196000000000000085e+01,1.972031754091263869e-02
2.200000000000000000e+01,1.852108064439482449e-02
2.203999999999999915e+01,2.193491373975311673e-02
2.207999999999999829e+01,2.256383866218321030e-02
2.212000000000000099e+01,1.527278796490549873e-02
2.216000000000000014e+01,2.974070524767782886e-02
2.219999999999999929e+01,2.097048041543554675e-02
2.223999999999999844e+01,2.682234966387267786e-02
2.228000000000000114e+01,3.119483206655062138e-02
2.232000000000000028e+01,2.686401951389750034e-02
2.235999999999999943e+01,2.566667494432086846e-02
2.239999999999999858e+01,3.465263477732928588e-02
2.244000000000000128e+01,3.763338305886758384e-02
2.248000000000000043e+01,3.513112913721876118e-02
2.251999999999999957e+01,3.741600545369597186e-02
2.255999999999999872e+01,2.795135594377880228e-02
2.260000000000000142e+01,2.701634122466004678e-02
2.264000000000000057e+01,2.495007241351031649e-02
2.267999999999999972e+01,2.819314073652372243e-02
2.271999999999999886e+01,3.535298493442365353e-02
2.276000000000000156e+01,3.024108905315497225e-02
2.280000000000000071e+01,2.643491658345209841e-02
2.283999999999999986e+01,2.367336162505066441e-02
2.287999999999999901e+01,2.073793297390665036e-02
2.292000000000000171e+01,2.450439699429594886e-02
2.296000000000000085e+01,1.843609762169817409e-02
2.300000000000000000e+01,1.402165768405535737e-02
2.303999999999999915e+01,1.813684354564331150e-02
2.307999999999999829e+01,1.320057881054561601e-02
2.312000000000000099e+01,1.435695746659071750e-02
2.316000000000000014e+01,1.412096632135778455e-02
2.319999999999999929e+01,1.884616157342471413e-02
2.323999999999999844e+01,9.297801302164478837e-03
2.328000000000000114e+01,1.637331949396354791e-02
2.332000000000000028e+01,1.483255732266728841e-02
2.335999999999999943e+01,2.008071385895314476e-02
2.339999999999999858e+01,1.427560762405561366e-02
2.344000000000000128e+01,1.273540266103581446e-02
2.348000000000000043e+01,1.441567782108238438e-02
2.351999999999999957e+01,1.392026057456683882e-02
2.355999999999999872e+01,1.185839529738830049e-02
2.360000000000000142e+01,1.292997266341418434e-02
2.364000000000000057e+01,6.864858596500680171e-03
2.367999999999999972e+01,3.323940344646658489e-03
2.371999999999999886e+01,1.292549045963077049e-02
2.376000000000000156e+01,7.644229231575290842e-03
2.380000000000000071e+01,1.611467992884186434e-02
2.383999999999999986e+01,1.657808482992953816e-02
2.387999999999999901e+01,1.164549394591333532e-02
2.392000000000000171e+01,1.010744424862863519e-02
2.396000000000000085e+01,1.248614508635834813e-02
2.400000000000000000e+01,1.355949398470661892e-02
2.403999999999999915e+01,1.071643929776793132e-02
2.407999999999999829e+01,1.057164230696914543e-02
2.412000000000000099e+01,1.895644904518995963e-02
2.416000000000000014e+01,1.350285659761508994e-02
2.419999999999999929e+01,1.553444591283325779e-02
2.423999999999999844e+01,1.495515296993347662e-02
2.428000000000000114e+01,1.637783341516671140e-02
2.432000000000000028e+01,6.050952067735509109e-03
2.435999999999999943e+01,7.735070649486280002e-03
2.439999999999999858e+01,1.934342156942960500e-03
2.444000000000000128e+01,1.223525825671929051e-02
2.448000000000000043e+01,9.045908741843388876e-03
2.451999999999999957e+01,1.203620903619365134e-02
2.455999999999999872e+01,1.485260130636165306e-02
2.460000000000000142e+01,9.923037332310499434e-03
2.464000000000000057e+01,2.643688008838071275e-03
2.467999999999999972e+01,1.120487329034486682e-02
2.471999999999999886e+01,1.454411567626066881e-02
2.476000000000000156e+01,9.963328493063633787e-03
2.480000000000000071e+01,8.864099541079490524e-03
2.483999999999999986e+01,1.707777485318789923e-02
2.487999999999999901e+01,1.162710632125912510e-02
2.492000000000000171e+01,5.828452353178458292e-03
2.496000000000000085e+01,7.427929589385165454e-03
2.500000000000000000e+01,7.373894340364299006e-03
2.503999999999999915e+01,1.567537396458017901e-02
2.507999999999999829e+01,1.414204687280177716e-02
2.512000000000000099e+01,9.040434235990586417e-03
2.516000000000000014e+01,9.944388274529175620e-03
2.519999999999999929e+01,9.630000878845792686e-03
2.523999999999999844e+01,1.105646217048083212e-02
2.528000000000000114e+01,1.135161542067989783e-02
2.532000000000000028e+01,1.251726544720344753e-02
2.535999999999999943e+01,6.111013753851178738e-03
2.539999999999999858e+01,1.093242548833776341e-02
2.544000000000000128e+01,1.322996546986590985e-02
2.548000000000000043e+01,6.737110892643645779e-03
2.551999999999999957e+01,8.077551213977234024e-03
2.555999999999999872e+01,1.376988451179775308e-02
2.560000000000000142e+01,1.363101173757784619e-02
2.564000000000000057e+01,1.340524389658092133e-02
2.567999999999999972e+01,1.622584116558011685e-02
2.571999999999999886e+01,9.385688695174103716e-03
2.576000000000000156e+01,1.464354257203335022e-02
2.580000000000000071e+01,8.325874467097373402e-03
2.583999999999999986e+01,1.297475571558383625e-02
2.587999999999999901e+01,1.144428505965790557e-02
2.592000000000000171e+01,8.956563338884875741e-03
2.596000000000000085e+01,1.142997161376090032e-02
2.600000000000000000e+01,6.244430062500979685e-03
2.603999999999999915e+01,1.063287333572586653e-02
2.607999999999999829e+01,4.664279291877719384e-03
2.612000000000000099e+01,7.747458271985813681e-03
2.616000000000000014e+01,9.177101061824679065e-03
2.619999999999999929e+01,7.299541319268697953e-03
2.623999999999999844e+01,4.464723972543818351e-03
2.628000000000000114e+01,9.028010855403719587e-03
2.632000000000000028e+01,9.065602366994258629e-03
2.635999999999999943e+01,1.214954509252192533e-02
2.639999999999999858e+01,9.054125287239216460e-03
2.644000000000000128e+01,2.912603127919313750e-03
2.648000000000000043e+01,6.432091829132981914e-03
2.651999999999999957e+01,7.340651679560593681e-03
2.655999999999999872e+01,1.164369876731463638e-02
2.660000000000000142e+01,9.419239126716751065e-03
2.664000000000000057e+01,6.063443652565091331e-03
2.667999999999999972e+01,6.711378156808499827e-03
2.671999999999999886e+01,6.663150330749351147e-03
2.676000000000000156e+01,1.479972948538822762e-03
2.680000000000000071e+01,1.596682806341951158e-02
2.683999999999999986e+01,5.735850773641225538e-03
2.687999999999999901e+01,4.382560921697182740e-03
2.692000000000000171e+01,4.944155480864667954e-03
2.696000000000000085e+01,1.386122567733783298e-02
2.700000000000000000e+01,9.549083844848387306e-03
2.703999999999999915e+01,5.672228501746955261e-03
2.707999999999999829e+01,8.584215846611354880e-03
2.712000000000000099e+01,1.139144621606796555e-03
2.716000000000000014e+01,2.136579974448107270e-03
2.719999999999999929e+01,9.400645397311479731e-03
2.723999999999999844e+01,5.437299521896788411e-03
2.728000000000000114e+01,1.191826340725820818e-02
2.732000000000000028e+01,1.483089678974925524e-02
2.735999999999999943e+01,1.313077852055852951e-02
2.739999999999999858e+01,1.656583087530139053e-02
2.744000000000000128e+01,2.313424740138653873e-02
2.748000000000000043e+01,2.334920927121744011e-02
2.751999999999999957e+01,1.364227953510880123e-02
2.755999999999999872e+01,1.525000411403308956e-02
2.760000000000000142e+01,1.764114384899757512e-02
2.764000000000000057e+01,1.559359626560640269e-02
2.767999999999999972e+01,2.146633446796507652e-02
2.771999999999999886e+01,1.001919962991896715e-02
2.776000000000000156e+01,1.354218617971594818e-02
2.780000000000000071e+01,1.471532280428867502e-02
2.783999999999999986e+01,2.354763686210127605e-02
2.787999999999999901e+01,1.358047914037033288e-02
2.792000000000000171e+01,1.684273898449472132e-02
2.796000000000000085e+01,0.000000000000000000e+00
2.800000000000000000e+01,1.074745650322673531e-02
2.803999999999999915e+01,3.130613095330692531e-03
2.807999999999999829e+01,2.650732050485135431e-03
2.812000000000000099e+01,3.476465700979833404e-03
2.816000000000000014e+01,1.230951035585801587e-02
2.819999999999999929e+01,4.431917354662968760e-03
2.823999999999999844e+01,5.083843888718956282e-03
2.828000000000000114e+01,3.124805605718876996e-03
2.832000000000000028e+01,4.995393731856844106e-03
2.835999999999999943e+01,1.104374756018302456e-02
2.839999999999999858e+01,3.079545501466550081e-03
2.844000000000000128e+01,9.824345851685208422e-03
2.848000000000000043e+01,1.195637166259583446e-02
2.851999999999999957e+01,7.473816481607213624e-03
2.855999999999999872e+01,1.770026125730814540e-02
2.860000000000000142e+01,1.217344550656338301e-02
2.864000000000000057e+01,4.122692609641843801e-03
2.867999999999999972e+01,8.256921416290152055e-03
2.871999999999999886e+01,9.606106359082194207e-03
2.876000000000000156e+01,7.038791261590279791e-03
2.880000000000000071e+01,1.065103850989494380e-02
2.883999999999999986e+01,1.034678408308520141e-02
2.887999999999999901e+01,2.076452858344096707e-04
2.892000000000000171e+01,3.297903619058328503e-03
2.896000000000000085e+01,5.953058929575786792e-03
2.900000000000000000e+01,1.339521205695221040e-02
2.903999999999999915e+01,1.396166848318240554e-02
2.907999999999999829e+01,6.172831921373306795e-03
2.912000000000000099e+01,6.391286745982140138e-03
2.916000000000000014e+01,8.350510151216969726e-03
2.919999999999999929e+01,5.871014358902293222e-03
2.923999999999999844e+01,3.826760098138009235e-03
2.928000000000000114e+01,3.349201910521381817e-03
2.932000000000000028e+01,1.253259654695706819e-02
2.935999999999999943e+01,1.144592186588730409e-02
2.939999999999999858e+01,1.236111594380122532e-02
2.944000000000000128e+01,8.750550892057859173e-03
2.948000000000000043e+01,2.280815793540941910e-02
2.951999999999999957e+01,1.589038399478447453e-02
2.955999999999999872e+01,1.776320769755704992e-02
2.960000000000000142e+01,1.519730402862773042e-02
2.964000000000000057e+01,1.472029924180708223e-02
2.967999999999999972e+01,2.146725914904406424e-02
2.971999999999999886e+01,2.690875022652188323e-02
2.976000000000000156e+01,2.669302027600812741e-02
2.980000000000000071e+01,2.169041875625100230e-02
2.983999999999999986e+01,2.600061932368287823e-02
2.987999999999999901e+01,2.839610259838020248e-02
2.992000000000000171e+01,3.453414455799012905e-02
2.996000000000000085e+01,2.535407333711822697e-02
3.000000000000000000e+01,3.201442800500011593e-02
3.003999999999999915e+01,3.136389039827335024e-02
3.007999999999999829e+01,3.436887317918187190e-02
3.012000000000000099e+01,3.902756989513454788e-02
3.016000000000000014e+01,4.716771530865940254e-02
3.019999999999999929e+01,4.756179003983292131e-02
3.023999999999999844e+01,5.448353780032017674e-02
3.028000000000000114e+01,5.113519744275166895e-02
3.032000000000000028e+01,6.458466173839490232e-02
3.035999999999999943e+01,7.002694699917690058e-02
3.039999999999999858e+01,7.781922069402716358e-02
3.044000000000000128e+01,8.256531029331726224e-02
3.048000000000000043e+01,8.635405564242425169e-02
3.051999999999999957e+01,9.153540166957403745e-02
3.055999999999999872e+01,9.558533175647757063e-02
3.060000000000000142e+01,1.025074563560712942e-01
3.064000000000000057e+01,1.034242018340730679e-01
3.067999999999999972e+01,9.346160582655244076e-02
3.071999999999999886e+01,9.951349104954411440e-02
3.076000000000000156e+01,8.519921514200155810e-02
3.080000000000000071e+01,7.776074093042488478e-02
3.083999999999999986e+01,6.875566991861357946e-02
3.087999999999999901e+01,7.089111532113843983e-02
3.092000000000000171e+01,6.406198494120911302e-02
3.096000000000000085e+01,5.192374912129672782e-02
3.100000000000000000e+01,5.162230748440557737e-02
3.103999999999999915e+01,4.235628761281452770e-02
3.107999999999999829e+01,4.135862415714421786e-02
3.112000000000000099e+01,3.331115143950304919e-02
3.116000000000000014e+01,3.509866400004638121e-02
3.119999999999999929e+01,3.175113627134794336e-02
3.123999999999999844e+01,3.658492666129297549e-02
3.128000000000000114e+01,2.845052264169494610e-02
3.132000000000000028e+01,2.875854018875897283e-02
3.135999999999999943e+01,2.689070511587599369e-02
3.139999999999999858e+01,1.858230025242998962e-02
3.144000000000000128e+01,2.419952124322992393e-02
3.148000000000000043e+01,3.190560351503800990e-02
3.151999999999999957e+01,1.811405376641003762e-02
3.155999999999999872e+01,2.634238498810223192e-02
3.160000000000000142e+01,2.099327006761511974e-02
3.164000000000000057e+01,2.304214984307211000e-02
3.167999999999999972e+01,2.413366084588905794e-02
3.171999999999999886e+01,2.522518756243053925e-02
3.176000000000000156e+01,2.170387271161508536e-02
3.180000000000000071e+01,2.627682950801361883e-02
3.183999999999999986e+01,2.292961205280371478e-02
3.187999999999999901e+01,3.672830748207695645e-02
3.192000000000000171e+01,3.546995476037127087e-02
3.196000000000000085e+01,2.864137108045274049e-02
3.200000000000000000e+01,2.668675893886733597e-02
3.203999999999999915e+01,2.655989155162778032e-02
3.207999999999999829e+01,2.817373307370253654e-02
3.211999999999999744e+01,3.396526346093393933e-02
3.215999999999999659e+01,2.748486167641800426e-02
3.220000000000000284e+01,3.057831883444156462e-02
3.224000000000000199e+01,2.348868284867950892e-02
3.228000000000000114e+01,2.231743301074007660e-02
3.232000000000000028e+01,1.252971889127875091e-02
3.235999999999999943e+01,1.953976773685243973e-02
3.239999999999999858e+01,1.889073596985356082e-02
3.243999999999999773e+01,1.615286454031286331e-02
3.247999999999999687e+01,1.254464301744388083e-02
3.252000000000000313e+01,1.259189201988122030e-02
3.256000000000000227e+01,1.568536553689522939e-02
3.260000000000000142e+01,1.555854076269404598e-02
3.264000000000000057e+01,1.421322251503829084e-02
3.267999999999999972e+01,1.817703704773844520e-02
3.271999999999999886e+01,8.737452605865600463e-03
3.275999999999999801e+01,5.825489696146980007e-03
3.279999999999999716e+01,9.963357666865492457e-03
3.284000000000000341e+01,1.880110995496460380e-02
3.288000000000000256e+01,1.423545999882978169e-02
3.292000000000000171e+01,9.930906316811592346e-03
3.296000000000000085e+01,1.354653052173300683e-02
3.300000000000000000e+01,1.420295334413598266e-02
3.303999999999999915e+01,3.631846343052628611e-03
3.307999999999999829e+01,1.090290792492627954e-02
3.311999999999999744e+01,1.060190920836961460e-02
3.315999999999999659e+01,1.334712274516120477e-02
3.320000000000000284e+01,1.034800992863518093e-02
3.324000000000000199e+01,1.544313933237485489e-02
3.328000000000000114e+01,1.226992494709252916e-02
3.332000000000000028e+01,1.014111391032164293e-02
3.335999999999999943e+01,7.141934797087448085e-03
3.339999999999999858e+01,1.441287032486659493e-02
3.343999999999999773e+01,7.758181998900562371e-03
3.347999999999999687e+01,1.024215132010493530e-02
3.352000000000000313e+01,1.202981935041776487e-02
3.356000000000000227e+01,1.590630615614679888e-02
3.360000000000000142e+01,1.360328329632419161e-02
3.364000000000000057e+01,8.428081002955840895e-03
3.367999999999999972e+01,9.084201220260679568e-03
3.371999999999999886e+01,1.026250644622665395e-02
3.375999999999999801e+01,9.003804924482878072e-03
3.379999999999999716e+01,6.265481141393830500e-03
3.384000000000000341e+01,1.223063251065645805e-02
3.388000000000000256e+01,1.654208992851068094e-02
3.392000000000000171e+01,9.538964512127256004e-03
3.396000000000000085e+01,1.028192649207001000e-02
3.400000000000000000e+01,1.380997847679220174e-02
3.403999999999999915e+01,1.698985865469024303e-02
3.407999999999999829e+01,1.546981482753173945e-02
3.411999999999999744e+01,1.534229811104549299e-02
3.415999999999999659e+01,2.739965111224276426e-02
3.420000000000000284e+01,2.518322461834013315e-02
3.424000000000000199e+01,2.810182897036679964e-02
3.428000000000000114e+01,1.996694821426775804e-02
3.432000000000000028e+01,2.070960285677030110e-02
3.435999999999999943e+01,2.771874125196893343e-02
3.439999999999999858e+01,2.080223617545685563e-02
3.443999999999999773e+01,2.441692957001119837e-02
3.447999999999999687e+01,1.897993940453958014e-02
3.452000000000000313e+01,2.912217767705179913e-02
3.456000000000000227e+01,2.072591274452624185e-02
3.460000000000000142e+01,2.930143505701553880e-02
3.464000000000000057e+01,2.142729319242882291e-02
3.467999999999999972e+01,1.894927826505293095e-02
3.471999999999999886e+01,1.734156802142278533e-02
3.475999999999999801e+01,1.573381136795973592e-02
3.479999999999999716e+01,1.334269223870145939e-02
3.484000000000000341e+01,1.948095777118143482e-02
3.488000000000000256e+01,1.761195190087928159e-02
3.492000000000000171e+01,1.800580706910821782e-02
3.496000000000000085e+01,1.457007052530899689e-02
3.500000000000000000e+01,2.105627581544861418e-02
3.503999999999999915e+01,2.510544820059111212e-02
3.507999999999999829e+01,3.019898796797496413e-02
3.511999999999999744e+01,2.040948424639425079e-02
3.515999999999999659e+01,2.158633942048755749e-02
3.520000000000000284e+01,2.206685897224966095e-02
3.524000000000000199e+01,2.890087932118916639e-02
3.528000000000000114e+01,2.955535567313742965e-02
3.532000000000000028e+01,3.047087925428861380e-02
3.535999999999999943e+01,2.807901311495745317e-02
3.539999999999999858e+01,3.204064450314273588e-02
3.543999999999999773e+01,3.086714895607198597e-02
3.547999999999999687e+01,3.413237869412770464e-02
3.552000000000000313e+01,3.600498604959968124e-02
3.556000000000000227e+01,3.013141318907965049e-02
3.560000000000000142e+01,3.348348968033926232e-02
3.564000000000000057e+01,3.666143172339823841e-02
3.567999999999999972e+01,2.861178999356580807e-02
3.571999999999999886e+01,2.613232400338092939e-02
3.575999999999999801e+01,2.513238663746024393e-02
3.579999999999999716e+01,2.526383696792315961e-02
3.584000000000000341e+01,2.591742898404001891e-02
3.588000000000000256e+01,2.517839126083611101e-02
3.592000000000000171e+01,2.278561789804713772e-02
3.596000000000000085e+01,2.483156001140185420e-02
3.600000000000000000e+01,2.104608352475663066e-02
3.603999999999999915e+01,1.682535933290942379e-02
3.607999999999999829e+01,1.930625888298515350e-02
3.611999999999999744e+01,2.257039947965731180e-02
3.615999999999999659e+01,1.591247190870042488e-02
3.620000000000000284e+01,1.586913059980448251e-02
3.624000000000000199e+01,1.800158832712070098e-02
3.628000000000000114e+01,1.987286349997629750e-02
3.632000000000000028e+01,2.148295530095602549e-02
3.635999999999999943e+01,2.109116236031781735e-02
3.639999999999999858e+01,1.721788839116857386e-02
3.643999999999999773e+01,1.630372461970248585e-02
3.647999999999999687e+01,1.739128492472452256e-02
3.652000000000000313e+01,1.482329169375716515e-02
3.656000000000000227e+01,2.017540278235880474e-02
3.660000000000000142e+01,2.422190444578186524e-02
3.664000000000000057e+01,1.904260835352391060e-02
3.667999999999999972e+01,2.221858926667097736e-02
3.671999999999999886e+01,1.634284084453924840e-02
3.675999999999999801e+01,2.143341862147236238e-02
3.679999999999999716e+01,1.651488012451647960e-02
3.684000000000000341e+01,1.777573967289612644e-02
3.688000000000000256e+01,2.547710153204509054e-02
3.692000000000000171e+01,2.029718875372003850e-02
3.696000000000000085e+01,1.790230549144745595e-02
3.700000000000000000e+01,1.820541590019576425e-02
3.703999999999999915e+01,2.660269087476301725e-02
3.707999999999999829e+01,1.663548120236572198e-02
3.711999999999999744e+01,2.451035755398731086e-02
3.715999999999999659e+01,2.315942552352989736e-02
3.720000000000000284e+01,2.450648307701723191e-02
3.724000000000000199e+01,2.724600398278897648e-02
3.728000000000000114e+01,2.049860897138698276e-02
3.732000000000000028e+01,2.515270385331833808e-02
3.735999999999999943e+01,2.684750825447127648e-02
3.739999999999999858e+01,2.392935583271998956e-02
3.743999999999999773e+01,2.492767847705088663e-02
3.747999999999999687e+01,3.628306741365813076e-02
3.752000000000000313e+01,2.883878757365158918e-02
3.756000000000000227e+01,2.574615548556325600e-02
3.760000000000000142e+01,4.188816005437252105e-02
3.764000000000000057e+01,3.949159847717136074e-02
3.767999999999999972e+01,3.561533534934777090e-02
3.771999999999999886e+01,4.314055394070519939e-02
3.775999999999999801e+01,5.675811674923156996e-02
3.779999999999999716e+01,5.488333610865859385e-02
3.784000000000000341e+01,5.614170711146843074e-02
3.788000000000000256e+01,6.897562661903110237e-02
3.792000000000000171e+01,7.240965215839276214e-02
3.796000000000000085e+01,7.462507550807434553e-02
3.800000000000000000e+01,7.771073651345292155e-02
3.803999999999999915e+01,7.287609656786263324e-02
3.807999999999999829e+01,8.144473661989221069e-02
3.811999999999999744e+01,8.313749441751855374e-02
3.815999999999999659e+01,7.673587875669762859e-02
3.820000000000000284e+01,7.111746163688123512e-02
3.824000000000000199e+01,7.228765914618169586e-02
3.828000000000000114e+01,6.945412704275737148e-02
3.832000000000000028e+01,6.740379102809179734e-02
3.835999999999999943e+01,6.500519492575736191e-02
3.839999999999999858e+01,7.661911747503537262e-02
3.843999999999999773e+01,7.169626316517428710e-02
3.847999999999999687e+01,7.008061747528496199e-02
3.852000000000000313e+01,8.230341792952980406e-02
3.856000000000000227e+01,7.659687863052830337e-02
3.860000000000000142e+01,9.273600638153395304e-02
3.864000000000000057e+01,9.155503793777727828e-02
3.867999999999999972e+01,1.091735089426252997e-01
3.871999999999999886e+01,1.225271362603319314e-01
3.875999999999999801e+01,1.372731958685442788e-01
3.879999999999999716e+01,1.578504733582805353e-01
3.884000000000000341e+01,1.715518538801394099e-01
3.888000000000000256e+01,1.931732913114839745e-01
3.892000000000000171e+01,2.307220073756026668e-01
3.896000000000000085e+01,2.649632601518682740e-01
3.900000000000000000e+01,3.321906553388806471e-01
3.903999999999999915e+01,4.002012319011777342e-01
3.907999999999999829e+01,4.808317527771669431e-01
3.911999999999999744e+01,5.989742350477069710e-01
3.915999999999999659e+01,7.069334827616267081e-01
3.920000000000000284e+01,8.262941819503641927e-01
3.924000000000000199e+01,9.377345556656758729e-01
3.928000000000000114e+01,1.000000000000000000e+00
3.932000000000000028e+01,9.687896850792029335e-01
3.935999999999999943e+01,8.970209068766057392e-01
3.939999999999999858e+01,7.989674091038736492e-01
3.943999999999999773e+01,6.803735027662700663e-01
3.947999999999999687e+01,5.635201541161631855e-01
3.952000000000000313e+01,4.669458232184190982e-01
3.956000000000000227e+01,3.762026946713095676e-01
3.960000000000000142e+01,3.168790657766242802e-01
3.964000000000000057e+01,2.807936431210115713e-01
3.967999999999999972e+01,2.384415515251161743e-01
3.971999999999999886e+01,2.145407380145641363e-01
3.975999999999999801e+01,1.907268109448918836e-01
3.979999999999999716e+01,1.694367502719418550e-01
3.984000000000000341e+01,1.470150840184123175e-01
3.988000000000000256e+01,1.309468237418936476e-01
3.992000000000000171e+01,1.245392996743915487e-01
3.996000000000000085e+01,1.116039958618510880e-01
4.000000000000000000e+01,9.866853855808266349e-02
4.003999999999999915e+01,8.303484108956452059e-02
4.007999999999999829e+01,7.906368219557791122e-02
4.011999999999999744e+01,6.673700470694880760e-02
4.015999999999999659e+01,5.963227211441146647e-02
4.020000000000000284e+01,6.323269034038025982e-02
4.024000000000000199e+01,5.351659094532926209e-02
4.028000000000000114e+01,4.989278427028775997e-02
4.032000000000000028e+01,5.244830452545688748e-02
4.035999999999999943e+01,4.551684592247965538e-02
4.039999999999999858e+01,3.849819062650588347e-02
4.043999999999999773e+01,3.574408920093748165e-02
4.047999999999999687e+01,4.091001198824561341e-02
4.052000000000000313e+01,4.355175485705391897e-02
4.056000000000000227e+01,3.191958826174087077e-02
4.060000000000000142e+01,2.820744342705868574e-02
4.064000000000000057e+01,3.476526528123340121e-02
4.067999999999999972e+01,2.704917521904105088e-02
4.071999999999999886e+01,3.586957219925184653e-02
4.075999999999999801e+01,3.093826579396317944e-02
4.079999999999999716e+01,3.166406634420432936e-02
4.084000000000000341e+01,2.882126010522768553e-02
4.088000000000000256e+01,2.789305299944763727e-02
4.092000000000000171e+01,3.001089956846142437e-02
4.096000000000000085e+01,1.707151325065449018e-02
4.100000000000000000e+01,1.962418792194793593e-02
4.103999999999999915e+01,2.591919403672028957e-02
4.107999999999999829e+01,2.499011729789705344e-02
4.111999999999999744e+01,2.710709014679150985e-02
4.115999999999999659e+01,2.208701353487628125e-02
4.120000000000000284e+01,2.446473625666544319e-02
4.124000000000000199e+01,2.327384401508454312e-02
4.128000000000000114e+01,2.434568284301329849e-02
4.132000000000000028e+01,2.445995590123180990e-02
4.135999999999999943e+01,2.657585331128051176e-02
4.139999999999999858e+01,2.190283646649355057e-02
4.143999999999999773e+01,2.018882764248609157e-02
4.147999999999999687e+01,2.204307121515730258e-02
4.152000000000000313e+01,2.372306017958921917e-02
4.156000000000000227e+01,2.279181294510899611e-02
4.160000000000000142e+01,2.116409930186097590e-02
4.164000000000000057e+01,1.988433876382600385e-02
4.167999999999999972e+01,1.712479493364568728e-02
4.171999999999999886e+01,2.315560025263324606e-02
4.175999999999999801e+01,1.778462749638191551e-02
4.179999999999999716e+01,2.207435253063139841e-02
4.184000000000000341e+01,1.879183906993061454e-02
4.188000000000000256e+01,1.881646474890717388e-02
4.192000000000000171e+01,1.396693615420963042e-02
4.196000000000000085e+01,1.973548738413180917e-02
4.200000000000000000e+01,1.888918215322253971e-02
4.203999999999999915e+01,2.056669754378263534e-02
4.207999999999999829e+01,1.754412544624038214e-02
4.211999999999999744e+01,1.391211134114869914e-02
4.215999999999999659e+01,2.028892778028616034e-02
4.220000000000000284e+01,1.857128820203823166e-02
4.224000000000000199e+01,1.624420416399516287e-02
4.228000000000000114e+01,9.129993523157282562e-03
4.232000000000000028e+01,1.672450164817012794e-02
4.235999999999999943e+01,2.135961711550088751e-02
4.239999999999999858e+01,1.842248264406818811e-02
4.243999999999999773e+01,1.461479454291516808e-02
4.247999999999999687e+01,1.629010901061963765e-02
4.252000000000000313e+01,1.396160721958499169e-02
4.256000000000000227e+01,1.354767023030733694e-02
4.260000000000000142e+01,1.496126219775507915e-02
4.264000000000000057e+01,1.193586031613630243e-02
4.267999999999999972e+01,8.475075038387557338e-03
4.271999999999999886e+01,1.981003537995360345e-02
4.275999999999999801e+01,1.225818483589454638e-02
4.279999999999999716e+01,1.575957208881709551e-02
4.284000000000000341e+01,1.107945521809422344e-02
4.288000000000000256e+01,1.423227848771782891e-02
4.292000000000000171e+01,1.634046826340566569e-02
4.296000000000000085e+01,1.461890284401957604e-02
4.300000000000000000e+01,1.089531699208750801e-02
4.303999999999999915e+01,1.091402171287286782e-02
4.307999999999999829e+01,1.754717210029971969e-02
4.311999999999999744e+01,1.443218214508042510e-02
4.315999999999999659e+01,1.122993909521375830e-02
4.320000000000000284e+01,1.107370312747287672e-02
4.324000000000000199e+01,1.309312314827910939e-02
4.328000000000000114e+01,1.694005822975181916e-02
4.332000000000000028e+01,1.660909064894816600e-02
4.335999999999999943e+01,1.627790091403738537e-02
4.339999999999999858e+01,1.951492433987424974e-02
4.343999999999999773e+01,1.813886751310735471e-02
4.347999999999999687e+01,1.563113072097515113e-02
4.352000000000000313e+01,1.912858541060253464e-02
4.356000000000000227e+01,1.888330767154389536e-02
4.360000000000000142e+01,2.159699381284236122e-02
4.364000000000000057e+01,1.569398434410919016e-02
4.367999999999999972e+01,1.962570430259373555e-02
4.371999999999999886e+01,1.650735751331030773e-02
4.375999999999999801e+01,1.861088205274800261e-02
4.379999999999999716e+01,1.575317887237950507e-02
4.384000000000000341e+01,6.802791795777077787e-03
4.388000000000000256e+01,1.499807237908907381e-02
4.392000000000000171e+01,1.344519627145032876e-02
4.396000000000000085e+01,1.519941679789702134e-02
4.400000000000000000e+01,1.051281004798353472e-02
4.403999999999999915e+01,1.235359431912971123e-02
4.407999999999999829e+01,7.492444596236204520e-03
4.411999999999999744e+01,6.721703486314328964e-03
4.415999999999999659e+01,1.195614077950836636e-02
4.420000000000000284e+01,1.510149809008320965e-02
4.424000000000000199e+01,1.258933846835360269e-02
4.428000000000000114e+01,6.595536787312845060e-03
4.432000000000000028e+01,1.095866162054424768e-02
4.435999999999999943e+01,6.531006075037140354e-03
4.439999999999999858e+01,1.341766071275148596e-02
4.443999999999999773e+01,1.133946328166420686e-02
4.447999999999999687e+01,8.738810643145312682e-03
4.452000000000000313e+01,1.075076860914376230e-02
4.456000000000000227e+01,1.102177934625136503e-02
4.460000000000000142e+01,1.111847253414701212e-02
4.464000000000000057e+01,9.039041720239617342e-03
4.467999999999999972e+01,1.087593802025794282e-02
4.471999999999999886e+01,1.349589962259840036e-02
4.475999999999999801e+01,9.587983390072997783e-03
4.479999999999999716e+01,1.194633756486888909e-02
4.484000000000000341e+01,1.073600320892408901e-02
4.488000000000000256e+01,7.784715084766568108e-03
4.492000000000000171e+01,1.014230961190488479e-02
4.496000000000000085e+01,1.354406961972300268e-02
4.500000000000000000e+01,1.511783837946636955e-02
4.503999999999999915e+01,1.686542070889567729e-02
4.507999999999999829e+01,1.365174916123144087e-02
4.511999999999999744e+01,1.400625562546000194e-02
4.515999999999999659e+01,1.383829298619808530e-02
4.520000000000000284e+01,1.689036661353312749e-02
4.524000000000000199e+01,1.332751756940325424e-02
4.528000000000000114e+01,1.498650879221576776e-02
4.532000000000000028e+01,1.838593835990178296e-02
4.535999999999999943e+01,1.377788236201564487e-02
4.539999999999999858e+01,1.508794439975697996e-02
4.543999999999999773e+01,1.892175757867320049e-02
4.547999999999999687e+01,1.779430870634358605e-02
4.552000000000000313e+01,1.788508392611327241e-02
4.556000000000000227e+01,2.093478297289383394e-02
4.560000000000000142e+01,2.024170790281170501e-02
4.564000000000000057e+01,1.711138331269674434e-02
4.567999999999999972e+01,2.259725689240932311e-02
4.571999999999999886e+01,2.077191777074342827e-02
4.575999999999999801e+01,2.129625319569789302e-02
4.579999999999999716e+01,1.981851096904034895e-02
4.584000000000000341e+01,2.704399867016572118e-02
4.588000000000000256e+01,1.964732808047895199e-02
4.592000000000000171e+01,1.860394003810338093e-02
4.596000000000000085e+01,1.007526433462526717e-02
4.600000000000000000e+01,1.120720059304898888e-02
4.603999999999999915e+01,1.703875142182768865e-02
4.607999999999999829e+01,1.172954097737180165e-02
4.611999999999999744e+01,1.120697849605681654e-02
4.615999999999999659e+01,1.286001233197719973e-02
4.620000000000000284e+01,1.338131061829671113e-02
4.624000000000000199e+01,1.311901264806552073e-02
4.628000000000000114e+01,1.155090743817028566e-02
4.632000000000000028e+01,9.547344447359249614e-03
4.635999999999999943e+01,8.936058438160381437e-03
4.639999999999999858e+01,8.846698316995004960e-03
4.643999999999999773e+01,8.495948017900828084e-03
4.647999999999999687e+01,9.885612358638459427e-03
4.652000000000000313e+01,6.662133505799692698e-03
4.656000000000000227e+01,1.205483483965340274e-02
4.660000000000000142e+01,1.387881167649635504e-02
4.664000000000000057e+01,1.291737844746039879e-02
4.667999999999999972e+01,1.108530494268983486e-02
4.671999999999999886e+01,1.186399144942317657e-02
4.675999999999999801e+01,8.203599913321410475e-03
4.679999999999999716e+01,6.631756588195023873e-03
4.684000000000000341e+01,1.454643800401794751e-02
4.688000000000000256e+01,8.709290969811387187e-03
4.692000000000000171e+01,1.235866704172364910e-02
4.696000000000000085e+01,1.565960728169278962e-02
4.700000000000000000e+01,8.167907558342407323e-03
4.703999999999999915e+01,7.638712687991240126e-03
4.707999999999999829e+01,1.407202185322406138e-02
4.711999999999999744e+01,7.101637774401381616e-03
4.715999999999999659e+01,5.788230682087087443e-03
4.720000000000000284e+01,1.222064042165816287e-02
4.724000000000000199e+01,1.299547192278259489e-02
4.728000000000000114e+01,9.679354865139289457e-03
4.732000000000000028e+01,6.798109867362913360e-03
4.735999999999999943e+01,8.181277327157262039e-03
4.739999999999999858e+01,9.477105046289974882e-03
4.743999999999999773e+01,1.512437861577931725e-02
4.747999999999999687e+01,1.354743854523647074e-02
4.752000000000000313e+01,1.092577097800654339e-02
4.756000000000000227e+01,1.239444172603852007e-02
4.760000000000000142e+01,1.455908389487980265e-02
4.764000000000000057e+01,1.089206959588947740e-02
4.767999999999999972e+01,1.035800585613559123e-02
4.771999999999999886e+01,1.504573252099514896e-02
4.775999999999999801e+01,1.224813474106688921e-02
4.779999999999999716e+01,1.180016981958232659e-02
4.784000000000000341e+01,1.152596124871763453e-02
4.788000000000000256e+01,1.351434887384981784e-02
4.792000000000000171e+01,1.263026524819941925e-02
4.796000000000000085e+01,1.200697054853955975e-02
4.800000000000000000e+01,9.816728377511843226e-03
4.803999999999999915e+01,1.232605990607764553e-02
4.807999999999999829e+01,9.090761002860669321e-03
4.811999999999999744e+01,9.771718915859716609e-03
4.815999999999999659e+01,1.027828652969142373e-02
4.820000000000000284e+01,1.069749805455693162e-02
4.824000000000000199e+01,1.311819333583322256e-02
4.828000000000000114e+01,9.010938849703494652e-03
4.832000000000000028e+01,7.688481733701168878e-03
4.835999999999999943e+01,1.010820647419080273e-02
4.839999999999999858e+01,1.496458683951203475e-02
4.843999999999999773e+01,1.059492831165969109e-02
4.847999999999999687e+01,9.706344105204571179e-03
4.852000000000000313e+01,8.469292187612404571e-03
4.856000000000000227e+01,9.146682459492841075e-03
4.860000000000000142e+01,6.081237308368376594e-03
4.864000000000000057e+01,7.454248512760029872e-03
4.867999999999999972e+01,9.088033929668077465e-03
4.871999999999999886e+01,1.185294301784075265e-02
4.875999999999999801e+01,9.569487999102472414e-03
4.879999999999999716e+01,1.146338098337033526e-02
4.884000000000000341e+01,1.326990480002833081e-02
4.888000000000000256e+01,1.220393774793824930e-02
4.892000000000000171e+01,1.287833547335104356e-02
4.896000000000000085e+01,1.111541583326701617e-02
4.900000000000000000e+01,9.178088728295860296e-03
4.903999999999999915e+01,1.281066516370097524e-02
4.907999999999999829e+01,8.261609958684950489e-03
4.911999999999999744e+01,1.520083853712605668e-02
4.915999999999999659e+01,1.082517284612721786e-02
4.920000000000000284e+01,9.930566763051510912e-03
4.924000000000000199e+01,1.260405449810004207e-02
4.928000000000000114e+01,1.318835843879528555e-02
4.932000000000000028e+01,1.124830262964031380e-02
4.935999999999999943e+01,1.052639244072263794e-02
4.939999999999999858e+01,8.411576226136724399e-03
4.943999999999999773e+01,1.874242255946588498e-02
4.947999999999999687e+01,1.227516134420367916e-02
4.952000000000000313e+01,8.940813087077384078e-03
4.956000000000000227e+01,1.283002326863991183e-02
4.960000000000000142e+01,1.045236179094285490e-02
4.964000000000000057e+01,1.294831137146289397e-02
4.967999999999999972e+01,1.170140345876685174e-02
4.971999999999999886e+01,1.602438519038818995e-02
4.975999999999999801e+01,1.242682646837851672e-02
4.979999999999999716e+01,1.039554448550398039e-02
4.984000000000000341e+01,1.323786947377039377e-02
4.988000000000000256e+01,1.372989332360607072e-02
4.992000000000000171e+01,1.439563101846971262e-02
4.996000000000000085e+01,1.436473146478268320e-02
5.000000000000000000e+01,1.085207296140674495e-02
5.003999999999999915e+01,1.343150772872442507e-02
5.007999999999999829e+01,1.966605417606284711e-02
5.011999999999999744e+01,1.319312629413437604e-02
5.015999999999999659e+01,1.768625077716902416e-02
5.020000000000000284e+01,1.591249133971564533e-02
5.024000000000000199e+01,1.805494539547116556e-02
5.028000000000000114e+01,1.871744041480705514e-02
5.032000000000000028e+01,1.267787392332756641e-02
5.035999999999999943e+01,1.690807548880429029e-02
5.039999999999999858e+01,2.035459578654645954e-02
5.043999999999999773e+01,2.501923963431474524e-02
5.047999999999999687e+01,1.915227748648763023e-02
5.052000000000000313e+01,2.094402929746552733e-02
5.056000000000000227e+01,2.282244684721138756e-02
5.060000000000000142e+01,2.017467285464381518e-02
5.064000000000000057e+01,2.318380473345969459e-02
5.067999999999999972e+01,2.210191857321337772e-02
5.071999999999999886e+01,2.171594007538852136e-02
5.075999999999999801e+01,2.159069328448816674e-02
5.079999999999999716e+01,2.277059771449319731e-02
5.084000000000000341e+01,2.995554403927091006e-02
5.088000000000000256e+01,2.512928072482309080e-02
5.092000000000000171e+01,2.413218197990891004e-02
5.096000000000000085e+01,3.079378820223225427e-02
5.100000000000000000e+01,2.701081283017852525e-02
5.103999999999999915e+01,3.158282101146259874e-02
5.107999999999999829e+01,2.910461204057655099e-02
5.111999999999999744e+01,3.254440421494022434e-02
5.115999999999999659e+01,3.015246798893210511e-02
5.120000000000000284e+01,3.124155050008566720e-02
5.124000000000000199e+01,3.572461590336931808e-02
5.128000000000000114e+01,3.211303973601058181e-02
5.132000000000000028e+01,2.728258836228531284e-02
5.135999999999999943e+01,2.445355698658296939e-02
5.139999999999999858e+01,3.050171197317941979e-02
5.143999999999999773e+01,2.941260742325232588e-02
5.147999999999999687e+01,2.588613401066898467e-02
5.152000000000000313e+01,3.010538914912628053e-02
5.156000000000000227e+01,2.596889191218556062e-02
5.160000000000000142e+01,2.487823010017252076e-02
5.164000000000000057e+01,2.021874079682983369e-02
5.167999999999999972e+01,2.635120274143886929e-02
5.171999999999999886e+01,1.925394749447379567e-02
5.175999999999999801e+01,2.068573114260504817e-02
5.179999999999999716e+01,1.645984336695354572e-02
5.184000000000000341e+01,1.754269682976326156e-02
5.188000000000000256e+01,1.749369867000954634e-02
5.192000000000000171e+01,1.753133845690603085e-02
5.196000000000000085e+01,1.460938940646544504e-02
5.200000000000000000e+01,1.673507324197612972e-02
5.203999999999999915e+01,1.842518240619324746e-02
5.207999999999999829e+01,1.506685961803539732e-02
5.211999999999999744e+01,1.780058759497923915e-02
5.215999999999999659e+01,1.104709557628416258e-02
5.220000000000000284e+01,9.689372466929566108e-03
5.224000000000000199e+01,1.851434396839909610e-02
5.228000000000000114e+01,1.820023313244939489e-02
5.232000000000000028e+01,1.248954532916797533e-02
5.235999999999999943e+01,1.313200846934588911e-02
5.239999999999999858e+01,9.596383393990446167e-03
5.243999999999999773e+01,1.633048386999929810e-02
5.247999999999999687e+01,1.261997250726765336e-02
5.252000000000000313e+01,1.517557379071807905e-02
5.256000000000000227e+01,8.418016959609985611e-03
5.260000000000000142e+01,7.056220863690095338e-03
5.264000000000000057e+01,8.653203912285569940e-03
5.267999999999999972e+01,1.355710539844655511e-02
5.271999999999999886e+01,1.436994715736867115e-02
5.275999999999999801e+01,1.161393853733475555e-02
5.279999999999999716e+01,1.468886170349462464e-02
5.284000000000000341e+01,1.106167186167963945e-02
5.288000000000000256e+01,1.526721780640383566e-02
5.292000000000000171e+01,1.451134966064961465e-02
5.296000000000000085e+01,1.366802815351693054e-02
5.300000000000000000e+01,1.343353268852127969e-02
5.303999999999999915e+01,1.302454719970036999e-02
5.307999999999999829e+01,7.131934185042049755e-03
5.311999999999999744e+01,1.002943735621131434e-02
5.315999999999999659e+01,1.144692263706449317e-02
5.320000000000000284e+01,1.538800048053811514e-02
5.324000000000000199e+01,1.079922156194139567e-02
5.328000000000000114e+01,1.256357478625377833e-02
5.332000000000000028e+01,8.844295580237361912e-03
5.335999999999999943e+01,9.650411302356358065e-03
5.339999999999999858e+01,1.358936069333406375e-02
5.343999999999999773e+01,1.169653509127191633e-02
5.347999999999999687e+01,1.389392682701779021e-02
5.352000000000000313e+01,1.696123906135176690e-02
5.356000000000000227e+01,1.419677385040021139e-02
5.360000000000000142e+01,1.334664783460239382e-02
5.364000000000000057e+01,9.188758539562542210e-03
5.367999999999999972e+01,1.016550282665067487e-02
5.371999999999999886e+01,1.296954882903054648e-02
5.375999999999999801e+01,1.507687992841297633e-02
5.379999999999999716e+01,1.361533939604338619e-02
5.384000000000000341e+01,1.058673204968248530e-02
5.388000000000000256e+01,1.312792933645512070e-02
5.392000000000000171e+01,1.436316325725499679e-02
5.396000000000000085e+01,1.272580249757273435e-02
5.400000000000000000e+01,1.700638402924368672e-02
5.403999999999999915e+01,1.432372294763389203e-02
5.407999999999999829e+01,1.346835622457877649e-02
5.411999999999999744e+01,2.088087508627246847e-02
5.415999999999999659e+01,1.428031164551596226e-02
5.420000000000000284e+01,1.089960055292991600e-02
5.424000000000000199e+01,1.622194773092873812e-02
5.428000000000000114e+01,1.588657280540054298e-02
5.432000000000000028e+01,1.494150656067806324e-02
5.435999999999999943e+01,1.739035944969781824e-02
5.439999999999999858e+01,1.296299739631610014e-02
5.443999999999999773e+01,1.175548278661348034e-02
5.447999999999999687e+01,1.385484983079106162e-02
5.452000000000000313e+01,1.212422544689350547e-02
5.456000000000000227e+01,1.457083135820911972e-02
5.460000000000000142e+01,1.370965437231719437e-02
5.464000000000000057e+01,9.714763727035181581e-03
5.467999999999999972e+01,1.555437771978293408e-02
5.471999999999999886e+01,9.991948794757591831e-03
5.475999999999999801e+01,1.243628729298834265e-02
5.479999999999999716e+01,1.331353935926227194e-02
5.484000000000000341e+01,1.097003865145361641e-02
5.488000000000000256e+01,1.471853230709586555e-02
5.492000000000000171e+01,1.559441166429043589e-02
5.496000000000000085e+01,1.211808043614428718e-02
5.500000000000000000e+01,1.351525073257454045e-02
5.503999999999999915e+01,1.291015455447487754e-02
5.507999999999999829e+01,1.474157749286354215e-02
5.511999999999999744e+01,1.483183740474086978e-02
5.515999999999999659e+01,1.274575833460990168e-02
5.520000000000000284e+01,1.187770554209279482e-02
5.524000000000000199e+01,1.205360815454160212e-02
5.528000000000000114e+01,1.214200999552867907e-02
5.532000000000000028e+01,1.571134637990883112e-02
5.535999999999999943e+01,1.127299284490956670e-02
5.539999999999999858e+01,1.666912923446594100e-02
5.543999999999999773e+01,1.249094357271828860e-02
5.547999999999999687e+01,1.396956487511137428e-02
5.552000000000000313e+01,1.771062624719257905e-02
5.556000000000000227e+01,1.579393935845950503e-02
5.560000000000000142e+01,1.492120051795529055e-02
5.564000000000000057e+01,1.770345973675500895e-02
5.567999999999999972e+01,1.465389818726207591e-02
5.571999999999999886e+01,1.778334886311654095e-02
5.575999999999999801e+01,1.751795790910546866e-02
5.579999999999999716e+01,2.012424649619034417e-02
5.584000000000000341e+01,1.750795623863602921e-02
5.588000000000000256e+01,1.845962410827792569e-02
5.592000000000000171e+01,1.888860298973268556e-02
5.596000000000000085e+01,1.609680620947847446e-02
5.600000000000000000e+01,1.939698090504872810e-02
5.603999999999999915e+01,1.834492294506707630e-02
5.607999999999999829e+01,2.495146532317360846e-02
5.611999999999999744e+01,2.233181186438258636e-02
5.615999999999999659e+01,2.049498992715818868e-02
5.620000000000000284e+01,2.240018963304087757e-02
5.624000000000000199e+01,2.430490397711264003e-02
5.628000000000000114e+01,3.021274341231004745e-02
5.632000000000000028e+01,2.785176822731351767e-02
5.635999999999999943e+01,2.818839108436704474e-02
5.639999999999999858e+01,2.913377050326312195e-02
5.643999999999999773e+01,3.608407737879981703e-02
5.647999999999999687e+01,3.711551211012292795e-02
5.652000000000000313e+01,4.162785686238222593e-02
5.656000000000000227e+01,4.996925092862790352e-02
5.660000000000000142e+01,4.908443934899325151e-02
5.664000000000000057e+01,5.429158616653939617e-02
5.667999999999999972e+01,5.993341376878885685e-02
5.671999999999999886e+01,6.931725238774738562e-02
5.675999999999999801e+01,7.017116231209545585e-02
5.679999999999999716e+01,6.937090990610889074e-02
5.684000000000000341e+01,7.440150672737794180e-02
5.688000000000000256e+01,6.872629671138225094e-02
5.692000000000000171e+01,7.549659638665380534e-02
5.696000000000000085e+01,6.320572493866123687e-02
5.700000000000000000e+01,6.344739657472178718e-02
5.703999999999999915e+01,5.411471346286911982e-02
5.707999999999999829e+01,4.347600240924060638e-02
5.711999999999999744e+01,5.276780933480867269e-02
5.715999999999999659e+01,4.160588060817500822e-02
5.720000000000000284e+01,3.879880955293382727e-02
5.724000000000000199e+01,3.808007336329324866e-02
5.728000000000000114e+01,3.318314923346137729e-02
5.732000000000000028e+01,3.037455833439961853e-02
5.735999999999999943e+01,3.000243995915813713e-02
5.739999999999999858e+01,2.640951649525943856e-02
5.743999999999999773e+01,2.725486955552644530e-02
5.747999999999999687e+01,2.487941589230576594e-02
5.752000000000000313e+01,2.328676595853393372e-02
5.756000000000000227e+01,2.386947937865720529e-02
5.760000000000000142e+01,2.314615423060664007e-02
5.764000000000000057e+01,2.120382472458337553e-02
5.767999999999999972e+01,1.682399965654333626e-02
5.771999999999999886e+01,1.792686572215851717e-02
5.775999999999999801e+01,1.607002442522843799e-02
5.779999999999999716e+01,1.978290765473948026e-02
5.784000000000000341e+01,1.322513956710198550e-02
5.788000000000000256e+01,1.928693160799889103e-02
5.792000000000000171e+01,1.890761191203592720e-02
5.796000000000000085e+01,1.217421468941416555e-02
5.800000000000000000e+01,1.579746442505621309e-02
5.803999999999999915e+01,1.332774008205806285e-02
5.807999999999999829e+01,1.616662946074538115e-02
5.811999999999999744e+01,1.587173406491770855e-02
5.815999999999999659e+01,1.783922478937301562e-02
5.820000000000000284e+01,1.249524777889842245e-02
5.824000000000000199e+01,1.881343823644139254e-02
5.828000000000000114e+01,1.869050960038741438e-02
5.832000000000000028e+01,1.839298304169794188e-02
5.835999999999999943e+01,1.530980691446744493e-02
5.839999999999999858e+01,1.605564250012275762e-02
5.843999999999999773e+01,1.453803704810465586e-02
5.847999999999999687e+01,1.554391625989677908e-02
5.852000000000000313e+01,1.367710760587060627e-02
5.856000000000000227e+01,1.694483280931446956e-02
5.860000000000000142e+01,2.177865492054311541e-02
5.864000000000000057e+01,1.085860262648903271e-02
5.867999999999999972e+01,1.073035853272159661e-02
5.871999999999999886e+01,1.739031055147379282e-02
5.875999999999999801e+01,1.430180261822525112e-02
5.879999999999999716e+01,1.782741910743319835e-02
5.884000000000000341e+01,1.247492428597338568e-02
5.888000000000000256e+01,1.626056805301356878e-02
5.892000000000000171e+01,1.464949997920921877e-02
5.896000000000000085e+01,1.825999261633896517e-02
5.900000000000000000e+01,1.220905542459295445e-02
5.903999999999999915e+01,1.459997333075525698e-02
5.907999999999999829e+01,1.255156143019190221e-02
5.911999999999999744e+01,1.459325161188929076e-02
5.915999999999999659e+01,1.585108151191694931e-02
5.920000000000000284e+01,1.406213959483474177e-02
5.924000000000000199e+01,1.601515719730220444e-02
5.928000000000000114e+01,1.431215615451495067e-02
5.932000000000000028e+01,1.591593785836518254e-02
5.935999999999999943e+01,1.725806535916762571e-02
5.939999999999999858e+01,1.381271640345720260e-02
5.943999999999999773e+01,1.732961890202498398e-02
5.947999999999999687e+01,1.449241281215526457e-02
5.952000000000000313e+01,1.661565090655742552e-02
5.956000000000000227e+01,1.534396971664727348e-02
5.960000000000000142e+01,1.215696389448745959e-02
5.964000000000000057e+01,1.114527892063082656e-02
5.967999999999999972e+01,1.491996480615245466e-02
5.971999999999999886e+01,1.399420272345572140e-02
5.975999999999999801e+01,1.446044378826942534e-02
5.979999999999999716e+01,1.570944198986392454e-02
5.984000000000000341e+01,1.243205982622706297e-02
5.988000000000000256e+01,1.811872576047678096e-02
5.992000000000000171e+01,1.814755433565224188e-02
5.996000000000000085e+01,1.321482495526894209e-02
