2.003999999999999915e+01,5.475393005860275386e-02
2.007999999999999829e+01,6.785550149402500009e-02
2.012000000000000099e+01,8.512608859193819544e-02
2.016000000000000014e+01,7.398181974786059711e-02
2.019999999999999929e+01,7.515252746097954295e-02
2.023999999999999844e+01,6.116924971544895895e-02
2.028000000000000114e+01,7.370902448982877275e-02
2.032000000000000028e+01,4.779355278500695831e-02
2.035999999999999943e+01,7.435455750706458644e-02
2.039999999999999858e+01,7.742615609613527627e-02
2.044000000000000128e+01,6.117604954751216378e-02
2.048000000000000043e+01,5.932474981300138450e-02
2.051999999999999957e+01,7.509275240852099353e-02
2.055999999999999872e+01,7.343345148322213967e-02
2.060000000000000142e+01,6.457666310040056923e-02
2.064000000000000057e+01,7.220252113048342135e-02
2.067999999999999972e+01,5.292901150411813416e-02
2.071999999999999886e+01,7.306051466362489810e-02
2.076000000000000156e+01,6.193549873363966146e-02
2.080000000000000071e+01,7.638628936272862102e-02
2.083999999999999986e+01,6.450602316716069762e-02
2.087999999999999901e+01,6.456179839974385271e-02
2.092000000000000171e+01,5.836726674251181690e-02
2.096000000000000085e+01,7.036032644939171909e-02
2.100000000000000000e+01,6.492604838190937921e-02
2.103999999999999915e+01,6.896506504036828411e-02
2.107999999999999829e+01,6.069164728517517648e-02
2.112000000000000099e+01,7.003748515063464020e-02
2.116000000000000014e+01,4.585347963651600911e-02
2.119999999999999929e+01,6.372662488301848727e-02
2.123999999999999844e+01,5.640532874052939932e-02
2.128000000000000114e+01,5.363184014747818945e-02
2.132000000000000028e+01,5.597447927753162328e-02
2.135999999999999943e+01,5.585559918172772198e-02
2.139999999999999858e+01,4.664475839048024680e-02
2.144000000000000128e+01,5.183264967834084330e-02
2.148000000000000043e+01,4.432919322121425809e-02
2.151999999999999957e+01,6.694807357291053529e-02
2.155999999999999872e+01,5.660540269306892774e-02
2.160000000000000142e+01,5.933536376537552892e-02
2.164000000000000057e+01,7.419074819649686126e-02
2.167999999999999972e+01,6.555662684795864059e-02
2.171999999999999886e+01,5.711313359018765912e-02
2.176000000000000156e+01,5.833232010297968034e-02
2.180000000000000071e+01,5.822659971162136294e-02
2.183999999999999986e+01,6.323696656190687382e-02
2.187999999999999901e+01,6.048142302037227969e-02
2.192000000000000171e+01,5.336990569881034513e-02
2.196000000000000085e+01,4.493346901726413822e-02
2.200000000000000000e+01,3.289881671127390522e-02
2.203999999999999915e+01,3.488396758326389735e-02
2.207999999999999829e+01,5.354109386152680616e-02
2.212000000000000099e+01,6.708446640646960335e-02
2.216000000000000014e+01,6.357929306400349201e-02
2.219999999999999929e+01,5.287650770567440400e-02
2.223999999999999844e+01,5.543574557203260339e-02
2.228000000000000114e+01,5.875389122136426279e-02
2.232000000000000028e+01,5.411665112945687056e-02
2.235999999999999943e+01,5.819483861935943053e-02
2.239999999999999858e+01,5.905366153698305559e-02
2.244000000000000128e+01,5.082044279624166327e-02
2.248000000000000043e+01,5.679643407581200232e-02
2.251999999999999957e+01,5.424870075672567210e-02
2.255999999999999872e+01,5.454370547752893789e-02
2.260000000000000142e+01,6.355411909639088752e-02
2.264000000000000057e+01,5.456874398096665107e-02
2.267999999999999972e+01,3.099751674304882659e-02
2.271999999999999886e+01,4.380008905907635530e-02
2.276000000000000156e+01,4.523730165456966296e-02
2.280000000000000071e+01,5.785264182470544608e-02
2.283999999999999986e+01,4.375788728050833409e-02
2.287999999999999901e+01,3.762075545315996666e-02
2.292000000000000171e+01,3.678906788645096987e-02
2.296000000000000085e+01,5.338705160242770975e-02
2.300000000000000000e+01,3.626560760085967283e-02
2.303999999999999915e+01,5.002414646119142383e-02
2.307999999999999829e+01,5.222785959344577317e-02
2.312000000000000099e+01,4.685500689704136940e-02
2.316000000000000014e+01,5.929069210528029737e-02
2.319999999999999929e+01,3.251314224580447582e-02
2.323999999999999844e+01,2.846959255580725975e-02
2.328000000000000114e+01,5.397991937283319608e-02
2.332000000000000028e+01,5.391676068327464627e-02
2.335999999999999943e+01,4.286707775555453209e-02
2.339999999999999858e+01,3.825944829622194426e-02
2.344000000000000128e+01,5.108145275207312541e-02
2.348000000000000043e+01,6.144177294226584041e-02
2.351999999999999957e+01,4.471306328908105504e-02
2.355999999999999872e+01,4.863447683908082853e-02
2.360000000000000142e+01,3.759108445379120977e-02
2.364000000000000057e+01,4.397731041389275897e-02
2.367999999999999972e+01,3.767201736128890366e-02
2.371999999999999886e+01,5.997336108278909783e-02
2.376000000000000156e+01,2.582228641652278139e-02
2.380000000000000071e+01,4.168468613032781656e-02
2.383999999999999986e+01,3.841455711584058214e-02
2.387999999999999901e+01,3.400880036723535199e-02
2.392000000000000171e+01,3.926555523543339560e-02
2.396000000000000085e+01,6.081525696210403342e-02
2.400000000000000000e+01,4.959265860164235179e-02
2.403999999999999915e+01,3.003565840797556633e-02
2.407999999999999829e+01,4.476849983903873065e-02
2.412000000000000099e+01,4.984084553785409627e-02
2.416000000000000014e+01,5.567195266359272615e-02
2.419999999999999929e+01,5.032702906216605238e-02
2.423999999999999844e+01,5.597067983699997168e-02
2.428000000000000114e+01,4.740723612275008630e-02
2.432000000000000028e+01,4.699074411871769635e-02
2.435999999999999943e+01,4.487026372543999331e-02
2.439999999999999858e+01,4.938120004746202052e-02
2.444000000000000128e+01,7.113225133982990778e-02
2.448000000000000043e+01,5.082835147968423062e-02
2.451999999999999957e+01,3.507200693833693178e-02
2.455999999999999872e+01,3.977626665533635225e-02
2.460000000000000142e+01,5.016472203846760597e-02
2.464000000000000057e+01,4.634605490688852025e-02
2.467999999999999972e+01,3.400349502289286285e-02
2.471999999999999886e+01,3.719605844865781635e-02
2.476000000000000156e+01,2.750757768896243405e-02
2.480000000000000071e+01,3.581694825748653332e-02
2.483999999999999986e+01,3.465520813838482428e-02
2.487999999999999901e+01,5.603789942058765711e-02
2.492000000000000171e+01,9.412175161847002869e-03
2.496000000000000085e+01,1.469424593713170198e-02
2.500000000000000000e+01,4.195241548422015687e-02
2.503999999999999915e+01,3.568043959775461099e-02
2.507999999999999829e+01,5.024790967992535246e-02
2.512000000000000099e+01,2.673864179962318760e-02
2.516000000000000014e+01,2.804707667341685071e-02
2.519999999999999929e+01,2.859866324421184505e-02
2.523999999999999844e+01,4.203315730105552234e-02
2.528000000000000114e+01,4.751203518373042084e-02
2.532000000000000028e+01,3.632100336802403240e-02
2.535999999999999943e+01,2.910913819036199321e-02
2.539999999999999858e+01,3.781122557691594943e-02
2.544000000000000128e+01,2.700177748508683986e-02
2.548000000000000043e+01,3.684230312643384242e-02
2.551999999999999957e+01,3.266507884185822913e-02
2.555999999999999872e+01,4.856949877491645307e-02
2.560000000000000142e+01,2.526049680274891976e-02
2.564000000000000057e+01,2.335922049142381135e-02
2.567999999999999972e+01,3.263584754972795321e-02
2.571999999999999886e+01,3.111520774219334734e-02
2.576000000000000156e+01,5.043396096600030049e-02
2.580000000000000071e+01,2.296163287978567752e-02
2.583999999999999986e+01,1.613925050112054171e-02
2.587999999999999901e+01,3.148233948304696855e-02
2.592000000000000171e+01,1.916788849645971113e-02
2.596000000000000085e+01,3.716486976517549556e-02
2.600000000000000000e+01,2.201051305708330227e-02
2.603999999999999915e+01,2.674832210324749188e-02
2.607999999999999829e+01,3.906462255782938708e-02
2.612000000000000099e+01,2.201839761122926717e-02
2.616000000000000014e+01,1.482395099563083539e-02
2.619999999999999929e+01,9.335312474446844783e-03
2.623999999999999844e+01,2.108664879547569176e-02
2.628000000000000114e+01,3.359658150362649504e-02
2.632000000000000028e+01,2.394273488405611675e-02
2.635999999999999943e+01,2.698226746382091298e-02
2.639999999999999858e+01,2.755988845895585362e-02
2.644000000000000128e+01,3.382156187813101234e-02
2.648000000000000043e+01,4.841945994963890720e-02
2.651999999999999957e+01,2.967653846700303924e-02
2.655999999999999872e+01,1.434436691603088558e-02
2.660000000000000142e+01,3.008134218052595232e-02
2.664000000000000057e+01,2.346507210975632210e-02
2.667999999999999972e+01,2.897383303902856602e-02
2.671999999999999886e+01,3.618836158125478264e-02
2.676000000000000156e+01,2.427013407621734023e-02
2.680000000000000071e+01,4.190550904985377439e-02
2.683999999999999986e+01,1.540189709279855129e-02
2.687999999999999901e+01,2.508231974212819446e-02
2.692000000000000171e+01,3.400576018824306990e-02
2.696000000000000085e+01,3.592065915330696496e-02
2.700000000000000000e+01,1.699781352448028957e-02
2.703999999999999915e+01,2.630246401945094889e-02
2.707999999999999829e+01,3.882838286874953915e-02
2.712000000000000099e+01,2.937990120703150299e-02
2.716000000000000014e+01,4.740114194373487577e-02
2.719999999999999929e+01,2.753492388799784821e-02
2.723999999999999844e+01,3.343345213988941494e-02
2.728000000000000114e+01,5.183584687419533210e-02
2.732000000000000028e+01,4.333835703494008651e-02
2.735999999999999943e+01,4.658696306668176634e-02
2.739999999999999858e+01,5.059407829470729395e-02
2.744000000000000128e+01,4.361435166080283171e-02
2.748000000000000043e+01,4.762294717251961546e-02
2.751999999999999957e+01,4.386519322426579021e-02
2.755999999999999872e+01,5.791563464521917726e-02
2.760000000000000142e+01,5.813760531028221851e-02
2.764000000000000057e+01,5.760253772087741558e-02
2.767999999999999972e+01,6.748745341967590794e-02
2.771999999999999886e+01,6.846935751346081012e-02
2.776000000000000156e+01,7.437744688715471064e-02
2.780000000000000071e+01,9.241048007005212006e-02
2.783999999999999986e+01,1.034349032648112926e-01
2.787999999999999901e+01,1.137022695213512763e-01
2.792000000000000171e+01,1.260541921638400342e-01
2.796000000000000085e+01,1.558353968442005577e-01
2.800000000000000000e+01,1.589061051095801980e-01
2.803999999999999915e+01,1.890675850745437980e-01
2.807999999999999829e+01,2.101365843129921196e-01
2.812000000000000099e+01,2.444671490242263934e-01
2.816000000000000014e+01,2.304909199348863236e-01
2.819999999999999929e+01,2.369750117336682782e-01
2.823999999999999844e+01,2.396709610346032526e-01
2.828000000000000114e+01,2.597961674617419447e-01
2.832000000000000028e+01,1.946735539368310564e-01
2.835999999999999943e+01,2.138528981541110707e-01
2.839999999999999858e+01,1.739272874221859111e-01
2.844000000000000128e+01,1.745427350573904579e-01
2.848000000000000043e+01,1.348078900071060515e-01
2.851999999999999957e+01,1.304991875074070495e-01
2.855999999999999872e+01,1.093308819828122391e-01
2.860000000000000142e+01,8.588993470174442757e-02
2.864000000000000057e+01,8.726641926038200547e-02
2.867999999999999972e+01,7.670875994500039874e-02
2.871999999999999886e+01,7.619212076315044768e-02
2.876000000000000156e+01,6.639350682161568318e-02
2.880000000000000071e+01,5.981602733419266044e-02
2.883999999999999986e+01,5.286029836529637649e-02
2.887999999999999901e+01,5.083066748547080543e-02
2.892000000000000171e+01,4.463395897875314933e-02
2.896000000000000085e+01,2.877637795080786529e-02
2.900000000000000000e+01,2.712749936793655905e-02
2.903999999999999915e+01,1.846991737817155893e-02
2.907999999999999829e+01,2.515767818081431767e-02
2.912000000000000099e+01,2.805722797852258990e-02
2.916000000000000014e+01,2.565303489033737838e-02
2.919999999999999929e+01,3.025876703418061558e-02
2.923999999999999844e+01,3.202348431058932993e-02
2.928000000000000114e+01,1.181363292222186410e-02
2.932000000000000028e+01,9.980163176512204387e-03
2.935999999999999943e+01,2.500754319250109853e-02
2.939999999999999858e+01,3.435227944709536019e-02
2.944000000000000128e+01,2.759510855320684505e-02
2.948000000000000043e+01,0.000000000000000000e+00
2.951999999999999957e+01,8.778161627791221389e-03
2.955999999999999872e+01,1.073702046310308876e-02
2.960000000000000142e+01,9.097072021853653753e-03
2.964000000000000057e+01,1.579310223021454865e-02
2.967999999999999972e+01,2.381578742684915123e-02
2.971999999999999886e+01,2.047257107416848923e-02
2.976000000000000156e+01,1.750879800246921830e-02
2.980000000000000071e+01,2.022881578229498295e-02
2.983999999999999986e+01,1.935000760180833126e-02
2.987999999999999901e+01,9.946901854298488901e-03
2.992000000000000171e+01,1.058472282156521470e-02
2.996000000000000085e+01,1.179141259589574706e-02
3.000000000000000000e+01,1.678746669320792598e-02
3.003999999999999915e+01,1.041759432953680287e-02
3.007999999999999829e+01,1.029981430730645547e-02
3.012000000000000099e+01,1.662356460843343597e-02
3.016000000000000014e+01,9.497527052075510970e-03
3.019999999999999929e+01,7.486925920032349094e-03
3.023999999999999844e+01,6.045171797343425017e-03
3.028000000000000114e+01,1.009773006280246382e-02
3.032000000000000028e+01,4.489309932444147423e-03
3.035999999999999943e+01,3.806872674691517706e-03
3.039999999999999858e+01,8.618738463211129963e-03
3.044000000000000128e+01,1.532552336241814299e-02
3.048000000000000043e+01,7.066966725471468536e-03
3.051999999999999957e+01,8.280966806298280594e-03
3.055999999999999872e+01,1.157931775181191524e-02
3.060000000000000142e+01,1.790922192742926133e-02
3.064000000000000057e+01,3.211657043056344654e-03
3.067999999999999972e+01,1.503633504938024779e-02
3.071999999999999886e+01,2.458820625943007945e-02
3.076000000000000156e+01,2.675235797061999848e-02
3.080000000000000071e+01,2.740146104111900252e-02
3.083999999999999986e+01,9.485813728211358459e-03
3.087999999999999901e+01,1.108307318882993837e-02
3.092000000000000171e+01,2.328950480288737371e-02
3.096000000000000085e+01,2.564546710191632425e-02
3.100000000000000000e+01,2.497083642346117557e-02
3.103999999999999915e+01,2.278113842056408642e-02
3.107999999999999829e+01,2.002357545864207056e-02
3.112000000000000099e+01,2.465467045048987810e-02
3.116000000000000014e+01,3.004398192652130845e-02
3.119999999999999929e+01,3.675983006040287049e-02
3.123999999999999844e+01,3.741400899904812061e-02
3.128000000000000114e+01,3.522701425837471145e-02
3.132000000000000028e+01,3.474542902542621797e-02
3.135999999999999943e+01,4.108415977487130805e-02
3.139999999999999858e+01,5.102270476287507767e-02
3.144000000000000128e+01,4.163868827459397959e-02
3.148000000000000043e+01,5.006256198758585879e-02
3.151999999999999957e+01,7.231605977451524558e-02
3.155999999999999872e+01,5.990225797740266617e-02
3.160000000000000142e+01,6.965348224481422712e-02
3.164000000000000057e+01,1.040324637091676330e-01
3.167999999999999972e+01,1.005236376177270907e-01
3.171999999999999886e+01,9.171086934704814064e-02
3.176000000000000156e+01,1.171873448210646734e-01
3.180000000000000071e+01,1.250462006560456030e-01
3.183999999999999986e+01,1.378309241471671054e-01
3.187999999999999901e+01,1.110228546498262525e-01
3.192000000000000171e+01,1.122524602774691710e-01
3.196000000000000085e+01,1.034420776452456003e-01
3.200000000000000000e+01,1.010730789803293422e-01
3.203999999999999915e+01,7.464544473287351711e-02
3.207999999999999829e+01,9.311573068744960491e-02
3.211999999999999744e+01,8.241246524294178200e-02
3.215999999999999659e+01,8.250771651503417681e-02
3.220000000000000284e+01,6.839525673425712882e-02
3.224000000000000199e+01,6.356577867516269298e-02
3.228000000000000114e+01,5.381119703316073616e-02
3.232000000000000028e+01,4.519362376229565242e-02
3.235999999999999943e+01,4.794287492586336158e-02
3.239999999999999858e+01,4.728254193164887348e-02
3.243999999999999773e+01,5.666293947282447646e-02
3.247999999999999687e+01,3.516478772641400130e-02
3.252000000000000313e+01,3.052723973897963558e-02
3.256000000000000227e+01,3.195214993168309092e-02
3.260000000000000142e+01,4.474386587506827551e-02
3.264000000000000057e+01,3.252969404716077317e-02
3.267999999999999972e+01,2.808294092039135062e-02
3.271999999999999886e+01,4.826386091368387726e-02
3.275999999999999801e+01,4.078670845155701191e-02
3.279999999999999716e+01,3.520429137656518048e-02
3.284000000000000341e+01,3.568431068400164385e-02
3.288000000000000256e+01,2.441930024765014140e-02
3.292000000000000171e+01,6.013599667482764227e-02
3.296000000000000085e+01,5.398652288616214573e-02
3.300000000000000000e+01,9.311377987023287950e-02
3.303999999999999915e+01,6.176925493340615358e-02
3.307999999999999829e+01,3.023559153137874919e-02
3.311999999999999744e+01,3.147553723245678087e-02
3.315999999999999659e+01,4.370336289704718907e-02
3.320000000000000284e+01,3.263022705780144889e-02
3.324000000000000199e+01,2.837726084489925957e-02
3.328000000000000114e+01,2.185128854237798277e-02
3.332000000000000028e+01,9.831808406402856720e-03
3.335999999999999943e+01,1.467286663627512082e-02
3.339999999999999858e+01,3.239619710465943547e-02
3.343999999999999773e+01,3.477507341221004744e-02
3.347999999999999687e+01,3.601757463559959738e-02
3.352000000000000313e+01,2.551499629186498169e-02
3.356000000000000227e+01,3.319902841531071486e-02
3.360000000000000142e+01,4.239885145497101354e-02
3.364000000000000057e+01,2.886600202487681760e-02
3.367999999999999972e+01,3.617192906233860500e-02
3.371999999999999886e+01,4.669860753701513684e-02
3.375999999999999801e+01,5.248950830819448105e-02
3.379999999999999716e+01,5.884897894642043825e-02
3.384000000000000341e+01,4.531737798322554855e-02
3.388000000000000256e+01,4.182639545291436112e-02
3.392000000000000171e+01,4.458720632402671247e-02
3.396000000000000085e+01,4.564328145585059421e-02
3.400000000000000000e+01,6.848531362293773517e-02
3.403999999999999915e+01,6.556358464668406161e-02
3.407999999999999829e+01,6.662034346551866382e-02
3.411999999999999744e+01,6.578291299335588260e-02
3.415999999999999659e+01,7.025005175949006198e-02
3.420000000000000284e+01,7.073914295208370839e-02
3.424000000000000199e+01,6.800794784067873411e-02
3.428000000000000114e+01,7.740119207719814431e-02
3.432000000000000028e+01,7.220767802929696499e-02
3.435999999999999943e+01,7.402368751277597914e-02
3.439999999999999858e+01,8.114424755080089369e-02
3.443999999999999773e+01,8.428674133153434000e-02
3.447999999999999687e+01,7.341078765963821029e-02
3.452000000000000313e+01,7.257540259728961773e-02
3.456000000000000227e+01,6.302591453889683226e-02
3.460000000000000142e+01,9.098594776402145479e-02
3.464000000000000057e+01,8.958279231480094362e-02
3.467999999999999972e+01,8.211769986991174219e-02
3.471999999999999886e+01,7.275837142464736118e-02
3.475999999999999801e+01,7.722841482268097413e-02
3.479999999999999716e+01,6.067066530903902910e-02
3.484000000000000341e+01,6.078389784890429748e-02
3.488000000000000256e+01,7.036934768506522553e-02
3.492000000000000171e+01,7.332451855418127551e-02
3.496000000000000085e+01,9.048792788855296310e-02
3.500000000000000000e+01,5.612351230556817533e-02
3.503999999999999915e+01,5.926858375255716904e-02
3.507999999999999829e+01,5.294174733854099812e-02
3.511999999999999744e+01,6.783245748132445130e-02
3.515999999999999659e+01,6.207422887855584825e-02
3.520000000000000284e+01,6.124160635941280212e-02
3.524000000000000199e+01,6.173520598831022665e-02
3.528000000000000114e+01,6.033452602141314153e-02
3.532000000000000028e+01,6.404888389214116740e-02
3.535999999999999943e+01,5.469193128252791691e-02
3.539999999999999858e+01,5.745933083000070996e-02
3.543999999999999773e+01,7.310884380410143102e-02
3.547999999999999687e+01,6.981436298385773620e-02
3.552000000000000313e+01,8.015975374582527679e-02
3.556000000000000227e+01,6.928785133503037597e-02
3.560000000000000142e+01,8.418004441453494358e-02
3.564000000000000057e+01,7.122449973773216370e-02
3.567999999999999972e+01,9.009515939131443329e-02
3.571999999999999886e+01,9.267398190905240529e-02
3.575999999999999801e+01,8.767525458724131915e-02
3.579999999999999716e+01,8.703376335205273429e-02
3.584000000000000341e+01,9.567497358228045645e-02
3.588000000000000256e+01,1.103783835340895331e-01
3.592000000000000171e+01,1.140942914647639084e-01
3.596000000000000085e+01,1.229251874097272018e-01
3.600000000000000000e+01,1.232313093520149561e-01
3.603999999999999915e+01,1.409660843125548069e-01
3.607999999999999829e+01,1.562381941105048799e-01
3.611999999999999744e+01,1.686687534401561384e-01
3.615999999999999659e+01,1.896242249400553470e-01
3.620000000000000284e+01,1.897412356356059648e-01
3.624000000000000199e+01,1.926999193972349922e-01
3.628000000000000114e+01,1.892176594131046163e-01
3.632000000000000028e+01,1.931236525681376270e-01
3.635999999999999943e+01,1.898309313659939934e-01
3.639999999999999858e+01,1.886221063905942907e-01
3.643999999999999773e+01,1.860872348022284961e-01
3.647999999999999687e+01,1.875306641714404032e-01
3.652000000000000313e+01,1.673778434411354044e-01
3.656000000000000227e+01,1.616225777136206798e-01
3.660000000000000142e+01,1.623083378481841310e-01
3.664000000000000057e+01,1.520065399103597559e-01
3.667999999999999972e+01,1.415153232510687475e-01
3.671999999999999886e+01,1.351918299614794650e-01
3.675999999999999801e+01,1.284894706266313524e-01
3.679999999999999716e+01,1.233026530913168967e-01
3.684000000000000341e+01,1.219046673920783225e-01
3.688000000000000256e+01,1.254321569902078493e-01
3.692000000000000171e+01,1.011118091853576290e-01
3.696000000000000085e+01,1.133535934610970519e-01
3.700000000000000000e+01,1.026730025986918454e-01
3.703999999999999915e+01,9.691787457782068127e-02
3.707999999999999829e+01,9.798261724327571309e-02
3.711999999999999744e+01,9.033305761934173894e-02
3.715999999999999659e+01,1.044692090279484842e-01
3.720000000000000284e+01,9.265191219461674232e-02
3.724000000000000199e+01,1.113346105761625071e-01
3.728000000000000114e+01,8.474086270859426673e-02
3.732000000000000028e+01,7.784896136310687220e-02
3.735999999999999943e+01,1.052458678081230753e-01
3.739999999999999858e+01,9.816446112702940929e-02
3.743999999999999773e+01,9.922898477776109782e-02
3.747999999999999687e+01,1.057872603041082465e-01
3.752000000000000313e+01,9.245417774485137352e-02
3.756000000000000227e+01,1.045061559001767837e-01
3.760000000000000142e+01,8.776303823585222819e-02
3.764000000000000057e+01,1.032248545096958181e-01
3.767999999999999972e+01,9.955306462560166436e-02
3.771999999999999886e+01,1.121731503982516809e-01
3.775999999999999801e+01,1.086906813190483129e-01
3.779999999999999716e+01,1.302143720789258885e-01
3.784000000000000341e+01,1.267317702529040524e-01
3.788000000000000256e+01,1.438981768329193056e-01
3.792000000000000171e+01,1.640955667886304092e-01
3.796000000000000085e+01,1.748208246783233277e-01
3.800000000000000000e+01,1.645180405396597101e-01
3.803999999999999915e+01,2.019543290613358411e-01
3.807999999999999829e+01,2.217725090524897413e-01
3.811999999999999744e+01,2.512520952051747747e-01
3.815999999999999659e+01,2.919086131724331068e-01
3.820000000000000284e+01,3.596551118938131619e-01
3.824000000000000199e+01,4.052369033278350186e-01
3.828000000000000114e+01,4.737409651788097587e-01
3.832000000000000028e+01,5.488753600875219130e-01
3.835999999999999943e+01,6.475003424728951185e-01
3.839999999999999858e+01,6.551934873124209968e-01
3.843999999999999773e+01,6.572032846359284752e-01
3.847999999999999687e+01,6.086321916070639437e-01
3.852000000000000313e+01,5.515361283961377481e-01
3.856000000000000227e+01,4.825051521634396989e-01
3.860000000000000142e+01,4.136634899310164815e-01
3.864000000000000057e+01,3.381912591334066964e-01
3.867999999999999972e+01,3.072375525429240084e-01
3.871999999999999886e+01,2.723054465015889991e-01
3.875999999999999801e+01,2.326371735119425743e-01
3.879999999999999716e+01,2.308569770319198744e-01
3.884000000000000341e+01,2.000921471036583299e-01
3.888000000000000256e+01,1.831563682809679849e-01
3.892000000000000171e+01,1.794813141622651764e-01
3.896000000000000085e+01,1.754272227305853360e-01
3.900000000000000000e+01,1.706152086802198709e-01
3.903999999999999915e+01,1.631508579384594593e-01
3.907999999999999829e+01,1.808820084849825094e-01
3.911999999999999744e+01,1.603458900876781890e-01
3.915999999999999659e+01,1.678468831888666746e-01
3.920000000000000284e+01,1.709905572799503004e-01
3.924000000000000199e+01,1.629570297954677505e-01
3.928000000000000114e+01,1.583332620038417071e-01
3.932000000000000028e+01,1.696223631188692738e-01
3.935999999999999943e+01,1.882994807122129743e-01
3.939999999999999858e+01,1.781813623577738204e-01
3.943999999999999773e+01,1.758301364454840088e-01
3.947999999999999687e+01,1.924228245180149566e-01
3.952000000000000313e+01,1.999221412718960034e-01
3.956000000000000227e+01,2.204926918105531986e-01
3.960000000000000142e+01,2.230661332965145349e-01
3.964000000000000057e+01,2.455306817908380901e-01
3.967999999999999972e+01,2.858024821249392500e-01
3.971999999999999886e+01,3.118659859819706837e-01
3.975999999999999801e+01,3.155752231253454165e-01
3.979999999999999716e+01,3.414488479717491254e-01
3.984000000000000341e+01,4.004744409679781292e-01
3.988000000000000256e+01,4.324097305117978740e-01
3.992000000000000171e+01,5.010963627991523728e-01
3.996000000000000085e+01,5.735715840338190263e-01
4.000000000000000000e+01,6.454782458967120995e-01
4.003999999999999915e+01,7.245834302047517994e-01
4.007999999999999829e+01,7.862597913802186200e-01
4.011999999999999744e+01,8.727526906892978387e-01
4.015999999999999659e+01,9.463633469388889052e-01
4.020000000000000284e+01,9.775389460585210966e-01
4.024000000000000199e+01,1.000000000000000000e+00
4.028000000000000114e+01,9.830570481176041930e-01
4.032000000000000028e+01,9.526635174322612976e-01
4.035999999999999943e+01,8.696050979838707562e-01
4.039999999999999858e+01,8.246240715826381740e-01
4.043999999999999773e+01,7.459222597779494590e-01
4.047999999999999687e+01,6.439189197289750810e-01
4.052000000000000313e+01,5.885178126996624126e-01
4.056000000000000227e+01,5.105729355816476245e-01
4.060000000000000142e+01,4.549818249833666450e-01
4.064000000000000057e+01,4.410674695701193859e-01
4.067999999999999972e+01,3.748670826739066153e-01
4.071999999999999886e+01,3.340515104895534493e-01
4.075999999999999801e+01,3.023288156578443076e-01
4.079999999999999716e+01,2.516617128753085852e-01
4.084000000000000341e+01,2.529011688852685347e-01
4.088000000000000256e+01,2.541403203039930836e-01
4.092000000000000171e+01,2.315095859372632570e-01
4.096000000000000085e+01,2.098257462307564492e-01
4.100000000000000000e+01,2.017813514941445285e-01
4.103999999999999915e+01,1.941155219022133449e-01
4.107999999999999829e+01,1.801978159853764305e-01
4.111999999999999744e+01,1.956431566541908529e-01
4.115999999999999659e+01,1.633490147735394138e-01
4.120000000000000284e+01,1.757626420165039616e-01
4.124000000000000199e+01,1.612753010283446697e-01
4.128000000000000114e+01,1.471665065011150686e-01
4.132000000000000028e+01,1.336256964167315819e-01
4.135999999999999943e+01,1.331559799889912299e-01
4.139999999999999858e+01,1.180989541061734510e-01
4.143999999999999773e+01,1.286161279798372081e-01
4.147999999999999687e+01,1.135584026097516963e-01
4.152000000000000313e+01,1.056990844683476649e-01
4.156000000000000227e+01,1.012493485241650060e-01
4.160000000000000142e+01,9.604148755399334603e-02
4.164000000000000057e+01,1.037152573468800854e-01
4.167999999999999972e+01,9.017125753135198096e-02
4.171999999999999886e+01,8.193123841596197665e-02
4.175999999999999801e+01,8.884613387225580305e-02
4.179999999999999716e+01,7.264883941950837920e-02
4.184000000000000341e+01,7.084868892702748944e-02
4.188000000000000256e+01,6.904815599434832585e-02
4.192000000000000171e+01,6.421617997351114493e-02
4.196000000000000085e+01,7.738071939269144939e-02
4.200000000000000000e+01,7.671566703091696471e-02
4.203999999999999915e+01,7.150363347210819676e-02
4.207999999999999829e+01,7.064834710843555243e-02
4.211999999999999744e+01,5.558457743018239278e-02
4.215999999999999659e+01,5.832786652627914431e-02
4.220000000000000284e+01,7.471050717351548909e-02
4.224000000000000199e+01,6.684427708291636183e-02
4.228000000000000114e+01,5.746210464553325875e-02
4.232000000000000028e+01,6.702362510191646472e-02
4.235999999999999943e+01,6.010335040946713364e-02
4.239999999999999858e+01,6.511744183548907883e-02
4.243999999999999773e+01,4.891370448788433939e-02
4.247999999999999687e+01,4.900147223596074131e-02
4.252000000000000313e+01,5.306707073387943036e-02
4.256000000000000227e+01,4.936514892342682564e-02
4.260000000000000142e+01,5.248266807302562342e-02
4.264000000000000057e+01,5.541030452133943046e-02
4.267999999999999972e+01,4.962320584003090257e-02
4.271999999999999886e+01,4.800336343464711719e-02
4.275999999999999801e+01,5.092965638297986680e-02
4.279999999999999716e+01,5.593934732469441756e-02
4.284000000000000341e+01,5.052932081807690046e-02
4.288000000000000256e+01,4.814989155629965933e-02
4.292000000000000171e+01,4.425447012440211769e-02
4.296000000000000085e+01,5.399834107843247410e-02
4.300000000000000000e+01,5.048086569017039976e-02
4.303999999999999915e+01,4.828900522803881296e-02
4.307999999999999829e+01,4.382337575645258582e-02
4.311999999999999744e+01,5.091317416033430687e-02
4.315999999999999659e+01,5.364534527221839766e-02
4.320000000000000284e+01,4.671553529364409069e-02
4.324000000000000199e+01,3.751194384978116803e-02
4.328000000000000114e+01,4.535755960592942337e-02
4.332000000000000028e+01,4.657224246374512544e-02
4.335999999999999943e+01,4.664978108964711739e-02
4.339999999999999858e+01,3.687588195942304026e-02
4.343999999999999773e+01,3.581576935487257307e-02
4.347999999999999687e+01,4.650049769603836064e-02
4.352000000000000313e+01,4.790210222682792646e-02
4.356000000000000227e+01,5.347089764041344090e-02
4.360000000000000142e+01,4.994600411158074682e-02
4.364000000000000057e+01,4.206344592324829518e-02
4.367999999999999972e+01,5.369279804171802478e-02
4.371999999999999886e+01,4.884024913676579538e-02
4.375999999999999801e+01,4.474493581906546086e-02
4.379999999999999716e+01,5.788823031579085066e-02
4.384000000000000341e+01,4.185706102358808384e-02
4.388000000000000256e+01,5.670425222089994083e-02
4.392000000000000171e+01,4.142976792199123959e-02
4.396000000000000085e+01,4.926655295380169552e-02
4.400000000000000000e+01,5.691334940973764162e-02
4.403999999999999915e+01,5.679251034083725863e-02
4.407999999999999829e+01,6.462764359077388665e-02
4.411999999999999744e+01,6.090631317045547971e-02
4.415999999999999659e+01,6.968753514205909549e-02
4.420000000000000284e+01,6.880669817424149570e-02
4.424000000000000199e+01,7.758679093230252954e-02
4.428000000000000114e+01,8.522966783740411334e-02
4.432000000000000028e+01,9.552414769308929798e-02
4.435999999999999943e+01,1.039236410843976527e-01
4.439999999999999858e+01,1.007666490077413629e-01
4.443999999999999773e+01,1.059444834160456761e-01
4.447999999999999687e+01,1.169944069489759209e-01
4.452000000000000313e+01,1.288015069039464278e-01
4.456000000000000227e+01,1.531111281112537692e-01
4.460000000000000142e+01,1.351747907490405687e-01
4.464000000000000057e+01,1.587254560801348025e-01
4.467999999999999972e+01,1.561326497631735089e-01
4.471999999999999886e+01,1.584647084077117074e-01
4.475999999999999801e+01,1.431781384906561094e-01
4.479999999999999716e+01,1.394468656628107539e-01
4.484000000000000341e+01,1.323050402360858024e-01
4.488000000000000256e+01,1.204265714253970609e-01
4.492000000000000171e+01,9.566548899415747154e-02
4.496000000000000085e+01,8.321745557979449981e-02
4.500000000000000000e+01,9.217564067035362296e-02
4.503999999999999915e+01,7.669529595010629586e-02
4.507999999999999829e+01,6.727643474098234100e-02
4.511999999999999744e+01,6.183520187439735250e-02
4.515999999999999659e+01,7.325358875589840779e-02
4.520000000000000284e+01,5.928622789138357496e-02
4.524000000000000199e+01,5.251698465740858163e-02
4.528000000000000114e+01,5.180920936476431093e-02
4.532000000000000028e+01,4.503866876348713161e-02
4.535999999999999943e+01,4.035132686224696119e-02
4.539999999999999858e+01,4.248320794396236166e-02
4.543999999999999773e+01,4.461442944317187131e-02
4.547999999999999687e+01,1.757105948115430041e-02
4.552000000000000313e+01,3.750841548573422002e-02
4.556000000000000227e+01,2.505067517129363000e-02
4.560000000000000142e+01,3.987178062452502447e-02
4.564000000000000057e+01,3.745307120082541630e-02
4.567999999999999972e+01,2.991877392224159479e-02
4.571999999999999886e+01,1.613223909956456106e-02
4.575999999999999801e+01,3.455000608147759666e-02
4.579999999999999716e+01,2.701365532037181688e-02
4.584000000000000341e+01,3.141140287730515707e-02
4.588000000000000256e+01,3.258795796831263220e-02
4.592000000000000171e+01,3.565822706806285464e-02
4.596000000000000085e+01,3.834891391209634126e-02
4.600000000000000000e+01,2.967243182569979237e-02
4.603999999999999915e+01,3.406667906280037850e-02
4.607999999999999829e+01,3.846021689405887400e-02
4.611999999999999744e+01,2.959216549426100032e-02
4.615999999999999659e+01,3.512092174721022364e-02
4.620000000000000284e+01,3.117690445868771115e-02
4.624000000000000199e+01,2.817937078786444602e-02
4.628000000000000114e+01,2.802272857953274840e-02
4.632000000000000028e+01,2.237156650123052135e-02
4.635999999999999943e+01,2.694949239663101473e-02
4.639999999999999858e+01,2.963227301577051748e-02
4.643999999999999773e+01,3.004102305294031883e-02
4.647999999999999687e+01,3.954220514668682629e-02
4.652000000000000313e+01,2.593082988428754843e-02
4.656000000000000227e+01,3.902990236693067161e-02
4.660000000000000142e+01,2.579591263563456305e-02
4.664000000000000057e+01,3.055807401120992639e-02
4.667999999999999972e+01,2.849959982006262937e-02
4.671999999999999886e+01,3.856459653574224877e-02
4.675999999999999801e+01,4.673441994953426298e-02
4.679999999999999716e+01,2.364569708684229749e-02
4.684000000000000341e+01,2.783572345910843501e-02
4.688000000000000256e+01,2.823615622886049489e-02
4.692000000000000171e+01,3.943395666452144399e-02
4.696000000000000085e+01,3.623345590074669026e-02
4.700000000000000000e+01,3.663155493171062899e-02
4.703999999999999915e+01,3.210340132907602700e-02
4.707999999999999829e+01,2.681669608813615213e-02
4.711999999999999744e+01,3.497951828556371268e-02
4.715999999999999659e+01,3.366949220651523772e-02
4.720000000000000284e+01,3.804190240703874543e-02
4.724000000000000199e+01,4.961227454017643618e-02
4.728000000000000114e+01,2.897685754995259905e-02
4.732000000000000028e+01,3.410462366018398445e-02
4.735999999999999943e+01,4.320984373127763345e-02
4.739999999999999858e+01,4.397884341739459468e-02
4.743999999999999773e+01,4.171597028907871041e-02
4.747999999999999687e+01,3.585289794474617181e-02
4.752000000000000313e+01,3.453559039306708378e-02
4.756000000000000227e+01,4.666777602621180465e-02
4.760000000000000142e+01,3.852893666445704468e-02
4.764000000000000057e+01,3.607249932873076576e-02
4.767999999999999972e+01,3.835125542569881724e-02
4.771999999999999886e+01,4.498631964965270347e-02
4.775999999999999801e+01,4.195904779187771549e-02
4.779999999999999716e+01,3.571043399816824226e-02
4.784000000000000341e+01,3.571252994831978361e-02
4.788000000000000256e+01,3.514545307687089171e-02
4.792000000000000171e+01,4.215516739249160899e-02
4.796000000000000085e+01,2.984103416696173849e-02
4.800000000000000000e+01,2.756642014696045889e-02
4.803999999999999915e+01,4.480337701228351982e-02
4.807999999999999829e+01,3.400218658432660468e-02
4.811999999999999744e+01,4.422808958077758396e-02
4.815999999999999659e+01,3.039410206940834636e-02
4.820000000000000284e+01,3.152508668652730800e-02
4.824000000000000199e+01,3.625457456567106329e-02
4.828000000000000114e+01,3.681547766200268801e-02
4.832000000000000028e+01,3.813326135431586994e-02
4.835999999999999943e+01,3.793462937815098024e-02
4.839999999999999858e+01,2.731584711342077698e-02
4.843999999999999773e+01,3.033593062230210968e-02
4.847999999999999687e+01,2.388306309407647529e-02
4.852000000000000313e+01,3.050073182392021645e-02
4.856000000000000227e+01,3.219202958974178019e-02
4.860000000000000142e+01,3.464018615383534366e-02
4.864000000000000057e+01,3.822408059399246688e-02
4.867999999999999972e+01,3.479774267362609197e-02
4.871999999999999886e+01,2.303508160765220525e-02
4.875999999999999801e+01,3.305722852625028046e-02
4.879999999999999716e+01,4.421510086507787762e-02
4.884000000000000341e+01,3.908011468966895302e-02
4.888000000000000256e+01,3.754358195294851819e-02
4.892000000000000171e+01,3.581667762345652761e-02
4.896000000000000085e+01,2.329069721822982220e-02
4.900000000000000000e+01,3.558056364782537923e-02
4.903999999999999915e+01,2.627320530888947736e-02
4.907999999999999829e+01,3.647733689235649335e-02
4.911999999999999744e+01,3.531405665662953192e-02
4.915999999999999659e+01,4.854735052676120710e-02
4.920000000000000284e+01,3.412129210452474748e-02
4.924000000000000199e+01,3.882782895710702731e-02
4.928000000000000114e+01,3.084085386353564023e-02
4.932000000000000028e+01,3.838708699523935702e-02
4.935999999999999943e+01,3.305036085699734200e-02
4.939999999999999858e+01,4.495180657898913829e-02
4.943999999999999773e+01,4.738022652886964003e-02
4.947999999999999687e+01,4.810270252355870746e-02
4.952000000000000313e+01,5.204469994185000059e-02
4.956000000000000227e+01,4.632422115027935022e-02
4.960000000000000142e+01,6.655618905940376140e-02
4.964000000000000057e+01,5.477162521748949603e-02
4.967999999999999972e+01,6.193018130097523166e-02
4.971999999999999886e+01,6.757221584139354309e-02
4.975999999999999801e+01,6.298343531453209909e-02
4.979999999999999716e+01,6.559241742694001120e-02
4.984000000000000341e+01,6.706375084615513738e-02
4.988000000000000256e+01,7.080737218397038790e-02
4.992000000000000171e+01,6.791954682029847923e-02
4.996000000000000085e+01,5.328536205255356151e-02
5.000000000000000000e+01,6.517191613354385293e-02
5.003999999999999915e+01,4.049532102290835656e-02
5.007999999999999829e+01,4.802269140934348202e-02
5.011999999999999744e+01,4.607698308637261930e-02
5.015999999999999659e+01,4.981348061004377964e-02
5.020000000000000284e+01,4.653962744276797514e-02
5.024000000000000199e+01,4.288585882621461648e-02
5.028000000000000114e+01,4.472484561855266660e-02
5.032000000000000028e+01,4.239508881619443587e-02
5.035999999999999943e+01,4.271646475668439136e-02
5.039999999999999858e+01,2.920759498493180270e-02
5.043999999999999773e+01,4.146166542487048773e-02
5.047999999999999687e+01,4.121157159577518159e-02
5.052000000000000313e+01,3.470886654756514395e-02
5.056000000000000227e+01,4.260262661666582712e-02
5.060000000000000142e+01,3.647668430785640931e-02
5.064000000000000057e+01,2.656085568443269235e-02
5.067999999999999972e+01,3.009427735706879728e-02
5.071999999999999886e+01,3.343718730880024942e-02
5.075999999999999801e+01,3.185355502879141931e-02
5.079999999999999716e+01,2.970052260821074222e-02
5.084000000000000341e+01,2.697808693309969655e-02
5.088000000000000256e+01,3.183221201212828311e-02
5.092000000000000171e+01,2.588710843145503385e-02
5.096000000000000085e+01,3.414899773263228161e-02
5.100000000000000000e+01,2.895947680393952395e-02
5.103999999999999915e+01,2.812600554367593667e-02
5.107999999999999829e+01,3.183802193375814826e-02
5.111999999999999744e+01,3.422284888810005893e-02
5.115999999999999659e+01,2.580842849898904931e-02
5.120000000000000284e+01,2.856992477397614708e-02
5.124000000000000199e+01,3.455080857234935771e-02
5.128000000000000114e+01,3.977281376677353070e-02
5.132000000000000028e+01,3.968935094228807220e-02
5.135999999999999943e+01,3.619482794368538564e-02
5.139999999999999858e+01,3.156253480750783463e-02
5.143999999999999773e+01,3.128626020017435255e-02
5.147999999999999687e+01,3.252438456960023844e-02
5.152000000000000313e+01,3.110920069257513271e-02
5.156000000000000227e+01,3.272393833139294189e-02
5.160000000000000142e+01,2.505492314021487421e-02
5.164000000000000057e+01,3.538166981109423792e-02
5.167999999999999972e+01,3.225695331480884359e-02
5.171999999999999886e+01,3.803481985065990806e-02
5.175999999999999801e+01,3.301339233368037751e-02
5.179999999999999716e+01,2.931689778591699269e-02
5.184000000000000341e+01,3.584906459954007724e-02
5.188000000000000256e+01,3.158192801845700892e-02
5.192000000000000171e+01,3.413350684509192795e-02
5.196000000000000085e+01,3.365286097998204662e-02
5.200000000000000000e+01,2.957166402154357346e-02
5.203999999999999915e+01,3.041476217019675049e-02
5.207999999999999829e+01,2.746786190172925690e-02
5.211999999999999744e+01,3.418127790931342613e-02
5.215999999999999659e+01,3.085313310798216968e-02
5.220000000000000284e+01,4.419461890216357797e-02
5.224000000000000199e+01,3.518086642763222638e-02
5.228000000000000114e+01,3.885847530731980498e-02
5.232000000000000028e+01,2.491686708725459470e-02
5.235999999999999943e+01,3.749581399237228441e-02
5.239999999999999858e+01,3.719156496669728806e-02
5.243999999999999773e+01,3.442337716940055414e-02
5.247999999999999687e+01,3.316951049990030792e-02
5.252000000000000313e+01,3.324052074836299220e-02
5.256000000000000227e+01,4.657119384096026354e-02
5.260000000000000142e+01,3.546274858459219637e-02
5.264000000000000057e+01,3.723507775269154635e-02
5.267999999999999972e+01,3.010245220566525742e-02
5.271999999999999886e+01,2.732574554081067600e-02
5.275999999999999801e+01,3.231489436992070197e-02
5.279999999999999716e+01,3.218790105953129449e-02
5.284000000000000341e+01,3.944787482343928287e-02
5.288000000000000256e+01,3.628734953542847586e-02
5.292000000000000171e+01,3.501999331342067756e-02
5.296000000000000085e+01,3.185698112595575227e-02
5.300000000000000000e+01,3.456539478995356018e-02
5.303999999999999915e+01,3.462038187707686121e-02
5.307999999999999829e+01,3.410579132799310131e-02
5.311999999999999744e+01,3.036944468649253881e-02
5.315999999999999659e+01,2.833680733136887536e-02
5.320000000000000284e+01,2.781843505278846704e-02
5.324000000000000199e+01,4.074911377692302938e-02
5.328000000000000114e+01,3.208223765292377710e-02
5.332000000000000028e+01,3.743272959134769096e-02
5.335999999999999943e+01,3.349933168560113861e-02
5.339999999999999858e+01,4.415161890198595479e-02
5.343999999999999773e+01,3.339577991027804088e-02
5.347999999999999687e+01,2.775356501903033721e-02
5.352000000000000313e+01,3.328708618228700539e-02
5.356000000000000227e+01,3.768266905420920854e-02
5.360000000000000142e+01,3.563595983633604386e-02
5.364000000000000057e+01,3.870286226308909672e-02
5.367999999999999972e+01,2.945479240000224014e-02
5.371999999999999886e+01,4.388555534938268221e-02
5.375999999999999801e+01,4.429636991813044183e-02
5.379999999999999716e+01,3.883320011491554063e-02
5.384000000000000341e+01,3.014821816803065976e-02
5.388000000000000256e+01,2.657682918202088074e-02
5.392000000000000171e+01,3.247617524805460759e-02
5.396000000000000085e+01,4.311022585529628026e-02
5.400000000000000000e+01,4.502866008265651865e-02
5.403999999999999915e+01,3.709482824092629610e-02
5.407999999999999829e+01,2.556028338002482372e-02
5.411999999999999744e+01,4.452441964350849213e-02
5.415999999999999659e+01,4.283813803114644436e-02
5.420000000000000284e+01,3.243622446911037516e-02
5.424000000000000199e+01,4.211372241645440495e-02
5.428000000000000114e+01,3.057246985845188392e-02
5.432000000000000028e+01,3.759509381491172447e-02
5.435999999999999943e+01,3.078716377723630590e-02
5.439999999999999858e+01,4.064869306735534316e-02
5.443999999999999773e+01,3.800574980654766732e-02
5.447999999999999687e+01,4.502293909823936596e-02
5.452000000000000313e+01,3.309465235133454003e-02
5.456000000000000227e+01,4.446625083201802275e-02
5.460000000000000142e+01,4.030230677193941125e-02
5.464000000000000057e+01,4.541960061677599580e-02
5.467999999999999972e+01,4.182122514443640388e-02
5.471999999999999886e+01,3.575873340483988472e-02
5.475999999999999801e+01,4.769176063853682729e-02
5.479999999999999716e+01,3.689046811842595225e-02
5.484000000000000341e+01,3.802257327568882295e-02
5.488000000000000256e+01,3.119675792948335344e-02
5.492000000000000171e+01,3.857762718323561740e-02
5.496000000000000085e+01,3.269621902110013412e-02
5.500000000000000000e+01,3.628546183412830611e-02
5.503999999999999915e+01,4.404100182385933815e-02
5.507999999999999829e+01,3.948146053520251025e-02
5.511999999999999744e+01,4.268759101695804303e-02
5.515999999999999659e+01,4.665006960778943224e-02
5.520000000000000284e+01,3.450863566085575485e-02
5.524000000000000199e+01,3.922603674446287214e-02
5.528000000000000114e+01,3.712213276026699038e-02
5.532000000000000028e+01,3.804785757981382632e-02
5.535999999999999943e+01,3.613053411701735301e-02
5.539999999999999858e+01,3.800059761354693255e-02
5.543999999999999773e+01,4.346860385956898692e-02
5.547999999999999687e+01,3.794758535874360322e-02
5.552000000000000313e+01,5.023258557012487413e-02
5.556000000000000227e+01,4.338258768411315525e-02
5.560000000000000142e+01,4.069884337938509122e-02
5.564000000000000057e+01,4.218134954198216047e-02
5.567999999999999972e+01,4.101022360644293596e-02
5.571999999999999886e+01,3.756434465055900201e-02
5.575999999999999801e+01,4.529402736750268166e-02
5.579999999999999716e+01,4.714957001455812730e-02
5.584000000000000341e+01,4.786699687464383152e-02
5.588000000000000256e+01,5.009848017605245118e-02
5.592000000000000171e+01,5.839060310582743635e-02
5.596000000000000085e+01,5.152595981200105285e-02
5.600000000000000000e+01,4.560704032999678831e-02
5.603999999999999915e+01,4.745372099735911675e-02
5.607999999999999829e+01,5.081444253625181512e-02
5.611999999999999744e+01,5.000596895646384349e-02
5.615999999999999659e+01,6.188855467691901924e-02
5.620000000000000284e+01,5.444665138077003225e-02
5.624000000000000199e+01,4.795045321269202770e-02
5.628000000000000114e+01,5.395586390710659791e-02
5.632000000000000028e+01,5.692871048829845071e-02
5.635999999999999943e+01,6.236278162268647091e-02
5.639999999999999858e+01,6.571148789531018608e-02
5.643999999999999773e+01,5.977606454895791066e-02
5.647999999999999687e+01,6.501614682418006830e-02
5.652000000000000313e+01,6.949694256688794536e-02
5.656000000000000227e+01,7.151347880024730430e-02
5.660000000000000142e+01,6.519307843817201409e-02
5.664000000000000057e+01,7.213202329646302424e-02
5.667999999999999972e+01,7.054458423552732727e-02
5.671999999999999886e+01,6.762951978465953085e-02
5.675999999999999801e+01,7.475329258240608066e-02
5.679999999999999716e+01,7.676061184480184596e-02
5.684000000000000341e+01,7.573532651251425885e-02
5.688000000000000256e+01,6.732028826645787556e-02
5.692000000000000171e+01,7.159625015543290283e-02
5.696000000000000085e+01,7.568121454597528941e-02
5.700000000000000000e+01,6.820871257162151868e-02
5.703999999999999915e+01,6.054520687091800163e-02
5.707999999999999829e+01,6.727765871228766348e-02
5.711999999999999744e+01,6.491536909326171834e-02
5.715999999999999659e+01,7.107635681626435498e-02
5.720000000000000284e+01,5.791277767369987922e-02
5.724000000000000199e+01,6.388117101425151712e-02
5.728000000000000114e+01,6.416475016432500456e-02
5.732000000000000028e+01,5.705854214708607625e-02
5.735999999999999943e+01,5.752839042270770087e-02
5.739999999999999858e+01,5.401838502885136784e-02
5.743999999999999773e+01,6.073660504218973688e-02
5.747999999999999687e+01,6.120167200763210885e-02
5.752000000000000313e+01,6.867445952247576424e-02
5.756000000000000227e+01,5.890650420075164290e-02
5.760000000000000142e+01,6.391334813139012971e-02
5.764000000000000057e+01,6.778193614692584745e-02
5.767999999999999972e+01,6.520791444889788291e-02
5.771999999999999886e+01,5.278134019759635892e-02
5.775999999999999801e+01,5.702396370157417765e-02
5.779999999999999716e+01,6.126496540986563211e-02
5.784000000000000341e+01,6.323104905801124609e-02
5.788000000000000256e+01,7.447811838043248700e-02
5.792000000000000171e+01,6.071733190978095829e-02
5.796000000000000085e+01,6.665678515861754583e-02
5.800000000000000000e+01,7.903559830172807166e-02
5.803999999999999915e+01,7.208977918614269120e-02
5.807999999999999829e+01,6.722616853178725593e-02
5.811999999999999744e+01,8.300999062046141019e-02
5.815999999999999659e+01,7.321761494468639886e-02
5.820000000000000284e+01,6.967514249751763367e-02
5.824000000000000199e+01,7.276145235674670586e-02
5.828000000000000114e+01,7.830883729916336689e-02
5.832000000000000028e+01,7.608747503355460517e-02
5.835999999999999943e+01,7.481165285621571570e-02
5.839999999999999858e+01,8.243789367994162898e-02
5.843999999999999773e+01,7.831711494038985644e-02
5.847999999999999687e+01,7.059528064623046828e-02
5.852000000000000313e+01,6.571338494325769386e-02
5.856000000000000227e+01,6.310310142988777293e-02
5.860000000000000142e+01,6.712157219728916158e-02
5.864000000000000057e+01,6.431847632437243112e-02
5.867999999999999972e+01,6.606027644968404111e-02
5.871999999999999886e+01,7.310473384276579278e-02
5.875999999999999801e+01,6.480276593927515594e-02
5.879999999999999716e+01,5.858295044576127680e-02
5.884000000000000341e+01,6.240181027501903038e-02
5.888000000000000256e+01,5.826243820495717596e-02
5.892000000000000171e+01,5.336359276487021019e-02
5.896000000000000085e+01,4.543197769029867772e-02
5.900000000000000000e+01,4.848623096204018879e-02
5.903999999999999915e+01,4.926547275488044747e-02
5.907999999999999829e+01,4.720137666723572129e-02
5.911999999999999744e+01,5.271319985827700727e-02
5.915999999999999659e+01,4.837235839353817846e-02
5.920000000000000284e+01,4.118816970643877223e-02
5.924000000000000199e+01,4.176933205202494614e-02
5.928000000000000114e+01,5.201025327508899954e-02
5.932000000000000028e+01,4.349476588040999958e-02
5.935999999999999943e+01,4.444959003941679337e-02
5.939999999999999858e+01,4.199272811864519089e-02
5.943999999999999773e+01,3.006206193613407407e-02
5.947999999999999687e+01,3.404269522518599961e-02
5.952000000000000313e+01,3.612716185958466525e-02
5.956000000000000227e+01,3.479992995837091763e-02
5.960000000000000142e+01,4.275354983121677777e-02
5.964000000000000057e+01,4.653770055703286557e-02
5.967999999999999972e+01,3.270206121472981481e-02
5.971999999999999886e+01,4.254478759111704478e-02
5.975999999999999801e+01,3.836709849309472703e-02
5.979999999999999716e+01,3.020936888808366250e-02
5.984000000000000341e+01,2.773309155175451846e-02
5.988000000000000256e+01,3.700037843815145999e-02
5.992000000000000171e+01,3.092114972317918861e-02
5.996000000000000085e+01,3.734324338651630326e-02
