2.003999999999999915e+01,4.719465512692228894e-03
2.007999999999999829e+01,3.942650618446560257e-03
2.012000000000000099e+01,6.692302103076041425e-03
2.016000000000000014e+01,1.089434713729614057e-03
2.019999999999999929e+01,4.890656778893082146e-03
2.023999999999999844e+01,6.155113330513419835e-03
2.028000000000000114e+01,3.336061554326264118e-03
2.032000000000000028e+01,5.528349650660403271e-03
2.035999999999999943e+01,4.008347841921215682e-03
2.039999999999999858e+01,5.457985435593691592e-03
2.044000000000000128e+01,3.752160692530363394e-03
2.048000000000000043e+01,2.603056590562322428e-03
2.051999999999999957e+01,4.485461803498219831e-03
2.055999999999999872e+01,4.016711174604050034e-03
2.060000000000000142e+01,4.847117966509782543e-03
2.064000000000000057e+01,3.883196484922977858e-03
2.067999999999999972e+01,1.929253093221965868e-03
2.071999999999999886e+01,3.501777066852413984e-03
2.076000000000000156e+01,6.930286161147727886e-03
2.080000000000000071e+01,7.141463795379531139e-03
2.083999999999999986e+01,6.919447219362055874e-03
2.087999999999999901e+01,4.284405612423105095e-03
2.092000000000000171e+01,2.329824800382506236e-03
2.096000000000000085e+01,5.386584913082638829e-03
2.100000000000000000e+01,4.792925888129935877e-03
2.103999999999999915e+01,7.168907317808299179e-03
2.107999999999999829e+01,6.203818317366897352e-03
2.112000000000000099e+01,4.001229269407605843e-03
2.116000000000000014e+01,3.097798562940193724e-03
2.119999999999999929e+01,5.040269143756462462e-03
2.123999999999999844e+01,4.569715285524631951e-03
2.128000000000000114e+01,3.727837655645498734e-03
2.132000000000000028e+01,4.123248915111974409e-03
2.135999999999999943e+01,1.981896502419256290e-03
2.139999999999999858e+01,4.047579440253479439e-03
2.144000000000000128e+01,5.308850863087383187e-03
2.148000000000000043e+01,2.548485646226281761e-03
2.151999999999999957e+01,3.562067970775382748e-03
2.155999999999999872e+01,3.647499547213062417e-03
2.160000000000000142e+01,3.114129017308640834e-03
2.164000000000000057e+01,6.664054802111194289e-03
2.167999999999999972e+01,1.861464211958664336e-03
2.171999999999999886e+01,5.658659277722528046e-03
2.176000000000000156e+01,4.258693575316023147e-03
2.180000000000000071e+01,4.343496412224160698e-03
2.183999999999999986e+01,4.923152410992687883e-03
2.187999999999999901e+01,5.317094770172966708e-03
2.192000000000000171e+01,6.020281277137685787e-03
2.196000000000000085e+01,4.619793104806751462e-03
2.200000000000000000e+01,5.322770952620276171e-03
2.203999999999999915e+01,5.654426278297009292e-03
2.207999999999999829e+01,5.429150001997312680e-03
2.212000000000000099e+01,4.275723898278163161e-03
2.216000000000000014e+01,5.782591514568415775e-03
2.219999999999999929e+01,5.928221428558766611e-03
2.223999999999999844e+01,2.794652534778114920e-03
2.228000000000000114e+01,6.961606198382238979e-03
2.232000000000000028e+01,4.137178273675391413e-03
2.235999999999999943e+01,4.282392973802117385e-03
2.239999999999999858e+01,7.954077801336251197e-03
2.244000000000000128e+01,5.686166396269635472e-03
2.248000000000000043e+01,6.697246389333354200e-03
2.251999999999999957e+01,5.295304047787779619e-03
2.255999999999999872e+01,5.563740640670756209e-03
2.260000000000000142e+01,3.295415600069620619e-03
2.264000000000000057e+01,4.986649087866020132e-03
2.267999999999999972e+01,4.636078795314712599e-03
2.271999999999999886e+01,3.048011085794014897e-03
2.276000000000000156e+01,3.068452924319310052e-03
2.280000000000000071e+01,3.893098079039700350e-03
2.283999999999999986e+01,3.975203735690823435e-03
2.287999999999999901e+01,4.923382555265590904e-03
2.292000000000000171e+01,1.849927102639004842e-03
2.296000000000000085e+01,3.416597571731982887e-03
2.300000000000000000e+01,4.797556242620656768e-03
2.303999999999999915e+01,4.260451155437293413e-03
2.307999999999999829e+01,4.775028705599502175e-03
2.312000000000000099e+01,5.660722091658645060e-03
2.316000000000000014e+01,3.576566758517787416e-03
2.319999999999999929e+01,4.957013152857448618e-03
2.323999999999999844e+01,3.491350389926777334e-03
2.328000000000000114e+01,4.500374042786080796e-03
2.332000000000000028e+01,4.643119556338419149e-03
2.335999999999999943e+01,3.424629274738516874e-03
2.339999999999999858e+01,4.804565036621966101e-03
2.344000000000000128e+01,2.472215957237928943e-03
2.348000000000000043e+01,3.604469065680395053e-03
2.351999999999999957e+01,5.664666104467011055e-03
2.355999999999999872e+01,5.249972803299740413e-03
2.360000000000000142e+01,4.402089829579371866e-03
2.364000000000000057e+01,4.605890413896535605e-03
2.367999999999999972e+01,4.747719748394740348e-03
2.371999999999999886e+01,2.724007581999535015e-03
2.376000000000000156e+01,7.567732399838577803e-03
2.380000000000000071e+01,2.821550024176843613e-03
2.383999999999999986e+01,3.272322453846473241e-03
2.387999999999999901e+01,4.403560544929191120e-03
2.392000000000000171e+01,2.998039172730297599e-03
2.396000000000000085e+01,3.757856758298868532e-03
2.400000000000000000e+01,4.517573335359304117e-03
2.403999999999999915e+01,3.421097513641626307e-03
2.407999999999999829e+01,3.747524264569072720e-03
2.412000000000000099e+01,1.042234159424499599e-03
2.416000000000000014e+01,4.647554259341193407e-03
2.419999999999999929e+01,5.159287919512151564e-03
2.423999999999999844e+01,5.856530111360630335e-03
2.428000000000000114e+01,3.769534570996423053e-03
2.432000000000000028e+01,1.929917409038267194e-03
2.435999999999999943e+01,3.245555305702682147e-03
2.439999999999999858e+01,2.705001395462380571e-03
2.444000000000000128e+01,4.082308371349600146e-03
2.448000000000000043e+01,5.397645412692109179e-03
2.451999999999999957e+01,3.681266255599719654e-03
2.455999999999999872e+01,3.264051029914756454e-03
2.460000000000000142e+01,4.702827238211031331e-03
2.464000000000000057e+01,2.986148014961298360e-03
2.467999999999999972e+01,5.909597541270765128e-03
2.471999999999999886e+01,5.058894615550414003e-03
2.476000000000000156e+01,3.032567342011125485e-03
2.480000000000000071e+01,1.934186103254798656e-03
2.483999999999999986e+01,1.454402389039527411e-03
2.487999999999999901e+01,5.738487183604273727e-03
2.492000000000000171e+01,5.196634696538670814e-03
2.496000000000000085e+01,4.283464488087283979e-03
2.500000000000000000e+01,3.493934345622820917e-03
2.503999999999999915e+01,3.570480917322483606e-03
2.507999999999999829e+01,3.399449395329738263e-03
2.512000000000000099e+01,5.331889023050988448e-03
2.516000000000000014e+01,6.274314106193800734e-03
2.519999999999999929e+01,5.174939552102776619e-03
2.523999999999999844e+01,4.384814604184319661e-03
2.528000000000000114e+01,4.955724486621228449e-03
2.532000000000000028e+01,2.989877207506473535e-03
2.535999999999999943e+01,3.251240903090227459e-03
2.539999999999999858e+01,5.492336778331722430e-03
2.544000000000000128e+01,5.382284834916053161e-03
2.548000000000000043e+01,3.972870297026009564e-03
2.551999999999999957e+01,3.429533262464626656e-03
2.555999999999999872e+01,4.247231518604606924e-03
2.560000000000000142e+01,4.817352535980450566e-03
2.564000000000000057e+01,4.706808373948006934e-03
2.567999999999999972e+01,7.194694003930525786e-03
2.571999999999999886e+01,3.557379648333344746e-03
2.576000000000000156e+01,3.817759235502126910e-03
2.580000000000000071e+01,4.139910488730959466e-03
2.583999999999999986e+01,2.234654011341988961e-03
2.587999999999999901e+01,1.628563635562945344e-03
2.592000000000000171e+01,2.445378857559799002e-03
2.596000000000000085e+01,3.076487147867050780e-03
2.600000000000000000e+01,3.398149141846164636e-03
2.603999999999999915e+01,5.637674652501298289e-03
2.607999999999999829e+01,6.330359694333257368e-03
2.612000000000000099e+01,5.228725472301258906e-03
2.616000000000000014e+01,4.065124077800469880e-03
2.619999999999999929e+01,5.438083615041772526e-03
2.623999999999999844e+01,3.903069212090051580e-03
2.628000000000000114e+01,7.193795334849399301e-03
2.632000000000000028e+01,5.163628756099334152e-03
2.635999999999999943e+01,2.638407327291172194e-03
2.639999999999999858e+01,4.010880893468382266e-03
2.644000000000000128e+01,2.166032272265497501e-03
2.648000000000000043e+01,3.971399916770925256e-03
2.651999999999999957e+01,2.992533511831533665e-03
2.655999999999999872e+01,4.179010339300919322e-03
2.660000000000000142e+01,2.952471540059657933e-03
2.664000000000000057e+01,5.685497845587165686e-03
2.667999999999999972e+01,3.840068623892143110e-03
2.671999999999999886e+01,4.716810334470846085e-03
2.676000000000000156e+01,3.551754972600509094e-03
2.680000000000000071e+01,5.851307256944782327e-03
2.683999999999999986e+01,4.686059150741609530e-03
2.687999999999999901e+01,3.458845055816467656e-03
2.692000000000000171e+01,3.345189626754400264e-03
2.696000000000000085e+01,2.303392327682066403e-03
2.700000000000000000e+01,4.788072718844044173e-03
2.703999999999999915e+01,3.684213617874872778e-03
2.707999999999999829e+01,2.023431135393318099e-03
2.712000000000000099e+01,1.971165369202380457e-03
2.716000000000000014e+01,3.465546669864660173e-03
2.719999999999999929e+01,1.309519026249535189e-03
2.723999999999999844e+01,1.380705448227402760e-03
2.728000000000000114e+01,3.864715147165342316e-03
2.732000000000000028e+01,4.863756131156317906e-03
2.735999999999999943e+01,2.892955301137084892e-03
2.739999999999999858e+01,4.324893388587031269e-03
2.744000000000000128e+01,3.591296091168795935e-03
2.748000000000000043e+01,2.981342937087653674e-03
2.751999999999999957e+01,4.907952884951089986e-03
2.755999999999999872e+01,2.194239037192569509e-03
2.760000000000000142e+01,3.935049594140872277e-03
2.764000000000000057e+01,5.366416551073253591e-03
2.767999999999999972e+01,5.189075954529835839e-03
2.771999999999999886e+01,3.774246161481074804e-03
2.776000000000000156e+01,4.710370719355797334e-03
2.780000000000000071e+01,3.914048490643619316e-03
2.783999999999999986e+01,5.468680744382350967e-03
2.787999999999999901e+01,3.682253747832413965e-03
2.792000000000000171e+01,3.937432789255204853e-03
2.796000000000000085e+01,3.821299041570644719e-03
2.800000000000000000e+01,3.519461716145806055e-03
2.803999999999999915e+01,3.217530024347775661e-03
2.807999999999999829e+01,3.039243462342515901e-03
2.812000000000000099e+01,6.325566716754381889e-03
2.816000000000000014e+01,3.053605990765150945e-03
2.819999999999999929e+01,2.751297491111480246e-03
2.823999999999999844e+01,3.500680112322275116e-03
2.828000000000000114e+01,2.579486451311826644e-03
2.832000000000000028e+01,2.648114327492148007e-03
2.835999999999999943e+01,3.892172952230311695e-03
2.839999999999999858e+01,4.393701220055216093e-03
2.844000000000000128e+01,2.667826031903623284e-03
2.848000000000000043e+01,3.602254954427972465e-03
2.851999999999999957e+01,5.031548021352662964e-03
2.855999999999999872e+01,4.790265266402094976e-03
2.860000000000000142e+01,4.858237641775918492e-03
2.864000000000000057e+01,2.884416035595178170e-03
2.867999999999999972e+01,2.642853140892089357e-03
2.871999999999999886e+01,3.700461017022507910e-03
2.876000000000000156e+01,3.458711691302969893e-03
2.880000000000000071e+01,9.276897862792153355e-04
2.883999999999999986e+01,4.459806919866588469e-03
2.887999999999999901e+01,2.361686984816513922e-03
2.892000000000000171e+01,3.975657042262313937e-03
2.896000000000000085e+01,2.124830194637410651e-03
2.900000000000000000e+01,3.614875179829062698e-03
2.903999999999999915e+01,1.887602252281925328e-03
2.907999999999999829e+01,1.088282396234959868e-03
2.912000000000000099e+01,2.639919127077723030e-03
2.916000000000000014e+01,3.387157035316629844e-03
2.919999999999999929e+01,3.206256756313157711e-03
2.923999999999999844e+01,3.149003514250110856e-03
2.928000000000000114e+01,3.957833957304683452e-03
2.932000000000000028e+01,3.281698973597899343e-03
2.935999999999999943e+01,2.667341508921546988e-03
2.939999999999999858e+01,7.536278946146407086e-04
2.944000000000000128e+01,1.190871393307150767e-03
2.948000000000000043e+01,2.061110899527982595e-03
2.951999999999999957e+01,3.983043631052064250e-03
2.955999999999999872e+01,5.657405634419532432e-03
2.960000000000000142e+01,3.866971784935693997e-03
2.964000000000000057e+01,4.303755946867581991e-03
2.967999999999999972e+01,2.822487267503676154e-03
2.971999999999999886e+01,2.145433281457091116e-03
2.976000000000000156e+01,2.396333484893797914e-03
2.980000000000000071e+01,4.255754810789846333e-03
2.983999999999999986e+01,4.877690425657303305e-03
2.987999999999999901e+01,5.004576977673341753e-03
2.992000000000000171e+01,3.708368804584838072e-03
2.996000000000000085e+01,3.092636288993690693e-03
3.000000000000000000e+01,5.075340667898426902e-03
3.003999999999999915e+01,5.016253366978520520e-03
3.007999999999999829e+01,2.667895591193188143e-03
3.012000000000000099e+01,4.588457217625209299e-03
3.016000000000000014e+01,5.333403374339454849e-03
3.019999999999999929e+01,4.407776405490637130e-03
3.023999999999999844e+01,2.863361535261579448e-03
3.028000000000000114e+01,2.679989715851926590e-03
3.032000000000000028e+01,3.857661013025395942e-03
3.035999999999999943e+01,5.097111473322111196e-03
3.039999999999999858e+01,4.171031415265347674e-03
3.044000000000000128e+01,2.193075778239032738e-03
3.048000000000000043e+01,3.865342983292250918e-03
3.051999999999999957e+01,2.877122145674142640e-03
3.055999999999999872e+01,5.044166560054001540e-03
3.060000000000000142e+01,3.313328759267491694e-03
3.064000000000000057e+01,3.995319759592890971e-03
3.067999999999999972e+01,3.687305290732150690e-03
3.071999999999999886e+01,2.018067127242227296e-03
3.076000000000000156e+01,2.514179101350857894e-03
3.080000000000000071e+01,3.567028683592557859e-03
3.083999999999999986e+01,5.114746224529913635e-03
3.087999999999999901e+01,1.341578561021065062e-03
3.092000000000000171e+01,2.579768197417276615e-03
3.096000000000000085e+01,5.055262572213759485e-03
3.100000000000000000e+01,1.681713382181097415e-04
3.103999999999999915e+01,1.591701620642250970e-03
3.107999999999999829e+01,2.767663673930837419e-03
3.112000000000000099e+01,4.314754715858824113e-03
3.116000000000000014e+01,1.697427224798522458e-04
3.119999999999999929e+01,2.459091938977757148e-03
3.123999999999999844e+01,4.253394328590475761e-03
3.128000000000000114e+01,2.397294481824436153e-03
3.132000000000000028e+01,3.139633699756788719e-03
3.135999999999999943e+01,4.067493155307432863e-03
3.139999999999999858e+01,4.376566616625491256e-03
3.144000000000000128e+01,2.829459845452203352e-03
3.148000000000000043e+01,3.014616389216437636e-03
3.151999999999999957e+01,2.828465996843708766e-03
3.155999999999999872e+01,3.075315031712334921e-03
3.160000000000000142e+01,4.311990996396134791e-03
3.164000000000000057e+01,3.011920190194798674e-03
3.167999999999999972e+01,3.196634166945048344e-03
3.171999999999999886e+01,2.948171821175776114e-03
3.176000000000000156e+01,3.565797237874278325e-03
3.180000000000000071e+01,1.275457855535765735e-03
3.183999999999999986e+01,1.645428108025012975e-03
3.187999999999999901e+01,2.015310307457461158e-03
3.192000000000000171e+01,2.508843949999046193e-03
3.196000000000000085e+01,3.064159386212375775e-03
3.200000000000000000e+01,1.948904656229704258e-03
3.203999999999999915e+01,4.483875333111326730e-03
3.207999999999999829e+01,1.512353632854760268e-03
3.211999999999999744e+01,3.490321490213487213e-03
3.215999999999999659e+01,3.673980014028827880e-03
3.220000000000000284e+01,3.671941865293694516e-03
3.224000000000000199e+01,2.556161381754942698e-03
3.228000000000000114e+01,3.048906098025701804e-03
3.232000000000000028e+01,2.118560035014653304e-03
3.235999999999999943e+01,6.312992713012255050e-04
3.239999999999999858e+01,3.289222227934509007e-03
3.243999999999999773e+01,2.729832861744543523e-03
3.247999999999999687e+01,3.902708454584899629e-03
3.252000000000000313e+01,4.642409040179982724e-03
3.256000000000000227e+01,2.474146076248577315e-03
3.260000000000000142e+01,1.914408838236383989e-03
3.264000000000000057e+01,3.581894543918350861e-03
3.267999999999999972e+01,1.846459175755967019e-03
3.271999999999999886e+01,3.390032041234271494e-03
3.275999999999999801e+01,5.304736591664157772e-03
3.279999999999999716e+01,1.774819663903800171e-03
3.284000000000000341e+01,3.256263192706689274e-03
3.288000000000000256e+01,3.623965438925362027e-03
3.292000000000000171e+01,3.991581341943739071e-03
3.296000000000000085e+01,3.307325809106449657e-03
3.300000000000000000e+01,5.283381818244580787e-03
3.303999999999999915e+01,3.485299054205060441e-03
3.307999999999999829e+01,3.048263944444801286e-03
3.311999999999999744e+01,2.116185098693824408e-03
3.315999999999999659e+01,3.658808912369752604e-03
3.320000000000000284e+01,2.231600513537477549e-03
3.324000000000000199e+01,0.000000000000000000e+00
3.328000000000000114e+01,2.965369812029983437e-03
3.332000000000000028e+01,4.383911058468726273e-03
3.335999999999999943e+01,4.503102665884425870e-03
3.339999999999999858e+01,4.312860143258760715e-03
3.343999999999999773e+01,4.741229284372304800e-03
3.347999999999999687e+01,4.303336990161802864e-03
3.352000000000000313e+01,4.607795921620175608e-03
3.356000000000000227e+01,4.355342125287538918e-03
3.360000000000000142e+01,3.236627090921994493e-03
3.364000000000000057e+01,3.478960631527700052e-03
3.367999999999999972e+01,3.411860502438026146e-03
3.371999999999999886e+01,2.849717623813320319e-03
3.375999999999999801e+01,1.668792631015053466e-03
3.379999999999999716e+01,3.519398786673195306e-03
3.384000000000000341e+01,2.462043497243645695e-03
3.388000000000000256e+01,3.384434329378844912e-03
3.392000000000000171e+01,2.017560999964997364e-03
3.396000000000000085e+01,3.558479651660166609e-03
3.400000000000000000e+01,4.975574305373034120e-03
3.403999999999999915e+01,3.175359266811150858e-03
3.407999999999999829e+01,3.354890678632567371e-03
3.411999999999999744e+01,3.039379998556086815e-03
3.415999999999999659e+01,2.290697007546522394e-03
3.420000000000000284e+01,3.398021233809167974e-03
3.424000000000000199e+01,3.144127552649309161e-03
3.428000000000000114e+01,4.560632074685710968e-03
3.432000000000000028e+01,4.120961099218050684e-03
3.435999999999999943e+01,1.268287255199941795e-03
3.439999999999999858e+01,3.488846147730991810e-03
3.443999999999999773e+01,3.420141733641267334e-03
3.447999999999999687e+01,2.299568382716935065e-03
3.452000000000000313e+01,3.406221066381232617e-03
3.456000000000000227e+01,4.203441527151834806e-03
3.460000000000000142e+01,4.567490400390197131e-03
3.464000000000000057e+01,2.332927719820726727e-03
3.467999999999999972e+01,8.407181720677878167e-04
3.471999999999999886e+01,2.503780715738883680e-03
3.475999999999999801e+01,2.681886776513496811e-03
3.479999999999999716e+01,3.911694743401398014e-03
3.484000000000000341e+01,2.542891485300023072e-03
3.488000000000000256e+01,3.834402860068551744e-03
3.492000000000000171e+01,3.455348869392086113e-03
3.496000000000000085e+01,2.828733028660155354e-03
3.500000000000000000e+01,2.944470846854460068e-03
3.503999999999999915e+01,2.874516661721850195e-03
3.507999999999999829e+01,2.866349399830534373e-03
3.511999999999999744e+01,4.590451437374555577e-03
3.515999999999999659e+01,4.829597649659219359e-03
3.520000000000000284e+01,2.965090950437010431e-03
3.524000000000000199e+01,3.575290330354743192e-03
3.528000000000000114e+01,4.432886107935700773e-03
3.532000000000000028e+01,3.743656608111031302e-03
3.535999999999999943e+01,3.673041928683748979e-03
3.539999999999999858e+01,5.272827293836667567e-03
3.543999999999999773e+01,4.459611566059363055e-03
3.547999999999999687e+01,4.203141140769465177e-03
3.552000000000000313e+01,2.647324627696984612e-03
3.556000000000000227e+01,1.029556396628110177e-03
3.560000000000000142e+01,3.680716577405156783e-03
3.564000000000000057e+01,3.300178842059318506e-03
3.567999999999999972e+01,1.805904427589123500e-03
3.571999999999999886e+01,4.085600900647004888e-03
3.575999999999999801e+01,4.199775667688859272e-03
3.579999999999999716e+01,4.994435693730064907e-03
3.584000000000000341e+01,5.294056455712989155e-03
3.588000000000000256e+01,4.356201436987871753e-03
3.592000000000000171e+01,4.470050165759978378e-03
3.596000000000000085e+01,3.098944384546969966e-03
3.600000000000000000e+01,4.140676216783322448e-03
3.603999999999999915e+01,4.996717689785573624e-03
3.607999999999999829e+01,6.038287160524176238e-03
3.611999999999999744e+01,3.615071497896572145e-03
3.615999999999999659e+01,5.027697161399009851e-03
3.620000000000000284e+01,4.831629279096362820e-03
3.624000000000000199e+01,4.573610796780421678e-03
3.628000000000000114e+01,4.562990356220516033e-03
3.632000000000000028e+01,5.170986314387096897e-03
3.635999999999999943e+01,5.840771300233762141e-03
3.639999999999999858e+01,3.788208195473691860e-03
3.643999999999999773e+01,4.334092573167183313e-03
3.647999999999999687e+01,4.756157030228534525e-03
3.652000000000000313e+01,5.054401632421452045e-03
3.656000000000000227e+01,5.847523597520881168e-03
3.660000000000000142e+01,3.856428085631011249e-03
3.664000000000000057e+01,4.030692378605402020e-03
3.667999999999999972e+01,4.761703946978571023e-03
3.671999999999999886e+01,6.173202286916464575e-03
3.675999999999999801e+01,6.161617147344622923e-03
3.679999999999999716e+01,5.098166885233480598e-03
3.684000000000000341e+01,6.509425332810785982e-03
3.688000000000000256e+01,6.250121637364989755e-03
3.692000000000000171e+01,5.062692447073283489e-03
3.696000000000000085e+01,7.092408746174632198e-03
3.700000000000000000e+01,7.080344808337281359e-03
3.703999999999999915e+01,7.872507598576605758e-03
3.707999999999999829e+01,6.684759998605778117e-03
3.711999999999999744e+01,1.069398903751878765e-02
3.715999999999999659e+01,9.877300918497417329e-03
3.720000000000000284e+01,7.328181467361514524e-03
3.724000000000000199e+01,6.944422807545560378e-03
3.728000000000000114e+01,8.045458137600913426e-03
3.732000000000000028e+01,8.218368630447475676e-03
3.735999999999999943e+01,1.117533726391635278e-02
3.739999999999999858e+01,1.079126229886006802e-02
3.743999999999999773e+01,1.139702386512095496e-02
3.747999999999999687e+01,1.336384031966945940e-02
3.752000000000000313e+01,1.526870827864346483e-02
3.756000000000000227e+01,1.667853980139882147e-02
3.760000000000000142e+01,1.753146523849811664e-02
3.764000000000000057e+01,2.116844927656570674e-02
3.767999999999999972e+01,2.381543935409680471e-02
3.771999999999999886e+01,2.275016806800569599e-02
3.775999999999999801e+01,3.090340596109083030e-02
3.779999999999999716e+01,3.484942490047220065e-02
3.784000000000000341e+01,4.782834400495387245e-02
3.788000000000000256e+01,5.827052659768951898e-02
3.792000000000000171e+01,7.681756375903606160e-02
3.796000000000000085e+01,1.120074762525121587e-01
3.800000000000000000e+01,1.764616860449106372e-01
3.803999999999999915e+01,3.124372086843623664e-01
3.807999999999999829e+01,5.612630139909812188e-01
3.811999999999999744e+01,8.261748674559742378e-01
3.815999999999999659e+01,9.982820703911290394e-01
3.820000000000000284e+01,1.000000000000000000e+00
3.824000000000000199e+01,8.476622611614482716e-01
3.828000000000000114e+01,6.324029444324911209e-01
3.832000000000000028e+01,4.237636097649553624e-01
3.835999999999999943e+01,2.500187170715174600e-01
3.839999999999999858e+01,1.523116270266881567e-01
3.843999999999999773e+01,1.030484467165302814e-01
3.847999999999999687e+01,7.265545234067068148e-02
3.852000000000000313e+01,5.680176390079440946e-02
3.856000000000000227e+01,4.583570589129001838e-02
3.860000000000000142e+01,3.734435948507740938e-02
3.864000000000000057e+01,3.287446762794837829e-02
3.867999999999999972e+01,2.642466801115767386e-02
3.871999999999999886e+01,2.461502022698919268e-02
3.875999999999999801e+01,2.385708085954151014e-02
3.879999999999999716e+01,1.876818475208063067e-02
3.884000000000000341e+01,1.553530349048256980e-02
3.888000000000000256e+01,1.749940176137169262e-02
3.892000000000000171e+01,1.735985323677918454e-02
3.896000000000000085e+01,1.270373908962494670e-02
3.900000000000000000e+01,1.343021381785240720e-02
3.903999999999999915e+01,1.347604539751520031e-02
3.907999999999999829e+01,1.086140300794110475e-02
3.911999999999999744e+01,1.171138851980501466e-02
3.915999999999999659e+01,1.051959734597068992e-02
3.920000000000000284e+01,9.327730153838902777e-03
3.924000000000000199e+01,1.135301219963177378e-02
3.928000000000000114e+01,6.696289116933307022e-03
3.932000000000000028e+01,8.597680024547567010e-03
3.935999999999999943e+01,8.209815714477661577e-03
3.939999999999999858e+01,9.059270018951319156e-03
3.943999999999999773e+01,9.042472686894068717e-03
3.947999999999999687e+01,6.488941473639293391e-03
3.952000000000000313e+01,8.080605686672003365e-03
3.956000000000000227e+01,8.620409314861571595e-03
3.960000000000000142e+01,6.499739828742512153e-03
3.964000000000000057e+01,5.863868212553777041e-03
3.967999999999999972e+01,4.423615069617527554e-03
3.971999999999999886e+01,5.210596510552512224e-03
3.975999999999999801e+01,5.997502853882007677e-03
3.979999999999999716e+01,5.856288437352882500e-03
3.984000000000000341e+01,7.385481365176012856e-03
3.988000000000000256e+01,6.811029075846609070e-03
3.992000000000000171e+01,5.370325939150839140e-03
3.996000000000000085e+01,5.352551483293976550e-03
4.000000000000000000e+01,6.448357198034114328e-03
4.003999999999999915e+01,7.296609414710258229e-03
4.007999999999999829e+01,5.979347027851298832e-03
4.011999999999999744e+01,4.352661559254648524e-03
4.015999999999999659e+01,6.314345132354776298e-03
4.020000000000000284e+01,5.306208001596338271e-03
4.024000000000000199e+01,4.669214853603696931e-03
4.028000000000000114e+01,5.207672051755166988e-03
4.032000000000000028e+01,4.075572762562798025e-03
4.035999999999999943e+01,5.046969679058808424e-03
4.039999999999999858e+01,5.894553119766481747e-03
4.043999999999999773e+01,3.710446535996746176e-03
4.047999999999999687e+01,3.567966640005404248e-03
4.052000000000000313e+01,5.405243782355042409e-03
4.056000000000000227e+01,6.190661983954350370e-03
4.060000000000000142e+01,3.635041848125479882e-03
4.064000000000000057e+01,3.801615530342205423e-03
4.067999999999999972e+01,3.968115627518827189e-03
4.071999999999999886e+01,4.876978787832527210e-03
4.075999999999999801e+01,5.414550203426812466e-03
4.079999999999999716e+01,3.972217344836192696e-03
4.084000000000000341e+01,4.014684329087266253e-03
4.088000000000000256e+01,3.067162613898826752e-03
4.092000000000000171e+01,4.965574607504216580e-03
4.096000000000000085e+01,5.131561450784041800e-03
4.100000000000000000e+01,5.483084380736828398e-03
4.103999999999999915e+01,5.648925171919548863e-03
4.107999999999999829e+01,3.772992434062227320e-03
4.111999999999999744e+01,4.433645157811682939e-03
4.115999999999999659e+01,4.599267364076591556e-03
4.120000000000000284e+01,6.559038581062226654e-03
4.124000000000000199e+01,3.383550772006511595e-03
4.128000000000000114e+01,2.620909257210171824e-03
4.132000000000000028e+01,3.899895811230191540e-03
4.135999999999999943e+01,4.869461322187594587e-03
4.139999999999999858e+01,3.302296108605666698e-03
4.143999999999999773e+01,4.209847167539091176e-03
4.147999999999999687e+01,5.426674532712273853e-03
4.152000000000000313e+01,4.354250231441749060e-03
4.156000000000000227e+01,6.004021260782206604e-03
4.160000000000000142e+01,4.189016166385050102e-03
4.164000000000000057e+01,5.034336818925178904e-03
4.167999999999999972e+01,6.127064391322494148e-03
4.171999999999999886e+01,4.930540626094672384e-03
4.175999999999999801e+01,3.300857045039115156e-03
4.179999999999999716e+01,4.702717765182429926e-03
4.184000000000000341e+01,5.238330794617570771e-03
4.188000000000000256e+01,4.474608192700390077e-03
4.192000000000000171e+01,4.267641481228287223e-03
4.196000000000000085e+01,4.679300441166111407e-03
4.200000000000000000e+01,4.286581688651727902e-03
4.203999999999999915e+01,3.151355004649981136e-03
4.207999999999999829e+01,4.181497069377373803e-03
4.211999999999999744e+01,4.469131334144818904e-03
4.215999999999999659e+01,5.251652168738501353e-03
4.220000000000000284e+01,4.487359037285066320e-03
4.224000000000000199e+01,4.094213176783044993e-03
4.228000000000000114e+01,4.134084368197271826e-03
4.232000000000000028e+01,5.658757835710549744e-03
4.235999999999999943e+01,4.213614150605731086e-03
4.239999999999999858e+01,3.572706005915032498e-03
4.243999999999999773e+01,3.426684891396555247e-03
4.247999999999999687e+01,5.012945176836475572e-03
4.252000000000000313e+01,5.547349743947958822e-03
4.256000000000000227e+01,3.916243784874507208e-03
4.260000000000000142e+01,6.368468600693267222e-03
4.264000000000000057e+01,5.170309857027557097e-03
4.267999999999999972e+01,3.662732240501738023e-03
4.271999999999999886e+01,2.897520975298619860e-03
4.275999999999999801e+01,5.906292172036948541e-03
4.279999999999999716e+01,6.007116654759135643e-03
4.284000000000000341e+01,3.014385343625521334e-03
4.288000000000000256e+01,5.527988717355939580e-03
4.292000000000000171e+01,5.504863865568091624e-03
4.296000000000000085e+01,5.791017753277350952e-03
4.300000000000000000e+01,6.015232155040697859e-03
4.303999999999999915e+01,6.734334573431951902e-03
4.307999999999999829e+01,4.731099883756413431e-03
4.311999999999999744e+01,7.491763691113703834e-03
4.315999999999999659e+01,5.859608211501308311e-03
4.320000000000000284e+01,5.959735315594132284e-03
4.324000000000000199e+01,5.317356461110953753e-03
4.328000000000000114e+01,6.036042030653680258e-03
4.332000000000000028e+01,6.754658355561311486e-03
4.335999999999999943e+01,6.730768919184084570e-03
4.339999999999999858e+01,6.149982932889081107e-03
4.343999999999999773e+01,6.868391918473703076e-03
4.347999999999999687e+01,8.885995941701663528e-03
4.352000000000000313e+01,8.181263580263678503e-03
4.356000000000000227e+01,8.651986957594209188e-03
4.360000000000000142e+01,9.988817563451360751e-03
4.364000000000000057e+01,9.902576001157278873e-03
4.367999999999999972e+01,1.235292410934756002e-02
4.371999999999999886e+01,1.245215445289719544e-02
4.375999999999999801e+01,1.415992887044177292e-02
4.379999999999999716e+01,1.166049419883942451e-02
4.384000000000000341e+01,1.627600838565941219e-02
4.388000000000000256e+01,1.625122560845203637e-02
4.392000000000000171e+01,1.746376887708771600e-02
4.396000000000000085e+01,1.910933195971555032e-02
4.400000000000000000e+01,2.341522466933970703e-02
4.403999999999999915e+01,2.734983102686884202e-02
4.407999999999999829e+01,3.388289742772059021e-02
4.411999999999999744e+01,3.583753697432837809e-02
4.415999999999999659e+01,5.028979112796590212e-02
4.420000000000000284e+01,6.604124150299357787e-02
4.424000000000000199e+01,9.063999341971214208e-02
4.428000000000000114e+01,1.248903532414999407e-01
4.432000000000000028e+01,1.657607049892655948e-01
4.435999999999999943e+01,1.988972748021123060e-01
4.439999999999999858e+01,2.247950204674127594e-01
4.443999999999999773e+01,2.279865132506498637e-01
4.447999999999999687e+01,2.106990629648277658e-01
4.452000000000000313e+01,1.774491588853921997e-01
4.456000000000000227e+01,1.407963532639348592e-01
4.460000000000000142e+01,1.017924313246385271e-01
4.464000000000000057e+01,7.392499104711176827e-02
4.467999999999999972e+01,5.719403249711830367e-02
4.471999999999999886e+01,4.225722874505222909e-02
4.475999999999999801e+01,3.270302333834242126e-02
4.479999999999999716e+01,2.945946207076942727e-02
4.484000000000000341e+01,2.306047858232512793e-02
4.488000000000000256e+01,1.876499873086869691e-02
4.492000000000000171e+01,1.910968090540990025e-02
4.496000000000000085e+01,1.400976159392938215e-02
4.500000000000000000e+01,1.361187415517504072e-02
4.503999999999999915e+01,1.302831115402186025e-02
4.507999999999999829e+01,1.027924176979762294e-02
4.511999999999999744e+01,1.080920100596486320e-02
4.515999999999999659e+01,1.059665744021430142e-02
4.520000000000000284e+01,8.280477403884939011e-03
4.524000000000000199e+01,8.748368463629214303e-03
4.528000000000000114e+01,9.649281507568151575e-03
4.532000000000000028e+01,6.899815398191348932e-03
4.535999999999999943e+01,6.810681151777074269e-03
4.539999999999999858e+01,6.412132504435129159e-03
4.543999999999999773e+01,5.827908952331467725e-03
4.547999999999999687e+01,5.924186574045536488e-03
4.552000000000000313e+01,6.206007713732057327e-03
4.556000000000000227e+01,4.507932405115426533e-03
4.560000000000000142e+01,5.903277360451460523e-03
4.564000000000000057e+01,6.679859733436482351e-03
4.567999999999999972e+01,5.476545855409499508e-03
4.571999999999999886e+01,5.324951836989247518e-03
4.575999999999999801e+01,4.987683439916981883e-03
4.579999999999999716e+01,5.330916742772138714e-03
4.584000000000000341e+01,4.498560355284736065e-03
4.588000000000000256e+01,3.728008647240950175e-03
4.592000000000000171e+01,4.504134849231450702e-03
4.596000000000000085e+01,3.980932127768279857e-03
4.600000000000000000e+01,3.705143428643231304e-03
4.603999999999999915e+01,2.624983659200919982e-03
4.607999999999999829e+01,5.999378677300531287e-03
4.611999999999999744e+01,4.486001553336183174e-03
4.615999999999999659e+01,3.776866151574911727e-03
4.620000000000000284e+01,5.233106272205145966e-03
4.624000000000000199e+01,4.400102486509721751e-03
4.628000000000000114e+01,2.144030873068082568e-03
4.632000000000000028e+01,4.651863017756253070e-03
4.635999999999999943e+01,4.808581738208785039e-03
4.639999999999999858e+01,3.418493397803990582e-03
4.643999999999999773e+01,2.523298663942643693e-03
4.647999999999999687e+01,3.051043330405308826e-03
4.652000000000000313e+01,3.516854298128743294e-03
4.656000000000000227e+01,2.807076759256430659e-03
4.660000000000000142e+01,2.715932520384669278e-03
4.664000000000000057e+01,3.490900508081655213e-03
4.667999999999999972e+01,3.956456199289764934e-03
4.671999999999999886e+01,3.184553931755865295e-03
4.675999999999999801e+01,4.887376683311048936e-03
4.679999999999999716e+01,3.125431860411218964e-03
4.684000000000000341e+01,4.704388200943623172e-03
4.688000000000000256e+01,3.437274250559659537e-03
4.692000000000000171e+01,3.221882132693807028e-03
4.696000000000000085e+01,2.758947893886182397e-03
4.700000000000000000e+01,3.533344764727459203e-03
4.703999999999999915e+01,3.070284202936423255e-03
4.707999999999999829e+01,3.102118299908230691e-03
4.711999999999999744e+01,3.814456267009971348e-03
4.715999999999999659e+01,3.598685574776145420e-03
4.720000000000000284e+01,4.249028029803042159e-03
4.724000000000000199e+01,3.166955659407205866e-03
4.728000000000000114e+01,2.517908561391653342e-03
4.732000000000000028e+01,3.044323383933572689e-03
4.735999999999999943e+01,3.137587597567478848e-03
4.739999999999999858e+01,2.921440698459331579e-03
4.743999999999999773e+01,2.643361613177333883e-03
4.747999999999999687e+01,3.602614426708774728e-03
4.752000000000000313e+01,3.448150027174701378e-03
4.756000000000000227e+01,2.489317056344436500e-03
4.760000000000000142e+01,3.448383048831109472e-03
4.764000000000000057e+01,3.293732025543401765e-03
4.767999999999999972e+01,3.324628071468603650e-03
4.771999999999999886e+01,2.551155809152470984e-03
4.775999999999999801e+01,2.891276475593518476e-03
4.779999999999999716e+01,2.241419819717285940e-03
4.784000000000000341e+01,2.705156224125660532e-03
4.788000000000000256e+01,2.302654868146411429e-03
4.792000000000000171e+01,3.013746703979210302e-03
4.796000000000000085e+01,2.611122050147312527e-03
4.800000000000000000e+01,3.074611858850390209e-03
4.803999999999999915e+01,5.084783063064504845e-03
4.807999999999999829e+01,2.021576202033187677e-03
4.811999999999999744e+01,2.423012039275149101e-03
4.815999999999999659e+01,2.886256304492321786e-03
4.820000000000000284e+01,2.730742196236074677e-03
4.824000000000000199e+01,2.575166932281346133e-03
4.828000000000000114e+01,2.790748869598581091e-03
4.832000000000000028e+01,2.263833200331283931e-03
4.835999999999999943e+01,3.469208598288087142e-03
4.839999999999999858e+01,3.313389369176553394e-03
4.843999999999999773e+01,3.404988173989591249e-03
4.847999999999999687e+01,3.310917072083045289e-03
4.852000000000000313e+01,1.236954388388067979e-03
4.856000000000000227e+01,3.865029430389666908e-03
4.860000000000000142e+01,2.657121566096555618e-03
4.864000000000000057e+01,3.305244659775779300e-03
4.867999999999999972e+01,3.520219314749497511e-03
4.871999999999999886e+01,2.992697020775800677e-03
4.875999999999999801e+01,3.145681293244239219e-03
4.879999999999999716e+01,4.535999634728624455e-03
4.884000000000000341e+01,2.585293186109569388e-03
4.888000000000000256e+01,2.552487805246242501e-03
4.892000000000000171e+01,3.695146975488883528e-03
4.896000000000000085e+01,3.476612439355155574e-03
4.900000000000000000e+01,4.124194009849202480e-03
4.903999999999999915e+01,3.658060866298797325e-03
4.907999999999999829e+01,2.820649656881124307e-03
4.911999999999999744e+01,2.663745605779004131e-03
4.915999999999999659e+01,2.568651626744901991e-03
4.920000000000000284e+01,2.659107215944777215e-03
4.924000000000000199e+01,4.358115888768190199e-03
4.928000000000000114e+01,2.901709640492353311e-03
4.932000000000000028e+01,3.548814328976456281e-03
4.935999999999999943e+01,3.267813975129170174e-03
4.939999999999999858e+01,3.234233233535555897e-03
4.943999999999999773e+01,2.829375017948085151e-03
4.947999999999999687e+01,3.661851989359679940e-03
4.952000000000000313e+01,3.999312187902601991e-03
4.956000000000000227e+01,3.037449381725960962e-03
4.960000000000000142e+01,2.013657940615929624e-03
4.964000000000000057e+01,3.402726538381154343e-03
4.967999999999999972e+01,3.430602613516826362e-03
4.971999999999999886e+01,3.025331959803512737e-03
4.975999999999999801e+01,1.568217490993690372e-03
4.979999999999999716e+01,3.080790760924069765e-03
4.984000000000000341e+01,3.541520347285371292e-03
4.988000000000000256e+01,1.960490872623326958e-03
4.992000000000000171e+01,2.916061327584769814e-03
4.996000000000000085e+01,1.953612283452545693e-03
5.000000000000000000e+01,3.651502730873464660e-03
5.003999999999999915e+01,3.369504095527021785e-03
5.007999999999999829e+01,2.221271316797132720e-03
5.011999999999999744e+01,4.970772530934007734e-03
5.015999999999999659e+01,2.708768814739607664e-03
5.020000000000000284e+01,3.725802070928156857e-03
5.024000000000000199e+01,3.752862016385870997e-03
5.028000000000000114e+01,4.646040172910150326e-03
5.032000000000000028e+01,3.064371985404062797e-03
5.035999999999999943e+01,3.029389007704322376e-03
5.039999999999999858e+01,2.932478710345437934e-03
5.043999999999999773e+01,3.639817171906857291e-03
5.047999999999999687e+01,2.985964426112965898e-03
5.052000000000000313e+01,2.332054273152198848e-03
5.056000000000000227e+01,4.029135956430941919e-03
5.060000000000000142e+01,2.570804888812940666e-03
5.064000000000000057e+01,3.525335504163003113e-03
5.067999999999999972e+01,2.871196380171826216e-03
5.071999999999999886e+01,2.031391032228971674e-03
5.075999999999999801e+01,3.728186994947553685e-03
5.079999999999999716e+01,2.702658541995814692e-03
5.084000000000000341e+01,4.584949822439692360e-03
5.088000000000000256e+01,3.744916818740673826e-03
5.092000000000000171e+01,2.595478489506281884e-03
5.096000000000000085e+01,2.745247495729430300e-03
5.100000000000000000e+01,3.018699314352491208e-03
5.103999999999999915e+01,2.116569991915591767e-03
5.107999999999999829e+01,2.204299626221758752e-03
5.111999999999999744e+01,1.982624263811104577e-03
5.115999999999999659e+01,4.297550869699018339e-03
5.120000000000000284e+01,3.457065711145878781e-03
5.124000000000000199e+01,3.668309487591771018e-03
5.128000000000000114e+01,2.642102802358859380e-03
5.132000000000000028e+01,2.605755468451276431e-03
5.135999999999999943e+01,1.950654956403542317e-03
5.139999999999999858e+01,2.285413927208564296e-03
5.143999999999999773e+01,2.125159281803101850e-03
5.147999999999999687e+01,3.325982541984569968e-03
5.152000000000000313e+01,3.660574026276233132e-03
5.156000000000000227e+01,2.262757787626088705e-03
5.160000000000000142e+01,3.772762531882083766e-03
5.164000000000000057e+01,3.179141393516953309e-03
5.167999999999999972e+01,3.327901337546073420e-03
5.171999999999999886e+01,3.724084708124181589e-03
5.175999999999999801e+01,2.511600114981284160e-03
5.179999999999999716e+01,4.021327687959714257e-03
5.184000000000000341e+01,3.798647998342328126e-03
5.188000000000000256e+01,3.514043422323147488e-03
5.192000000000000171e+01,2.920035164861401519e-03
5.196000000000000085e+01,4.058323893357865080e-03
5.200000000000000000e+01,3.278596476709991735e-03
5.203999999999999915e+01,2.684423297519666907e-03
5.207999999999999829e+01,4.812462744796655763e-03
5.211999999999999744e+01,2.300218775371030543e-03
5.215999999999999659e+01,2.572057279141260443e-03
5.220000000000000284e+01,3.276929144228389254e-03
5.224000000000000199e+01,2.311264119557942913e-03
5.228000000000000114e+01,3.016026891754283474e-03
5.232000000000000028e+01,3.287647209742927332e-03
5.235999999999999943e+01,3.435473715293210165e-03
5.239999999999999858e+01,2.840809322157617119e-03
5.243999999999999773e+01,2.617308969720067314e-03
5.247999999999999687e+01,3.816757882163367577e-03
5.252000000000000313e+01,2.912582358787226856e-03
5.256000000000000227e+01,3.431356231819354067e-03
5.260000000000000142e+01,2.465202952570683895e-03
5.264000000000000057e+01,3.973784359676812809e-03
5.267999999999999972e+01,3.749959885225076592e-03
5.271999999999999886e+01,2.845514753398277301e-03
5.275999999999999801e+01,3.302149631597197602e-03
5.279999999999999716e+01,3.944339996764209197e-03
5.284000000000000341e+01,3.039733889031572076e-03
5.288000000000000256e+01,4.238644571029263550e-03
5.292000000000000171e+01,5.066283500476077666e-03
5.296000000000000085e+01,2.243555837476190768e-03
5.300000000000000000e+01,3.256697187129219476e-03
5.303999999999999915e+01,4.022306411924753654e-03
5.307999999999999829e+01,2.251204115184938549e-03
5.311999999999999744e+01,2.583619002757729481e-03
5.315999999999999659e+01,3.720287121183257512e-03
5.320000000000000284e+01,3.124550212979172303e-03
5.324000000000000199e+01,4.013633534367599606e-03
5.328000000000000114e+01,3.417790821458339262e-03
5.332000000000000028e+01,4.183029039266770825e-03
5.335999999999999943e+01,2.968383632695949237e-03
5.339999999999999858e+01,2.805470712364623899e-03
5.343999999999999773e+01,4.003638920042130490e-03
5.347999999999999687e+01,3.778751137441626988e-03
5.352000000000000313e+01,4.110638316762774656e-03
5.356000000000000227e+01,2.091423909316499942e-03
5.360000000000000142e+01,3.289382348967587449e-03
5.364000000000000057e+01,3.435503352602260665e-03
5.367999999999999972e+01,2.962874992392092004e-03
5.371999999999999886e+01,4.222546511743480689e-03
5.375999999999999801e+01,3.316725918749369954e-03
5.379999999999999716e+01,3.091420178425135883e-03
5.384000000000000341e+01,3.979717362942366068e-03
5.388000000000000256e+01,3.383089499617585733e-03
5.392000000000000171e+01,4.085673838265055195e-03
5.396000000000000085e+01,3.798290982206937484e-03
5.400000000000000000e+01,4.005814162033885344e-03
5.403999999999999915e+01,3.594588569889406188e-03
5.407999999999999829e+01,3.740138860358544447e-03
5.411999999999999744e+01,2.153285636763467483e-03
5.415999999999999659e+01,4.278563902566711458e-03
5.420000000000000284e+01,3.000956475402829886e-03
5.424000000000000199e+01,3.517519497929891964e-03
5.428000000000000114e+01,4.281510155883513219e-03
5.432000000000000028e+01,3.065618767786978515e-03
5.435999999999999943e+01,3.829507172275892126e-03
5.439999999999999858e+01,4.098386827069024248e-03
5.443999999999999773e+01,2.944212069913249106e-03
5.447999999999999687e+01,2.532422998611586536e-03
5.452000000000000313e+01,3.914804837346848136e-03
5.456000000000000227e+01,3.997871891826580530e-03
5.460000000000000142e+01,4.266497392641454244e-03
5.464000000000000057e+01,3.173938525527109523e-03
5.467999999999999972e+01,2.514417097079820005e-03
5.471999999999999886e+01,3.525327477085764098e-03
5.475999999999999801e+01,5.031145142487320442e-03
5.479999999999999716e+01,4.495211835802142598e-03
5.484000000000000341e+01,4.516055661241118006e-03
5.488000000000000256e+01,2.742627506925291326e-03
5.492000000000000171e+01,3.753286363501465248e-03
5.496000000000000085e+01,3.897719099867102445e-03
5.500000000000000000e+01,3.856492648998264411e-03
5.503999999999999915e+01,4.990740811083380600e-03
5.507999999999999829e+01,3.031453303008655419e-03
5.511999999999999744e+01,3.051946837029903981e-03
5.515999999999999659e+01,3.443608883681637759e-03
5.520000000000000284e+01,3.711481787118582100e-03
5.524000000000000199e+01,3.298738176294337913e-03
5.528000000000000114e+01,3.813990712201829805e-03
5.532000000000000028e+01,3.648626865375555368e-03
5.535999999999999943e+01,2.802646701579233294e-03
5.539999999999999858e+01,3.379620603414759412e-03
5.543999999999999773e+01,3.956545187020025015e-03
5.547999999999999687e+01,4.657159948560973817e-03
5.552000000000000313e+01,3.439764352164260530e-03
5.556000000000000227e+01,2.902886502040776927e-03
5.560000000000000142e+01,3.479614470362082847e-03
5.564000000000000057e+01,3.561335727662694531e-03
5.567999999999999972e+01,3.457398915711953728e-03
5.571999999999999886e+01,2.672846378664565838e-03
5.575999999999999801e+01,3.434987929524685544e-03
5.579999999999999716e+01,3.702123032418958449e-03
5.584000000000000341e+01,3.969209474720095283e-03
5.588000000000000256e+01,3.741289600582804915e-03
5.592000000000000171e+01,4.626976071000011084e-03
5.596000000000000085e+01,4.337089489293874216e-03
5.600000000000000000e+01,4.047154510049434835e-03
5.603999999999999915e+01,3.262213477421426529e-03
5.607999999999999829e+01,3.529009337201644697e-03
5.611999999999999744e+01,3.424538705527956344e-03
5.615999999999999659e+01,3.443759369773069599e-03
5.620000000000000284e+01,3.524801680499577410e-03
5.624000000000000199e+01,3.482056557867806938e-03
5.628000000000000114e+01,2.882436061233616207e-03
5.632000000000000028e+01,3.087073990785432504e-03
5.635999999999999943e+01,4.529058418694825207e-03
5.639999999999999858e+01,3.929294505065981068e-03
5.643999999999999773e+01,5.371183518936733722e-03
5.647999999999999687e+01,4.028887740383202756e-03
5.652000000000000313e+01,4.790114736057815223e-03
5.656000000000000227e+01,4.252030235662521140e-03
5.660000000000000142e+01,2.723982880966644045e-03
5.664000000000000057e+01,3.980025365002405786e-03
5.667999999999999972e+01,4.431714271868384368e-03
5.671999999999999886e+01,4.635877104138386336e-03
5.675999999999999801e+01,4.283165351570523798e-03
5.679999999999999716e+01,4.487233953548716743e-03
5.684000000000000341e+01,3.948818956613089730e-03
5.688000000000000256e+01,3.348487293739722467e-03
5.692000000000000171e+01,4.789809347530494740e-03
5.696000000000000085e+01,4.746211417285109424e-03
5.700000000000000000e+01,5.568742746409967477e-03
5.703999999999999915e+01,4.473266216618223406e-03
5.707999999999999829e+01,2.511567052092692279e-03
5.711999999999999744e+01,4.014525382675707653e-03
5.715999999999999659e+01,2.609560608415298962e-03
5.720000000000000284e+01,2.998771150360523413e-03
5.724000000000000199e+01,4.439720491861628114e-03
5.728000000000000114e+01,3.653313793022801553e-03
5.732000000000000028e+01,3.176209442853793717e-03
5.735999999999999943e+01,4.369541241543027990e-03
5.739999999999999858e+01,4.325432640401446864e-03
5.743999999999999773e+01,4.219408294014079588e-03
5.747999999999999687e+01,5.474471717770477454e-03
5.752000000000000313e+01,4.873397786975959024e-03
5.756000000000000227e+01,4.272278023427916738e-03
5.760000000000000142e+01,4.413549075303543033e-03
5.764000000000000057e+01,3.997946989142976346e-03
5.767999999999999972e+01,4.324735849933509547e-03
5.771999999999999886e+01,4.032781989014134517e-03
5.775999999999999801e+01,3.926391769763178975e-03
5.779999999999999716e+01,4.624262409955579543e-03
5.784000000000000341e+01,4.270302519321353407e-03
5.788000000000000256e+01,3.668818461238816143e-03
5.792000000000000171e+01,4.490292611902006389e-03
5.796000000000000085e+01,4.383675859431952759e-03
5.800000000000000000e+01,3.658316845597981391e-03
5.803999999999999915e+01,4.355916237800881025e-03
5.807999999999999829e+01,4.001685493759427059e-03
5.811999999999999744e+01,4.637325280874397826e-03
5.815999999999999659e+01,3.664307626462333291e-03
5.820000000000000284e+01,3.619290919533000358e-03
5.824000000000000199e+01,3.821708358637744118e-03
5.828000000000000114e+01,3.529123427126804741e-03
5.832000000000000028e+01,4.412018501194230405e-03
5.835999999999999943e+01,4.738041620972271994e-03
5.839999999999999858e+01,6.115805447453844142e-03
5.843999999999999773e+01,4.709387703933030564e-03
5.847999999999999687e+01,3.983492507436443494e-03
5.852000000000000313e+01,4.742426221342381162e-03
5.856000000000000227e+01,4.820748879375252004e-03
5.860000000000000142e+01,4.280330262499910422e-03
5.864000000000000057e+01,3.801737303692393627e-03
5.867999999999999972e+01,3.756188359923164771e-03
5.871999999999999886e+01,4.329292642559311524e-03
5.875999999999999801e+01,3.479349615727471250e-03
5.879999999999999716e+01,6.341545706884583501e-03
5.884000000000000341e+01,3.635423701625894143e-03
5.888000000000000256e+01,5.507616958699306474e-03
5.892000000000000171e+01,3.358235130912409598e-03
5.896000000000000085e+01,4.673513823364822302e-03
5.900000000000000000e+01,2.647784429696720728e-03
5.903999999999999915e+01,4.396064263800955781e-03
5.907999999999999829e+01,3.731381871328944087e-03
5.911999999999999744e+01,5.232096242927505685e-03
5.915999999999999659e+01,5.124154817091838322e-03
5.920000000000000284e+01,4.211863957200256275e-03
5.924000000000000199e+01,5.464970058670385808e-03
5.928000000000000114e+01,5.480638851204159591e-03
5.932000000000000028e+01,5.434394989386635497e-03
5.935999999999999943e+01,3.903235089355691807e-03
5.939999999999999858e+01,4.846820989746925858e-03
5.943999999999999773e+01,5.604755002675743634e-03
5.947999999999999687e+01,4.259076022671050461e-03
5.952000000000000313e+01,4.398227597161703112e-03
5.956000000000000227e+01,4.351727481481076042e-03
5.960000000000000142e+01,3.686487734985030747e-03
5.964000000000000057e+01,4.691687885878836374e-03
5.967999999999999972e+01,5.449366828691378298e-03
5.971999999999999886e+01,5.588306337979632478e-03
5.975999999999999801e+01,4.180460751490472707e-03
5.979999999999999716e+01,5.123622192658361905e-03
5.984000000000000341e+01,4.396259239174005705e-03
5.988000000000000256e+01,4.287551419242692334e-03
5.992000000000000171e+01,4.735629083426983951e-03
5.996000000000000085e+01,4.998055715077120292e-03
