2.003999999999999915e+01,4.039875863581046146e-03
2.007999999999999829e+01,3.814885327258929655e-03
2.012000000000000099e+01,3.834662505617379962e-03
2.016000000000000014e+01,4.148176588232840856e-03
2.019999999999999929e+01,4.167797864148199173e-03
2.023999999999999844e+01,4.872909300641019813e-03
2.028000000000000114e+01,6.263510941092316833e-03
2.032000000000000028e+01,4.813824302855401749e-03
2.035999999999999943e+01,3.070245031442378741e-03
2.039999999999999858e+01,1.081742316429054086e-03
2.044000000000000128e+01,3.108631920146537244e-03
2.048000000000000043e+01,2.050387687725648000e-03
2.051999999999999957e+01,1.873510504328527830e-03
2.055999999999999872e+01,2.969753582894785714e-03
2.060000000000000142e+01,2.694783072284670511e-03
2.064000000000000057e+01,2.811488278893011991e-03
2.067999999999999972e+01,2.438424614593899878e-03
2.071999999999999886e+01,2.848789923833855778e-03
2.076000000000000156e+01,3.014232179902481303e-03
2.080000000000000071e+01,1.710522771310070194e-03
2.083999999999999986e+01,3.149008314192864016e-03
2.087999999999999901e+01,2.383805086254175368e-03
2.092000000000000171e+01,2.597907633538858087e-03
2.096000000000000085e+01,3.693377707038261130e-03
2.100000000000000000e+01,5.523307911548871844e-03
2.103999999999999915e+01,4.415012325839551798e-03
2.107999999999999829e+01,3.747362080734480041e-03
2.112000000000000099e+01,1.904375395185292077e-03
2.116000000000000014e+01,5.398948756485214516e-03
2.119999999999999929e+01,5.220759308166761370e-03
2.123999999999999844e+01,1.516714532195398597e-03
2.128000000000000114e+01,3.737859687554077968e-03
2.132000000000000028e+01,4.538822888399480365e-03
2.135999999999999943e+01,5.388678563957465840e-03
2.139999999999999858e+01,3.251339693529650601e-03
2.144000000000000128e+01,2.778875209005757674e-03
2.148000000000000043e+01,3.089840522259875918e-03
2.151999999999999957e+01,4.135266530478155615e-03
2.155999999999999872e+01,3.613603405884651364e-03
2.160000000000000142e+01,5.246506302667350123e-03
2.164000000000000057e+01,2.814893697463984740e-03
2.167999999999999972e+01,5.280119387309223540e-03
2.171999999999999886e+01,4.170521123878671160e-03
2.176000000000000156e+01,4.040229546672420222e-03
2.180000000000000071e+01,2.783571412693806087e-03
2.183999999999999986e+01,1.379929689220422495e-03
2.187999999999999901e+01,3.257144653271266954e-03
2.192000000000000171e+01,3.812116605913426579e-03
2.196000000000000085e+01,3.730413637255510211e-03
2.200000000000000000e+01,4.823894199887177568e-03
2.203999999999999915e+01,2.783273472044487870e-03
2.207999999999999829e+01,4.660108549163778299e-03
2.212000000000000099e+01,4.578101931246609559e-03
2.216000000000000014e+01,1.900654761141186855e-03
2.219999999999999929e+01,4.071077303842472218e-03
2.223999999999999844e+01,3.450182796338190257e-03
2.228000000000000114e+01,3.563749808037002496e-03
2.232000000000000028e+01,2.844765704085384147e-03
2.235999999999999943e+01,2.909212352293674263e-03
2.239999999999999858e+01,7.699718781583303863e-04
2.244000000000000128e+01,3.576539669505330622e-03
2.248000000000000043e+01,6.536418992430122459e-04
2.251999999999999957e+01,4.145626867069891926e-03
2.255999999999999872e+01,2.936498430140853117e-03
2.260000000000000142e+01,3.735029660528415771e-03
2.264000000000000057e+01,2.574719759832461326e-03
2.267999999999999972e+01,2.687532420292673349e-03
2.271999999999999886e+01,2.653362445640013428e-03
2.276000000000000156e+01,2.717055610229631053e-03
2.280000000000000071e+01,2.193043910714909291e-03
2.283999999999999986e+01,4.411229331725203748e-03
2.287999999999999901e+01,3.103561203703429899e-03
2.292000000000000171e+01,4.342213698189348499e-03
2.296000000000000085e+01,4.111716870587998028e-03
2.300000000000000000e+01,2.558978202864858973e-03
2.303999999999999915e+01,3.013899679649289110e-03
2.307999999999999829e+01,2.734209157411867427e-03
2.312000000000000099e+01,3.727641673521569100e-03
2.316000000000000014e+01,4.476153739319697553e-03
2.319999999999999929e+01,3.363763573757911057e-03
2.323999999999999844e+01,3.328619991906919557e-03
2.328000000000000114e+01,3.048556089887335865e-03
2.332000000000000028e+01,2.033880449131896234e-03
2.335999999999999943e+01,4.642847124361322748e-03
2.339999999999999858e+01,2.354824721056423490e-03
2.344000000000000128e+01,3.641475574303574235e-03
2.348000000000000043e+01,8.146437748956559827e-04
2.351999999999999957e+01,2.982590558451791562e-03
2.355999999999999872e+01,3.191697208687314241e-03
2.360000000000000142e+01,4.429081686867774106e-03
2.364000000000000057e+01,3.511749533710292314e-03
2.367999999999999972e+01,1.663929447466593915e-03
2.371999999999999886e+01,2.019646827986693472e-03
2.376000000000000156e+01,3.452611356170541372e-03
2.380000000000000071e+01,3.857149789021491193e-03
2.383999999999999986e+01,4.310583386206781609e-03
2.387999999999999901e+01,3.294868659067706502e-03
2.392000000000000171e+01,2.230110890635300745e-03
2.396000000000000085e+01,3.417859995447506197e-03
2.400000000000000000e+01,3.381306637052481235e-03
2.403999999999999915e+01,3.834370975650229149e-03
2.407999999999999829e+01,4.091485007894142545e-03
2.412000000000000099e+01,4.348525361944541832e-03
2.416000000000000014e+01,4.311677204013430152e-03
2.419999999999999929e+01,3.442279969338701666e-03
2.423999999999999844e+01,2.474870894223783670e-03
2.428000000000000114e+01,3.417185016037634863e-03
2.432000000000000028e+01,2.302721536380143187e-03
2.435999999999999943e+01,3.685611094751367004e-03
2.439999999999999858e+01,3.305538015582206758e-03
2.444000000000000128e+01,2.582607581903685178e-03
2.448000000000000043e+01,4.308061170202038409e-03
2.451999999999999957e+01,3.536015058180566693e-03
2.455999999999999872e+01,2.616988306572042271e-03
2.460000000000000142e+01,2.824178759823001931e-03
2.464000000000000057e+01,1.562221712988528383e-03
2.467999999999999972e+01,1.916173419723818166e-03
2.471999999999999886e+01,6.051011283563505379e-04
2.476000000000000156e+01,2.819734378918959099e-03
2.480000000000000071e+01,2.977590548582171020e-03
2.483999999999999986e+01,3.282281259494266527e-03
2.487999999999999901e+01,3.195145946893139782e-03
2.492000000000000171e+01,4.723919648147755120e-03
2.496000000000000085e+01,4.146947295832122474e-03
2.500000000000000000e+01,1.758043810496210660e-03
2.503999999999999915e+01,2.111339831640105143e-03
2.507999999999999829e+01,3.394976993436115992e-03
2.512000000000000099e+01,4.090911807225558125e-03
2.516000000000000014e+01,3.758422000635968686e-03
2.519999999999999929e+01,3.866582002893205992e-03
2.523999999999999844e+01,4.219515272598944357e-03
2.528000000000000114e+01,4.572376122160042022e-03
2.532000000000000028e+01,3.847843378671266315e-03
2.535999999999999943e+01,1.947978793123950362e-03
2.539999999999999858e+01,2.692375812095733432e-03
2.544000000000000128e+01,3.681546315421012176e-03
2.548000000000000043e+01,3.495385106830726282e-03
2.551999999999999957e+01,4.239565516083519496e-03
2.555999999999999872e+01,1.849648452389621818e-03
2.560000000000000142e+01,2.397808087288762127e-03
2.564000000000000057e+01,1.672697891406674069e-03
2.567999999999999972e+01,3.836695334684813493e-03
2.571999999999999886e+01,2.425873162786758731e-03
2.576000000000000156e+01,9.170407989263575132e-04
2.580000000000000071e+01,3.570514005434707698e-03
2.583999999999999986e+01,3.383704919832297969e-03
2.587999999999999901e+01,4.029299550112269181e-03
2.592000000000000171e+01,2.177395998407268256e-03
2.596000000000000085e+01,3.165631243334629270e-03
2.600000000000000000e+01,2.390905585961440420e-03
2.603999999999999915e+01,3.134151864722223031e-03
2.607999999999999829e+01,3.142789398035856011e-03
2.612000000000000099e+01,1.584342743971239951e-03
2.616000000000000014e+01,2.327374495300842984e-03
2.619999999999999929e+01,2.972396531859056775e-03
2.623999999999999844e+01,2.099303657376848115e-03
2.628000000000000114e+01,4.164288218964613299e-03
2.632000000000000028e+01,3.437960155208394635e-03
2.635999999999999943e+01,2.956406573568575412e-03
2.639999999999999858e+01,3.894887026102025578e-03
2.644000000000000128e+01,4.098759123617291313e-03
2.648000000000000043e+01,3.421115470910882517e-03
2.651999999999999957e+01,3.233092204818994141e-03
2.655999999999999872e+01,2.065614982877753483e-03
2.660000000000000142e+01,2.073326281040627304e-03
2.664000000000000057e+01,2.031997487817902622e-03
2.667999999999999972e+01,1.941628646590564658e-03
2.671999999999999886e+01,2.879541017025841459e-03
2.676000000000000156e+01,1.760678432230516682e-03
2.680000000000000071e+01,2.061850315418438818e-03
2.683999999999999986e+01,2.411920616515387476e-03
2.687999999999999901e+01,2.663981940317877110e-03
2.692000000000000171e+01,1.006175920998239040e-03
2.696000000000000085e+01,1.807747888478746098e-04
2.700000000000000000e+01,2.636235896989222276e-03
2.703999999999999915e+01,7.823416286048256183e-04
2.707999999999999829e+01,2.650032003027585643e-03
2.712000000000000099e+01,1.530534034946969208e-03
2.716000000000000014e+01,3.349114457318240392e-03
2.719999999999999929e+01,3.404735278818850266e-03
2.723999999999999844e+01,1.256674227076325350e-03
2.728000000000000114e+01,1.850815111149365115e-03
2.732000000000000028e+01,2.689731518482693304e-03
2.735999999999999943e+01,2.206410814222801824e-03
2.739999999999999858e+01,2.849310351492118261e-03
2.744000000000000128e+01,3.149355787826770350e-03
2.748000000000000043e+01,4.330775821478483577e-03
2.751999999999999957e+01,2.573977092631598435e-03
2.755999999999999872e+01,3.118658287513794737e-03
2.760000000000000142e+01,2.145226046309423821e-03
2.764000000000000057e+01,3.473273815596119533e-03
2.767999999999999972e+01,4.556406036623792365e-03
2.771999999999999886e+01,4.806992998435488315e-03
2.776000000000000156e+01,3.735343282463919785e-03
2.780000000000000071e+01,1.880117540233193843e-03
2.783999999999999986e+01,3.158847510710606401e-03
2.787999999999999901e+01,2.772556910183934971e-03
2.792000000000000171e+01,4.002178577087713018e-03
2.796000000000000085e+01,3.566779759749392261e-03
2.800000000000000000e+01,3.767910372706937110e-03
2.803999999999999915e+01,4.213817289782701217e-03
2.807999999999999829e+01,3.582333607097305198e-03
2.812000000000000099e+01,2.167274245200731964e-03
2.816000000000000014e+01,1.437713633318824435e-03
2.819999999999999929e+01,1.883343276780865584e-03
2.823999999999999844e+01,3.161379195604060478e-03
2.828000000000000114e+01,3.851716193519354441e-03
2.832000000000000028e+01,2.730125659037056611e-03
2.835999999999999943e+01,2.294034091474396551e-03
2.839999999999999858e+01,2.249626657043414264e-03
2.844000000000000128e+01,3.282471445852701893e-03
2.848000000000000043e+01,1.670913390476269373e-03
2.851999999999999957e+01,2.948466054310767536e-03
2.855999999999999872e+01,1.125415748766799430e-04
2.860000000000000142e+01,3.201814965494891810e-03
2.864000000000000057e+01,2.471426176775486268e-03
2.867999999999999972e+01,2.230660117244374126e-03
2.871999999999999886e+01,3.067146584620511918e-03
2.876000000000000156e+01,2.924181482102082303e-03
2.880000000000000071e+01,1.654857414485588893e-03
2.883999999999999986e+01,2.197323196841763533e-03
2.887999999999999901e+01,2.886627901927418718e-03
2.892000000000000171e+01,2.694419503032145866e-03
2.896000000000000085e+01,7.882225582248578210e-04
2.900000000000000000e+01,3.044334654265989579e-03
2.903999999999999915e+01,2.460167928676041098e-03
2.907999999999999829e+01,2.120778635110208161e-03
2.912000000000000099e+01,3.838025226158151351e-03
2.916000000000000014e+01,2.127363371380044509e-03
2.919999999999999929e+01,1.934676879834599465e-03
2.923999999999999844e+01,2.133675432421738849e-03
2.928000000000000114e+01,1.451161271456916048e-03
2.932000000000000028e+01,2.433530042452222014e-03
2.935999999999999943e+01,3.856553133917939649e-03
2.939999999999999858e+01,1.900637186038409230e-03
2.944000000000000128e+01,1.462696861677503096e-03
2.948000000000000043e+01,4.599436344399040685e-03
2.951999999999999957e+01,1.908779608176879722e-03
2.955999999999999872e+01,3.037648496773297409e-03
2.960000000000000142e+01,3.040159287891568834e-03
2.964000000000000057e+01,2.895694948809269306e-03
2.967999999999999972e+01,9.393045522832284451e-04
2.971999999999999886e+01,3.634915439411821013e-03
2.976000000000000156e+01,3.049525970013800599e-03
2.980000000000000071e+01,1.974377520575390337e-03
2.983999999999999986e+01,2.123390251296598721e-03
2.987999999999999901e+01,2.517181281661845602e-03
2.992000000000000171e+01,2.274306023545208996e-03
2.996000000000000085e+01,2.618993175198397905e-03
3.000000000000000000e+01,2.767736440885159351e-03
3.003999999999999915e+01,3.748887934077886445e-03
3.007999999999999829e+01,1.840792587350589555e-03
3.012000000000000099e+01,3.458408595606831705e-03
3.016000000000000014e+01,2.921315043627477782e-03
3.019999999999999929e+01,1.845493799222867057e-03
3.023999999999999844e+01,3.658785139412008315e-03
3.028000000000000114e+01,1.603446932689539008e-03
3.032000000000000028e+01,1.408869327231403526e-03
3.035999999999999943e+01,1.752885419158237233e-03
3.039999999999999858e+01,2.439618667071704033e-03
3.044000000000000128e+01,1.216488389390693462e-03
3.048000000000000043e+01,2.931440102784242489e-03
3.051999999999999957e+01,2.393744353981492289e-03
3.055999999999999872e+01,2.982272273806634705e-03
3.060000000000000142e+01,1.220214525807817489e-03
3.064000000000000057e+01,9.468907125059606807e-05
3.067999999999999972e+01,3.670135087686736495e-03
3.071999999999999886e+01,3.474890326791875688e-03
3.076000000000000156e+01,2.006381287883275601e-03
3.080000000000000071e+01,1.957911055057508145e-03
3.083999999999999986e+01,2.105251016824850364e-03
3.087999999999999901e+01,2.399432070371474227e-03
3.092000000000000171e+01,2.056947919961115041e-03
3.096000000000000085e+01,2.008212386676515131e-03
3.100000000000000000e+01,1.616626613365890327e-03
3.103999999999999915e+01,2.840956491203392581e-03
3.107999999999999829e+01,2.938929876659606734e-03
3.112000000000000099e+01,2.840960590817274457e-03
3.116000000000000014e+01,3.281585869979817844e-03
3.119999999999999929e+01,2.399978202124750191e-03
3.123999999999999844e+01,2.742533232764157031e-03
3.128000000000000114e+01,2.056670280316916840e-03
3.132000000000000028e+01,1.762494627814048011e-03
3.135999999999999943e+01,1.419284002883098314e-03
3.139999999999999858e+01,2.545081980944754931e-03
3.144000000000000128e+01,2.838338734223050559e-03
3.148000000000000043e+01,3.131529791411086488e-03
3.151999999999999957e+01,2.494241418188100374e-03
3.155999999999999872e+01,2.542455482364442982e-03
3.160000000000000142e+01,1.611221056696931792e-03
3.164000000000000057e+01,1.757242324749364992e-03
3.167999999999999972e+01,2.001136406006168069e-03
3.171999999999999886e+01,2.098057612874198400e-03
3.176000000000000156e+01,1.607283672980982072e-03
3.180000000000000071e+01,8.226295068765032952e-04
3.183999999999999986e+01,3.269873683969401479e-03
3.187999999999999901e+01,3.121687850456076382e-03
3.192000000000000171e+01,1.357454973614099407e-03
3.196000000000000085e+01,2.825120570112485841e-03
3.200000000000000000e+01,2.284986040485581169e-03
3.203999999999999915e+01,4.715886210368126861e-04
3.207999999999999829e+01,1.694213220292090094e-03
3.211999999999999744e+01,2.133266478435771451e-03
3.215999999999999659e+01,1.984625023628178251e-03
3.220000000000000284e+01,4.158134139382116271e-04
3.224000000000000199e+01,1.099517657359018723e-03
3.228000000000000114e+01,3.056354873375019716e-03
3.232000000000000028e+01,2.515700848365407059e-03
3.235999999999999943e+01,3.052303297933670057e-03
3.239999999999999858e+01,2.707396417667659073e-03
3.243999999999999773e+01,2.607270613429421048e-03
3.247999999999999687e+01,2.311203612846508305e-03
3.252000000000000313e+01,1.917133751689558156e-03
3.256000000000000227e+01,1.865783389093035550e-03
3.260000000000000142e+01,2.108183422243102047e-03
3.264000000000000057e+01,0.000000000000000000e+00
3.267999999999999972e+01,1.319592416734524350e-03
3.271999999999999886e+01,2.247367312631027084e-03
3.275999999999999801e+01,2.979201315849814083e-03
3.279999999999999716e+01,3.319217884992570720e-03
3.284000000000000341e+01,1.994219262374750164e-03
3.288000000000000256e+01,1.599570239703261825e-03
3.292000000000000171e+01,1.743517690800481905e-03
3.296000000000000085e+01,1.005956419397361148e-03
3.300000000000000000e+01,3.010603287292223148e-03
3.303999999999999915e+01,3.497142618915977889e-03
3.307999999999999829e+01,1.045469217999581753e-03
3.311999999999999744e+01,2.560232741394879476e-03
3.315999999999999659e+01,2.752765443441355583e-03
3.320000000000000284e+01,2.455542852832105077e-03
3.324000000000000199e+01,1.521657574363637425e-03
3.328000000000000114e+01,2.203690376379071475e-03
3.332000000000000028e+01,2.151122284907616266e-03
3.335999999999999943e+01,1.510860781914754236e-03
3.339999999999999858e+01,3.710746144419499373e-03
3.343999999999999773e+01,2.531696849059605556e-03
3.347999999999999687e+01,1.744337196217866925e-03
3.352000000000000313e+01,3.356402223263257791e-03
3.356000000000000227e+01,1.834378453561134837e-03
3.360000000000000142e+01,1.781365672806391794e-03
3.364000000000000057e+01,1.140659784197216309e-03
3.367999999999999972e+01,2.997317041388815762e-03
3.371999999999999886e+01,1.279163359603424990e-03
3.375999999999999801e+01,3.625385588615320613e-03
3.379999999999999716e+01,1.760198064879443542e-03
3.384000000000000341e+01,1.461960082766577225e-03
3.388000000000000256e+01,1.898196200345633744e-03
3.392000000000000171e+01,2.040554390906204954e-03
3.396000000000000085e+01,1.693158113049966036e-03
3.400000000000000000e+01,1.198791433521724644e-03
3.403999999999999915e+01,1.585806465793869338e-03
3.407999999999999829e+01,2.658326668468086358e-03
3.411999999999999744e+01,4.318413792535713384e-03
3.415999999999999659e+01,1.669153261894875621e-03
3.420000000000000284e+01,2.349731926319844483e-03
3.424000000000000199e+01,1.414266063513921730e-03
3.428000000000000114e+01,2.682349120054745763e-03
3.432000000000000028e+01,3.313770660023233720e-03
3.435999999999999943e+01,2.476055241488303322e-03
3.439999999999999858e+01,2.030030463234442067e-03
3.443999999999999773e+01,2.416418684396099727e-03
3.447999999999999687e+01,3.439343363574962325e-03
3.452000000000000313e+01,9.364271175915751333e-04
3.456000000000000227e+01,2.057165334271943580e-03
3.460000000000000142e+01,2.981964653800408920e-03
3.464000000000000057e+01,3.025257072830370153e-03
3.467999999999999972e+01,2.236011780937650906e-03
3.471999999999999886e+01,2.132272353542944213e-03
3.475999999999999801e+01,2.077439933494460919e-03
3.479999999999999716e+01,2.365329441342174394e-03
3.484000000000000341e+01,1.722743119401543227e-03
3.488000000000000256e+01,2.940922344158786433e-03
3.492000000000000171e+01,2.885841802525864006e-03
3.496000000000000085e+01,2.928637631338982389e-03
3.500000000000000000e+01,2.824464143004993752e-03
3.503999999999999915e+01,1.985691626566942359e-03
3.507999999999999829e+01,3.007684873731754100e-03
3.511999999999999744e+01,4.029616372476931864e-03
3.515999999999999659e+01,2.358183125467888490e-03
3.520000000000000284e+01,2.449577479815031981e-03
3.524000000000000199e+01,2.589879362080362447e-03
3.528000000000000114e+01,3.170841985203494071e-03
3.532000000000000028e+01,3.017205883889537751e-03
3.535999999999999943e+01,2.324847686298809994e-03
3.539999999999999858e+01,2.122119505903704781e-03
3.543999999999999773e+01,3.388404309981792213e-03
3.547999999999999687e+01,3.185553370224348396e-03
3.552000000000000313e+01,2.590887946298596391e-03
3.556000000000000227e+01,3.122451613625222729e-03
3.560000000000000142e+01,3.360139175935199837e-03
3.564000000000000057e+01,1.932814583154302338e-03
3.567999999999999972e+01,2.758009574249839588e-03
3.571999999999999886e+01,1.967161643211332977e-03
3.575999999999999801e+01,2.743265336083644361e-03
3.579999999999999716e+01,2.588894240311505075e-03
3.584000000000000341e+01,3.266937662289746622e-03
3.588000000000000256e+01,1.790277727514807352e-03
3.592000000000000171e+01,2.810983367876422872e-03
3.596000000000000085e+01,3.341936708871026760e-03
3.600000000000000000e+01,3.676952671048592386e-03
3.603999999999999915e+01,4.501599344517717531e-03
3.607999999999999829e+01,3.220512024333471463e-03
3.611999999999999744e+01,4.142975619021782747e-03
3.615999999999999659e+01,4.281872254079096239e-03
3.620000000000000284e+01,2.902664779963972860e-03
3.624000000000000199e+01,3.482162619890247224e-03
3.628000000000000114e+01,3.620877653692310995e-03
3.632000000000000028e+01,3.465717363335649431e-03
3.635999999999999943e+01,3.653280692734023425e-03
3.639999999999999858e+01,4.183567685268434026e-03
3.643999999999999773e+01,3.783380583254331801e-03
3.647999999999999687e+01,4.509423570255517537e-03
3.652000000000000313e+01,4.402930841859836394e-03
3.656000000000000227e+01,4.981945973487975771e-03
3.660000000000000142e+01,5.316055230819186767e-03
3.664000000000000057e+01,5.160412926260319819e-03
3.667999999999999972e+01,5.151618003725146229e-03
3.671999999999999886e+01,5.044824775620517301e-03
3.675999999999999801e+01,4.252403530989486841e-03
3.679999999999999716e+01,6.544978570214859612e-03
3.684000000000000341e+01,4.919962030817123973e-03
3.688000000000000256e+01,5.302620645751555603e-03
3.692000000000000171e+01,5.489342879631852086e-03
3.696000000000000085e+01,6.949203161683875640e-03
3.700000000000000000e+01,5.813638985897149822e-03
3.703999999999999915e+01,5.412552336901021999e-03
3.707999999999999829e+01,5.941819842855809546e-03
3.711999999999999744e+01,8.723608494402877028e-03
3.715999999999999659e+01,9.007911154024841882e-03
3.720000000000000284e+01,7.921018227583752347e-03
3.724000000000000199e+01,9.380461454046910841e-03
3.728000000000000114e+01,7.950665649169319851e-03
3.732000000000000028e+01,8.283699744840701540e-03
3.735999999999999943e+01,9.008427690986853947e-03
3.739999999999999858e+01,1.144701647824914771e-02
3.743999999999999773e+01,9.870076045213612564e-03
3.747999999999999687e+01,1.167194751068038709e-02
3.752000000000000313e+01,1.224953117571656556e-02
3.756000000000000227e+01,1.316983976193766143e-02
3.760000000000000142e+01,1.345349038882809496e-02
3.764000000000000057e+01,1.554894040951030135e-02
3.767999999999999972e+01,1.769330060435144250e-02
3.771999999999999886e+01,1.964172528575837753e-02
3.775999999999999801e+01,2.193287510525519790e-02
3.779999999999999716e+01,2.613376278445744480e-02
3.784000000000000341e+01,3.048149910373225760e-02
3.788000000000000256e+01,3.620031276133135745e-02
3.792000000000000171e+01,4.206597514576503050e-02
3.796000000000000085e+01,5.326921579706612314e-02
3.800000000000000000e+01,6.682291684073105031e-02
3.803999999999999915e+01,9.731988388619977615e-02
3.807999999999999829e+01,1.431441351524239680e-01
3.811999999999999744e+01,2.257931258623144255e-01
3.815999999999999659e+01,3.761174181619941770e-01
3.820000000000000284e+01,6.190912766542069345e-01
3.824000000000000199e+01,8.610367247116262890e-01
3.828000000000000114e+01,1.000000000000000000e+00
3.832000000000000028e+01,9.907825806248818923e-01
3.835999999999999943e+01,8.291241509107032392e-01
3.839999999999999858e+01,6.229037399680524834e-01
3.843999999999999773e+01,4.180054378248651559e-01
3.847999999999999687e+01,2.582566303688937914e-01
3.852000000000000313e+01,1.584949689405526219e-01
3.856000000000000227e+01,1.087307477594776084e-01
3.860000000000000142e+01,7.767268245055421183e-02
3.864000000000000057e+01,6.321509977078573761e-02
3.867999999999999972e+01,4.861055176492178054e-02
3.871999999999999886e+01,3.880492224202104767e-02
3.875999999999999801e+01,3.502243990033523241e-02
3.879999999999999716e+01,2.874247334534514239e-02
3.884000000000000341e+01,2.422533833938188622e-02
3.888000000000000256e+01,2.235247955733335803e-02
3.892000000000000171e+01,2.023471741708567084e-02
3.896000000000000085e+01,1.939009549405950467e-02
3.900000000000000000e+01,1.692943420614095862e-02
3.903999999999999915e+01,1.324448676626967074e-02
3.907999999999999829e+01,1.313422954491983742e-02
3.911999999999999744e+01,1.517855734582243196e-02
3.915999999999999659e+01,1.242385145269276139e-02
3.920000000000000284e+01,1.157888493760336583e-02
3.924000000000000199e+01,1.068489199614208914e-02
3.928000000000000114e+01,9.937749256469244341e-03
3.932000000000000028e+01,9.533333346745139283e-03
3.935999999999999943e+01,8.639168825038687563e-03
3.939999999999999858e+01,8.136700366237793747e-03
3.943999999999999773e+01,7.879020575138968169e-03
3.947999999999999687e+01,8.453759249461158254e-03
3.952000000000000313e+01,8.489780339130146430e-03
3.956000000000000227e+01,7.644299864163138850e-03
3.960000000000000142e+01,7.141546522811840179e-03
3.964000000000000057e+01,7.471211820405537080e-03
3.967999999999999972e+01,6.037931051999305757e-03
3.971999999999999886e+01,6.465421079391462864e-03
3.975999999999999801e+01,5.423780004714657925e-03
3.979999999999999716e+01,5.116619450117173770e-03
3.984000000000000341e+01,5.299093728005860836e-03
3.988000000000000256e+01,6.754709220878979403e-03
3.992000000000000171e+01,5.614903422726053028e-03
3.996000000000000085e+01,5.209578318176438620e-03
4.000000000000000000e+01,5.049042488662834269e-03
4.003999999999999915e+01,2.929684398798944930e-03
4.007999999999999829e+01,4.042233588617619167e-03
4.011999999999999744e+01,5.742356206979094997e-03
4.015999999999999659e+01,4.847057794600506155e-03
4.020000000000000284e+01,5.420777529033628424e-03
4.024000000000000199e+01,4.917119851528364491e-03
4.028000000000000114e+01,3.434023097855366195e-03
4.032000000000000028e+01,4.252420106449162664e-03
4.035999999999999943e+01,3.258902640325126408e-03
4.039999999999999858e+01,3.636465245528127527e-03
4.043999999999999773e+01,4.748509064906384670e-03
4.047999999999999687e+01,3.999669393514972311e-03
4.052000000000000313e+01,4.034280169255639349e-03
4.056000000000000227e+01,3.823989365417976120e-03
4.060000000000000142e+01,5.033747996007157700e-03
4.064000000000000057e+01,4.921283917493767847e-03
4.067999999999999972e+01,3.682473758038120899e-03
4.071999999999999886e+01,3.471959993593677542e-03
4.075999999999999801e+01,2.820668281696567248e-03
4.079999999999999716e+01,4.128086829274395242e-03
4.084000000000000341e+01,4.260190323239122605e-03
4.088000000000000256e+01,4.539145754232117372e-03
4.092000000000000171e+01,4.132477680322287940e-03
4.096000000000000085e+01,3.676785045423401708e-03
4.100000000000000000e+01,2.682376430968173679e-03
4.103999999999999915e+01,3.744616628663512397e-03
4.107999999999999829e+01,4.317110079759330955e-03
4.111999999999999744e+01,1.804492079310696453e-03
4.115999999999999659e+01,3.796980330897055562e-03
4.120000000000000284e+01,4.271369895935478271e-03
4.124000000000000199e+01,2.982815086832809812e-03
4.128000000000000114e+01,4.338539104504633009e-03
4.132000000000000028e+01,2.511213595147330276e-03
4.135999999999999943e+01,2.397753221624763110e-03
4.139999999999999858e+01,2.480114495278243607e-03
4.143999999999999773e+01,2.611390020904276032e-03
4.147999999999999687e+01,3.134363865247659364e-03
4.152000000000000313e+01,3.755221194520416694e-03
4.156000000000000227e+01,3.543548274401803026e-03
4.160000000000000142e+01,3.821512095533179457e-03
4.164000000000000057e+01,4.001482946957610198e-03
4.167999999999999972e+01,4.475214041614711605e-03
4.171999999999999886e+01,3.039093844118189499e-03
4.175999999999999801e+01,3.071993485292225969e-03
4.179999999999999716e+01,4.671851300907465046e-03
4.184000000000000341e+01,3.578351615394812380e-03
4.188000000000000256e+01,4.100779337280186128e-03
4.192000000000000171e+01,4.182430369761781092e-03
4.196000000000000085e+01,2.599076101349872148e-03
4.200000000000000000e+01,3.806908879154871205e-03
4.203999999999999915e+01,4.084273635750786460e-03
4.207999999999999829e+01,3.284262975934131717e-03
4.211999999999999744e+01,2.484198159372130472e-03
4.215999999999999659e+01,4.671197147330337363e-03
4.220000000000000284e+01,2.695764638744749600e-03
4.224000000000000199e+01,2.874920536129272914e-03
4.228000000000000114e+01,5.159695736670071031e-03
4.232000000000000028e+01,3.086162986030748737e-03
4.235999999999999943e+01,3.901755964426953036e-03
4.239999999999999858e+01,2.464714364782664372e-03
4.243999999999999773e+01,2.153909317922060931e-03
4.247999999999999687e+01,3.410063182979598990e-03
4.252000000000000313e+01,3.539872962620690521e-03
4.256000000000000227e+01,4.208289670850511033e-03
4.260000000000000142e+01,3.554485795646563414e-03
4.264000000000000057e+01,3.390319789598507383e-03
4.267999999999999972e+01,3.519915111308023759e-03
4.271999999999999886e+01,2.865950587869877698e-03
4.275999999999999801e+01,3.632037841432356369e-03
4.279999999999999716e+01,3.810441921388478884e-03
4.284000000000000341e+01,2.617656532001978384e-03
4.288000000000000256e+01,4.999565482331554123e-03
4.292000000000000171e+01,5.520593588132218996e-03
4.296000000000000085e+01,5.649815278629822211e-03
4.300000000000000000e+01,3.134649872243245282e-03
4.303999999999999915e+01,4.439024710070870773e-03
4.307999999999999829e+01,4.666025216010824539e-03
4.311999999999999744e+01,2.542453632378551941e-03
4.315999999999999659e+01,4.777083031246590929e-03
4.320000000000000284e+01,4.122479819161283150e-03
4.324000000000000199e+01,4.447206588895091968e-03
4.328000000000000114e+01,5.849201676218671389e-03
4.332000000000000028e+01,5.194439768043977723e-03
4.335999999999999943e+01,5.421069679441736962e-03
4.339999999999999858e+01,4.619294752194622912e-03
4.343999999999999773e+01,5.335510631814714168e-03
4.347999999999999687e+01,5.513013221500213772e-03
4.352000000000000313e+01,6.278092927113170831e-03
4.356000000000000227e+01,6.308582844774212467e-03
4.360000000000000142e+01,5.800359602643643912e-03
4.364000000000000057e+01,7.446726284818039679e-03
4.367999999999999972e+01,7.036336361923127558e-03
4.371999999999999886e+01,6.821770602302029869e-03
4.375999999999999801e+01,9.104578920492684135e-03
4.379999999999999716e+01,7.861556377912160345e-03
4.384000000000000341e+01,8.969000561320893822e-03
4.388000000000000256e+01,1.149649773639814174e-02
4.392000000000000171e+01,1.069404076562651025e-02
4.396000000000000085e+01,1.248689638196127591e-02
4.400000000000000000e+01,1.379000841850921283e-02
4.403999999999999915e+01,1.509306838059961894e-02
4.407999999999999829e+01,1.605329228824968132e-02
4.411999999999999744e+01,2.063718102662152193e-02
4.415999999999999659e+01,2.154833185606666243e-02
4.420000000000000284e+01,2.593624016441108474e-02
4.424000000000000199e+01,3.208698587821678244e-02
4.428000000000000114e+01,4.058819879520270124e-02
4.432000000000000028e+01,4.923626737998253872e-02
4.435999999999999943e+01,6.439718068126502881e-02
4.439999999999999858e+01,8.675650678915876324e-02
4.443999999999999773e+01,1.141106341682774639e-01
4.447999999999999687e+01,1.541966879607850338e-01
4.452000000000000313e+01,1.866924725392085371e-01
4.456000000000000227e+01,2.172784089055291856e-01
4.460000000000000142e+01,2.229879675377532122e-01
4.464000000000000057e+01,2.075428035900686585e-01
4.467999999999999972e+01,1.807857154910170461e-01
4.471999999999999886e+01,1.502579517979830415e-01
4.475999999999999801e+01,1.135110552446061682e-01
4.479999999999999716e+01,8.180792949907804423e-02
4.484000000000000341e+01,6.068208812479529424e-02
4.488000000000000256e+01,4.278815923591462733e-02
4.492000000000000171e+01,3.468800846592406950e-02
4.496000000000000085e+01,2.712646722738199997e-02
4.500000000000000000e+01,2.460869701359365974e-02
4.503999999999999915e+01,1.812437496809154655e-02
4.507999999999999829e+01,1.536165708684477695e-02
4.511999999999999744e+01,1.450868500402567943e-02
4.515999999999999659e+01,1.223555682176690439e-02
4.520000000000000284e+01,1.143145220894432879e-02
4.524000000000000199e+01,1.087214255406824398e-02
4.528000000000000114e+01,1.065556619290929444e-02
4.532000000000000028e+01,7.011098911846667947e-03
4.535999999999999943e+01,8.312464753577070847e-03
4.539999999999999858e+01,7.459137563231339405e-03
4.543999999999999773e+01,7.487204448269838691e-03
4.547999999999999687e+01,5.556454972773510782e-03
4.552000000000000313e+01,6.612772945801050593e-03
4.556000000000000227e+01,5.122644890717798979e-03
4.560000000000000142e+01,4.905664254101404533e-03
4.564000000000000057e+01,4.737602424462136058e-03
4.567999999999999972e+01,4.667428591375824554e-03
4.571999999999999886e+01,4.303389628664831476e-03
4.575999999999999801e+01,5.555282281308477309e-03
4.579999999999999716e+01,4.064852581347997394e-03
4.584000000000000341e+01,4.533138606867943843e-03
4.588000000000000256e+01,2.503948097519910748e-03
4.592000000000000171e+01,4.098424371038472333e-03
4.596000000000000085e+01,5.594912359997644170e-03
4.600000000000000000e+01,4.006294189893869380e-03
4.603999999999999915e+01,4.866083424123791856e-03
4.607999999999999829e+01,4.795409018625225103e-03
4.611999999999999744e+01,3.549425285805026496e-03
4.615999999999999659e+01,2.597206654889040473e-03
4.620000000000000284e+01,2.967105239349677060e-03
4.624000000000000199e+01,1.965818041852350831e-03
4.628000000000000114e+01,2.237679000298807650e-03
4.632000000000000028e+01,2.656397795588983594e-03
4.635999999999999943e+01,2.536406424376269533e-03
4.639999999999999858e+01,2.612242122964097968e-03
4.643999999999999773e+01,2.883904934733455636e-03
4.647999999999999687e+01,2.323042832973945884e-03
4.652000000000000313e+01,3.280174878418336184e-03
4.656000000000000227e+01,2.572306611783755498e-03
4.660000000000000142e+01,4.019031479647851117e-03
4.664000000000000057e+01,1.695082835817324522e-03
4.667999999999999972e+01,3.435524114845784054e-03
4.671999999999999886e+01,3.021273793370972752e-03
4.675999999999999801e+01,2.411097762567026084e-03
4.679999999999999716e+01,1.849841796789099182e-03
4.684000000000000341e+01,1.876166547561293257e-03
4.688000000000000256e+01,2.049349742511150877e-03
4.692000000000000171e+01,1.830730816876550808e-03
4.696000000000000085e+01,3.277013954221296658e-03
4.700000000000000000e+01,2.568605794729735426e-03
4.703999999999999915e+01,4.063760393122633000e-03
4.707999999999999829e+01,2.669686588518786763e-03
4.711999999999999744e+01,3.234329897587243444e-03
4.715999999999999659e+01,2.427788422460638688e-03
4.720000000000000284e+01,2.943365247235556984e-03
4.724000000000000199e+01,2.234664813161896680e-03
4.728000000000000114e+01,3.141897642920715630e-03
4.732000000000000028e+01,1.306809768553263270e-03
4.735999999999999943e+01,3.438174262132059119e-03
4.739999999999999858e+01,2.680310699762085500e-03
4.743999999999999773e+01,2.265182773683028800e-03
4.747999999999999687e+01,2.731451135419006061e-03
4.752000000000000313e+01,3.295609489233752593e-03
4.756000000000000227e+01,2.145799469299599933e-03
4.760000000000000142e+01,2.171200744492440219e-03
4.764000000000000057e+01,2.245522995712208227e-03
4.767999999999999972e+01,3.005365166872673091e-03
4.771999999999999886e+01,2.247115722587535863e-03
4.775999999999999801e+01,2.125417138810260700e-03
4.779999999999999716e+01,2.297485435558039007e-03
4.784000000000000341e+01,2.420536632848067828e-03
4.788000000000000256e+01,1.270342119190626595e-03
4.792000000000000171e+01,1.491235832487460737e-03
4.796000000000000085e+01,1.663112576469526855e-03
4.800000000000000000e+01,9.534969092057396338e-04
4.803999999999999915e+01,3.181982277273737690e-03
4.807999999999999829e+01,1.835672280142291958e-03
4.811999999999999744e+01,2.790864504571843614e-03
4.815999999999999659e+01,1.885181567382951699e-03
4.820000000000000284e+01,2.938216915153249627e-03
4.824000000000000199e+01,2.620068650015385404e-03
4.828000000000000114e+01,2.057027177831408354e-03
4.832000000000000028e+01,2.816105220216836690e-03
4.835999999999999943e+01,2.203999779837089758e-03
4.839999999999999858e+01,3.452674548931853292e-03
4.843999999999999773e+01,1.518307512814768721e-03
4.847999999999999687e+01,3.011733451168705639e-03
4.852000000000000313e+01,2.448408033553852847e-03
4.856000000000000227e+01,1.052559958221913495e-03
4.860000000000000142e+01,2.203060355997067503e-03
4.864000000000000057e+01,1.639593551310217050e-03
4.867999999999999972e+01,1.418863727725157070e-03
4.871999999999999886e+01,1.883654951986695652e-03
4.875999999999999801e+01,1.075201419682669498e-03
4.879999999999999716e+01,1.735775361104485021e-03
4.884000000000000341e+01,1.955580118034821232e-03
4.888000000000000256e+01,1.685646587659840124e-03
4.892000000000000171e+01,1.660512006282976365e-03
4.896000000000000085e+01,2.614713610207651615e-03
4.900000000000000000e+01,1.561133524930307043e-03
4.903999999999999915e+01,2.417303489418244633e-03
4.907999999999999829e+01,1.853321605804098731e-03
4.911999999999999744e+01,2.121768642430993390e-03
4.915999999999999659e+01,2.586045742147144878e-03
4.920000000000000284e+01,3.393060386918037800e-03
4.924000000000000199e+01,9.680649479021762732e-04
4.928000000000000114e+01,3.048184567263489009e-03
4.932000000000000028e+01,1.994232481989691077e-03
4.935999999999999943e+01,2.947969085918797187e-03
4.939999999999999858e+01,2.481554188793790028e-03
4.943999999999999773e+01,2.308907950814672021e-03
4.947999999999999687e+01,2.478999561557266793e-03
4.952000000000000313e+01,1.516185851025066849e-04
4.956000000000000227e+01,1.790692362548778954e-03
4.960000000000000142e+01,2.695182902573520223e-03
4.964000000000000057e+01,1.787769032271493887e-03
4.967999999999999972e+01,1.516908104765134256e-03
4.971999999999999886e+01,2.176415040604411880e-03
4.975999999999999801e+01,1.709585742987508985e-03
4.979999999999999716e+01,1.438587202555803145e-03
4.984000000000000341e+01,1.853110924638574951e-03
4.988000000000000256e+01,1.924804882525418424e-03
4.992000000000000171e+01,2.045422289155959458e-03
4.996000000000000085e+01,1.970117456937050225e-03
5.000000000000000000e+01,2.286520183587630560e-03
5.003999999999999915e+01,1.819371003812806590e-03
5.007999999999999829e+01,1.988775200643607549e-03
5.011999999999999744e+01,1.766380747369625292e-03
5.015999999999999659e+01,2.425385488437408529e-03
5.020000000000000284e+01,2.300838496603769320e-03
5.024000000000000199e+01,2.763875908704914106e-03
5.028000000000000114e+01,2.443361674666627917e-03
5.032000000000000028e+01,2.171771323181997514e-03
5.035999999999999943e+01,3.124364406307912363e-03
5.039999999999999858e+01,2.803714511489095122e-03
5.043999999999999773e+01,2.434050336977271276e-03
5.047999999999999687e+01,2.505063388101710573e-03
5.052000000000000313e+01,1.596648468593388258e-03
5.056000000000000227e+01,1.863448054405759816e-03
5.060000000000000142e+01,2.326079265023239893e-03
5.064000000000000057e+01,2.298974097099230202e-03
5.067999999999999972e+01,2.369762348352668409e-03
5.071999999999999886e+01,1.656999430657640554e-03
5.075999999999999801e+01,1.189037457486536494e-03
5.079999999999999716e+01,2.141135980896241141e-03
5.084000000000000341e+01,2.113806880721152883e-03
5.088000000000000256e+01,1.939525685654346337e-03
5.092000000000000171e+01,2.646644509168221554e-03
5.096000000000000085e+01,1.199076330564403199e-03
5.100000000000000000e+01,2.689612397486059771e-03
5.103999999999999915e+01,2.564122157195124815e-03
5.107999999999999829e+01,2.732402354670917296e-03
5.111999999999999744e+01,2.704761571346138774e-03
5.115999999999999659e+01,2.823983873965592133e-03
5.120000000000000284e+01,2.404501259182665208e-03
5.124000000000000199e+01,1.789097793742161100e-03
5.128000000000000114e+01,1.026742667219899098e-03
5.132000000000000028e+01,2.174140063179682593e-03
5.135999999999999943e+01,3.076647592430049524e-03
5.139999999999999858e+01,2.412098351091612920e-03
5.143999999999999773e+01,1.747505060779889693e-03
5.147999999999999687e+01,1.523590080629342192e-03
5.152000000000000313e+01,1.593446015436465139e-03
5.156000000000000227e+01,1.957072908582269989e-03
5.160000000000000142e+01,2.222717633889110395e-03
5.164000000000000057e+01,2.684195111906962760e-03
5.167999999999999972e+01,1.774492707782300560e-03
5.171999999999999886e+01,3.411142160482421876e-03
5.175999999999999801e+01,2.648259747710613073e-03
5.179999999999999716e+01,1.738426237809998854e-03
5.184000000000000341e+01,3.423913861071983030e-03
5.188000000000000256e+01,2.611931456615368408e-03
5.192000000000000171e+01,2.044751254731563134e-03
5.196000000000000085e+01,2.310003053139508128e-03
5.200000000000000000e+01,2.428303971323629747e-03
5.203999999999999915e+01,1.371301982573510519e-03
5.207999999999999829e+01,3.105497972051280212e-03
5.211999999999999744e+01,3.223668825603351589e-03
5.215999999999999659e+01,1.529938001831397882e-03
5.220000000000000284e+01,2.088744678287203765e-03
5.224000000000000199e+01,3.284107073922420354e-03
5.228000000000000114e+01,1.884061583259341892e-03
5.232000000000000028e+01,1.512325068096290236e-03
5.235999999999999943e+01,1.728175256060805135e-03
5.239999999999999858e+01,3.070272798677002330e-03
5.243999999999999773e+01,1.865931774713715631e-03
5.247999999999999687e+01,2.473406238891700734e-03
5.252000000000000313e+01,2.395269778655693960e-03
5.256000000000000227e+01,2.023275606945311011e-03
5.260000000000000142e+01,1.651238644310525690e-03
5.264000000000000057e+01,2.258541858028912871e-03
5.267999999999999972e+01,1.886419443688310991e-03
5.271999999999999886e+01,2.689513877242182254e-03
5.275999999999999801e+01,2.758028500473204588e-03
5.279999999999999716e+01,1.896086771983065749e-03
5.284000000000000341e+01,1.425855682413122716e-03
5.288000000000000256e+01,3.061255391963382897e-03
5.292000000000000171e+01,2.541970225064750857e-03
5.296000000000000085e+01,1.581920341917213840e-03
5.300000000000000000e+01,2.776470534227699471e-03
5.303999999999999915e+01,1.865305126427107543e-03
5.307999999999999829e+01,2.814925003677549824e-03
5.311999999999999744e+01,3.078934607228935721e-03
5.315999999999999659e+01,2.657333980462265200e-03
5.320000000000000284e+01,2.725382675434415147e-03
5.324000000000000199e+01,2.254728665434979802e-03
5.328000000000000114e+01,2.861353818274309496e-03
5.332000000000000028e+01,1.949893429007472411e-03
5.335999999999999943e+01,2.850249482263815699e-03
5.339999999999999858e+01,1.938705203007012878e-03
5.343999999999999773e+01,1.418872213385356969e-03
5.347999999999999687e+01,1.976318603507437079e-03
5.352000000000000313e+01,2.876507223831822370e-03
5.356000000000000227e+01,2.062733977556705477e-03
5.360000000000000142e+01,2.571085972142457543e-03
5.364000000000000057e+01,2.540735695566587096e-03
5.367999999999999972e+01,2.951066115106660767e-03
5.371999999999999886e+01,2.088157157324676931e-03
5.375999999999999801e+01,2.106651298174088468e-03
5.379999999999999716e+01,1.929227364749658367e-03
5.384000000000000341e+01,2.535268324328965404e-03
5.388000000000000256e+01,2.553638126837790706e-03
5.392000000000000171e+01,2.522997423800251316e-03
5.396000000000000085e+01,2.394377112402518767e-03
5.400000000000000000e+01,1.922931505051435688e-03
5.403999999999999915e+01,3.165364785310811543e-03
5.407999999999999829e+01,2.644867616728801239e-03
5.411999999999999744e+01,2.369175036674381254e-03
5.415999999999999659e+01,3.023855135256142430e-03
5.420000000000000284e+01,3.825401616737824414e-03
5.424000000000000199e+01,2.717110384317626345e-03
5.428000000000000114e+01,2.490222814481766155e-03
5.432000000000000028e+01,2.899893219637102518e-03
5.435999999999999943e+01,2.917769573073231409e-03
5.439999999999999858e+01,2.494882771976313952e-03
5.443999999999999773e+01,2.414739198844608695e-03
5.447999999999999687e+01,3.118061212812571481e-03
5.452000000000000313e+01,2.254329839909420454e-03
5.456000000000000227e+01,3.006539626180014437e-03
5.460000000000000142e+01,2.534480135705284229e-03
5.464000000000000057e+01,2.650009821074895619e-03
5.467999999999999972e+01,3.304159579475004094e-03
5.471999999999999886e+01,2.929916776052095707e-03
5.475999999999999801e+01,3.045324986226854384e-03
5.479999999999999716e+01,2.622032183288869160e-03
5.484000000000000341e+01,3.422927673632972408e-03
5.488000000000000256e+01,2.069140413196985002e-03
5.492000000000000171e+01,1.988510678999900333e-03
5.496000000000000085e+01,3.230007660617549830e-03
5.500000000000000000e+01,3.345174091689493909e-03
5.503999999999999915e+01,3.019578062324335989e-03
5.507999999999999829e+01,2.889818516435832194e-03
5.511999999999999744e+01,2.221358304482557323e-03
5.515999999999999659e+01,3.364716487197288823e-03
5.520000000000000284e+01,3.479682628660947952e-03
5.524000000000000199e+01,1.586873848357959766e-03
5.528000000000000114e+01,2.338359078178050762e-03
5.532000000000000028e+01,2.600113005033173781e-03
5.535999999999999943e+01,2.127289941330185764e-03
5.539999999999999858e+01,2.976594070632884465e-03
5.543999999999999773e+01,3.140290442334297237e-03
5.547999999999999687e+01,3.254978000348184540e-03
5.552000000000000313e+01,2.733027033717597577e-03
5.556000000000000227e+01,2.749697094499432316e-03
5.560000000000000142e+01,2.766327617931555165e-03
5.564000000000000057e+01,2.538072916420823933e-03
5.567999999999999972e+01,3.289161688218963236e-03
5.571999999999999886e+01,3.403612152277601423e-03
5.575999999999999801e+01,2.832455205782915663e-03
5.579999999999999716e+01,2.750950400791792386e-03
5.584000000000000341e+01,2.620437172542112742e-03
5.588000000000000256e+01,2.440915564414866071e-03
5.592000000000000171e+01,2.702077081739339033e-03
5.596000000000000085e+01,2.473507990194789667e-03
5.600000000000000000e+01,2.979436988032918739e-03
5.603999999999999915e+01,2.799758878984694339e-03
5.607999999999999829e+01,2.326226875989748002e-03
5.611999999999999744e+01,3.762452601196356917e-03
5.615999999999999659e+01,1.966675747528513242e-03
5.620000000000000284e+01,3.011070486525970792e-03
5.624000000000000199e+01,2.096660534476503610e-03
5.628000000000000114e+01,3.336854215126728706e-03
5.632000000000000028e+01,2.863089022466166166e-03
5.635999999999999943e+01,3.760421210150032261e-03
5.639999999999999858e+01,3.433486073233384551e-03
5.643999999999999773e+01,1.490530485538601622e-03
5.647999999999999687e+01,2.828469109929552996e-03
5.652000000000000313e+01,2.697294808888838977e-03
5.656000000000000227e+01,2.810927742616462638e-03
5.660000000000000142e+01,3.463182831662403420e-03
5.664000000000000057e+01,3.429831464536923624e-03
5.667999999999999972e+01,3.445410877543463556e-03
5.671999999999999886e+01,2.775383921140577633e-03
5.675999999999999801e+01,2.105318685436872745e-03
5.679999999999999716e+01,4.128518254528917332e-03
5.684000000000000341e+01,2.136209643106175109e-03
5.688000000000000256e+01,3.130980800410152875e-03
5.692000000000000171e+01,3.146330928040712988e-03
5.696000000000000085e+01,2.769889823716799402e-03
5.700000000000000000e+01,3.274855331884961480e-03
5.703999999999999915e+01,3.192153110081320452e-03
5.707999999999999829e+01,3.892919295142086445e-03
5.711999999999999744e+01,2.928696620706815537e-03
5.715999999999999659e+01,2.992788170872090481e-03
5.720000000000000284e+01,2.909934480343002224e-03
5.724000000000000199e+01,3.659518516397133447e-03
5.728000000000000114e+01,3.233805328427505430e-03
5.732000000000000028e+01,2.465270445127190190e-03
5.735999999999999943e+01,2.529173418553081094e-03
5.739999999999999858e+01,2.250254783410285137e-03
5.743999999999999773e+01,3.097588968924654563e-03
5.747999999999999687e+01,3.210348463073697031e-03
5.752000000000000313e+01,2.833379040212558129e-03
5.756000000000000227e+01,3.092971106203280460e-03
5.760000000000000142e+01,3.695309827257897087e-03
5.764000000000000057e+01,3.318228299497030798e-03
5.767999999999999972e+01,3.039047782587909422e-03
5.771999999999999886e+01,3.151583197080490284e-03
5.775999999999999801e+01,3.606865440160950988e-03
5.779999999999999716e+01,3.131696754144741232e-03
5.784000000000000341e+01,2.166799498166305151e-03
5.788000000000000256e+01,2.377124686230823025e-03
5.792000000000000171e+01,3.860610654108955365e-03
5.796000000000000085e+01,2.699725749595381901e-03
5.800000000000000000e+01,2.763032565462579439e-03
5.803999999999999915e+01,2.091765297298397042e-03
5.807999999999999829e+01,2.497782397692492259e-03
5.811999999999999744e+01,2.903762693739622442e-03
5.815999999999999659e+01,2.673107328288014482e-03
5.820000000000000284e+01,3.568705607732503352e-03
5.824000000000000199e+01,3.582822581466097757e-03
5.828000000000000114e+01,3.694841216766374739e-03
5.832000000000000028e+01,2.925378633117756751e-03
5.835999999999999943e+01,3.184231575499549098e-03
5.839999999999999858e+01,2.953356555253071683e-03
5.843999999999999773e+01,3.114198247266223869e-03
5.847999999999999687e+01,3.323972671556216143e-03
5.852000000000000313e+01,3.533710725309200523e-03
5.856000000000000227e+01,3.204751843763068569e-03
5.860000000000000142e+01,2.973694970831590716e-03
5.864000000000000057e+01,3.868892219987150535e-03
5.867999999999999972e+01,1.923842792829630116e-03
5.871999999999999886e+01,3.161751714703957446e-03
5.875999999999999801e+01,4.301686233937599205e-03
5.879999999999999716e+01,2.748281645585627479e-03
5.884000000000000341e+01,3.398452612511920247e-03
5.888000000000000256e+01,3.754772722161206673e-03
5.892000000000000171e+01,3.229612263576529720e-03
5.896000000000000085e+01,2.998230788814779720e-03
5.900000000000000000e+01,4.333826142322499964e-03
5.903999999999999915e+01,2.976082648530588293e-03
5.907999999999999829e+01,3.870884116497736588e-03
5.911999999999999744e+01,3.884205233135912001e-03
5.915999999999999659e+01,3.211922626605417160e-03
5.920000000000000284e+01,3.763833041885567780e-03
5.924000000000000199e+01,3.042510066421103433e-03
5.928000000000000114e+01,3.692287638113758274e-03
5.932000000000000028e+01,4.684813730253134349e-03
5.935999999999999943e+01,3.865445953647762226e-03
5.939999999999999858e+01,4.172333123368364427e-03
5.943999999999999773e+01,3.254956265444151290e-03
5.947999999999999687e+01,3.121050417244098426e-03
5.952000000000000313e+01,3.574739037369892292e-03
5.956000000000000227e+01,3.636639245305945799e-03
5.960000000000000142e+01,4.628918031693634791e-03
5.964000000000000057e+01,3.417550083444922081e-03
5.967999999999999972e+01,3.283468238994319017e-03
5.971999999999999886e+01,3.051413033046933027e-03
5.975999999999999801e+01,3.700767432880340286e-03
5.979999999999999716e+01,4.105241119394476869e-03
5.984000000000000341e+01,4.411741574554818059e-03
5.988000000000000256e+01,3.396040186871652176e-03
5.992000000000000171e+01,4.975668695312263426e-03
5.996000000000000085e+01,3.715051915631654295e-03
