2.003999999999999915e+01,6.234768009754051293e-02
2.007999999999999829e+01,8.878611766589103449e-02
2.012000000000000099e+01,8.113071558756287938e-02
2.016000000000000014e+01,7.863036479641993814e-02
2.019999999999999929e+01,7.771698119116207670e-02
2.023999999999999844e+01,9.365402061651167953e-02
2.028000000000000114e+01,6.955040691347125215e-02
2.032000000000000028e+01,7.696598902856763291e-02
2.035999999999999943e+01,8.200399221058238264e-02
2.039999999999999858e+01,7.475307679744599976e-02
2.044000000000000128e+01,8.197384933777070171e-02
2.048000000000000043e+01,7.056244202543406063e-02
2.051999999999999957e+01,6.093620584828169512e-02
2.055999999999999872e+01,8.421673555295326741e-02
2.060000000000000142e+01,5.813993273738484596e-02
2.064000000000000057e+01,8.994645887741532786e-02
2.067999999999999972e+01,8.111762319651646957e-02
2.071999999999999886e+01,7.645266524423055543e-02
2.076000000000000156e+01,6.425620473202230121e-02
2.080000000000000071e+01,8.060550481338041307e-02
2.083999999999999986e+01,9.100911052826454739e-02
2.087999999999999901e+01,7.445498498326323655e-02
2.092000000000000171e+01,8.129271634359010179e-02
2.096000000000000085e+01,8.198651805605364218e-02
2.100000000000000000e+01,7.752752095365184060e-02
2.103999999999999915e+01,7.683592532034090594e-02
2.107999999999999829e+01,7.753300747246191782e-02
2.112000000000000099e+01,5.662446315386377577e-02
2.116000000000000014e+01,8.903999582773074184e-02
2.119999999999999929e+01,8.141480986065714742e-02
2.123999999999999844e+01,5.476093644931039756e-02
2.128000000000000114e+01,7.568255613336877241e-02
2.132000000000000028e+01,6.905173301663042329e-02
2.135999999999999943e+01,7.054927678003608538e-02
2.139999999999999858e+01,5.579329601351720042e-02
2.144000000000000128e+01,7.077239068425984769e-02
2.148000000000000043e+01,5.819903116071901278e-02
2.151999999999999957e+01,6.227777678361518660e-02
2.155999999999999872e+01,6.576289864874226843e-02
2.160000000000000142e+01,6.171645813814004289e-02
2.164000000000000057e+01,6.104092289850450437e-02
2.167999999999999972e+01,6.135756924617619817e-02
2.171999999999999886e+01,6.544156864061889678e-02
2.176000000000000156e+01,7.547341233247427394e-02
2.180000000000000071e+01,5.973681966953754696e-02
2.183999999999999986e+01,6.065230936606352818e-02
2.187999999999999901e+01,6.335287335313394275e-02
2.192000000000000171e+01,6.724382857355513943e-02
2.196000000000000085e+01,5.468299265057297021e-02
2.200000000000000000e+01,5.500791970436135631e-02
2.203999999999999915e+01,5.077465409444043704e-02
2.207999999999999829e+01,4.991226242339664998e-02
2.212000000000000099e+01,6.808065400850095428e-02
2.216000000000000014e+01,6.404866485639826301e-02
2.219999999999999929e+01,6.358576783433139701e-02
2.223999999999999844e+01,5.955579758806620050e-02
2.228000000000000114e+01,5.968959398391507354e-02
2.232000000000000028e+01,5.585985798627401272e-02
2.235999999999999943e+01,5.857260376929113166e-02
2.239999999999999858e+01,7.773916529829238975e-02
2.244000000000000128e+01,5.627023967800646315e-02
2.248000000000000043e+01,6.552744911868606248e-02
2.251999999999999957e+01,6.507253657207218156e-02
2.255999999999999872e+01,5.986116759664204118e-02
2.260000000000000142e+01,4.176604315679155466e-02
2.264000000000000057e+01,4.428747883444780764e-02
2.267999999999999972e+01,5.810881517636282134e-02
2.271999999999999886e+01,7.549920661948081313e-02
2.276000000000000156e+01,7.505016279784253175e-02
2.280000000000000071e+01,6.449252357776036337e-02
2.283999999999999986e+01,7.474965696960016170e-02
2.287999999999999901e+01,7.172656148586920022e-02
2.292000000000000171e+01,4.987288566252517930e-02
2.296000000000000085e+01,4.586057286187822379e-02
2.300000000000000000e+01,6.087898065320044433e-02
2.303999999999999915e+01,6.578877595584829707e-02
2.307999999999999829e+01,6.098640939399804783e-02
2.312000000000000099e+01,4.964350589966107230e-02
2.316000000000000014e+01,3.711218450386245815e-02
2.319999999999999929e+01,5.173886564540644550e-02
2.323999999999999844e+01,5.942854783680058539e-02
2.328000000000000114e+01,5.086457162479699617e-02
2.332000000000000028e+01,5.459158418447394162e-02
2.335999999999999943e+01,4.186670590773575173e-02
2.339999999999999858e+01,4.083813049711255277e-02
2.344000000000000128e+01,2.355588528960478323e-02
2.348000000000000043e+01,5.305606957195880408e-02
2.351999999999999957e+01,4.132600959016601017e-02
2.355999999999999872e+01,4.644613622412412796e-02
2.360000000000000142e+01,4.978313341570934220e-02
2.364000000000000057e+01,6.323060249298741164e-02
2.367999999999999972e+01,5.685630343021886440e-02
2.371999999999999886e+01,3.660703546725069951e-02
2.376000000000000156e+01,5.243593329674849784e-02
2.380000000000000071e+01,5.082177527637193187e-02
2.383999999999999986e+01,5.257836586651481320e-02
2.387999999999999901e+01,5.413762096587401706e-02
2.392000000000000171e+01,5.549953772607783137e-02
2.396000000000000085e+01,5.369071225464529251e-02
2.400000000000000000e+01,4.395370003262936281e-02
2.403999999999999915e+01,7.207887429094272935e-02
2.407999999999999829e+01,5.600036336379501239e-02
2.412000000000000099e+01,6.826914987908298815e-02
2.416000000000000014e+01,5.457110524937059531e-02
2.419999999999999929e+01,5.871433534283052036e-02
2.423999999999999844e+01,3.233151366024557272e-02
2.428000000000000114e+01,4.063923358737565883e-02
2.432000000000000028e+01,6.123787107689219328e-02
2.435999999999999943e+01,6.042887811385042746e-02
2.439999999999999858e+01,4.832181539985060115e-02
2.444000000000000128e+01,6.436380060503814338e-02
2.448000000000000043e+01,3.600384540477315209e-02
2.451999999999999957e+01,4.788476333966370374e-02
2.455999999999999872e+01,6.531687271339527145e-02
2.460000000000000142e+01,5.519630571984542045e-02
2.464000000000000057e+01,4.923933731447540513e-02
2.467999999999999972e+01,5.795198167143323503e-02
2.471999999999999886e+01,6.071865536985558004e-02
2.476000000000000156e+01,5.020496631923442726e-02
2.480000000000000071e+01,4.504422488094968896e-02
2.483999999999999986e+01,4.127189348115061635e-02
2.487999999999999901e+01,4.443831788713624442e-02
2.492000000000000171e+01,4.403747822801506312e-02
2.496000000000000085e+01,4.998070846911321918e-02
2.500000000000000000e+01,4.244533213466310240e-02
2.503999999999999915e+01,1.885439880473160218e-02
2.507999999999999829e+01,4.026174040332573117e-02
2.512000000000000099e+01,4.660465299106477527e-02
2.516000000000000014e+01,5.294836567639744918e-02
2.519999999999999929e+01,4.402941691785772910e-02
2.523999999999999844e+01,3.867934381309927339e-02
2.528000000000000114e+01,3.174424837062781585e-02
2.532000000000000028e+01,5.513863228217851659e-02
2.535999999999999943e+01,4.820511139954877095e-02
2.539999999999999858e+01,5.792341937129459606e-02
2.544000000000000128e+01,3.097056129134977825e-02
2.548000000000000043e+01,4.168156041407659190e-02
2.551999999999999957e+01,4.723943885592845476e-02
2.555999999999999872e+01,4.229207188913673005e-02
2.560000000000000142e+01,3.972419452313674659e-02
2.564000000000000057e+01,1.892022333706543102e-02
2.567999999999999972e+01,4.271803088139530108e-02
2.571999999999999886e+01,2.964642569915815554e-02
2.576000000000000156e+01,3.382130394477265295e-02
2.580000000000000071e+01,3.165368115326606252e-02
2.583999999999999986e+01,3.305489128996452058e-02
2.587999999999999901e+01,3.108699573690762788e-02
2.592000000000000171e+01,3.169679373394246324e-02
2.596000000000000085e+01,3.627186958661488686e-02
2.600000000000000000e+01,3.886541835833453445e-02
2.603999999999999915e+01,3.610758268407227717e-02
2.607999999999999829e+01,2.086219720959379270e-02
2.612000000000000099e+01,4.209126294619498082e-02
2.616000000000000014e+01,3.378527386627616647e-02
2.619999999999999929e+01,5.065480633307765934e-02
2.623999999999999844e+01,2.133823243960335930e-02
2.628000000000000114e+01,5.307621366169216343e-02
2.632000000000000028e+01,3.961921650813138296e-02
2.635999999999999943e+01,3.884944512254454030e-02
2.639999999999999858e+01,4.105378657913614365e-02
2.644000000000000128e+01,2.740069808350853453e-02
2.648000000000000043e+01,4.209473897638227324e-02
2.651999999999999957e+01,5.460898902319619858e-02
2.655999999999999872e+01,3.144312694527973823e-02
2.660000000000000142e+01,4.237296106269421853e-02
2.664000000000000057e+01,4.279747286542737866e-02
2.667999999999999972e+01,4.758366472565427052e-02
2.671999999999999886e+01,3.532304627741579550e-02
2.676000000000000156e+01,5.398648485063775593e-02
2.680000000000000071e+01,5.183679942944548896e-02
2.683999999999999986e+01,3.303674862722058569e-02
2.687999999999999901e+01,4.040330463076570455e-02
2.692000000000000171e+01,5.252797707412193429e-02
2.696000000000000085e+01,2.342216029335938282e-02
2.700000000000000000e+01,3.871980151045587015e-02
2.703999999999999915e+01,3.716883636838662353e-02
2.707999999999999829e+01,4.196179016283312774e-02
2.712000000000000099e+01,4.378200344054732074e-02
2.716000000000000014e+01,4.144011293551407710e-02
2.719999999999999929e+01,4.445099914051130890e-02
2.723999999999999844e+01,4.548026996503092695e-02
2.728000000000000114e+01,3.223786491171575647e-02
2.732000000000000028e+01,5.011770373893022906e-02
2.735999999999999943e+01,5.531167488175810221e-02
2.739999999999999858e+01,5.218076368985478941e-02
2.744000000000000128e+01,7.343237880005119844e-02
2.748000000000000043e+01,4.631730515143343135e-02
2.751999999999999957e+01,7.232762886789571855e-02
2.755999999999999872e+01,5.591806021701886675e-02
2.760000000000000142e+01,5.298853597968720963e-02
2.764000000000000057e+01,7.939719220944556344e-02
2.767999999999999972e+01,7.111679024143380268e-02
2.771999999999999886e+01,7.790223803204367192e-02
2.776000000000000156e+01,7.101065597317937628e-02
2.780000000000000071e+01,8.433881311931581970e-02
2.783999999999999986e+01,1.073806895995615962e-01
2.787999999999999901e+01,1.002927085744796665e-01
2.792000000000000171e+01,1.292825971111998262e-01
2.796000000000000085e+01,1.281426224458485363e-01
2.800000000000000000e+01,1.579266165024330315e-01
2.803999999999999915e+01,1.736371072983931563e-01
2.807999999999999829e+01,2.228485086911068391e-01
2.812000000000000099e+01,1.834531482874446895e-01
2.816000000000000014e+01,2.068962497523383071e-01
2.819999999999999929e+01,2.117066216288194247e-01
2.823999999999999844e+01,1.966949006508726394e-01
2.828000000000000114e+01,2.032904718513832143e-01
2.832000000000000028e+01,2.075078972928304233e-01
2.835999999999999943e+01,2.032021453023500346e-01
2.839999999999999858e+01,1.636126036345859069e-01
2.844000000000000128e+01,1.678317372144751962e-01
2.848000000000000043e+01,1.627347778722257332e-01
2.851999999999999957e+01,1.162089914830845838e-01
2.855999999999999872e+01,1.125007381151119229e-01
2.860000000000000142e+01,9.650298223577570556e-02
2.864000000000000057e+01,9.457987692114044886e-02
2.867999999999999972e+01,9.820766966305438661e-02
2.871999999999999886e+01,6.774101035835422557e-02
2.876000000000000156e+01,7.652378858003242024e-02
2.880000000000000071e+01,5.497841704755817432e-02
2.883999999999999986e+01,6.118532664082914491e-02
2.887999999999999901e+01,6.461759712528424016e-02
2.892000000000000171e+01,6.051778398197670689e-02
2.896000000000000085e+01,4.254262880176803291e-02
2.900000000000000000e+01,3.844387181464066494e-02
2.903999999999999915e+01,5.198781816142794554e-02
2.907999999999999829e+01,3.401423439781665892e-02
2.912000000000000099e+01,2.099683714984310404e-02
2.916000000000000014e+01,2.681149510831256841e-02
2.919999999999999929e+01,3.599651999548472703e-02
2.923999999999999844e+01,3.090972943460552902e-02
2.928000000000000114e+01,3.613123587527399677e-02
2.932000000000000028e+01,1.280859615942266799e-02
2.935999999999999943e+01,4.360235646492002098e-02
2.939999999999999858e+01,2.682219823485400972e-02
2.944000000000000128e+01,1.816983151383505524e-02
2.948000000000000043e+01,3.191757846521618008e-02
2.951999999999999957e+01,2.881654245838229447e-02
2.955999999999999872e+01,6.487999809673921162e-03
2.960000000000000142e+01,2.182302098134516685e-02
2.964000000000000057e+01,2.149861106732964267e-02
2.967999999999999972e+01,2.394985369273367956e-02
2.971999999999999886e+01,1.748136856902211822e-02
2.976000000000000156e+01,2.132114626639681695e-02
2.980000000000000071e+01,2.139508566103525550e-02
2.983999999999999986e+01,3.455245648785192775e-02
2.987999999999999901e+01,5.686223214314945797e-03
2.992000000000000171e+01,2.122324000749808981e-02
2.996000000000000085e+01,3.180504668681394947e-02
3.000000000000000000e+01,2.196995497452219198e-02
3.003999999999999915e+01,9.954821759455221783e-03
3.007999999999999829e+01,1.221246330397974394e-02
3.012000000000000099e+01,0.000000000000000000e+00
3.016000000000000014e+01,1.633263077059299642e-02
3.019999999999999929e+01,1.918628467730811374e-02
3.023999999999999844e+01,3.512334153248391350e-02
3.028000000000000114e+01,1.141548663887585573e-02
3.032000000000000028e+01,1.783852831654517829e-02
3.035999999999999943e+01,1.415243625350676507e-02
3.039999999999999858e+01,1.284549198664818037e-02
3.044000000000000128e+01,2.145030864600811632e-02
3.048000000000000043e+01,2.291938406365428421e-02
3.051999999999999957e+01,2.082079664414639847e-02
3.055999999999999872e+01,3.319317654004257101e-02
3.060000000000000142e+01,2.475216184620677301e-02
3.064000000000000057e+01,2.166367890242957076e-02
3.067999999999999972e+01,2.472063180543501021e-02
3.071999999999999886e+01,1.251453018926395808e-02
3.076000000000000156e+01,1.854568963584337510e-02
3.080000000000000071e+01,3.944425278014436487e-02
3.083999999999999986e+01,2.188722471610048820e-02
3.087999999999999901e+01,9.682711311884585961e-03
3.092000000000000171e+01,2.661791807199985135e-02
3.096000000000000085e+01,3.562444246484437055e-02
3.100000000000000000e+01,2.798030524599231378e-02
3.103999999999999915e+01,2.925675254641240189e-02
3.107999999999999829e+01,3.350697942951421510e-02
3.112000000000000099e+01,4.073098304692593374e-02
3.116000000000000014e+01,3.962983658266014397e-02
3.119999999999999929e+01,2.227446773738694236e-02
3.123999999999999844e+01,4.020382509396330795e-02
3.128000000000000114e+01,5.377255854922607242e-02
3.132000000000000028e+01,5.802499684795453527e-02
3.135999999999999943e+01,3.313846351438136384e-02
3.139999999999999858e+01,5.206039464895079183e-02
3.144000000000000128e+01,4.283448213584474529e-02
3.148000000000000043e+01,5.898194192065982222e-02
3.151999999999999957e+01,6.125387737278075589e-02
3.155999999999999872e+01,5.757935509479420594e-02
3.160000000000000142e+01,7.987287677843524225e-02
3.164000000000000057e+01,7.580258119900760982e-02
3.167999999999999972e+01,9.829500409328599531e-02
3.171999999999999886e+01,9.184665645619073671e-02
3.176000000000000156e+01,1.181060504205506262e-01
3.180000000000000071e+01,1.019452500901642106e-01
3.183999999999999986e+01,1.349450047752279724e-01
3.187999999999999901e+01,1.057018858414059681e-01
3.192000000000000171e+01,9.628175925774497268e-02
3.196000000000000085e+01,9.340343084551806785e-02
3.200000000000000000e+01,1.016261126906543161e-01
3.203999999999999915e+01,9.636968664681141994e-02
3.207999999999999829e+01,8.853662036068536689e-02
3.211999999999999744e+01,7.872159119272589822e-02
3.215999999999999659e+01,7.088913102004068545e-02
3.220000000000000284e+01,6.741795782954540517e-02
3.224000000000000199e+01,6.632580141012860142e-02
3.228000000000000114e+01,8.267789087023928729e-02
3.232000000000000028e+01,5.997960352342798784e-02
3.235999999999999943e+01,5.175215531529137741e-02
3.239999999999999858e+01,5.640972950726597102e-02
3.243999999999999773e+01,5.155270205202282935e-02
3.247999999999999687e+01,4.986758122272350047e-02
3.252000000000000313e+01,6.205860792978980939e-02
3.256000000000000227e+01,3.797441504753886615e-02
3.260000000000000142e+01,4.758903763230588196e-02
3.264000000000000057e+01,4.868017800936613043e-02
3.267999999999999972e+01,5.016803646267585515e-02
3.271999999999999886e+01,4.650226152819263853e-02
3.275999999999999801e+01,2.915910069776438823e-02
3.279999999999999716e+01,2.212398621216827774e-02
3.284000000000000341e+01,3.966924023475746491e-02
3.288000000000000256e+01,3.600448383787599460e-02
3.292000000000000171e+01,3.531337599857488352e-02
3.296000000000000085e+01,6.098666874880937644e-02
3.300000000000000000e+01,1.447406370440408041e-01
3.303999999999999915e+01,1.212541799834171152e-01
3.307999999999999829e+01,4.484142045763072487e-02
3.311999999999999744e+01,1.917493868958971420e-02
3.315999999999999659e+01,2.760368598390968917e-02
3.320000000000000284e+01,3.226635286389317042e-02
3.324000000000000199e+01,3.296470974489439099e-02
3.328000000000000114e+01,3.544732913048632972e-02
3.332000000000000028e+01,3.356917934780458829e-02
3.335999999999999943e+01,3.149301901023042471e-02
3.339999999999999858e+01,3.595855430270675224e-02
3.343999999999999773e+01,4.101898028864298107e-02
3.347999999999999687e+01,2.586048681090183030e-02
3.352000000000000313e+01,1.982062798965725930e-02
3.356000000000000227e+01,5.144405099998735492e-02
3.360000000000000142e+01,4.282764563785506490e-02
3.364000000000000057e+01,3.440966325477600590e-02
3.367999999999999972e+01,3.491207739843243951e-02
3.371999999999999886e+01,5.067814078121927329e-02
3.375999999999999801e+01,5.058625295975342773e-02
3.379999999999999716e+01,6.754204930714011179e-02
3.384000000000000341e+01,5.099770922514837435e-02
3.388000000000000256e+01,6.141238442896348321e-02
3.392000000000000171e+01,4.288613244095761806e-02
3.396000000000000085e+01,6.301426748217850426e-02
3.400000000000000000e+01,6.371635297598494951e-02
3.403999999999999915e+01,6.501328643767485815e-02
3.407999999999999829e+01,6.135471640320550729e-02
3.411999999999999744e+01,6.582360461828648535e-02
3.415999999999999659e+01,7.861817497081992345e-02
3.420000000000000284e+01,7.159022806153210461e-02
3.424000000000000199e+01,7.209505064785740047e-02
3.428000000000000114e+01,6.625676834224696055e-02
3.432000000000000028e+01,9.154023145210711532e-02
3.435999999999999943e+01,7.162814366359228357e-02
3.439999999999999858e+01,8.164843517616074409e-02
3.443999999999999773e+01,6.471002983081483584e-02
3.447999999999999687e+01,7.631641093589093539e-02
3.452000000000000313e+01,7.543464123430806967e-02
3.456000000000000227e+01,8.406788560410366484e-02
3.460000000000000142e+01,8.100588041559270147e-02
3.464000000000000057e+01,8.151208151349795261e-02
3.467999999999999972e+01,8.677584646709150806e-02
3.471999999999999886e+01,8.272307415255059082e-02
3.475999999999999801e+01,7.867041832637935994e-02
3.479999999999999716e+01,6.054377786475517026e-02
3.484000000000000341e+01,6.739381696527577126e-02
3.488000000000000256e+01,6.433262719535301488e-02
3.492000000000000171e+01,8.604988455455760132e-02
3.496000000000000085e+01,5.880524030060562540e-02
3.500000000000000000e+01,8.012624583191231553e-02
3.503999999999999915e+01,7.845304650520736056e-02
3.507999999999999829e+01,7.440122004461048599e-02
3.511999999999999744e+01,7.669273999780416851e-02
3.515999999999999659e+01,5.955812780080205898e-02
3.520000000000000284e+01,6.442676848648956622e-02
3.524000000000000199e+01,5.581607341345647816e-02
3.528000000000000114e+01,6.544231753716425737e-02
3.532000000000000028e+01,5.980517957894228298e-02
3.535999999999999943e+01,6.526881261485519004e-02
3.539999999999999858e+01,6.280344711423128945e-02
3.543999999999999773e+01,7.936791636195697497e-02
3.547999999999999687e+01,6.540553344117122636e-02
3.552000000000000313e+01,9.069210667193512709e-02
3.556000000000000227e+01,7.772097932275973120e-02
3.560000000000000142e+01,8.100450102061149127e-02
3.564000000000000057e+01,7.635900709169581024e-02
3.567999999999999972e+01,8.380539505131065492e-02
3.571999999999999886e+01,8.550325578642802016e-02
3.575999999999999801e+01,1.004823531309761431e-01
3.579999999999999716e+01,9.484591233373648733e-02
3.584000000000000341e+01,9.753503404233507257e-02
3.588000000000000256e+01,1.028011400564554090e-01
3.592000000000000171e+01,1.282864070561078318e-01
3.596000000000000085e+01,1.367242057734167071e-01
3.600000000000000000e+01,1.271233996786404474e-01
3.603999999999999915e+01,1.306055835184185832e-01
3.607999999999999829e+01,1.434044464551741394e-01
3.611999999999999744e+01,1.564015557719332650e-01
3.615999999999999659e+01,1.670199610487629049e-01
3.620000000000000284e+01,1.772419268000307302e-01
3.624000000000000199e+01,1.860763164959951255e-01
3.628000000000000114e+01,1.816295231118471298e-01
3.632000000000000028e+01,1.787685490197615801e-01
3.635999999999999943e+01,1.782862983164625603e-01
3.639999999999999858e+01,1.698749778673325772e-01
3.643999999999999773e+01,1.674104563631768627e-01
3.647999999999999687e+01,1.877420035389099906e-01
3.652000000000000313e+01,1.912242692913686537e-01
3.656000000000000227e+01,1.576381236722376733e-01
3.660000000000000142e+01,1.579487354192218307e-01
3.664000000000000057e+01,1.665848527046088490e-01
3.667999999999999972e+01,1.555965028653990001e-01
3.671999999999999886e+01,1.144776660307008781e-01
3.675999999999999801e+01,1.243030744881911676e-01
3.679999999999999716e+01,1.575192090474180628e-01
3.684000000000000341e+01,1.322584247788654299e-01
3.688000000000000256e+01,1.258291459810047808e-01
3.692000000000000171e+01,1.263377656290269879e-01
3.696000000000000085e+01,1.236747173245884013e-01
3.700000000000000000e+01,1.344910440663297513e-01
3.703999999999999915e+01,1.151768610256086456e-01
3.707999999999999829e+01,9.269100148731145017e-02
3.711999999999999744e+01,1.132202921548985386e-01
3.715999999999999659e+01,1.145215349899754431e-01
3.720000000000000284e+01,1.110652788921693279e-01
3.724000000000000199e+01,1.091947765738750936e-01
3.728000000000000114e+01,1.116851994945563392e-01
3.732000000000000028e+01,1.090216614646913607e-01
3.735999999999999943e+01,1.216215134721260055e-01
3.739999999999999858e+01,1.054784172156699174e-01
3.743999999999999773e+01,1.075721063438793146e-01
3.747999999999999687e+01,1.294883918985740567e-01
3.752000000000000313e+01,1.133450640393867254e-01
3.756000000000000227e+01,1.237640359432557735e-01
3.760000000000000142e+01,1.153513821550732482e-01
3.764000000000000057e+01,1.168499765861910344e-01
3.767999999999999972e+01,1.153750785304302334e-01
3.771999999999999886e+01,1.301546785579929533e-01
3.775999999999999801e+01,1.372033387313584818e-01
3.779999999999999716e+01,1.418731780815520316e-01
3.784000000000000341e+01,1.721141635748298371e-01
3.788000000000000256e+01,1.698458586345504839e-01
3.792000000000000171e+01,1.741189274583118951e-01
3.796000000000000085e+01,1.970251981104536587e-01
3.800000000000000000e+01,2.151739128622770780e-01
3.803999999999999915e+01,2.291597490742322829e-01
3.807999999999999829e+01,2.687167143390410406e-01
3.811999999999999744e+01,3.051019290486077229e-01
3.815999999999999659e+01,3.428746052888617668e-01
3.820000000000000284e+01,3.794577926398698398e-01
3.824000000000000199e+01,4.443872719580798658e-01
3.828000000000000114e+01,5.329055987245447934e-01
3.832000000000000028e+01,6.301457648703466807e-01
3.835999999999999943e+01,7.598949758999881121e-01
3.839999999999999858e+01,8.147143379046128953e-01
3.843999999999999773e+01,8.483232935660910412e-01
3.847999999999999687e+01,8.284108820233963000e-01
3.852000000000000313e+01,7.664742511320462581e-01
3.856000000000000227e+01,6.732176418024629072e-01
3.860000000000000142e+01,5.765910210009024262e-01
3.864000000000000057e+01,5.087071171553740889e-01
3.867999999999999972e+01,4.255595919646876224e-01
3.871999999999999886e+01,3.774980335940564813e-01
3.875999999999999801e+01,3.282469464569745532e-01
3.879999999999999716e+01,2.932680131344388430e-01
3.884000000000000341e+01,2.676055623712286224e-01
3.888000000000000256e+01,2.314369176915763993e-01
3.892000000000000171e+01,2.283719582273811000e-01
3.896000000000000085e+01,2.157919328313699647e-01
3.900000000000000000e+01,1.966702396992807966e-01
3.903999999999999915e+01,2.080752756659717262e-01
3.907999999999999829e+01,1.865744822754045740e-01
3.911999999999999744e+01,1.906447438800251415e-01
3.915999999999999659e+01,1.828212044756835908e-01
3.920000000000000284e+01,1.916485112374581301e-01
3.924000000000000199e+01,1.881855578209790936e-01
3.928000000000000114e+01,1.686660333886695340e-01
3.932000000000000028e+01,1.911703688204273444e-01
3.935999999999999943e+01,2.003933018474466088e-01
3.939999999999999858e+01,1.935596553135200126e-01
3.943999999999999773e+01,1.988176229211778556e-01
3.947999999999999687e+01,2.104186264701035924e-01
3.952000000000000313e+01,2.027914141325848629e-01
3.956000000000000227e+01,2.306465622718623654e-01
3.960000000000000142e+01,2.434362502897048919e-01
3.964000000000000057e+01,2.562257072945616221e-01
3.967999999999999972e+01,2.713936512733483575e-01
3.971999999999999886e+01,2.933010675757202756e-01
3.975999999999999801e+01,3.142171106386211221e-01
3.979999999999999716e+01,3.446477946361992117e-01
3.984000000000000341e+01,4.028299764572866315e-01
3.988000000000000256e+01,4.328637136242555750e-01
3.992000000000000171e+01,4.581397581690614396e-01
3.996000000000000085e+01,5.105726117834394895e-01
4.000000000000000000e+01,6.153370671258103775e-01
4.003999999999999915e+01,6.824381830794261639e-01
4.007999999999999829e+01,7.531071179408977967e-01
4.011999999999999744e+01,7.880949750796100162e-01
4.015999999999999659e+01,9.017785784772645030e-01
4.020000000000000284e+01,9.732396161583755090e-01
4.024000000000000199e+01,9.856288126912848835e-01
4.028000000000000114e+01,1.000000000000000000e+00
4.032000000000000028e+01,9.533170731010303101e-01
4.035999999999999943e+01,9.100037184350404651e-01
4.039999999999999858e+01,8.534088873066456582e-01
4.043999999999999773e+01,7.579613278881343064e-01
4.047999999999999687e+01,6.809485641143080414e-01
4.052000000000000313e+01,6.265333545985480868e-01
4.056000000000000227e+01,5.336618617201039916e-01
4.060000000000000142e+01,4.699293997000235090e-01
4.064000000000000057e+01,4.268122160301545120e-01
4.067999999999999972e+01,3.791355123553327711e-01
4.071999999999999886e+01,3.520740813339790498e-01
4.075999999999999801e+01,3.186690839844633083e-01
4.079999999999999716e+01,2.856602264917285083e-01
4.084000000000000341e+01,2.780240747779214039e-01
4.088000000000000256e+01,2.535383311683173102e-01
4.092000000000000171e+01,2.294487188703787373e-01
4.096000000000000085e+01,2.354892454768275911e-01
4.100000000000000000e+01,2.034699108610506790e-01
4.103999999999999915e+01,1.843349833970834573e-01
4.107999999999999829e+01,1.949337328198401942e-01
4.111999999999999744e+01,1.823396176958028692e-01
4.115999999999999659e+01,1.667717622765431951e-01
4.120000000000000284e+01,1.811358019351662907e-01
4.124000000000000199e+01,1.578364167538811036e-01
4.128000000000000114e+01,1.547558108763111839e-01
4.132000000000000028e+01,1.586127901237298354e-01
4.135999999999999943e+01,1.321407252282611189e-01
4.139999999999999858e+01,1.391686224217477119e-01
4.143999999999999773e+01,1.358883701392731014e-01
4.147999999999999687e+01,1.272556339393145219e-01
4.152000000000000313e+01,1.184243061166232042e-01
4.156000000000000227e+01,1.082050234051835230e-01
4.160000000000000142e+01,1.078967069242392912e-01
4.164000000000000057e+01,1.056057496489813258e-01
4.167999999999999972e+01,9.558357337909306750e-02
4.171999999999999886e+01,1.109340402239536449e-01
4.175999999999999801e+01,1.062632247284550635e-01
4.179999999999999716e+01,9.941153030888176534e-02
4.184000000000000341e+01,9.077540758940977339e-02
4.188000000000000256e+01,8.194066761185912762e-02
4.192000000000000171e+01,8.539559191311718589e-02
4.196000000000000085e+01,8.111927728114265435e-02
4.200000000000000000e+01,8.794326081358967706e-02
4.203999999999999915e+01,8.287323825430741031e-02
4.207999999999999829e+01,8.929996163525105723e-02
4.211999999999999744e+01,7.947168502969484405e-02
4.215999999999999659e+01,8.530291012937413209e-02
4.220000000000000284e+01,8.578160004087762025e-02
4.224000000000000199e+01,7.496094982761493386e-02
4.228000000000000114e+01,6.790618859803496110e-02
4.232000000000000028e+01,7.195170274590236004e-02
4.235999999999999943e+01,7.123935052092884856e-02
4.239999999999999858e+01,7.429287873452272706e-02
4.243999999999999773e+01,6.703818626286137117e-02
4.247999999999999687e+01,6.077419422518848952e-02
4.252000000000000313e+01,4.895941747609175443e-02
4.256000000000000227e+01,5.399347436615665324e-02
4.260000000000000142e+01,5.426964779314990411e-02
4.264000000000000057e+01,7.555741062431431398e-02
4.267999999999999972e+01,7.325574434963770531e-02
4.271999999999999886e+01,6.579973259422627896e-02
4.275999999999999801e+01,7.122800551063855623e-02
4.279999999999999716e+01,6.198704390842248863e-02
4.284000000000000341e+01,5.433143731367088419e-02
4.288000000000000256e+01,5.282039781231306907e-02
4.292000000000000171e+01,5.329116109422406961e-02
4.296000000000000085e+01,6.188875313552489460e-02
4.300000000000000000e+01,6.909828774669367346e-02
4.303999999999999915e+01,6.025098359508594681e-02
4.307999999999999829e+01,5.516951145972565779e-02
4.311999999999999744e+01,4.810529314029622638e-02
4.315999999999999659e+01,6.324198761384867973e-02
4.320000000000000284e+01,4.963532080960426918e-02
4.324000000000000199e+01,5.743665415650239803e-02
4.328000000000000114e+01,6.325522992584436954e-02
4.332000000000000028e+01,5.599034803791669290e-02
4.335999999999999943e+01,5.288773170018200992e-02
4.339999999999999858e+01,4.403604125057066637e-02
4.343999999999999773e+01,5.143844156712008842e-02
4.347999999999999687e+01,5.130772144858374018e-02
4.352000000000000313e+01,5.533925548675323186e-02
4.356000000000000227e+01,7.047097660284540321e-02
4.360000000000000142e+01,6.082384268290210588e-02
4.364000000000000057e+01,6.366447729805561895e-02
4.367999999999999972e+01,7.165848835779774217e-02
4.371999999999999886e+01,6.141511813342974413e-02
4.375999999999999801e+01,6.266837421767340599e-02
4.379999999999999716e+01,7.046258535530815215e-02
4.384000000000000341e+01,5.347792436667683780e-02
4.388000000000000256e+01,7.078595581304697459e-02
4.392000000000000171e+01,5.816121429328470482e-02
4.396000000000000085e+01,8.161320013824606423e-02
4.400000000000000000e+01,7.830403510071466677e-02
4.403999999999999915e+01,7.876063371850833272e-02
4.407999999999999829e+01,7.247697612073554507e-02
4.411999999999999744e+01,8.046509350406386152e-02
4.415999999999999659e+01,7.180161216138433722e-02
4.420000000000000284e+01,8.315847545500720805e-02
4.424000000000000199e+01,1.109675992836295227e-01
4.428000000000000114e+01,1.048793897852943607e-01
4.432000000000000028e+01,1.164327955428588468e-01
4.435999999999999943e+01,1.256069133442814789e-01
4.439999999999999858e+01,1.268513917255197909e-01
4.443999999999999773e+01,1.366190469489403092e-01
4.447999999999999687e+01,1.392499640005288031e-01
4.452000000000000313e+01,1.553597206044050882e-01
4.456000000000000227e+01,1.690901750102805912e-01
4.460000000000000142e+01,1.772696965894004217e-01
4.464000000000000057e+01,1.818805498561323342e-01
4.467999999999999972e+01,1.882748538415013606e-01
4.471999999999999886e+01,1.998224602137930739e-01
4.475999999999999801e+01,1.951148786070482644e-01
4.479999999999999716e+01,1.834687627777712438e-01
4.484000000000000341e+01,1.583426275805496219e-01
4.488000000000000256e+01,1.685002472904050252e-01
4.492000000000000171e+01,1.477338891434640811e-01
4.496000000000000085e+01,1.374729381726120525e-01
4.500000000000000000e+01,1.284007349246011898e-01
4.503999999999999915e+01,1.104077130010878705e-01
4.507999999999999829e+01,1.039112233899178728e-01
4.511999999999999744e+01,9.384603128589881493e-02
4.515999999999999659e+01,9.071815086317856769e-02
4.520000000000000284e+01,8.501269593223548249e-02
4.524000000000000199e+01,7.613498343587585260e-02
4.528000000000000114e+01,7.657329491098725793e-02
4.532000000000000028e+01,5.322376255144706941e-02
4.535999999999999943e+01,6.337391029205718951e-02
4.539999999999999858e+01,5.905286510614808637e-02
4.543999999999999773e+01,6.087620471783969367e-02
4.547999999999999687e+01,5.278756064056958075e-02
4.552000000000000313e+01,5.639364427982742484e-02
4.556000000000000227e+01,4.929483158828420336e-02
4.560000000000000142e+01,6.221626384003164228e-02
4.564000000000000057e+01,4.936756210741369971e-02
4.567999999999999972e+01,4.960116385175437209e-02
4.571999999999999886e+01,4.368907280610791199e-02
4.575999999999999801e+01,4.748942502401917731e-02
4.579999999999999716e+01,3.880082319443324546e-02
4.584000000000000341e+01,4.339274018459272214e-02
4.588000000000000256e+01,4.084781930990827314e-02
4.592000000000000171e+01,5.554794628370486598e-02
4.596000000000000085e+01,4.943358489301093867e-02
4.600000000000000000e+01,5.025647536780875752e-02
4.603999999999999915e+01,3.759926102350895361e-02
4.607999999999999829e+01,3.802432167245004685e-02
4.611999999999999744e+01,4.360258501530190484e-02
4.615999999999999659e+01,3.589896173021483311e-02
4.620000000000000284e+01,5.277475559714285558e-02
4.624000000000000199e+01,3.852825087473216864e-02
4.628000000000000114e+01,3.498528606841604799e-02
4.632000000000000028e+01,3.441501561513844037e-02
4.635999999999999943e+01,4.395359917238993858e-02
4.639999999999999858e+01,3.029894219777396966e-02
4.643999999999999773e+01,3.825028424083317530e-02
4.647999999999999687e+01,4.600268146306046163e-02
4.652000000000000313e+01,5.018627649942675184e-02
4.656000000000000227e+01,4.525071788588951038e-02
4.660000000000000142e+01,3.555699097210401893e-02
4.664000000000000057e+01,4.528875473512129768e-02
4.667999999999999972e+01,3.757583337961351022e-02
4.671999999999999886e+01,3.204267094833070789e-02
4.675999999999999801e+01,3.998818856051663401e-02
4.679999999999999716e+01,3.148014619043199708e-02
4.684000000000000341e+01,4.279403372783925630e-02
4.688000000000000256e+01,3.587031495976680806e-02
4.692000000000000171e+01,3.905541032501872595e-02
4.696000000000000085e+01,4.045571279878581311e-02
4.700000000000000000e+01,4.839674245620261689e-02
4.703999999999999915e+01,3.155867211761202024e-02
4.707999999999999829e+01,2.839748577179000352e-02
4.711999999999999744e+01,4.208480835074809162e-02
4.715999999999999659e+01,4.645470781795223159e-02
4.720000000000000284e+01,4.269654174267433627e-02
4.724000000000000199e+01,4.290213818925401462e-02
4.728000000000000114e+01,4.627858736422369584e-02
4.732000000000000028e+01,4.687908433099288730e-02
4.735999999999999943e+01,5.025397485686070725e-02
4.739999999999999858e+01,4.768127969740107441e-02
4.743999999999999773e+01,4.728829219147465818e-02
4.747999999999999687e+01,3.460445774271075914e-02
4.752000000000000313e+01,4.887866728498112961e-02
4.756000000000000227e+01,5.046557071512253884e-02
4.760000000000000142e+01,3.837403150339342706e-02
4.764000000000000057e+01,4.610436523172083828e-02
4.767999999999999972e+01,4.035447735770823080e-02
4.771999999999999886e+01,3.618959698980444423e-02
4.775999999999999801e+01,4.669268587371904616e-02
4.779999999999999716e+01,4.351731787390430289e-02
4.784000000000000341e+01,4.747729745075400520e-02
4.788000000000000256e+01,3.597477382066510687e-02
4.792000000000000171e+01,4.528523687340022669e-02
4.796000000000000085e+01,4.408885942930225454e-02
4.800000000000000000e+01,3.575549315665666611e-02
4.803999999999999915e+01,4.248652966977502221e-02
4.807999999999999829e+01,4.644155985562922750e-02
4.811999999999999744e+01,4.207023225017689216e-02
4.815999999999999659e+01,3.690515998345651749e-02
4.820000000000000284e+01,3.828072944923276155e-02
4.824000000000000199e+01,4.262885654620262449e-02
4.828000000000000114e+01,3.369494605152992261e-02
4.832000000000000028e+01,3.823960451382706766e-02
4.835999999999999943e+01,4.080114365535353338e-02
4.839999999999999858e+01,4.058665368264187390e-02
4.843999999999999773e+01,4.215534668162124188e-02
4.847999999999999687e+01,4.094800486961892166e-02
4.852000000000000313e+01,4.806532262960471619e-02
4.856000000000000227e+01,3.833250160641429177e-02
4.860000000000000142e+01,4.069064244767361255e-02
4.864000000000000057e+01,4.284968465602559395e-02
4.867999999999999972e+01,4.659366600956410531e-02
4.871999999999999886e+01,4.637223504424647924e-02
4.875999999999999801e+01,4.852864447246776208e-02
4.879999999999999716e+01,4.731431609391121423e-02
4.884000000000000341e+01,3.717889844453442505e-02
4.888000000000000256e+01,3.794506230336126135e-02
4.892000000000000171e+01,3.375466592010344102e-02
4.896000000000000085e+01,3.987116513948386204e-02
4.900000000000000000e+01,5.371760954156927503e-02
4.903999999999999915e+01,3.683800944084031359e-02
4.907999999999999829e+01,3.462628459566133993e-02
4.911999999999999744e+01,4.430725784982520593e-02
4.915999999999999659e+01,4.724761314520817962e-02
4.920000000000000284e+01,4.384380110598639496e-02
4.924000000000000199e+01,3.905148729063701724e-02
4.928000000000000114e+01,4.694476712623921189e-02
4.932000000000000028e+01,4.532224330173807020e-02
4.935999999999999943e+01,4.687042409029502227e-02
4.939999999999999858e+01,4.029038267592281730e-02
4.943999999999999773e+01,4.223316205726200534e-02
4.947999999999999687e+01,4.913067813300960734e-02
4.952000000000000313e+01,4.849464366953460531e-02
4.956000000000000227e+01,5.816546208312133731e-02
4.960000000000000142e+01,6.565484614013873677e-02
4.964000000000000057e+01,5.926741555205161660e-02
4.967999999999999972e+01,6.715136402139000593e-02
4.971999999999999886e+01,7.067337549003031849e-02
4.975999999999999801e+01,8.014123739584644301e-02
4.979999999999999716e+01,7.434468610915324904e-02
4.984000000000000341e+01,7.647624692563194382e-02
4.988000000000000256e+01,7.424585934792538033e-02
4.992000000000000171e+01,6.943756115412745566e-02
4.996000000000000085e+01,8.147756965071420443e-02
5.000000000000000000e+01,7.309925556980989558e-02
5.003999999999999915e+01,5.560154003065831407e-02
5.007999999999999829e+01,5.574502958187194795e-02
5.011999999999999744e+01,5.786980920943637918e-02
5.015999999999999659e+01,4.552305695424140736e-02
5.020000000000000284e+01,4.962814082665253923e-02
5.024000000000000199e+01,5.075883782345029516e-02
5.028000000000000114e+01,3.583218050218165557e-02
5.032000000000000028e+01,4.548464695063611507e-02
5.035999999999999943e+01,4.522478220877336474e-02
5.039999999999999858e+01,4.555860045074131698e-02
5.043999999999999773e+01,4.549496514679846754e-02
5.047999999999999687e+01,5.296294289953135809e-02
5.052000000000000313e+01,5.150971174982969802e-02
5.056000000000000227e+01,4.093704211304778628e-02
5.060000000000000142e+01,3.631016309763467759e-02
5.064000000000000057e+01,3.961133921795807755e-02
5.067999999999999972e+01,2.725158600904535253e-02
5.071999999999999886e+01,3.907447461359016966e-02
5.075999999999999801e+01,3.999386986273029132e-02
5.079999999999999716e+01,3.635302446886057304e-02
5.084000000000000341e+01,3.925263281495087325e-02
5.088000000000000256e+01,4.988205247027319156e-02
5.092000000000000171e+01,4.148067118947146997e-02
5.096000000000000085e+01,4.417895003781552310e-02
5.100000000000000000e+01,3.300031739641489520e-02
5.103999999999999915e+01,2.895680446193731744e-02
5.107999999999999829e+01,3.621116984776416581e-02
5.111999999999999744e+01,3.910349853988098062e-02
5.115999999999999659e+01,4.556285714087437294e-02
5.120000000000000284e+01,4.607435946122251380e-02
5.124000000000000199e+01,4.301672348784118388e-02
5.128000000000000114e+01,3.857044047137216103e-02
5.132000000000000028e+01,4.859364646536024068e-02
5.135999999999999943e+01,4.493814207053175441e-02
5.139999999999999858e+01,3.573122062574716346e-02
5.143999999999999773e+01,3.028953588751063380e-02
5.147999999999999687e+01,4.110136939270978007e-02
5.152000000000000313e+01,4.100965542344063575e-02
5.156000000000000227e+01,5.201755885774075883e-02
5.160000000000000142e+01,4.201234557085724991e-02
5.164000000000000057e+01,4.548546482608692432e-02
5.167999999999999972e+01,3.567630437807380039e-02
5.171999999999999886e+01,4.112951140189594068e-02
5.175999999999999801e+01,5.708764137860658505e-02
5.179999999999999716e+01,4.727519872169982929e-02
5.184000000000000341e+01,3.726342956214437341e-02
5.188000000000000256e+01,5.044308593189537199e-02
5.192000000000000171e+01,4.003265522192719916e-02
5.196000000000000085e+01,4.052358669553661474e-02
5.200000000000000000e+01,3.724709902007903445e-02
5.203999999999999915e+01,5.458507790887941191e-02
5.207999999999999829e+01,3.287127289510487910e-02
5.211999999999999744e+01,2.959143464983127192e-02
5.215999999999999659e+01,3.344663635707121468e-02
5.220000000000000284e+01,3.472376509102907682e-02
5.224000000000000199e+01,3.837848641018203055e-02
5.228000000000000114e+01,4.044626274067915361e-02
5.232000000000000028e+01,4.429694575080586616e-02
5.235999999999999943e+01,4.041564925104059597e-02
5.239999999999999858e+01,3.772257352533959357e-02
5.243999999999999773e+01,3.879466329689251064e-02
5.247999999999999687e+01,3.966738099184842492e-02
5.252000000000000313e+01,3.855668313537002206e-02
5.256000000000000227e+01,4.081468875848231342e-02
5.260000000000000142e+01,3.276375020991050685e-02
5.264000000000000057e+01,4.631836918138997061e-02
5.267999999999999972e+01,3.687752716290856186e-02
5.271999999999999886e+01,5.578194600104937478e-02
5.275999999999999801e+01,4.495118911917124482e-02
5.279999999999999716e+01,4.997740301191254397e-02
5.284000000000000341e+01,4.132480112608189621e-02
5.288000000000000256e+01,3.941073444952505889e-02
5.292000000000000171e+01,4.126179908976097127e-02
5.296000000000000085e+01,4.430104462685642563e-02
5.300000000000000000e+01,4.139230570657713437e-02
5.303999999999999915e+01,4.482563712953677171e-02
5.307999999999999829e+01,3.854467040917291393e-02
5.311999999999999744e+01,4.177739611568776629e-02
5.315999999999999659e+01,4.976636973013451315e-02
5.320000000000000284e+01,4.209423456792382029e-02
5.324000000000000199e+01,4.353932981492857762e-02
5.328000000000000114e+01,3.863996719340837688e-02
5.332000000000000028e+01,4.880463137257879530e-02
5.335999999999999943e+01,4.330817538160466190e-02
5.339999999999999858e+01,4.732539187890684451e-02
5.343999999999999773e+01,4.698040647693654814e-02
5.347999999999999687e+01,5.000405904200630469e-02
5.352000000000000313e+01,3.637544636207468846e-02
5.356000000000000227e+01,5.228139514060199666e-02
5.360000000000000142e+01,3.726274796565950259e-02
5.364000000000000057e+01,3.294711660640640971e-02
5.367999999999999972e+01,4.230789925858035455e-02
5.371999999999999886e+01,4.017029756701697568e-02
5.375999999999999801e+01,4.259067432153511301e-02
5.379999999999999716e+01,4.520803847573583167e-02
5.384000000000000341e+01,4.465253266459014853e-02
5.388000000000000256e+01,4.568159571030124683e-02
5.392000000000000171e+01,3.996970184099114809e-02
5.396000000000000085e+01,4.079803953864329785e-02
5.400000000000000000e+01,4.301271081176293726e-02
5.403999999999999915e+01,3.848641662474613923e-02
5.407999999999999829e+01,3.990566525075434079e-02
5.411999999999999744e+01,5.301902919336056591e-02
5.415999999999999659e+01,4.373150696507239338e-02
5.420000000000000284e+01,4.157887942233767092e-02
5.424000000000000199e+01,4.794873087070242179e-02
5.428000000000000114e+01,3.627867580108444512e-02
5.432000000000000028e+01,4.779987251009519544e-02
5.435999999999999943e+01,5.198540076317347686e-02
5.439999999999999858e+01,5.081752507468705743e-02
5.443999999999999773e+01,4.231397523352462692e-02
5.447999999999999687e+01,4.907259632654552284e-02
5.452000000000000313e+01,4.690972367995525222e-02
5.456000000000000227e+01,5.842320238061308318e-02
5.460000000000000142e+01,4.634640316064336796e-02
5.464000000000000057e+01,4.517077528334285941e-02
5.467999999999999972e+01,4.022753741606694550e-02
5.471999999999999886e+01,3.885107595258036756e-02
5.475999999999999801e+01,4.659173666018204263e-02
5.479999999999999716e+01,4.402329653565243556e-02
5.484000000000000341e+01,4.046240933549576785e-02
5.488000000000000256e+01,4.899203680542146833e-02
5.492000000000000171e+01,4.760900837064849234e-02
5.496000000000000085e+01,4.622465799650294499e-02
5.500000000000000000e+01,4.880351756009221331e-02
5.503999999999999915e+01,5.138104948756538198e-02
5.507999999999999829e+01,4.741576863351008170e-02
5.511999999999999744e+01,4.107043361130766068e-02
5.515999999999999659e+01,4.562623290294151590e-02
5.520000000000000284e+01,4.145871676891806079e-02
5.524000000000000199e+01,4.264198063631651631e-02
5.528000000000000114e+01,4.164340567835474877e-02
5.532000000000000028e+01,4.103993661822239597e-02
5.535999999999999943e+01,4.380497165165707363e-02
5.539999999999999858e+01,4.775801383127348948e-02
5.543999999999999773e+01,5.230438009987804088e-02
5.547999999999999687e+01,4.515400996011354612e-02
5.552000000000000313e+01,3.562355716848428916e-02
5.556000000000000227e+01,4.551795986675372108e-02
5.560000000000000142e+01,4.411207108408678190e-02
5.564000000000000057e+01,4.686757340148034467e-02
5.567999999999999972e+01,4.565716778333039905e-02
5.571999999999999886e+01,4.662588020575780118e-02
5.575999999999999801e+01,5.988327137036265208e-02
5.579999999999999716e+01,5.569532798767958676e-02
5.584000000000000341e+01,5.844393577103362131e-02
5.588000000000000256e+01,5.227095297013633485e-02
5.592000000000000171e+01,5.997245140812108161e-02
5.596000000000000085e+01,5.538249904845374272e-02
5.600000000000000000e+01,5.792731319761035280e-02
5.603999999999999915e+01,5.610974030332963047e-02
5.607999999999999829e+01,5.528189939663665647e-02
5.611999999999999744e+01,5.762428172817318089e-02
5.615999999999999659e+01,5.421668131723936246e-02
5.620000000000000284e+01,6.270127484384567518e-02
5.624000000000000199e+01,6.028198478811518102e-02
5.628000000000000114e+01,5.667191837910005164e-02
5.632000000000000028e+01,5.206929950470249452e-02
5.635999999999999943e+01,5.519610171260490306e-02
5.639999999999999858e+01,6.268246763777815533e-02
5.643999999999999773e+01,6.996917949754952182e-02
5.647999999999999687e+01,7.428106013571181276e-02
5.652000000000000313e+01,8.513299004504318312e-02
5.656000000000000227e+01,6.842996773805126720e-02
5.660000000000000142e+01,8.661341229266084074e-02
5.664000000000000057e+01,7.664721872538166059e-02
5.667999999999999972e+01,7.857318491518142101e-02
5.671999999999999886e+01,9.219308127741433767e-02
5.675999999999999801e+01,8.658353410497128533e-02
5.679999999999999716e+01,8.394593501216375542e-02
5.684000000000000341e+01,8.626254851335955764e-02
5.688000000000000256e+01,7.271956445142135905e-02
5.692000000000000171e+01,7.860133903474184058e-02
5.696000000000000085e+01,8.150824821599202130e-02
5.700000000000000000e+01,8.699063776247102642e-02
5.703999999999999915e+01,6.789144195627482004e-02
5.707999999999999829e+01,5.870211006070025217e-02
5.711999999999999744e+01,6.973042951362135033e-02
5.715999999999999659e+01,7.560337522359987517e-02
5.720000000000000284e+01,7.453690371579831109e-02
5.724000000000000199e+01,6.831505276831056905e-02
5.728000000000000114e+01,7.656226642388667958e-02
5.732000000000000028e+01,6.062432826073316239e-02
5.735999999999999943e+01,6.153416983918744143e-02
5.739999999999999858e+01,6.620882371679656653e-02
5.743999999999999773e+01,5.621320057171069751e-02
5.747999999999999687e+01,6.623697640350068028e-02
5.752000000000000313e+01,6.357273687859170408e-02
5.756000000000000227e+01,6.843960624855568997e-02
5.760000000000000142e+01,7.845886082973334286e-02
5.764000000000000057e+01,6.568052795912501796e-02
5.767999999999999972e+01,6.598364405394513410e-02
5.771999999999999886e+01,6.925864271585012444e-02
5.775999999999999801e+01,6.143142282101719809e-02
5.779999999999999716e+01,6.866791070923707052e-02
5.784000000000000341e+01,6.698266844298900180e-02
5.788000000000000256e+01,6.727816366896897937e-02
5.792000000000000171e+01,6.162532408784695409e-02
5.796000000000000085e+01,6.548583228061974348e-02
5.800000000000000000e+01,7.172352289305315709e-02
5.803999999999999915e+01,7.716676529639211746e-02
5.807999999999999829e+01,7.705811497168989221e-02
5.811999999999999744e+01,8.071422567545073756e-02
5.815999999999999659e+01,6.672660704171543000e-02
5.820000000000000284e+01,9.040051564254630856e-02
5.824000000000000199e+01,7.145412043861890106e-02
5.828000000000000114e+01,8.105081690391210958e-02
5.832000000000000028e+01,8.549205702348146307e-02
5.835999999999999943e+01,7.962394280583225126e-02
5.839999999999999858e+01,7.672766273294787109e-02
5.843999999999999773e+01,7.918193479174405469e-02
5.847999999999999687e+01,8.718498287012302339e-02
5.852000000000000313e+01,7.576023534919430757e-02
5.856000000000000227e+01,7.602928697559746540e-02
5.860000000000000142e+01,7.847725155981082057e-02
5.864000000000000057e+01,7.735555090151781388e-02
5.867999999999999972e+01,7.623226340527786138e-02
5.871999999999999886e+01,7.827901400310260938e-02
5.875999999999999801e+01,7.100751546136095660e-02
5.879999999999999716e+01,6.829363647085805178e-02
5.884000000000000341e+01,6.637106619401704488e-02
5.888000000000000256e+01,8.050326047556084774e-02
5.892000000000000171e+01,6.271934628882003260e-02
5.896000000000000085e+01,5.643097602941947455e-02
5.900000000000000000e+01,5.925942601369990625e-02
5.903999999999999915e+01,6.327562394233128551e-02
5.907999999999999829e+01,5.737886973560024639e-02
5.911999999999999744e+01,5.603971229313391839e-02
5.915999999999999659e+01,6.262800328321777021e-02
5.920000000000000284e+01,5.732106623008426799e-02
5.924000000000000199e+01,6.013979864903144790e-02
5.928000000000000114e+01,4.135018725059384781e-02
5.932000000000000028e+01,5.962734312349108473e-02
5.935999999999999943e+01,5.808019010872565724e-02
5.939999999999999858e+01,5.831543961178715235e-02
5.943999999999999773e+01,4.546608356375702459e-02
5.947999999999999687e+01,5.144662365637055895e-02
5.952000000000000313e+01,5.564147646876448777e-02
5.956000000000000227e+01,4.873398254769106819e-02
5.960000000000000142e+01,5.153794635354398690e-02
5.964000000000000057e+01,4.660941224584330689e-02
5.967999999999999972e+01,4.762602217912027119e-02
5.971999999999999886e+01,5.042501184324996166e-02
5.975999999999999801e+01,4.727553567517635974e-02
5.979999999999999716e+01,4.313325923337660295e-02
5.984000000000000341e+01,4.751306301062886012e-02
5.988000000000000256e+01,4.990892713604160036e-02
5.992000000000000171e+01,5.388893001417438544e-02
5.996000000000000085e+01,4.656833093884817781e-02
