2.003999999999999915e+01,1.456432118327106702e-03
2.007999999999999829e+01,2.997249626264090507e-03
2.012000000000000099e+01,5.321739255904846602e-03
2.016000000000000014e+01,1.620972871174942336e-03
2.019999999999999929e+01,2.965581998520192431e-03
2.023999999999999844e+01,3.428370211250083427e-03
2.028000000000000114e+01,7.075100455699617763e-03
2.032000000000000028e+01,3.422962473357810727e-03
2.035999999999999943e+01,2.171005131627964761e-03
2.039999999999999858e+01,1.408809791016087500e-03
2.044000000000000128e+01,4.320407688472555074e-03
2.048000000000000043e+01,3.656004833229942533e-03
2.051999999999999957e+01,3.432379076657452247e-03
2.055999999999999872e+01,3.355619913132843867e-03
2.060000000000000142e+01,1.809219272956992010e-03
2.064000000000000057e+01,3.005895387362334231e-03
2.067999999999999972e+01,4.643348857128381559e-03
2.071999999999999886e+01,1.970025534744102545e-03
2.076000000000000156e+01,4.538019002715319196e-03
2.080000000000000071e+01,5.391445840069510401e-03
2.083999999999999986e+01,3.746544591526329310e-03
2.087999999999999901e+01,4.550809912805372365e-03
2.092000000000000171e+01,3.101672751361403413e-03
2.096000000000000085e+01,3.611851338426844398e-03
2.100000000000000000e+01,2.652389090567554980e-03
2.103999999999999915e+01,3.260361959836489184e-03
2.107999999999999829e+01,1.908843172867878777e-03
2.112000000000000099e+01,3.300401910552258275e-03
2.116000000000000014e+01,4.789843108908474478e-03
2.119999999999999929e+01,3.682986608989564144e-03
2.123999999999999844e+01,2.135176653463854123e-03
2.128000000000000114e+01,3.820295428939857619e-03
2.132000000000000028e+01,5.260401257017605602e-03
2.135999999999999943e+01,4.153194738476648565e-03
2.139999999999999858e+01,3.927632585096390953e-03
2.144000000000000128e+01,5.073565810707624663e-03
2.148000000000000043e+01,4.994784446294991791e-03
2.151999999999999957e+01,1.829854947330304162e-03
2.155999999999999872e+01,6.404483365430516453e-03
2.160000000000000142e+01,3.876185990127470338e-03
2.164000000000000057e+01,4.482847733448360947e-03
2.167999999999999972e+01,4.697541822027420481e-03
2.171999999999999886e+01,5.793880789148404993e-03
2.176000000000000156e+01,3.902042196684872479e-03
2.180000000000000071e+01,2.646923136279496179e-03
2.183999999999999986e+01,2.861270286523735253e-03
2.187999999999999901e+01,1.459022728744119009e-03
2.192000000000000171e+01,2.848839074036318454e-03
2.196000000000000085e+01,3.062926694342263910e-03
2.200000000000000000e+01,4.648510592056811358e-03
2.203999999999999915e+01,1.972304910284277887e-03
2.207999999999999829e+01,3.116850382556208068e-03
2.212000000000000099e+01,4.310294760677777816e-03
2.216000000000000014e+01,3.103383360531057188e-03
2.219999999999999929e+01,3.414923843553610474e-03
2.223999999999999844e+01,4.167244184670243143e-03
2.228000000000000114e+01,3.205000269557909363e-03
2.232000000000000028e+01,5.083805994209700078e-03
2.235999999999999943e+01,4.072405311798351323e-03
2.239999999999999858e+01,4.089605883761416975e-03
2.244000000000000128e+01,5.184392869237352576e-03
2.248000000000000043e+01,8.417487019459121136e-04
2.251999999999999957e+01,5.022425511315977906e-03
2.255999999999999872e+01,4.549432815716938396e-03
2.260000000000000142e+01,4.419250365834202776e-03
2.264000000000000057e+01,4.386952751011373268e-03
2.267999999999999972e+01,2.542121331754458157e-03
2.271999999999999886e+01,3.293414719159111752e-03
2.276000000000000156e+01,2.722025380133097187e-03
2.280000000000000071e+01,2.297506227823399409e-03
2.283999999999999986e+01,3.146514510616323958e-03
2.287999999999999901e+01,2.917765734325580926e-03
2.292000000000000171e+01,4.354425281209261048e-03
2.296000000000000085e+01,1.823207294371697023e-03
2.300000000000000000e+01,4.288384216729028073e-03
2.303999999999999915e+01,3.373504873300166816e-03
2.307999999999999829e+01,1.527824076548320309e-03
2.312000000000000099e+01,2.817104772808475162e-03
2.316000000000000014e+01,2.489792814569595589e-03
2.319999999999999929e+01,1.770515640149620878e-03
2.323999999999999844e+01,3.353453536840803311e-03
2.328000000000000114e+01,2.095171597405616568e-03
2.332000000000000028e+01,4.363732231572192352e-03
2.335999999999999943e+01,3.007311638504705197e-03
2.339999999999999858e+01,2.924419378956951907e-03
2.344000000000000128e+01,1.420875293981973793e-03
2.348000000000000043e+01,2.905337994675404566e-03
2.351999999999999957e+01,3.263059568081777377e-03
2.355999999999999872e+01,2.592010268305343281e-03
2.360000000000000142e+01,3.390430002775153204e-03
2.364000000000000057e+01,3.943840511860437388e-03
2.367999999999999972e+01,1.460091446682613590e-03
2.371999999999999886e+01,2.307245216969809175e-03
2.376000000000000156e+01,1.733747675210960170e-03
2.380000000000000071e+01,4.148257432501739096e-03
2.383999999999999986e+01,3.672563157117449042e-03
2.387999999999999901e+01,5.499084979606738179e-03
2.392000000000000171e+01,3.259760618586778590e-03
2.396000000000000085e+01,3.420622673717320546e-03
2.400000000000000000e+01,5.883701019239390324e-03
2.403999999999999915e+01,1.488782960718924245e-03
2.407999999999999829e+01,2.237216828952338834e-03
2.412000000000000099e+01,4.357150375744814341e-03
2.416000000000000014e+01,3.292969833448555587e-03
2.419999999999999929e+01,3.747244382954091017e-03
2.423999999999999844e+01,1.801166491169177908e-03
2.428000000000000114e+01,2.745126478574076712e-03
2.432000000000000028e+01,2.807272096973967897e-03
2.435999999999999943e+01,4.387873063866268644e-03
2.439999999999999858e+01,3.127255991466406163e-03
2.444000000000000128e+01,4.266826105288845823e-03
2.448000000000000043e+01,2.124312453472131535e-03
2.451999999999999957e+01,2.969807255812759519e-03
2.455999999999999872e+01,4.011160163432144279e-03
2.460000000000000142e+01,2.848101587178156809e-03
2.464000000000000057e+01,3.252483903590943411e-03
2.467999999999999972e+01,1.991290909099592207e-03
2.471999999999999886e+01,2.787389885278427747e-03
2.476000000000000156e+01,2.995585768146280786e-03
2.480000000000000071e+01,8.034301081407755740e-04
2.483999999999999986e+01,2.627970409955865134e-03
2.487999999999999901e+01,3.276786671388179709e-03
2.492000000000000171e+01,2.798864051576196305e-03
2.496000000000000085e+01,3.251576603256635997e-03
2.500000000000000000e+01,4.634924390602142980e-03
2.503999999999999915e+01,7.767855120931529272e-04
2.507999999999999829e+01,3.580538108594452738e-03
2.512000000000000099e+01,2.269461351800215222e-03
2.516000000000000014e+01,2.329885942053957267e-03
2.519999999999999929e+01,1.851393239861679352e-03
2.523999999999999844e+01,3.234252962720788032e-03
2.528000000000000114e+01,3.539359476855262910e-03
2.532000000000000028e+01,2.717727751471941174e-03
2.535999999999999943e+01,4.345269783247697297e-03
2.539999999999999858e+01,1.074221391483476049e-03
2.544000000000000128e+01,2.995512203309078428e-03
2.548000000000000043e+01,3.398184272580981932e-03
2.551999999999999957e+01,2.821073708095782426e-03
2.555999999999999872e+01,3.027643992795328153e-03
2.560000000000000142e+01,2.450372151946293361e-03
2.564000000000000057e+01,2.215915433935011780e-03
2.567999999999999972e+01,2.667169567694812216e-03
2.571999999999999886e+01,5.126732181475234310e-03
2.576000000000000156e+01,4.010302513346449861e-03
2.580000000000000071e+01,2.110031040532338829e-03
2.583999999999999986e+01,3.393710519436298964e-03
2.587999999999999901e+01,4.285429081726728137e-03
2.592000000000000171e+01,4.393306031849791501e-03
2.596000000000000085e+01,1.610982350448265411e-03
2.600000000000000000e+01,1.963624782489570286e-03
2.603999999999999915e+01,4.471531492830155968e-03
2.607999999999999829e+01,2.080848870565824883e-03
2.612000000000000099e+01,3.706864263646894499e-03
2.616000000000000014e+01,4.206142764835820932e-03
2.619999999999999929e+01,4.019550292997557846e-03
2.623999999999999844e+01,3.343027292168009555e-03
2.628000000000000114e+01,4.576843479844577844e-03
2.632000000000000028e+01,3.410310563208506038e-03
2.635999999999999943e+01,3.027459779210194338e-03
2.639999999999999858e+01,1.860768153116323280e-03
2.644000000000000128e+01,2.555430877253360693e-03
2.648000000000000043e+01,2.956103837298262264e-03
2.651999999999999957e+01,3.601623142047586344e-03
2.655999999999999872e+01,2.091719202349236889e-03
2.660000000000000142e+01,2.639110249435639745e-03
2.664000000000000057e+01,2.892511789120505872e-03
2.667999999999999972e+01,2.949894075508101721e-03
2.671999999999999886e+01,3.644003787189875176e-03
2.676000000000000156e+01,1.839794910526549188e-03
2.680000000000000071e+01,3.562434190485564995e-03
2.683999999999999986e+01,2.541829535615723872e-03
2.687999999999999901e+01,1.962012182867424719e-03
2.692000000000000171e+01,4.076296564840617941e-03
2.696000000000000085e+01,4.035158344092650701e-03
2.700000000000000000e+01,1.887582679761982875e-03
2.703999999999999915e+01,2.483094037636573471e-03
2.707999999999999829e+01,3.225482448701074995e-03
2.712000000000000099e+01,0.000000000000000000e+00
2.716000000000000014e+01,2.064829704244327581e-03
2.719999999999999929e+01,2.415103045495694926e-03
2.723999999999999844e+01,3.304134456354073258e-03
2.728000000000000114e+01,2.037743777872488490e-03
2.732000000000000028e+01,4.396172280189319069e-03
2.735999999999999943e+01,2.541804832947413672e-03
2.739999999999999858e+01,4.361241789815050243e-03
2.744000000000000128e+01,4.025256914033322614e-03
2.748000000000000043e+01,2.170656504330438063e-03
2.751999999999999957e+01,1.491620847998649090e-03
2.755999999999999872e+01,3.261762478321717385e-03
2.760000000000000142e+01,3.758214242070634110e-03
2.764000000000000057e+01,3.323871868178724168e-03
2.767999999999999972e+01,3.134377699998103575e-03
2.771999999999999886e+01,2.944806326872381492e-03
2.776000000000000156e+01,4.567606326709222272e-03
2.780000000000000071e+01,2.859342792271072926e-03
2.783999999999999986e+01,2.522584904448494422e-03
2.787999999999999901e+01,3.508347632448303565e-03
2.792000000000000171e+01,4.494033476366259515e-03
2.796000000000000085e+01,3.079372847050250613e-03
2.800000000000000000e+01,2.840277741177165208e-03
2.803999999999999915e+01,2.797046323603410642e-03
2.807999999999999829e+01,2.459827708843533283e-03
2.812000000000000099e+01,2.220502720796679354e-03
2.816000000000000014e+01,2.617907468259412628e-03
2.819999999999999929e+01,2.378429546293292333e-03
2.823999999999999844e+01,1.600039209002597062e-03
2.828000000000000114e+01,3.564737883269326283e-03
2.832000000000000028e+01,3.129090661855963868e-03
2.835999999999999943e+01,2.007575932738529800e-03
2.839999999999999858e+01,3.961341399529254683e-04
2.844000000000000128e+01,4.907753168056338752e-03
2.848000000000000043e+01,4.422816523982251238e-03
2.851999999999999957e+01,4.133744338279306436e-03
2.855999999999999872e+01,2.179103066419333518e-03
2.860000000000000142e+01,2.183789800045005721e-03
2.864000000000000057e+01,1.698549855038416091e-03
2.867999999999999972e+01,8.213534855038364963e-04
2.871999999999999886e+01,2.932172308254906226e-03
2.876000000000000156e+01,1.809899326806226625e-03
2.880000000000000071e+01,1.177401822732110749e-03
2.883999999999999986e+01,2.749158184008611110e-03
2.887999999999999901e+01,2.410420497680223779e-03
2.892000000000000171e+01,2.071607531586240787e-03
2.896000000000000085e+01,2.761406344181355828e-03
2.900000000000000000e+01,2.324472821142507892e-03
2.903999999999999915e+01,1.446598356163716903e-03
2.907999999999999829e+01,1.548350767426161451e-03
2.912000000000000099e+01,3.217551258692216871e-03
2.916000000000000014e+01,2.829302866664508507e-03
2.919999999999999929e+01,2.245039264216512707e-03
2.923999999999999844e+01,3.473149409119149177e-03
2.928000000000000114e+01,2.153959913587852066e-03
2.932000000000000028e+01,3.479890908171274968e-03
2.935999999999999943e+01,2.405477675563502758e-03
2.939999999999999858e+01,1.428960123193564243e-03
2.944000000000000128e+01,7.462786950973549589e-04
2.948000000000000043e+01,3.100598773532955120e-03
2.951999999999999957e+01,2.270813362014982226e-03
2.955999999999999872e+01,2.518625786741674876e-03
2.960000000000000142e+01,1.345796268629302845e-03
2.964000000000000057e+01,1.985341139594054474e-03
2.967999999999999972e+01,2.085975905449651349e-03
2.971999999999999886e+01,3.852029903830247928e-03
2.976000000000000156e+01,3.756576361370076410e-03
2.980000000000000071e+01,2.338451386865717050e-03
2.983999999999999986e+01,3.124581882028226038e-03
2.987999999999999901e+01,4.449474682192683557e-03
2.992000000000000171e+01,2.933158298890744132e-03
2.996000000000000085e+01,2.543425488525789032e-03
3.000000000000000000e+01,2.839410460578153852e-03
3.003999999999999915e+01,1.273888340998309381e-03
3.007999999999999829e+01,1.520741316394751260e-03
3.012000000000000099e+01,1.424625272444434744e-03
3.016000000000000014e+01,3.238854641747326932e-03
3.019999999999999929e+01,2.701726226450494421e-03
3.023999999999999844e+01,2.409450123914593910e-03
3.028000000000000114e+01,1.074183995332545101e-05
3.032000000000000028e+01,1.481783024568318055e-03
3.035999999999999943e+01,9.933474410006865995e-04
3.039999999999999858e+01,2.415257655722166750e-03
3.044000000000000128e+01,2.171601800401179363e-03
3.048000000000000043e+01,2.319753927774461776e-03
3.051999999999999957e+01,1.733056917800991420e-03
3.055999999999999872e+01,2.566855013149128752e-03
3.060000000000000142e+01,3.743476188743673824e-03
3.064000000000000057e+01,3.499457089988056158e-03
3.067999999999999972e+01,1.246976641465210710e-03
3.071999999999999886e+01,1.737589119031467512e-03
3.076000000000000156e+01,2.717980218432169970e-03
3.080000000000000071e+01,2.571641869968187277e-03
3.083999999999999986e+01,2.496166870107412817e-05
3.087999999999999901e+01,1.690927499188013029e-03
3.092000000000000171e+01,3.307836163576071287e-03
3.096000000000000085e+01,3.112224307268684261e-03
3.100000000000000000e+01,2.818570318241909664e-03
3.103999999999999915e+01,2.279918975770958093e-03
3.107999999999999829e+01,3.504659237626744049e-03
3.112000000000000099e+01,1.398341291537542582e-03
3.116000000000000014e+01,2.231057357299850996e-03
3.119999999999999929e+01,2.769791231342769340e-03
3.123999999999999844e+01,1.349049749001371944e-03
3.128000000000000114e+01,2.132566046542268539e-03
3.132000000000000028e+01,2.181234490189422250e-03
3.135999999999999943e+01,1.250129669286435949e-03
3.139999999999999858e+01,2.699684523563813986e-04
3.144000000000000128e+01,1.738990746828259762e-03
3.148000000000000043e+01,2.865046203823506249e-03
3.151999999999999957e+01,1.541775803984871086e-03
3.155999999999999872e+01,2.184343597755716826e-04
3.160000000000000142e+01,1.932097823248562010e-03
3.164000000000000057e+01,4.616591979184549600e-04
3.167999999999999972e+01,1.048523709299709668e-03
3.171999999999999886e+01,2.566034237351309203e-03
3.176000000000000156e+01,2.466965908023728907e-03
3.180000000000000071e+01,1.486095209976794626e-03
3.183999999999999986e+01,2.219632240571130320e-03
3.187999999999999901e+01,3.393964594868317548e-03
3.192000000000000171e+01,2.216941923989747612e-03
3.196000000000000085e+01,1.970565654817431692e-03
3.200000000000000000e+01,1.773104142139430824e-03
3.203999999999999915e+01,1.771512735025807190e-03
3.207999999999999829e+01,9.371045033671826984e-04
3.211999999999999744e+01,1.131313120037044000e-03
3.215999999999999659e+01,5.906752304388265817e-04
3.220000000000000284e+01,2.254296596693856035e-03
3.224000000000000199e+01,1.713518736051781403e-03
3.228000000000000114e+01,2.103387790497163352e-03
3.232000000000000028e+01,1.709425500399259015e-03
3.235999999999999943e+01,7.275723097939636001e-04
3.239999999999999858e+01,3.321561354947886839e-03
3.243999999999999773e+01,2.094643360196185144e-03
3.247999999999999687e+01,2.827059595677220913e-03
3.252000000000000313e+01,9.142111987774034516e-04
3.256000000000000227e+01,3.165026433917134032e-03
3.260000000000000142e+01,1.888845455636712061e-03
3.264000000000000057e+01,2.180118204553146109e-03
3.267999999999999972e+01,2.275381326069882831e-03
3.271999999999999886e+01,2.909411308846741786e-03
3.275999999999999801e+01,7.512217593812171379e-04
3.279999999999999716e+01,2.658726037059526599e-03
3.284000000000000341e+01,2.067921480635608478e-03
3.288000000000000256e+01,1.526033092504303470e-03
3.292000000000000171e+01,3.727241159957885974e-03
3.296000000000000085e+01,2.548408876442590648e-03
3.300000000000000000e+01,1.614433333601108514e-03
3.303999999999999915e+01,3.374569343896645542e-03
3.307999999999999829e+01,1.166844056151528954e-03
3.311999999999999744e+01,1.555260259957113710e-03
3.315999999999999659e+01,2.482444030921977969e-03
3.320000000000000284e+01,1.303200305064958339e-03
3.324000000000000199e+01,2.230247313618491725e-03
3.328000000000000114e+01,1.932598663080039225e-03
3.332000000000000028e+01,3.006464450810263610e-03
3.335999999999999943e+01,2.316798663169887182e-03
3.339999999999999858e+01,2.263871017656316278e-03
3.343999999999999773e+01,1.916964774091790401e-03
3.347999999999999687e+01,3.088528510383973906e-03
3.352000000000000313e+01,2.643516212893594949e-03
3.356000000000000227e+01,1.561629845109524821e-03
3.360000000000000142e+01,1.606332889973622171e-03
3.364000000000000057e+01,2.091834082137188425e-03
3.367999999999999972e+01,3.948850290123283313e-03
3.371999999999999886e+01,2.425827366420861293e-03
3.375999999999999801e+01,1.294617687570039826e-03
3.379999999999999716e+01,2.318684736512678212e-03
3.384000000000000341e+01,2.460952689541127079e-03
3.388000000000000256e+01,3.093004269870754108e-03
3.392000000000000171e+01,3.039197262494736443e-03
3.396000000000000085e+01,1.956636066825049713e-03
3.400000000000000000e+01,1.461828880906107476e-03
3.403999999999999915e+01,3.269254092713972867e-03
3.407999999999999829e+01,3.166193599361508647e-03
3.411999999999999744e+01,2.034379174405968188e-03
3.415999999999999659e+01,3.253782434660996200e-03
3.420000000000000284e+01,6.032963836411939186e-04
3.424000000000000199e+01,3.683999698818237519e-03
3.428000000000000114e+01,3.972485920313600059e-03
3.432000000000000028e+01,2.301501726718730833e-03
3.435999999999999943e+01,3.079705729129300195e-03
3.439999999999999858e+01,4.102768718256447067e-03
3.443999999999999773e+01,2.970421104948065428e-03
3.447999999999999687e+01,2.866694126154542468e-03
3.452000000000000313e+01,9.014672430656577506e-04
3.456000000000000227e+01,8.465928322215355694e-04
3.460000000000000142e+01,2.408160387999968427e-03
3.464000000000000057e+01,3.087930131317215363e-03
3.467999999999999972e+01,2.836917031380126360e-03
3.471999999999999886e+01,2.193957196985264757e-03
3.475999999999999801e+01,2.089767496655701128e-03
3.479999999999999716e+01,3.063184039188015725e-03
3.484000000000000341e+01,1.832205526045497255e-03
3.488000000000000256e+01,1.433907909281094102e-03
3.492000000000000171e+01,2.799008057417877275e-03
3.496000000000000085e+01,2.743474861850757947e-03
3.500000000000000000e+01,2.736861235726732126e-03
3.503999999999999915e+01,1.652510059004777239e-03
3.507999999999999829e+01,2.674452568635291971e-03
3.511999999999999744e+01,2.128806706355074706e-03
3.515999999999999659e+01,3.101633519182884092e-03
3.520000000000000284e+01,1.821080758923907320e-03
3.524000000000000199e+01,2.059000802118262502e-03
3.528000000000000114e+01,2.394825958930064860e-03
3.532000000000000028e+01,1.359003444557633448e-03
3.535999999999999943e+01,1.645713546293243318e-03
3.539999999999999858e+01,2.912060663548864461e-03
3.543999999999999773e+01,3.198641061864686448e-03
3.547999999999999687e+01,3.828052369490271469e-03
3.552000000000000313e+01,2.008144237547026655e-03
3.556000000000000227e+01,4.009008885831447794e-03
3.560000000000000142e+01,4.050405172550453070e-03
3.564000000000000057e+01,3.014064871261289569e-03
3.567999999999999972e+01,2.222585610213519917e-03
3.571999999999999886e+01,9.411910290926292066e-04
3.575999999999999801e+01,3.725495023891709032e-03
3.579999999999999716e+01,4.060480028330509805e-03
3.584000000000000341e+01,4.297430664940629121e-03
3.588000000000000256e+01,3.603600383475917459e-03
3.592000000000000171e+01,2.517825292732955942e-03
3.596000000000000085e+01,2.705598685721979230e-03
3.600000000000000000e+01,3.921995151786578267e-03
3.603999999999999915e+01,4.011670576603707655e-03
3.607999999999999829e+01,3.660416353867374309e-03
3.611999999999999744e+01,4.386770491690381892e-03
3.615999999999999659e+01,4.133359065681306392e-03
3.620000000000000284e+01,3.194092709807662238e-03
3.624000000000000199e+01,4.312136806327537993e-03
3.628000000000000114e+01,4.107519866772597721e-03
3.632000000000000028e+01,6.107168792853915826e-03
3.635999999999999943e+01,1.836662219658774650e-03
3.639999999999999858e+01,5.109796991718621936e-03
3.643999999999999773e+01,5.296807565625050000e-03
3.647999999999999687e+01,2.691604575345577389e-03
3.652000000000000313e+01,3.515295145710895484e-03
3.656000000000000227e+01,4.779788547979161271e-03
3.660000000000000142e+01,3.154098388647855796e-03
3.664000000000000057e+01,4.173540463026308156e-03
3.667999999999999972e+01,5.241904802099172159e-03
3.671999999999999886e+01,6.065280900244225670e-03
3.675999999999999801e+01,5.712952017283709494e-03
3.679999999999999716e+01,4.870709546911622737e-03
3.684000000000000341e+01,5.644912636830515598e-03
3.688000000000000256e+01,5.880217172717330971e-03
3.692000000000000171e+01,5.919518883505402000e-03
3.696000000000000085e+01,5.860788023299003807e-03
3.700000000000000000e+01,5.948950131099839042e-03
3.703999999999999915e+01,6.575886030807051759e-03
3.707999999999999829e+01,3.675832904430948941e-03
3.711999999999999744e+01,7.633630948896182739e-03
3.715999999999999659e+01,6.692857436580697782e-03
3.720000000000000284e+01,8.397217056392066586e-03
3.724000000000000199e+01,9.317753224896167460e-03
3.728000000000000114e+01,8.474764106949410347e-03
3.732000000000000028e+01,8.709385274741510835e-03
3.735999999999999943e+01,9.825676412581869912e-03
3.739999999999999858e+01,1.050104002056623589e-02
3.743999999999999773e+01,1.132329730245699127e-02
3.747999999999999687e+01,1.150868680297380785e-02
3.752000000000000313e+01,1.316356766981922194e-02
3.756000000000000227e+01,1.432853616853342442e-02
3.760000000000000142e+01,1.372997989417798666e-02
3.764000000000000057e+01,1.460091517866908897e-02
3.767999999999999972e+01,1.654946132645290779e-02
3.771999999999999886e+01,1.972257368659952048e-02
3.775999999999999801e+01,2.088723605553802556e-02
3.779999999999999716e+01,2.592165989333843762e-02
3.784000000000000341e+01,2.997632086255808473e-02
3.788000000000000256e+01,3.339411469213030004e-02
3.792000000000000171e+01,4.131847641763791018e-02
3.796000000000000085e+01,5.007552398081772937e-02
3.800000000000000000e+01,6.818866396989357870e-02
3.803999999999999915e+01,9.017156581286724093e-02
3.807999999999999829e+01,1.305728027787573242e-01
3.811999999999999744e+01,2.086925023482661401e-01
3.815999999999999659e+01,3.581834248270786558e-01
3.820000000000000284e+01,5.982477275059656652e-01
3.824000000000000199e+01,8.508031690735965435e-01
3.828000000000000114e+01,1.000000000000000000e+00
3.832000000000000028e+01,9.879378380997599907e-01
3.835999999999999943e+01,8.516494152312023003e-01
3.839999999999999858e+01,6.490840988030547321e-01
3.843999999999999773e+01,4.429917955306938993e-01
3.847999999999999687e+01,2.756956275287533731e-01
3.852000000000000313e+01,1.688470068362946108e-01
3.856000000000000227e+01,1.137755717085415369e-01
3.860000000000000142e+01,8.177605655970143772e-02
3.864000000000000057e+01,6.442302511982736513e-02
3.867999999999999972e+01,5.079280127571608738e-02
3.871999999999999886e+01,3.921989186270264521e-02
3.875999999999999801e+01,3.328020887746394735e-02
3.879999999999999716e+01,3.086739330064271897e-02
3.884000000000000341e+01,2.722989098472794814e-02
3.888000000000000256e+01,2.486594183714863418e-02
3.892000000000000171e+01,2.122832098385525265e-02
3.896000000000000085e+01,2.185234422015712788e-02
3.900000000000000000e+01,1.831257527610737415e-02
3.903999999999999915e+01,1.555650880742556925e-02
3.907999999999999829e+01,1.539659339201940313e-02
3.911999999999999744e+01,1.450184263638633515e-02
3.915999999999999659e+01,1.243139075000672389e-02
3.920000000000000284e+01,1.285911991948907040e-02
3.924000000000000199e+01,1.010275919297190517e-02
3.928000000000000114e+01,1.244078968385000164e-02
3.932000000000000028e+01,9.341416038646570275e-03
3.935999999999999943e+01,1.040571693483327564e-02
3.939999999999999858e+01,9.510555565856367369e-03
3.943999999999999773e+01,1.003590354852946023e-02
3.947999999999999687e+01,8.111938444726123076e-03
3.952000000000000313e+01,7.265587156157415558e-03
3.956000000000000227e+01,6.321207467816517857e-03
3.960000000000000142e+01,8.903696471346120994e-03
3.964000000000000057e+01,7.518334701149737009e-03
3.967999999999999972e+01,7.014646623015340955e-03
3.971999999999999886e+01,7.196691921252337289e-03
3.975999999999999801e+01,5.174350057050513055e-03
3.979999999999999716e+01,6.531921920685000021e-03
3.984000000000000341e+01,6.419883174713134077e-03
3.988000000000000256e+01,5.230114643034059277e-03
3.992000000000000171e+01,5.509841328042605797e-03
3.996000000000000085e+01,4.858793640586679327e-03
4.000000000000000000e+01,4.893479778710694943e-03
4.003999999999999915e+01,4.487242622373647204e-03
4.007999999999999829e+01,3.933992805543054874e-03
4.011999999999999744e+01,5.340089475921456011e-03
4.015999999999999659e+01,4.639769815519157597e-03
4.020000000000000284e+01,4.576199206594249932e-03
4.024000000000000199e+01,3.385914294550169696e-03
4.028000000000000114e+01,3.959035746542438616e-03
4.032000000000000028e+01,3.160517548931780947e-03
4.035999999999999943e+01,4.419316413497644501e-03
4.039999999999999858e+01,4.894296896395616825e-03
4.043999999999999773e+01,3.605757162482121740e-03
4.047999999999999687e+01,3.884683733604988275e-03
4.052000000000000313e+01,3.330807020612102168e-03
4.056000000000000227e+01,2.874843892026536160e-03
4.060000000000000142e+01,3.594466501268782279e-03
4.064000000000000057e+01,3.775196588708103294e-03
4.067999999999999972e+01,3.906885168175257272e-03
4.071999999999999886e+01,3.156785689424102502e-03
4.075999999999999801e+01,3.778212585054612372e-03
4.079999999999999716e+01,3.076985696119816701e-03
4.084000000000000341e+01,3.453374740117116405e-03
4.088000000000000256e+01,4.074633166800370639e-03
4.092000000000000171e+01,2.883387051778154523e-03
4.096000000000000085e+01,4.288295006146134944e-03
4.100000000000000000e+01,2.411145698179612169e-03
4.103999999999999915e+01,3.375076062777641450e-03
4.107999999999999829e+01,2.428531952429182229e-03
4.111999999999999744e+01,3.637276313469220684e-03
4.115999999999999659e+01,4.013218417155919870e-03
4.120000000000000284e+01,4.438090037046533813e-03
4.124000000000000199e+01,2.413651394057332068e-03
4.128000000000000114e+01,3.720143758326703055e-03
4.132000000000000028e+01,4.095863932001712719e-03
4.135999999999999943e+01,3.442841789323390807e-03
4.139999999999999858e+01,3.720481193096836139e-03
4.143999999999999773e+01,4.977767302460515096e-03
4.147999999999999687e+01,4.422549768535827437e-03
4.152000000000000313e+01,2.446709415221921986e-03
4.156000000000000227e+01,4.095711088170006162e-03
4.160000000000000142e+01,4.569015544903229364e-03
4.164000000000000057e+01,4.405458894218161441e-03
4.167999999999999972e+01,2.968234965731905619e-03
4.171999999999999886e+01,4.029196135984582615e-03
4.175999999999999801e+01,2.346937307807041902e-03
4.179999999999999716e+01,3.358804086576981218e-03
4.184000000000000341e+01,2.950048559338899670e-03
4.188000000000000256e+01,2.884134209034658509e-03
4.192000000000000171e+01,4.630613948811245287e-03
4.196000000000000085e+01,3.927784580815729849e-03
4.200000000000000000e+01,3.077945632613892594e-03
4.203999999999999915e+01,2.130082263344192529e-03
4.207999999999999829e+01,3.925330045196342640e-03
4.211999999999999744e+01,3.173298786035363278e-03
4.215999999999999659e+01,3.645840862401382096e-03
4.220000000000000284e+01,3.530507824732027899e-03
4.224000000000000199e+01,3.366135781823878341e-03
4.228000000000000114e+01,3.054754607917960132e-03
4.232000000000000028e+01,4.310842690990320143e-03
4.235999999999999943e+01,4.587175156991418756e-03
4.239999999999999858e+01,4.128677544922965993e-03
4.243999999999999773e+01,3.523171058547343477e-03
4.247999999999999687e+01,3.113551426797885220e-03
4.252000000000000313e+01,3.242714378607921329e-03
4.256000000000000227e+01,3.420809028491984295e-03
4.260000000000000142e+01,3.745805630554351843e-03
4.264000000000000057e+01,4.560599913728353647e-03
4.267999999999999972e+01,3.268981908998634840e-03
4.271999999999999886e+01,3.201938138213019681e-03
4.275999999999999801e+01,3.673677336022801356e-03
4.279999999999999716e+01,4.978110136395498195e-03
4.284000000000000341e+01,4.714966950179005911e-03
4.288000000000000256e+01,3.325113696238270362e-03
4.292000000000000171e+01,4.433447466215987773e-03
4.296000000000000085e+01,4.611011676678013031e-03
4.300000000000000000e+01,5.180403955873900956e-03
4.303999999999999915e+01,3.986280189480608319e-03
4.307999999999999829e+01,3.428910094995536034e-03
4.311999999999999744e+01,4.585965825839185238e-03
4.315999999999999659e+01,5.106162887825263855e-03
4.320000000000000284e+01,4.940516250160612542e-03
4.324000000000000199e+01,2.717443317975156997e-03
4.328000000000000114e+01,3.629364221817557752e-03
4.332000000000000028e+01,4.198337283287854015e-03
4.335999999999999943e+01,5.795945225601413682e-03
4.339999999999999858e+01,4.454395420700181171e-03
4.343999999999999773e+01,6.688705563209695545e-03
4.347999999999999687e+01,4.955171092567678751e-03
4.352000000000000313e+01,6.748511602715902800e-03
4.356000000000000227e+01,7.023262376348456473e-03
4.360000000000000142e+01,7.004050851783277971e-03
4.364000000000000057e+01,7.817534277406668064e-03
4.367999999999999972e+01,8.484010818075055776e-03
4.371999999999999886e+01,8.660584873200417172e-03
4.375999999999999801e+01,8.396241601921209524e-03
4.379999999999999716e+01,9.552414677110907665e-03
4.384000000000000341e+01,9.483909034788360129e-03
4.388000000000000256e+01,1.181562176659625360e-02
4.392000000000000171e+01,1.174701363005772534e-02
4.396000000000000085e+01,1.192327981749924035e-02
4.400000000000000000e+01,1.376498814710197180e-02
4.403999999999999915e+01,1.594954111896167148e-02
4.407999999999999829e+01,1.828099841738774559e-02
4.411999999999999744e+01,2.120022596124513520e-02
4.415999999999999659e+01,2.230695416138174861e-02
4.420000000000000284e+01,2.894894732684192770e-02
4.424000000000000199e+01,3.353351580209756877e-02
4.428000000000000114e+01,4.468203636530412165e-02
4.432000000000000028e+01,5.671223806460010813e-02
4.435999999999999943e+01,7.128961419299578717e-02
4.439999999999999858e+01,9.972972175176619825e-02
4.443999999999999773e+01,1.330682884263405252e-01
4.447999999999999687e+01,1.712073440909598065e-01
4.452000000000000313e+01,2.021945256381387224e-01
4.456000000000000227e+01,2.241683995233491045e-01
4.460000000000000142e+01,2.225803926059176374e-01
4.464000000000000057e+01,2.131057353390766185e-01
4.467999999999999972e+01,1.796773166382125142e-01
4.471999999999999886e+01,1.424280105984465361e-01
4.475999999999999801e+01,1.128693146009168702e-01
4.479999999999999716e+01,8.071435876697587164e-02
4.484000000000000341e+01,5.948302937136009522e-02
4.488000000000000256e+01,4.491362321621659992e-02
4.492000000000000171e+01,3.538963223184626167e-02
4.496000000000000085e+01,2.777601040460981122e-02
4.500000000000000000e+01,2.398317650234654819e-02
4.503999999999999915e+01,2.097405470134880781e-02
4.507999999999999829e+01,1.713213693191748335e-02
4.511999999999999744e+01,1.441682705685765932e-02
4.515999999999999659e+01,1.537535007856418758e-02
4.520000000000000284e+01,1.212110577171409548e-02
4.524000000000000199e+01,1.121809692589874341e-02
4.528000000000000114e+01,9.825188097273729326e-03
4.532000000000000028e+01,9.313962009054422425e-03
4.535999999999999943e+01,9.537463440516036339e-03
4.539999999999999858e+01,8.095422802506468951e-03
4.543999999999999773e+01,6.114497343412027101e-03
4.547999999999999687e+01,7.513494724670272476e-03
4.552000000000000313e+01,5.581457000137702955e-03
4.556000000000000227e+01,5.804714870157832822e-03
4.560000000000000142e+01,6.566760265031550137e-03
4.564000000000000057e+01,5.222398120777675679e-03
4.567999999999999972e+01,5.935361573662839563e-03
4.571999999999999886e+01,4.982783470458020808e-03
4.575999999999999801e+01,4.568993148797383629e-03
4.579999999999999716e+01,3.616318583605731760e-03
4.584000000000000341e+01,4.525029492380466985e-03
4.588000000000000256e+01,4.502975526242999037e-03
4.592000000000000171e+01,4.921739408408687573e-03
4.596000000000000085e+01,3.968872689315168338e-03
4.600000000000000000e+01,2.966972997212001788e-03
4.603999999999999915e+01,2.552846630827375254e-03
4.607999999999999829e+01,4.734882547932214511e-03
4.611999999999999744e+01,3.291973752041126976e-03
4.615999999999999659e+01,2.926689424044647166e-03
4.620000000000000284e+01,3.883955102944489871e-03
4.624000000000000199e+01,3.469590629793674070e-03
4.628000000000000114e+01,3.055178727807573297e-03
4.632000000000000028e+01,4.306212689996417875e-03
4.635999999999999943e+01,4.038661407755129822e-03
4.639999999999999858e+01,3.281211939538391988e-03
4.643999999999999773e+01,2.474730204211159339e-03
4.647999999999999687e+01,3.578620064578529828e-03
4.652000000000000313e+01,3.261895127137992307e-03
4.656000000000000227e+01,2.847153020139096824e-03
4.660000000000000142e+01,2.432363997686116334e-03
4.664000000000000057e+01,3.193170403131178562e-03
4.667999999999999972e+01,2.582347362424742155e-03
4.671999999999999886e+01,2.608283833337720313e-03
4.675999999999999801e+01,3.075039500179516626e-03
4.679999999999999716e+01,3.051897622772373198e-03
4.684000000000000341e+01,2.342917885425686245e-03
4.688000000000000256e+01,1.976787346594152499e-03
4.692000000000000171e+01,1.953506070450420490e-03
4.696000000000000085e+01,2.077133741303892941e-03
4.700000000000000000e+01,2.739551183053710003e-03
4.703999999999999915e+01,2.030339756205883431e-03
4.707999999999999829e+01,2.790635032950118839e-03
4.711999999999999744e+01,2.718137614065935497e-03
4.715999999999999659e+01,2.645594178144775651e-03
4.720000000000000284e+01,1.446347605145630391e-03
4.724000000000000199e+01,2.402399321950505259e-03
4.728000000000000114e+01,1.888852365262017139e-03
4.732000000000000028e+01,8.364236036032371467e-04
4.735999999999999943e+01,1.547412564539929741e-03
4.739999999999999858e+01,1.474594374022575793e-03
4.743999999999999773e+01,1.989551755266528998e-03
4.747999999999999687e+01,8.879554989829393369e-04
4.752000000000000313e+01,1.549777221985436989e-03
4.756000000000000227e+01,2.897344899198816583e-03
4.760000000000000142e+01,1.746627422018002954e-03
4.764000000000000057e+01,1.918462261948926210e-03
4.767999999999999972e+01,1.355475494600150849e-03
4.771999999999999886e+01,1.723160412981928876e-03
4.775999999999999801e+01,2.678621416506217056e-03
4.779999999999999716e+01,3.144186480097831485e-03
4.784000000000000341e+01,2.532034528339674809e-03
4.788000000000000256e+01,3.536345848524023380e-03
4.792000000000000171e+01,8.667302485159091496e-04
4.796000000000000085e+01,1.675011657496428517e-03
4.800000000000000000e+01,1.895427257475897033e-03
4.803999999999999915e+01,2.507679011943191299e-03
4.807999999999999829e+01,1.601348281404318301e-03
4.811999999999999744e+01,1.478734593425061038e-03
4.815999999999999659e+01,1.649987062519958506e-03
4.820000000000000284e+01,1.282359138442870075e-03
4.824000000000000199e+01,7.677316450929308001e-04
4.828000000000000114e+01,2.163478635206872707e-03
4.832000000000000028e+01,2.481509380042849853e-03
4.835999999999999943e+01,2.603555653158122225e-03
4.839999999999999858e+01,2.284692043896284670e-03
4.843999999999999773e+01,2.406650325814586443e-03
4.847999999999999687e+01,2.381609423495940816e-03
4.852000000000000313e+01,2.111599211181382305e-03
4.856000000000000227e+01,2.086470702701669414e-03
4.860000000000000142e+01,1.669417727673906671e-03
4.864000000000000057e+01,3.162739813663874907e-03
4.867999999999999972e+01,1.765897718194718320e-03
4.871999999999999886e+01,2.524356286917654301e-03
4.875999999999999801e+01,2.743935360885707466e-03
4.879999999999999716e+01,2.032754244545042100e-03
4.884000000000000341e+01,2.007321135940077616e-03
4.888000000000000256e+01,2.471695719380217603e-03
4.892000000000000171e+01,1.172563690610798097e-03
4.896000000000000085e+01,2.273658185898428177e-03
4.900000000000000000e+01,3.129784141261947056e-03
4.903999999999999915e+01,2.369358961831288888e-03
4.907999999999999829e+01,2.147726890274800904e-03
4.911999999999999744e+01,2.709813465594197463e-03
4.915999999999999659e+01,2.586065902987776371e-03
4.920000000000000284e+01,3.197052020636724674e-03
4.924000000000000199e+01,1.995546944491504490e-03
4.928000000000000114e+01,2.312537196399935303e-03
4.932000000000000028e+01,1.502827712380852858e-03
4.935999999999999943e+01,2.113643494829100557e-03
4.939999999999999858e+01,1.254864004934455038e-03
4.943999999999999773e+01,2.110520479647312597e-03
4.947999999999999687e+01,2.182373139883937805e-03
4.952000000000000313e+01,1.666362429680231291e-03
4.956000000000000227e+01,2.276966737012240359e-03
4.960000000000000142e+01,2.005797232454343670e-03
4.964000000000000057e+01,1.832555879495428993e-03
4.967999999999999972e+01,2.296078786932059454e-03
4.971999999999999886e+01,3.249410734039459309e-03
4.975999999999999801e+01,2.096341751802281283e-03
4.979999999999999716e+01,3.000604976487129903e-03
4.984000000000000341e+01,1.308616450514584048e-03
4.988000000000000256e+01,2.163811209467485751e-03
4.992000000000000171e+01,1.647381720253573208e-03
4.996000000000000085e+01,2.600463555062565695e-03
5.000000000000000000e+01,3.112638074400456752e-03
5.003999999999999915e+01,3.232890437405720567e-03
5.007999999999999829e+01,1.589638049208280885e-03
5.011999999999999744e+01,1.660822716553398814e-03
5.015999999999999659e+01,2.319787319400068697e-03
5.020000000000000284e+01,2.096979072946585088e-03
5.024000000000000199e+01,1.629204275921162636e-03
5.028000000000000114e+01,1.896164891812666562e-03
5.032000000000000028e+01,1.183382660990361587e-03
5.035999999999999943e+01,2.478948440541377599e-03
5.039999999999999858e+01,2.990711881587126714e-03
5.043999999999999773e+01,2.228822098642146195e-03
5.047999999999999687e+01,2.446593524306405094e-03
5.052000000000000313e+01,1.684622424120099703e-03
5.056000000000000227e+01,1.804342470956715695e-03
5.060000000000000142e+01,1.679096544775233969e-03
5.064000000000000057e+01,8.680188550560165740e-04
5.067999999999999972e+01,2.604125733715253587e-03
5.071999999999999886e+01,2.968609647660689493e-03
5.075999999999999801e+01,1.422634616441049776e-03
5.079999999999999716e+01,2.325874156186190627e-03
5.084000000000000341e+01,1.416625069043189484e-03
5.088000000000000256e+01,1.878918591962412720e-03
5.092000000000000171e+01,1.998276465313130260e-03
5.096000000000000085e+01,2.705415557618408989e-03
5.100000000000000000e+01,1.600066279726129661e-03
5.103999999999999915e+01,1.817274773620878312e-03
5.107999999999999829e+01,2.524294489056515614e-03
5.111999999999999744e+01,1.761721691573230053e-03
5.115999999999999659e+01,1.146064579215458172e-03
5.120000000000000284e+01,1.510069830574629641e-03
5.124000000000000199e+01,1.384184660849057009e-03
5.128000000000000114e+01,1.993036508356680649e-03
5.132000000000000028e+01,1.279251448706075029e-03
5.135999999999999943e+01,2.377875623881810577e-03
5.139999999999999858e+01,2.937624539697593698e-03
5.143999999999999773e+01,2.419662215702155731e-03
5.147999999999999687e+01,2.097601185179238416e-03
5.152000000000000313e+01,2.265352082096360516e-03
5.156000000000000227e+01,1.992198166275755029e-03
5.160000000000000142e+01,2.992617825693480536e-03
5.164000000000000057e+01,1.886639571881187655e-03
5.167999999999999972e+01,3.523787870626857513e-03
5.171999999999999886e+01,1.780925915376731054e-03
5.175999999999999801e+01,2.046414216542687733e-03
5.179999999999999716e+01,2.213893754767506938e-03
5.184000000000000341e+01,2.773215543881951944e-03
5.188000000000000256e+01,1.813960944392019542e-03
5.192000000000000171e+01,2.079295338555802418e-03
5.196000000000000085e+01,2.491546701298098018e-03
5.200000000000000000e+01,2.903759811894133201e-03
5.203999999999999915e+01,2.875068879824242696e-03
5.207999999999999829e+01,2.258518684363647507e-03
5.211999999999999744e+01,3.209453468180707009e-03
5.215999999999999659e+01,2.445871932738695811e-03
5.220000000000000284e+01,2.759924555261519027e-03
5.224000000000000199e+01,1.555401366733831980e-03
5.228000000000000114e+01,3.289946073217107480e-03
5.232000000000000028e+01,1.154630538636220501e-03
5.235999999999999943e+01,2.448233977069712644e-03
5.239999999999999858e+01,2.076306576245862210e-03
5.243999999999999773e+01,2.096222388901385070e-03
5.247999999999999687e+01,2.410011289277310537e-03
5.252000000000000313e+01,2.135941632161695962e-03
5.256000000000000227e+01,2.694581235735707576e-03
5.260000000000000142e+01,2.273481650436981992e-03
5.264000000000000057e+01,2.342195789412514131e-03
5.267999999999999972e+01,2.851738621869131639e-03
5.271999999999999886e+01,1.597780938517983414e-03
5.275999999999999801e+01,2.058264546104324275e-03
5.279999999999999716e+01,3.057547229621335703e-03
5.284000000000000341e+01,2.244344494882715216e-03
5.288000000000000256e+01,2.655732293941418139e-03
5.292000000000000171e+01,2.822157841995763961e-03
5.296000000000000085e+01,3.331442342808127802e-03
5.300000000000000000e+01,2.420122441781957616e-03
5.303999999999999915e+01,2.831363521175339799e-03
5.307999999999999829e+01,2.507791656596846004e-03
5.311999999999999744e+01,2.233168431672107566e-03
5.315999999999999659e+01,1.615613150847288989e-03
5.320000000000000284e+01,1.928738347406127891e-03
5.324000000000000199e+01,1.898931616410185668e-03
5.328000000000000114e+01,2.065029066656036937e-03
5.332000000000000028e+01,1.937179812658222210e-03
5.335999999999999943e+01,2.495085817905609311e-03
5.339999999999999858e+01,2.367164487528134777e-03
5.343999999999999773e+01,2.484132690048873084e-03
5.347999999999999687e+01,2.209184255084915317e-03
5.352000000000000313e+01,3.207812475646500041e-03
5.356000000000000227e+01,2.540911717957608160e-03
5.360000000000000142e+01,1.776005085096837334e-03
5.364000000000000057e+01,2.235690205313753225e-03
5.367999999999999972e+01,2.989250338430587961e-03
5.371999999999999886e+01,2.028296655021734948e-03
5.375999999999999801e+01,1.557158492721346689e-03
5.379999999999999716e+01,1.771776295565317526e-03
5.384000000000000341e+01,2.427224652897247512e-03
5.388000000000000256e+01,2.788727204402611549e-03
5.392000000000000171e+01,2.709328729356626740e-03
5.396000000000000085e+01,1.601208152342215897e-03
5.400000000000000000e+01,3.089262565002057030e-03
5.403999999999999915e+01,2.960773864449029597e-03
5.407999999999999829e+01,2.489354583966880540e-03
5.411999999999999744e+01,2.556736497112866921e-03
5.415999999999999659e+01,2.869009098264765738e-03
5.420000000000000284e+01,2.838351312005492864e-03
5.424000000000000199e+01,1.632016588088912659e-03
5.428000000000000114e+01,2.091140498704720328e-03
5.432000000000000028e+01,1.815453454700817005e-03
5.435999999999999943e+01,2.421463654121634029e-03
5.439999999999999858e+01,2.978454356789396809e-03
5.443999999999999773e+01,2.016872777902417244e-03
5.447999999999999687e+01,2.230899204752973854e-03
5.452000000000000313e+01,2.885757277026548481e-03
5.456000000000000227e+01,2.707834589784688210e-03
5.460000000000000142e+01,2.235967251823971561e-03
5.464000000000000057e+01,2.939708176291398658e-03
5.467999999999999972e+01,2.712698343829717234e-03
5.471999999999999886e+01,2.191744053167136302e-03
5.475999999999999801e+01,3.091323692279702301e-03
5.479999999999999716e+01,3.109137861946923223e-03
5.484000000000000341e+01,2.490112101170513428e-03
5.488000000000000256e+01,3.781471412345317838e-03
5.492000000000000171e+01,3.652229401968804922e-03
5.496000000000000085e+01,2.592237083871744893e-03
5.500000000000000000e+01,2.462928130927617785e-03
5.503999999999999915e+01,2.823436752616778709e-03
5.507999999999999829e+01,1.959284689308470051e-03
5.511999999999999744e+01,2.515667133329157687e-03
5.515999999999999659e+01,2.435210160287424111e-03
5.520000000000000284e+01,2.354720068911457520e-03
5.524000000000000199e+01,2.862018062963647344e-03
5.528000000000000114e+01,3.663193636821780990e-03
5.532000000000000028e+01,2.211021916436307997e-03
5.535999999999999943e+01,3.159086987731965848e-03
5.539999999999999858e+01,2.784521697479740501e-03
5.543999999999999773e+01,2.262968389031756646e-03
5.547999999999999687e+01,2.427173740979452626e-03
5.552000000000000313e+01,2.836271962803177046e-03
5.556000000000000227e+01,3.049397263983289353e-03
5.560000000000000142e+01,3.703355943247972105e-03
5.564000000000000057e+01,3.279610120829729979e-03
5.567999999999999972e+01,2.708876665251639185e-03
5.571999999999999886e+01,4.391425294011087194e-03
5.575999999999999801e+01,3.330776384767980634e-03
5.579999999999999716e+01,2.612990984541079236e-03
5.584000000000000341e+01,3.658636911511570049e-03
5.588000000000000256e+01,3.626578721835034980e-03
5.592000000000000171e+01,3.790428948795224878e-03
5.596000000000000085e+01,2.043828573034907857e-03
5.600000000000000000e+01,2.991376585512985770e-03
5.603999999999999915e+01,2.567310168239778610e-03
5.607999999999999829e+01,2.877988468917827471e-03
5.611999999999999744e+01,2.453858702745432760e-03
5.615999999999999659e+01,2.029697358382421841e-03
5.620000000000000284e+01,1.948400164762125689e-03
5.624000000000000199e+01,2.895758515578546015e-03
5.628000000000000114e+01,2.814398486440260975e-03
5.632000000000000028e+01,2.390111471041284855e-03
5.635999999999999943e+01,1.965793198314943428e-03
5.639999999999999858e+01,3.157951866305656538e-03
5.643999999999999773e+01,3.419362600963888037e-03
5.647999999999999687e+01,2.896980751359733933e-03
5.652000000000000313e+01,2.178627521255562839e-03
5.656000000000000227e+01,3.517617343251353782e-03
5.660000000000000142e+01,3.191083064118102261e-03
5.664000000000000057e+01,3.550309306387393511e-03
5.667999999999999972e+01,1.901115911112262555e-03
5.671999999999999886e+01,2.456221109525124832e-03
5.675999999999999801e+01,2.129563982952523311e-03
5.679999999999999716e+01,2.782578204267940197e-03
5.684000000000000341e+01,2.896725893703868456e-03
5.688000000000000256e+01,3.500694109715004384e-03
5.692000000000000171e+01,2.292183453080863780e-03
5.696000000000000085e+01,2.259284780888578485e-03
5.700000000000000000e+01,3.989819296900553106e-03
5.703999999999999915e+01,2.732232853605724536e-03
5.707999999999999829e+01,2.552288397339090228e-03
5.711999999999999744e+01,3.254045612410049870e-03
5.715999999999999659e+01,3.465921903948545636e-03
5.720000000000000284e+01,3.138932241161403874e-03
5.724000000000000199e+01,3.007853112708458454e-03
5.728000000000000114e+01,2.631818728070054944e-03
5.732000000000000028e+01,2.941545955769247871e-03
5.735999999999999943e+01,2.467482011004355855e-03
5.739999999999999858e+01,2.483239427059131914e-03
5.743999999999999773e+01,2.939833173140401091e-03
5.747999999999999687e+01,2.710606129207159681e-03
5.752000000000000313e+01,2.236424214124365251e-03
5.756000000000000227e+01,2.741914866209939957e-03
5.760000000000000142e+01,2.414629635901522145e-03
5.764000000000000057e+01,3.605853145730707025e-03
5.767999999999999972e+01,3.572420141784711772e-03
5.771999999999999886e+01,2.804181637894294019e-03
5.775999999999999801e+01,3.015616022035503673e-03
5.779999999999999716e+01,3.031081079201523951e-03
5.784000000000000341e+01,3.438398013154729538e-03
5.788000000000000256e+01,2.865984229025066079e-03
5.792000000000000171e+01,1.705720550711670907e-03
5.796000000000000085e+01,2.700772360472622393e-03
5.800000000000000000e+01,3.401884974190011630e-03
5.803999999999999915e+01,3.564132981207431949e-03
5.807999999999999829e+01,3.383456825560782460e-03
5.811999999999999744e+01,3.202752236183387634e-03
5.815999999999999659e+01,3.903750986632495857e-03
5.820000000000000284e+01,3.869945007208998658e-03
5.824000000000000199e+01,2.464528127529987556e-03
5.828000000000000114e+01,3.410367629169774092e-03
5.832000000000000028e+01,3.523432403523281582e-03
5.835999999999999943e+01,3.489513844284509569e-03
5.839999999999999858e+01,4.043388440113286283e-03
5.843999999999999773e+01,3.078697171652365529e-03
5.847999999999999687e+01,3.583530895988902565e-03
5.852000000000000313e+01,3.549500783697266508e-03
5.856000000000000227e+01,3.564428038539855029e-03
5.860000000000000142e+01,3.236431964962837183e-03
5.864000000000000057e+01,3.545214526455065830e-03
5.867999999999999972e+01,3.364118602975546372e-03
5.871999999999999886e+01,3.868786537876397862e-03
5.875999999999999801e+01,4.618352540637969336e-03
5.879999999999999716e+01,2.918636452313288446e-03
5.884000000000000341e+01,3.129311789032213336e-03
5.888000000000000256e+01,4.319661810616982206e-03
5.892000000000000171e+01,3.648551073223179134e-03
5.896000000000000085e+01,3.173353629587540806e-03
5.900000000000000000e+01,3.090009923745965469e-03
5.903999999999999915e+01,3.300549829939467255e-03
5.907999999999999829e+01,3.804973412340703371e-03
5.911999999999999744e+01,2.839817316353126109e-03
5.915999999999999659e+01,3.197232019200615429e-03
5.920000000000000284e+01,2.476947931731070945e-03
5.924000000000000199e+01,3.030249676476098279e-03
5.928000000000000114e+01,4.024390703189539668e-03
5.932000000000000028e+01,3.842862942172282307e-03
5.935999999999999943e+01,4.102174591468744740e-03
5.939999999999999858e+01,3.430743056208870878e-03
5.943999999999999773e+01,3.543046724368691548e-03
5.947999999999999687e+01,3.410398665838829634e-03
5.952000000000000313e+01,3.620620084381674566e-03
5.956000000000000227e+01,3.340964429751071187e-03
5.960000000000000142e+01,4.138954805025642746e-03
5.964000000000000057e+01,3.810262000916534667e-03
5.967999999999999972e+01,3.628498550707476549e-03
5.971999999999999886e+01,3.495694328639504644e-03
5.975999999999999801e+01,3.803730158611759969e-03
5.979999999999999716e+01,3.866814775275541349e-03
5.984000000000000341e+01,4.223784287427407788e-03
5.988000000000000256e+01,3.845951764957994314e-03
5.992000000000000171e+01,4.055914836116834496e-03
5.996000000000000085e+01,3.090210146307378891e-03
