2.003999999999999915e+01,2.171608012370119800e-01
2.007999999999999829e+01,2.411686412385171951e-01
2.012000000000000099e+01,2.125885489567201081e-01
2.016000000000000014e+01,2.215790708150499888e-01
2.019999999999999929e+01,2.539976783285579076e-01
2.023999999999999844e+01,2.532742871173287447e-01
2.028000000000000114e+01,2.428324338117239245e-01
2.032000000000000028e+01,1.961548861240881569e-01
2.035999999999999943e+01,2.016323756489284968e-01
2.039999999999999858e+01,2.088821699076785776e-01
2.044000000000000128e+01,2.258594257773321734e-01
2.048000000000000043e+01,1.937842903417806295e-01
2.051999999999999957e+01,1.948601432941835521e-01
2.055999999999999872e+01,1.919628633731477740e-01
2.060000000000000142e+01,2.434303300809216863e-01
2.064000000000000057e+01,2.118149306128407905e-01
2.067999999999999972e+01,1.766683224186295087e-01
2.071999999999999886e+01,1.715789773951476860e-01
2.076000000000000156e+01,2.407422564129940989e-01
2.080000000000000071e+01,1.989795462856823738e-01
2.083999999999999986e+01,1.669441992361719307e-01
2.087999999999999901e+01,2.131390300332109689e-01
2.092000000000000171e+01,1.457561198817263204e-01
2.096000000000000085e+01,1.751654235742120813e-01
2.100000000000000000e+01,2.098825138588676642e-01
2.103999999999999915e+01,1.867080007471940140e-01
2.107999999999999829e+01,2.170142086101298495e-01
2.112000000000000099e+01,1.788219043963777399e-01
2.116000000000000014e+01,1.481471158977504532e-01
2.119999999999999929e+01,1.713949725210409669e-01
2.123999999999999844e+01,2.087896307614219293e-01
2.128000000000000114e+01,1.502846076630510175e-01
2.132000000000000028e+01,1.682418391958609705e-01
2.135999999999999943e+01,1.870872315686581966e-01
2.139999999999999858e+01,2.090305434643276172e-01
2.144000000000000128e+01,1.973896073287157438e-01
2.148000000000000043e+01,1.499546447723163201e-01
2.151999999999999957e+01,1.860531468963720902e-01
2.155999999999999872e+01,1.704472694324130067e-01
2.160000000000000142e+01,1.844564846591208174e-01
2.164000000000000057e+01,1.900727639006234704e-01
2.167999999999999972e+01,1.294001616552911960e-01
2.171999999999999886e+01,1.929207158898587071e-01
2.176000000000000156e+01,2.073885635132951544e-01
2.180000000000000071e+01,1.816427688170717814e-01
2.183999999999999986e+01,1.691597205238079826e-01
2.187999999999999901e+01,2.022020294086462056e-01
2.192000000000000171e+01,1.716071199302226791e-01
2.196000000000000085e+01,1.582525106599794729e-01
2.200000000000000000e+01,1.851197845210391657e-01
2.203999999999999915e+01,1.399526900213639291e-01
2.207999999999999829e+01,1.504758386997389064e-01
2.212000000000000099e+01,1.450927201301222547e-01
2.216000000000000014e+01,1.405975653342886877e-01
2.219999999999999929e+01,1.188702624621262721e-01
2.223999999999999844e+01,1.391325984303614649e-01
2.228000000000000114e+01,1.399529980794515793e-01
2.232000000000000028e+01,1.425452295035626593e-01
2.235999999999999943e+01,1.495610050928186663e-01
2.239999999999999858e+01,1.331572314378473287e-01
2.244000000000000128e+01,1.096861858531845701e-01
2.248000000000000043e+01,1.343920718904054179e-01
2.251999999999999957e+01,1.303749346365998263e-01
2.255999999999999872e+01,1.413881812551260053e-01
2.260000000000000142e+01,1.771547834519340281e-01
2.264000000000000057e+01,1.475161750969406216e-01
2.267999999999999972e+01,1.209751709588934854e-01
2.271999999999999886e+01,1.554276968328021646e-01
2.276000000000000156e+01,1.399433623483470612e-01
2.280000000000000071e+01,1.359537229584499851e-01
2.283999999999999986e+01,1.337357872505413325e-01
2.287999999999999901e+01,1.240085175192901373e-01
2.292000000000000171e+01,1.319632652240137205e-01
2.296000000000000085e+01,1.231276313467535438e-01
2.300000000000000000e+01,1.408130693436297487e-01
2.303999999999999915e+01,1.854615230685705829e-01
2.307999999999999829e+01,1.496782318091693098e-01
2.312000000000000099e+01,1.342286309626264384e-01
2.316000000000000014e+01,7.326160829700831267e-02
2.319999999999999929e+01,1.024569420814034071e-01
2.323999999999999844e+01,1.126520567744480755e-01
2.328000000000000114e+01,1.020791276938755321e-01
2.332000000000000028e+01,1.520576271183673445e-01
2.335999999999999943e+01,1.052520254174988817e-01
2.339999999999999858e+01,1.508184994362885833e-01
2.344000000000000128e+01,1.433542696397669958e-01
2.348000000000000043e+01,1.023052892931437668e-01
2.351999999999999957e+01,1.081071232606224120e-01
2.355999999999999872e+01,1.094931316491586509e-01
2.360000000000000142e+01,1.108828416778331882e-01
2.364000000000000057e+01,1.286285306611818779e-01
2.367999999999999972e+01,1.313514755319195870e-01
2.371999999999999886e+01,9.076662917343486514e-02
2.376000000000000156e+01,1.160365474204710645e-01
2.380000000000000071e+01,9.048544170859995628e-02
2.383999999999999986e+01,1.272534512377168081e-01
2.387999999999999901e+01,1.238073060750441018e-01
2.392000000000000171e+01,1.057803113871384065e-01
2.396000000000000085e+01,7.891785551479715832e-02
2.400000000000000000e+01,1.271911329801370949e-01
2.403999999999999915e+01,1.175720680508827443e-01
2.407999999999999829e+01,1.371255311998242632e-01
2.412000000000000099e+01,1.080676600995721520e-01
2.416000000000000014e+01,9.624954727543991173e-02
2.419999999999999929e+01,1.220010534071154923e-01
2.423999999999999844e+01,1.004670568513840040e-01
2.428000000000000114e+01,8.600785374534306027e-02
2.432000000000000028e+01,9.541767511076716668e-02
2.435999999999999943e+01,6.682299208087479070e-02
2.439999999999999858e+01,9.612774927323705643e-02
2.444000000000000128e+01,1.042222232387474690e-01
2.448000000000000043e+01,8.801272817342217780e-02
2.451999999999999957e+01,8.285555080307809017e-02
2.455999999999999872e+01,6.753690332692853515e-02
2.460000000000000142e+01,7.608721134907331374e-02
2.464000000000000057e+01,1.054127890655279509e-01
2.467999999999999972e+01,1.082245799484007065e-01
2.471999999999999886e+01,5.800535171003622786e-02
2.476000000000000156e+01,9.485441969191449330e-02
2.480000000000000071e+01,9.590864342825901334e-02
2.483999999999999986e+01,8.945305032906136766e-02
2.487999999999999901e+01,4.410891732703645096e-02
2.492000000000000171e+01,1.039531431288157337e-01
2.496000000000000085e+01,8.645883679134704070e-02
2.500000000000000000e+01,6.852593352092077594e-02
2.503999999999999915e+01,7.401992365513736238e-02
2.507999999999999829e+01,7.244599154118956663e-02
2.512000000000000099e+01,1.057897295134806459e-01
2.516000000000000014e+01,9.007992334327397099e-02
2.519999999999999929e+01,9.912283228618669340e-02
2.523999999999999844e+01,5.248287177139525361e-02
2.528000000000000114e+01,8.849154231142267180e-02
2.532000000000000028e+01,8.826328680564517193e-02
2.535999999999999943e+01,7.301187334822878405e-02
2.539999999999999858e+01,7.986140349394617310e-02
2.544000000000000128e+01,5.312570027736233241e-02
2.548000000000000043e+01,7.324032856268093694e-02
2.551999999999999957e+01,5.844384265736091849e-02
2.555999999999999872e+01,7.591319620843312022e-02
2.560000000000000142e+01,8.940817536898185147e-02
2.564000000000000057e+01,6.268856629209261511e-02
2.567999999999999972e+01,9.696175808220533487e-02
2.571999999999999886e+01,7.776173071108656576e-02
2.576000000000000156e+01,8.066255826331021617e-02
2.580000000000000071e+01,4.423266557933319687e-02
2.583999999999999986e+01,6.172427503329162152e-02
2.587999999999999901e+01,8.408051526833737466e-02
2.592000000000000171e+01,8.655196882577148587e-02
2.596000000000000085e+01,4.041163488174343010e-02
2.600000000000000000e+01,5.482206927099657345e-02
2.603999999999999915e+01,7.586490985705261758e-02
2.607999999999999829e+01,9.160739669114599526e-02
2.612000000000000099e+01,5.829610290329702987e-02
2.616000000000000014e+01,1.747466712066953962e-02
2.619999999999999929e+01,4.118153376992433889e-02
2.623999999999999844e+01,6.444949803360568164e-02
2.628000000000000114e+01,6.120328133129727954e-02
2.632000000000000028e+01,4.160780907618770452e-02
2.635999999999999943e+01,5.737165516194035753e-02
2.639999999999999858e+01,4.794715184348964654e-02
2.644000000000000128e+01,8.448883613301852447e-02
2.648000000000000043e+01,9.672605872620203271e-02
2.651999999999999957e+01,5.283814284851622717e-02
2.655999999999999872e+01,9.071463530524509489e-02
2.660000000000000142e+01,9.323779382472099919e-02
2.664000000000000057e+01,1.068127478137375352e-01
2.667999999999999972e+01,6.205275538244862249e-02
2.671999999999999886e+01,4.646464071088248632e-02
2.676000000000000156e+01,7.198114404118423348e-02
2.680000000000000071e+01,4.667588441431418794e-02
2.683999999999999986e+01,5.849763971754001757e-02
2.687999999999999901e+01,6.678665903155550643e-02
2.692000000000000171e+01,2.911537660809865660e-02
2.696000000000000085e+01,4.757508896608766275e-02
2.700000000000000000e+01,3.863653558402531385e-02
2.703999999999999915e+01,6.196345708587785994e-02
2.707999999999999829e+01,6.938288952927507136e-02
2.712000000000000099e+01,7.017585091292724564e-02
2.716000000000000014e+01,8.688197045271731089e-02
2.719999999999999929e+01,9.430987698270802688e-02
2.723999999999999844e+01,8.892393099167608672e-02
2.728000000000000114e+01,5.967527994533379510e-02
2.732000000000000028e+01,1.148425722639472013e-01
2.735999999999999943e+01,7.189891700446413014e-02
2.739999999999999858e+01,7.668902770247219836e-02
2.744000000000000128e+01,1.088830239716631620e-01
2.748000000000000043e+01,1.198659881624277723e-01
2.751999999999999957e+01,1.074281418852604114e-01
2.755999999999999872e+01,1.073677255732166380e-01
2.760000000000000142e+01,1.121715163499218265e-01
2.764000000000000057e+01,8.692516149017799620e-02
2.767999999999999972e+01,1.164837629305793820e-01
2.771999999999999886e+01,1.760979032124269927e-01
2.776000000000000156e+01,1.429044418699451091e-01
2.780000000000000071e+01,1.410923607840064709e-01
2.783999999999999986e+01,1.971788725356455330e-01
2.787999999999999901e+01,1.639933827609370842e-01
2.792000000000000171e+01,1.904742809461429376e-01
2.796000000000000085e+01,1.745302508657237128e-01
2.800000000000000000e+01,2.231140798182280893e-01
2.803999999999999915e+01,2.496028313314852809e-01
2.807999999999999829e+01,2.637194771114447778e-01
2.812000000000000099e+01,2.340852940908213220e-01
2.816000000000000014e+01,2.362743563541883363e-01
2.819999999999999929e+01,2.707286077554746373e-01
2.823999999999999844e+01,2.481733895790750322e-01
2.828000000000000114e+01,2.600931093701699948e-01
2.832000000000000028e+01,2.454981456764553094e-01
2.835999999999999943e+01,2.384189241020302219e-01
2.839999999999999858e+01,2.238290087474562873e-01
2.844000000000000128e+01,1.756531210323166448e-01
2.848000000000000043e+01,2.065894464492681049e-01
2.851999999999999957e+01,1.491375201013872553e-01
2.855999999999999872e+01,1.411868887939582706e-01
2.860000000000000142e+01,1.442875701438707248e-01
2.864000000000000057e+01,1.354579615213815369e-01
2.867999999999999972e+01,1.261888494613974121e-01
2.871999999999999886e+01,1.315066501567368484e-01
2.876000000000000156e+01,9.130564956957389067e-02
2.880000000000000071e+01,1.059093293898707988e-01
2.883999999999999986e+01,1.395194294779510957e-01
2.887999999999999901e+01,6.352741117393166659e-02
2.892000000000000171e+01,8.432564590515424785e-02
2.896000000000000085e+01,8.126076174203894498e-02
2.900000000000000000e+01,7.068503599912119573e-02
2.903999999999999915e+01,5.657604218824326819e-02
2.907999999999999829e+01,6.456708547596133607e-02
2.912000000000000099e+01,5.753404460088204497e-02
2.916000000000000014e+01,5.845850248612815409e-02
2.919999999999999929e+01,8.678641239690874920e-02
2.923999999999999844e+01,4.352013405835861853e-02
2.928000000000000114e+01,4.975497340067703417e-02
2.932000000000000028e+01,5.952773501768893888e-02
2.935999999999999943e+01,3.748211247695731191e-02
2.939999999999999858e+01,6.582148547164157204e-02
2.944000000000000128e+01,4.333844519068153628e-02
2.948000000000000043e+01,4.649097313312815921e-02
2.951999999999999957e+01,3.285150355071947414e-02
2.955999999999999872e+01,4.263781394890198834e-02
2.960000000000000142e+01,2.679303297082701388e-02
2.964000000000000057e+01,2.553493812194077700e-02
2.967999999999999972e+01,1.278825082182786892e-02
2.971999999999999886e+01,6.456899886229953978e-02
2.976000000000000156e+01,3.017095822151860673e-02
2.980000000000000071e+01,1.743082361251167833e-02
2.983999999999999986e+01,1.706755732994700778e-02
2.987999999999999901e+01,1.449667718162500271e-02
2.992000000000000171e+01,1.767334004453894464e-02
2.996000000000000085e+01,2.969121201605223401e-02
3.000000000000000000e+01,3.729167202568219042e-02
3.003999999999999915e+01,1.572530261473012447e-02
3.007999999999999829e+01,1.272309431170664737e-02
3.012000000000000099e+01,0.000000000000000000e+00
3.016000000000000014e+01,4.515185967884455427e-03
3.019999999999999929e+01,2.582668865481063669e-02
3.023999999999999844e+01,7.144771123053289541e-02
3.028000000000000114e+01,4.768405790705492614e-02
3.032000000000000028e+01,9.507699773309573332e-02
3.035999999999999943e+01,3.949676020314549230e-02
3.039999999999999858e+01,5.772481835952795320e-02
3.044000000000000128e+01,9.661837154143060671e-03
3.048000000000000043e+01,2.082265958958074564e-02
3.051999999999999957e+01,6.159637742751203349e-02
3.055999999999999872e+01,3.210144297859354040e-02
3.060000000000000142e+01,1.056365257083336645e-02
3.064000000000000057e+01,5.797260794991496158e-02
3.067999999999999972e+01,4.174218709080227546e-02
3.071999999999999886e+01,5.821828831830593021e-02
3.076000000000000156e+01,4.287566052220951468e-02
3.080000000000000071e+01,9.029238719836671367e-02
3.083999999999999986e+01,1.103099022166940252e-01
3.087999999999999901e+01,9.099544562842604156e-02
3.092000000000000171e+01,8.405759132722559479e-02
3.096000000000000085e+01,1.235267649171917365e-01
3.100000000000000000e+01,1.280834744130230074e-01
3.103999999999999915e+01,9.728575625416993611e-02
3.107999999999999829e+01,1.663714350024825261e-01
3.112000000000000099e+01,1.501618974714735710e-01
3.116000000000000014e+01,1.317444307687813676e-01
3.119999999999999929e+01,1.548724420577645144e-01
3.123999999999999844e+01,2.124746621692879811e-01
3.128000000000000114e+01,1.962724229764656603e-01
3.132000000000000028e+01,2.313386137746485383e-01
3.135999999999999943e+01,2.460767241377941061e-01
3.139999999999999858e+01,2.961729113247173473e-01
3.144000000000000128e+01,3.590875264129144151e-01
3.148000000000000043e+01,3.614562441473875287e-01
3.151999999999999957e+01,4.217226482149007416e-01
3.155999999999999872e+01,4.121621073700487137e-01
3.160000000000000142e+01,5.303279188953918810e-01
3.164000000000000057e+01,5.844121639958573811e-01
3.167999999999999972e+01,6.446854722691494066e-01
3.171999999999999886e+01,7.686018158030386571e-01
3.176000000000000156e+01,7.961739427236668165e-01
3.180000000000000071e+01,8.144667235038229869e-01
3.183999999999999986e+01,7.483480180595525333e-01
3.187999999999999901e+01,7.657602252883977112e-01
3.192000000000000171e+01,7.243942416060626943e-01
3.196000000000000085e+01,5.751931956556993741e-01
3.200000000000000000e+01,5.378080700818220761e-01
3.203999999999999915e+01,4.889337707114163045e-01
3.207999999999999829e+01,4.400610840793880985e-01
3.211999999999999744e+01,4.181491764740115635e-01
3.215999999999999659e+01,3.529273985909612832e-01
3.220000000000000284e+01,3.279249912451150384e-01
3.224000000000000199e+01,3.033661109316443949e-01
3.228000000000000114e+01,2.894156830637383826e-01
3.232000000000000028e+01,2.626501513044152691e-01
3.235999999999999943e+01,2.778717654980111806e-01
3.239999999999999858e+01,2.285696723465968361e-01
3.243999999999999773e+01,2.018087423229614763e-01
3.247999999999999687e+01,2.210125120574664981e-01
3.252000000000000313e+01,2.075132118082446686e-01
3.256000000000000227e+01,1.670562299160939790e-01
3.260000000000000142e+01,1.703541496859573845e-01
3.264000000000000057e+01,1.391811550832072475e-01
3.267999999999999972e+01,1.265716811232229788e-01
3.271999999999999886e+01,9.982114361700267224e-02
3.275999999999999801e+01,1.212450054319466342e-01
3.279999999999999716e+01,1.201306635564914488e-01
3.284000000000000341e+01,9.250052477217499125e-02
3.288000000000000256e+01,1.351424411110463963e-01
3.292000000000000171e+01,1.689466891239996271e-01
3.296000000000000085e+01,1.046386100954295878e-01
3.300000000000000000e+01,1.282807049196801052e-01
3.303999999999999915e+01,1.055190367427598641e-01
3.307999999999999829e+01,7.878115160631044001e-02
3.311999999999999744e+01,1.055210215981027405e-01
3.315999999999999659e+01,1.101645529269431462e-01
3.320000000000000284e+01,9.138587461780404986e-02
3.324000000000000199e+01,1.022194216860655563e-01
3.328000000000000114e+01,1.037732580413780609e-01
3.332000000000000028e+01,1.499657261135995956e-01
3.335999999999999943e+01,1.015813982691083223e-01
3.339999999999999858e+01,9.783568243490578520e-02
3.343999999999999773e+01,1.232601890043137222e-01
3.347999999999999687e+01,1.318917225711572772e-01
3.352000000000000313e+01,1.352210696703422810e-01
3.356000000000000227e+01,1.412033871788622719e-01
3.360000000000000142e+01,1.586777393881884379e-01
3.364000000000000057e+01,1.885280238594889968e-01
3.367999999999999972e+01,1.878847211372626502e-01
3.371999999999999886e+01,2.172954792599535445e-01
3.375999999999999801e+01,2.440557140385594959e-01
3.379999999999999716e+01,2.102694799714498741e-01
3.384000000000000341e+01,2.494067867915182590e-01
3.388000000000000256e+01,2.284395587664900529e-01
3.392000000000000171e+01,2.821636667509757057e-01
3.396000000000000085e+01,2.965550444239812844e-01
3.400000000000000000e+01,2.884079228072818357e-01
3.403999999999999915e+01,3.527423391039702372e-01
3.407999999999999829e+01,3.666951528482708111e-01
3.411999999999999744e+01,3.970013639799754301e-01
3.415999999999999659e+01,3.985816845073868464e-01
3.420000000000000284e+01,4.293320402255149659e-01
3.424000000000000199e+01,4.406375134847507202e-01
3.428000000000000114e+01,4.479664741851516752e-01
3.432000000000000028e+01,4.402700697924303297e-01
3.435999999999999943e+01,5.059390319010934611e-01
3.439999999999999858e+01,4.483039509364384889e-01
3.443999999999999773e+01,4.635922630593085070e-01
3.447999999999999687e+01,4.912563005246388670e-01
3.452000000000000313e+01,4.676547196366910852e-01
3.456000000000000227e+01,4.860397427696020456e-01
3.460000000000000142e+01,4.893993318362192535e-01
3.464000000000000057e+01,4.295605228941728471e-01
3.467999999999999972e+01,3.962399086596861686e-01
3.471999999999999886e+01,3.655719790885388898e-01
3.475999999999999801e+01,3.768906042716994031e-01
3.479999999999999716e+01,3.528538755890174294e-01
3.484000000000000341e+01,3.738973579046963036e-01
3.488000000000000256e+01,3.109705588516131214e-01
3.492000000000000171e+01,3.099181919653555828e-01
3.496000000000000085e+01,3.053310987212290439e-01
3.500000000000000000e+01,2.954414544369666773e-01
3.503999999999999915e+01,2.740618973579117545e-01
3.507999999999999829e+01,2.946688162066826711e-01
3.511999999999999744e+01,2.587065244156537269e-01
3.515999999999999659e+01,2.541237998720924374e-01
3.520000000000000284e+01,2.840143086733621369e-01
3.524000000000000199e+01,2.370057067419034935e-01
3.528000000000000114e+01,2.792725781463018531e-01
3.532000000000000028e+01,3.043040695886278790e-01
3.535999999999999943e+01,2.656950319554675088e-01
3.539999999999999858e+01,2.907281230783667625e-01
3.543999999999999773e+01,2.870350082910470002e-01
3.547999999999999687e+01,3.200248264115820307e-01
3.552000000000000313e+01,3.587608080799263299e-01
3.556000000000000227e+01,3.497665448668403343e-01
3.560000000000000142e+01,3.756873701727225234e-01
3.564000000000000057e+01,3.786273384959426558e-01
3.567999999999999972e+01,3.820099864668619061e-01
3.571999999999999886e+01,3.902548413045611175e-01
3.575999999999999801e+01,4.533026620737466983e-01
3.579999999999999716e+01,5.176770403451789182e-01
3.584000000000000341e+01,5.528831604660510157e-01
3.588000000000000256e+01,5.514077995599885318e-01
3.592000000000000171e+01,6.087129485373228288e-01
3.596000000000000085e+01,6.677865693109027445e-01
3.600000000000000000e+01,7.410033558301116763e-01
3.603999999999999915e+01,7.156651028956733107e-01
3.607999999999999829e+01,8.383819692936864687e-01
3.611999999999999744e+01,8.784541099920389895e-01
3.615999999999999659e+01,8.933354970785014615e-01
3.620000000000000284e+01,9.921886863878178753e-01
3.624000000000000199e+01,1.000000000000000000e+00
3.628000000000000114e+01,9.543354931770602345e-01
3.632000000000000028e+01,9.714289810695677652e-01
3.635999999999999943e+01,9.323949065768981637e-01
3.639999999999999858e+01,8.818705842768892467e-01
3.643999999999999773e+01,8.693548195270082157e-01
3.647999999999999687e+01,7.830333145424562824e-01
3.652000000000000313e+01,7.174841528190872841e-01
3.656000000000000227e+01,6.766849078687433572e-01
3.660000000000000142e+01,6.341183474037684897e-01
3.664000000000000057e+01,5.880166467418966869e-01
3.667999999999999972e+01,5.657809258786403728e-01
3.671999999999999886e+01,4.723911279042870004e-01
3.675999999999999801e+01,5.027488278579622660e-01
3.679999999999999716e+01,4.044984490528386600e-01
3.684000000000000341e+01,4.233662428605370343e-01
3.688000000000000256e+01,3.772672720452442396e-01
3.692000000000000171e+01,3.625474349317706624e-01
3.696000000000000085e+01,3.142395267026609207e-01
3.700000000000000000e+01,3.185245104162257590e-01
3.703999999999999915e+01,2.958507089161201975e-01
3.707999999999999829e+01,2.537313253720984707e-01
3.711999999999999744e+01,2.602272208456691271e-01
3.715999999999999659e+01,2.499292368121375230e-01
3.720000000000000284e+01,2.484706784380606159e-01
3.724000000000000199e+01,2.443607394819117817e-01
3.728000000000000114e+01,2.650005399392041938e-01
3.732000000000000028e+01,2.750337733775008453e-01
3.735999999999999943e+01,2.324748277557784348e-01
3.739999999999999858e+01,2.663741757345394201e-01
3.743999999999999773e+01,2.224899636340335329e-01
3.747999999999999687e+01,1.918646452922015133e-01
3.752000000000000313e+01,2.275326557244234937e-01
3.756000000000000227e+01,2.375676139716597912e-01
3.760000000000000142e+01,2.166660656937310359e-01
3.764000000000000057e+01,2.107911865901918314e-01
3.767999999999999972e+01,1.894481610082352219e-01
3.771999999999999886e+01,2.321886463975862958e-01
3.775999999999999801e+01,2.382471876544234313e-01
3.779999999999999716e+01,2.540289141855404109e-01
3.784000000000000341e+01,2.640654363842591112e-01
3.788000000000000256e+01,2.634952536176392579e-01
3.792000000000000171e+01,2.726482265653686343e-01
3.796000000000000085e+01,2.981536509827234505e-01
3.800000000000000000e+01,2.847673036115078715e-01
3.803999999999999915e+01,2.872914342960578571e-01
3.807999999999999829e+01,2.929093756731304121e-01
3.811999999999999744e+01,3.232768495441298851e-01
3.815999999999999659e+01,3.576220218155094499e-01
3.820000000000000284e+01,3.557270952752020765e-01
3.824000000000000199e+01,3.595776622576107306e-01
3.828000000000000114e+01,3.811064630048802138e-01
3.832000000000000028e+01,4.008675245451809310e-01
3.835999999999999943e+01,4.232803740975934481e-01
3.839999999999999858e+01,4.863530206313688153e-01
3.843999999999999773e+01,4.407051012463863993e-01
3.847999999999999687e+01,4.467658018171232204e-01
3.852000000000000313e+01,4.519426213288187943e-01
3.856000000000000227e+01,4.310441886155343960e-01
3.860000000000000142e+01,4.348951701564550132e-01
3.864000000000000057e+01,4.325587965915343447e-01
3.867999999999999972e+01,4.293385025543310363e-01
3.871999999999999886e+01,4.084400373164501219e-01
3.875999999999999801e+01,3.950547523372089365e-01
3.879999999999999716e+01,3.891826377632973677e-01
3.884000000000000341e+01,3.766811651097543567e-01
3.888000000000000256e+01,3.288233335527295798e-01
3.892000000000000171e+01,3.393033191735982945e-01
3.896000000000000085e+01,3.484573616417740993e-01
3.900000000000000000e+01,3.421429324722962129e-01
3.903999999999999915e+01,3.561582720982203187e-01
3.907999999999999829e+01,3.171390552645480532e-01
3.911999999999999744e+01,3.094984302006343890e-01
3.915999999999999659e+01,3.394237389545162742e-01
3.920000000000000284e+01,3.574161564621060050e-01
3.924000000000000199e+01,3.603819969194200223e-01
3.928000000000000114e+01,3.518568801310608118e-01
3.932000000000000028e+01,4.060890190598841487e-01
3.935999999999999943e+01,3.794434489998774751e-01
3.939999999999999858e+01,3.793149109568279553e-01
3.943999999999999773e+01,3.995160431760786390e-01
3.947999999999999687e+01,4.122037522482566163e-01
3.952000000000000313e+01,4.717383343104593618e-01
3.956000000000000227e+01,4.738187046009524339e-01
3.960000000000000142e+01,5.253976504182844565e-01
3.964000000000000057e+01,5.221740870007209878e-01
3.967999999999999972e+01,5.463513940414217451e-01
3.971999999999999886e+01,5.784835985685569115e-01
3.975999999999999801e+01,5.920534682944705862e-01
3.979999999999999716e+01,6.202075214087848787e-01
3.984000000000000341e+01,6.686911462522969751e-01
3.988000000000000256e+01,6.964026381984620429e-01
3.992000000000000171e+01,7.236718579269679763e-01
3.996000000000000085e+01,8.344699999599302087e-01
4.000000000000000000e+01,8.608546456931865931e-01
4.003999999999999915e+01,8.607217209217474796e-01
4.007999999999999829e+01,9.617958371843974286e-01
4.011999999999999744e+01,9.709432145643467349e-01
4.015999999999999659e+01,9.858356125081226828e-01
4.020000000000000284e+01,9.755362616556790822e-01
4.024000000000000199e+01,9.709819116604421207e-01
4.028000000000000114e+01,9.487490061854296775e-01
4.032000000000000028e+01,9.543587672229573160e-01
4.035999999999999943e+01,9.254957121990040614e-01
4.039999999999999858e+01,8.780701647208667415e-01
4.043999999999999773e+01,8.483223189288401356e-01
4.047999999999999687e+01,7.818918589792064333e-01
4.052000000000000313e+01,7.826378962198405898e-01
4.056000000000000227e+01,7.042737437012951407e-01
4.060000000000000142e+01,6.214895680936655120e-01
4.064000000000000057e+01,5.802485450965060299e-01
4.067999999999999972e+01,5.504978127642489172e-01
4.071999999999999886e+01,4.951132498355007017e-01
4.075999999999999801e+01,4.817137636645312804e-01
4.079999999999999716e+01,3.702000192032406378e-01
4.084000000000000341e+01,3.842005824612953480e-01
4.088000000000000256e+01,3.743350905385746108e-01
4.092000000000000171e+01,3.454650243613981986e-01
4.096000000000000085e+01,3.148265686587801149e-01
4.100000000000000000e+01,3.177760101565371142e-01
4.103999999999999915e+01,3.220507183729057199e-01
4.107999999999999829e+01,2.657771644411039413e-01
4.111999999999999744e+01,2.435334318569855883e-01
4.115999999999999659e+01,2.606229552541097227e-01
4.120000000000000284e+01,2.295388907458270622e-01
4.124000000000000199e+01,2.125967011995386624e-01
4.128000000000000114e+01,1.956538581302833535e-01
4.132000000000000028e+01,2.264413520665722879e-01
4.135999999999999943e+01,1.949127000525631426e-01
4.139999999999999858e+01,1.987396615347833406e-01
4.143999999999999773e+01,2.206860320775984319e-01
4.147999999999999687e+01,1.617541714061434543e-01
4.152000000000000313e+01,2.102163489509578653e-01
4.156000000000000227e+01,1.503991457260586140e-01
4.160000000000000142e+01,1.825075812574405432e-01
4.164000000000000057e+01,1.531837092798311872e-01
4.167999999999999972e+01,1.989912154767975450e-01
4.171999999999999886e+01,1.581750331455244185e-01
4.175999999999999801e+01,1.633212646044269467e-01
4.179999999999999716e+01,1.547661495229186723e-01
4.184000000000000341e+01,1.444424281431446744e-01
4.188000000000000256e+01,1.504701926085968422e-01
4.192000000000000171e+01,1.224667104407097945e-01
4.196000000000000085e+01,1.077210184607551996e-01
4.200000000000000000e+01,1.084428753516183952e-01
4.203999999999999915e+01,1.352391602337271459e-01
4.207999999999999829e+01,1.151875015593222112e-01
4.211999999999999744e+01,1.229780659984988089e-01
4.215999999999999659e+01,1.192769637536681970e-01
4.220000000000000284e+01,1.058519998004765900e-01
4.224000000000000199e+01,9.684568291726423916e-02
4.228000000000000114e+01,9.314191066519948714e-02
4.232000000000000028e+01,1.093251455298617364e-01
4.235999999999999943e+01,9.457070132544605212e-02
4.239999999999999858e+01,7.760555916918264463e-02
4.243999999999999773e+01,8.538888534934579999e-02
4.247999999999999687e+01,9.361321611447537272e-02
4.252000000000000313e+01,9.962681936782678827e-02
4.256000000000000227e+01,1.206658798384141751e-01
4.260000000000000142e+01,9.529882236669456885e-02
4.264000000000000057e+01,9.644799879380674956e-02
4.267999999999999972e+01,9.803813053933434218e-02
4.271999999999999886e+01,8.062324463144765474e-02
4.275999999999999801e+01,9.900559091448296600e-02
4.279999999999999716e+01,9.352140905785355507e-02
4.284000000000000341e+01,9.024595793535530874e-02
4.288000000000000256e+01,8.917922769367800373e-02
4.292000000000000171e+01,1.163964772066174436e-01
4.296000000000000085e+01,9.455579785402359883e-02
4.300000000000000000e+01,1.036508007928606256e-01
4.303999999999999915e+01,7.120106818260857340e-02
4.307999999999999829e+01,1.010657113711418975e-01
4.311999999999999744e+01,5.535516384655607414e-02
4.315999999999999659e+01,7.770437060824347819e-02
4.320000000000000284e+01,8.900360820709765641e-02
4.324000000000000199e+01,9.234654274048229028e-02
4.328000000000000114e+01,9.082684030576049228e-02
4.332000000000000028e+01,5.129796300669081655e-02
4.335999999999999943e+01,5.861501277986738700e-02
4.339999999999999858e+01,7.300214612046224127e-02
4.343999999999999773e+01,6.352259366842941124e-02
4.347999999999999687e+01,8.144297561019246678e-02
4.352000000000000313e+01,7.063516127307746528e-02
4.356000000000000227e+01,1.097669006923311652e-01
4.360000000000000142e+01,1.055859517871965692e-01
4.364000000000000057e+01,6.958310109258004916e-02
4.367999999999999972e+01,7.689046898581528011e-02
4.371999999999999886e+01,7.756727669557578198e-02
4.375999999999999801e+01,1.007824590463308190e-01
4.379999999999999716e+01,7.538145931927762999e-02
4.384000000000000341e+01,8.047398125690233273e-02
4.388000000000000256e+01,1.054531260321563135e-01
4.392000000000000171e+01,6.369595717286924419e-02
4.396000000000000085e+01,8.690466958297793365e-02
4.400000000000000000e+01,1.158574566391346872e-01
4.403999999999999915e+01,9.840377103381765800e-02
4.407999999999999829e+01,9.243953856203644681e-02
4.411999999999999744e+01,8.735786039674310610e-02
4.415999999999999659e+01,9.376561565836520618e-02
4.420000000000000284e+01,9.486855361850748958e-02
4.424000000000000199e+01,1.176258405654438399e-01
4.428000000000000114e+01,9.839613280343591228e-02
4.432000000000000028e+01,1.220345322690778306e-01
4.435999999999999943e+01,9.573075058885165134e-02
4.439999999999999858e+01,1.083174730645031364e-01
4.443999999999999773e+01,9.305968004962018869e-02
4.447999999999999687e+01,1.312768438228843482e-01
4.452000000000000313e+01,1.248552315239085941e-01
4.456000000000000227e+01,1.224097410956820758e-01
4.460000000000000142e+01,9.786509395778859866e-02
4.464000000000000057e+01,1.214919197079322721e-01
4.467999999999999972e+01,1.172741708476805617e-01
4.471999999999999886e+01,1.311750230765878489e-01
4.475999999999999801e+01,1.044146234785459648e-01
4.479999999999999716e+01,8.295614775310937439e-02
4.484000000000000341e+01,9.022313253063939109e-02
4.488000000000000256e+01,1.138408641551312966e-01
4.492000000000000171e+01,9.237776746704251529e-02
4.496000000000000085e+01,1.040596387943803630e-01
4.500000000000000000e+01,1.015974216092529886e-01
4.503999999999999915e+01,9.957557839723968351e-02
4.507999999999999829e+01,1.015297289629430721e-01
4.511999999999999744e+01,1.092276782820093828e-01
4.515999999999999659e+01,8.466139767856707687e-02
4.520000000000000284e+01,9.014635002001679387e-02
4.524000000000000199e+01,1.009331178476597646e-01
4.528000000000000114e+01,7.017459834084276149e-02
4.532000000000000028e+01,7.609658782757360018e-02
4.535999999999999943e+01,1.072082800663256147e-01
4.539999999999999858e+01,8.174822936455845845e-02
4.543999999999999773e+01,7.971004687923587129e-02
4.547999999999999687e+01,7.192477807926811462e-02
4.552000000000000313e+01,1.065653672004054364e-01
4.556000000000000227e+01,6.474625714202375537e-02
4.560000000000000142e+01,7.065642978499549198e-02
4.564000000000000057e+01,8.275222679553673188e-02
4.567999999999999972e+01,7.981986037286116498e-02
4.571999999999999886e+01,5.390415393335503541e-02
4.575999999999999801e+01,4.875851464037753852e-02
4.579999999999999716e+01,7.145419195644378552e-02
4.584000000000000341e+01,9.149637022874693160e-02
4.588000000000000256e+01,8.501953941306597540e-02
4.592000000000000171e+01,5.290759707056913452e-02
4.596000000000000085e+01,8.487713591748012598e-02
4.600000000000000000e+01,1.097735992349962164e-01
4.603999999999999915e+01,9.312458800515893698e-02
4.607999999999999829e+01,6.012145368728544215e-02
4.611999999999999744e+01,7.882505734288475230e-02
4.615999999999999659e+01,8.603600898345763193e-02
4.620000000000000284e+01,9.987440075249638671e-02
4.624000000000000199e+01,8.454197251032484484e-02
4.628000000000000114e+01,5.418123303528368795e-02
4.632000000000000028e+01,8.348234899746784232e-02
4.635999999999999943e+01,8.272870797403300558e-02
4.639999999999999858e+01,6.606281874331967896e-02
4.643999999999999773e+01,1.125943850478138969e-01
4.647999999999999687e+01,1.078573868592825474e-01
4.652000000000000313e+01,9.074374056145464995e-02
4.656000000000000227e+01,1.001453625380599038e-01
4.660000000000000142e+01,9.230882591911833412e-02
4.664000000000000057e+01,1.096616767462719327e-01
4.667999999999999972e+01,1.124280715146930426e-01
4.671999999999999886e+01,1.244735005619818924e-01
4.675999999999999801e+01,1.011606296036810376e-01
4.679999999999999716e+01,1.070146900433862902e-01
4.684000000000000341e+01,1.150764958862035142e-01
4.688000000000000256e+01,1.094357038182152964e-01
4.692000000000000171e+01,1.152836652987393878e-01
4.696000000000000085e+01,1.211295740862492476e-01
4.700000000000000000e+01,1.247636517912394521e-01
4.703999999999999915e+01,1.350249627051814671e-01
4.707999999999999829e+01,1.178830615173556556e-01
4.711999999999999744e+01,1.334436425589670128e-01
4.715999999999999659e+01,1.291142048152546795e-01
4.720000000000000284e+01,1.486481554495774071e-01
4.724000000000000199e+01,1.619926325163676406e-01
4.728000000000000114e+01,1.417464963134917877e-01
4.732000000000000028e+01,1.617160060965668611e-01
4.735999999999999943e+01,1.432333921237255725e-01
4.739999999999999858e+01,1.428687190682602082e-01
4.743999999999999773e+01,1.018421340140629322e-01
4.747999999999999687e+01,1.474362947926794731e-01
4.752000000000000313e+01,1.696047184482677994e-01
4.756000000000000227e+01,1.745347470288648728e-01
4.760000000000000142e+01,1.754849818983329479e-01
4.764000000000000057e+01,1.759910428612744826e-01
4.767999999999999972e+01,1.411385771924917321e-01
4.771999999999999886e+01,1.279396032725163557e-01
4.775999999999999801e+01,1.310906667611692333e-01
4.779999999999999716e+01,1.342394706372937729e-01
4.784000000000000341e+01,1.334084216824283908e-01
4.788000000000000256e+01,1.215262507274372378e-01
4.792000000000000171e+01,1.308555685474633301e-01
4.796000000000000085e+01,1.450440781213506447e-01
4.800000000000000000e+01,1.375745471614436555e-01
4.803999999999999915e+01,1.062371972782366197e-01
4.807999999999999829e+01,1.270480562635422084e-01
4.811999999999999744e+01,1.023353449642123852e-01
4.815999999999999659e+01,1.120926745372112093e-01
4.820000000000000284e+01,8.825916421440957449e-02
4.824000000000000199e+01,1.112703788600105659e-01
4.828000000000000114e+01,9.494533570908261777e-02
4.832000000000000028e+01,1.104385717738081280e-01
4.835999999999999943e+01,9.897023413807860825e-02
4.839999999999999858e+01,1.034098225507750074e-01
4.843999999999999773e+01,8.221367867811334162e-02
4.847999999999999687e+01,1.144915062625794649e-01
4.852000000000000313e+01,1.021295724437864955e-01
4.856000000000000227e+01,1.003720807733096826e-01
4.860000000000000142e+01,1.114287899340342947e-01
4.864000000000000057e+01,1.229249862699558771e-01
4.867999999999999972e+01,1.048078078355063197e-01
4.871999999999999886e+01,1.264639768139118325e-01
4.875999999999999801e+01,9.906078819680617931e-02
4.879999999999999716e+01,8.800738080226370996e-02
4.884000000000000341e+01,9.683937443488684071e-02
4.888000000000000256e+01,7.517403661610981558e-02
4.892000000000000171e+01,7.648775606855162668e-02
4.896000000000000085e+01,5.393342997155917834e-02
4.900000000000000000e+01,7.424605826492401695e-02
4.903999999999999915e+01,8.792681588455839026e-02
4.907999999999999829e+01,8.304294288169694616e-02
4.911999999999999744e+01,1.090932446138068862e-01
4.915999999999999659e+01,1.064139607503016005e-01
4.920000000000000284e+01,1.050579335301287387e-01
4.924000000000000199e+01,9.088263446832738068e-02
4.928000000000000114e+01,7.891447975771606616e-02
4.932000000000000028e+01,9.567068197932984686e-02
4.935999999999999943e+01,7.530012890123480296e-02
4.939999999999999858e+01,7.525679261120186980e-02
4.943999999999999773e+01,1.039377836934633481e-01
4.947999999999999687e+01,7.339430455413123444e-02
4.952000000000000313e+01,9.897626292929652403e-02
4.956000000000000227e+01,1.006900279553745170e-01
4.960000000000000142e+01,7.720972865733788382e-02
4.964000000000000057e+01,1.270910318961923080e-01
4.967999999999999972e+01,1.287966583278792876e-01
4.971999999999999886e+01,1.026564686320866199e-01
4.975999999999999801e+01,1.087761571400194388e-01
4.979999999999999716e+01,1.131252785409582046e-01
4.984000000000000341e+01,9.935153581374658871e-02
4.988000000000000256e+01,9.839167861181019603e-02
4.992000000000000171e+01,1.049422525949698648e-01
4.996000000000000085e+01,1.265164609329798295e-01
5.000000000000000000e+01,1.149413396834697842e-01
5.003999999999999915e+01,1.108766200591252693e-01
5.007999999999999829e+01,1.028314958184198408e-01
5.011999999999999744e+01,1.252783462726918262e-01
5.015999999999999659e+01,1.030850313379868682e-01
5.020000000000000284e+01,1.007767824179010147e-01
5.024000000000000199e+01,9.758176541888712030e-02
5.028000000000000114e+01,1.067585817048074398e-01
5.032000000000000028e+01,8.632161923463879671e-02
5.035999999999999943e+01,8.621163707308761304e-02
5.039999999999999858e+01,1.073125327813218149e-01
5.043999999999999773e+01,1.001254812952536849e-01
5.047999999999999687e+01,8.895792665972288016e-02
5.052000000000000313e+01,8.176502575172248100e-02
5.056000000000000227e+01,1.041800837378093758e-01
5.060000000000000142e+01,8.460659019194163855e-02
5.064000000000000057e+01,7.563702642226001471e-02
5.067999999999999972e+01,9.671734569397417991e-02
5.071999999999999886e+01,7.448322275208588139e-02
5.075999999999999801e+01,7.920528719429931197e-02
5.079999999999999716e+01,8.348239931848107365e-02
5.084000000000000341e+01,1.010151141957325860e-01
5.088000000000000256e+01,7.788506968957528698e-02
5.092000000000000171e+01,6.403302486471570965e-02
5.096000000000000085e+01,8.818596083838396715e-02
5.100000000000000000e+01,9.509965435238436349e-02
5.103999999999999915e+01,8.168041960273314528e-02
5.107999999999999829e+01,5.676732088090178513e-02
5.111999999999999744e+01,7.251088578779216198e-02
5.115999999999999659e+01,8.118010408827276703e-02
5.120000000000000284e+01,7.614566032044729760e-02
5.124000000000000199e+01,7.420178550609063395e-02
5.128000000000000114e+01,7.932605315704444049e-02
5.132000000000000028e+01,9.284431454171572506e-02
5.135999999999999943e+01,7.498072615527688611e-02
5.139999999999999858e+01,6.993064886832590921e-02
5.143999999999999773e+01,1.042112952618977073e-01
5.147999999999999687e+01,1.009227104230815270e-01
5.152000000000000313e+01,8.702406064015129339e-02
5.156000000000000227e+01,8.726474366518548187e-02
5.160000000000000142e+01,8.087292540463704438e-02
5.164000000000000057e+01,7.889743868617275779e-02
5.167999999999999972e+01,9.901642194604586000e-02
5.171999999999999886e+01,8.289197597538702778e-02
5.175999999999999801e+01,9.328151734883600998e-02
5.179999999999999716e+01,8.466380436745711557e-02
5.184000000000000341e+01,7.692674400369869936e-02
5.188000000000000256e+01,7.051228011148973074e-02
5.192000000000000171e+01,7.867901405469256149e-02
5.196000000000000085e+01,6.872236164430474414e-02
5.200000000000000000e+01,1.016319246260097287e-01
5.203999999999999915e+01,8.990085911315869038e-02
5.207999999999999829e+01,8.877336865732692039e-02
5.211999999999999744e+01,8.233910994459718580e-02
5.215999999999999659e+01,8.385668433883185224e-02
5.220000000000000284e+01,6.813472067409293009e-02
5.224000000000000199e+01,9.527891328158565043e-02
5.228000000000000114e+01,7.159506637331392032e-02
5.232000000000000028e+01,8.149632817863276812e-02
5.235999999999999943e+01,7.327410509725901244e-02
5.239999999999999858e+01,7.698123936814026125e-02
5.243999999999999773e+01,8.952404518729271954e-02
5.247999999999999687e+01,1.104605589941670685e-01
5.252000000000000313e+01,8.896609460295848426e-02
5.256000000000000227e+01,8.028485556524225797e-02
5.260000000000000142e+01,9.546567470868536076e-02
5.264000000000000057e+01,9.915224560085082739e-02
5.267999999999999972e+01,6.703710449027876217e-02
5.271999999999999886e+01,1.034213164320830214e-01
5.275999999999999801e+01,1.035618429572903176e-01
5.279999999999999716e+01,9.265003552521836050e-02
5.284000000000000341e+01,7.112783798979592509e-02
5.288000000000000256e+01,8.319061122162124677e-02
5.292000000000000171e+01,1.098343359561036042e-01
5.296000000000000085e+01,9.404697410609091923e-02
5.300000000000000000e+01,9.416640517383202680e-02
5.303999999999999915e+01,1.150541100856467686e-01
5.307999999999999829e+01,8.555553212273232788e-02
5.311999999999999744e+01,8.522232873481369597e-02
5.315999999999999659e+01,9.239875841386553657e-02
5.320000000000000284e+01,8.056758887223262888e-02
5.324000000000000199e+01,8.110752347057970102e-02
5.328000000000000114e+01,7.501454294431615655e-02
5.332000000000000028e+01,9.631907289754097767e-02
5.335999999999999943e+01,6.812115841734345256e-02
5.339999999999999858e+01,8.765060524301199196e-02
5.343999999999999773e+01,7.226206026752750311e-02
5.347999999999999687e+01,9.841350498994147489e-02
5.352000000000000313e+01,1.029055494217547134e-01
5.356000000000000227e+01,7.468934102867974545e-02
5.360000000000000142e+01,6.724126853333564635e-02
5.364000000000000057e+01,8.321304432584687716e-02
5.367999999999999972e+01,8.945813050997174221e-02
5.371999999999999886e+01,1.071902951798762160e-01
5.375999999999999801e+01,8.646875956423348553e-02
5.379999999999999716e+01,7.369865306983726383e-02
5.384000000000000341e+01,7.683513257368081162e-02
5.388000000000000256e+01,8.880692890662865435e-02
5.392000000000000171e+01,8.795830056065544189e-02
5.396000000000000085e+01,9.771278416612245998e-02
5.400000000000000000e+01,9.685659192224348180e-02
5.403999999999999915e+01,1.150006123607269226e-01
5.407999999999999829e+01,1.203241687070486371e-01
5.411999999999999744e+01,9.028761203870491747e-02
5.415999999999999659e+01,1.000230627330300770e-01
5.420000000000000284e+01,8.588917709428572911e-02
5.424000000000000199e+01,9.429108452926562856e-02
5.428000000000000114e+01,1.172736084543559015e-01
5.432000000000000028e+01,8.324023844351473300e-02
5.435999999999999943e+01,9.339836360118233816e-02
5.439999999999999858e+01,9.780720515603189003e-02
5.443999999999999773e+01,8.541791057377615126e-02
5.447999999999999687e+01,8.760918321507987772e-02
5.452000000000000313e+01,1.048229669338720249e-01
5.456000000000000227e+01,8.888629778778209256e-02
5.460000000000000142e+01,9.504337932838556602e-02
5.464000000000000057e+01,1.051740997055697069e-01
5.467999999999999972e+01,9.541294887511375666e-02
5.471999999999999886e+01,1.192363155596369295e-01
5.475999999999999801e+01,8.515977250733827719e-02
5.479999999999999716e+01,1.005780607240052277e-01
5.484000000000000341e+01,9.389466978359592431e-02
5.488000000000000256e+01,9.472048821781889338e-02
5.492000000000000171e+01,8.847103383447402214e-02
5.496000000000000085e+01,1.087347785304216136e-01
5.500000000000000000e+01,7.772785997827262594e-02
5.503999999999999915e+01,1.019611117693362684e-01
5.507999999999999829e+01,1.023248104545061016e-01
5.511999999999999744e+01,9.561318705555718611e-02
5.515999999999999659e+01,1.030400096666554133e-01
5.520000000000000284e+01,1.002978145363410817e-01
5.524000000000000199e+01,1.125779531239315678e-01
5.528000000000000114e+01,1.036402115825117848e-01
5.532000000000000028e+01,1.145862748320065905e-01
5.535999999999999943e+01,1.082920216110224432e-01
5.539999999999999858e+01,1.086229422571598630e-01
5.543999999999999773e+01,1.244181010618903710e-01
5.547999999999999687e+01,1.212050990072550960e-01
5.552000000000000313e+01,1.392017135987005938e-01
5.556000000000000227e+01,1.112309714825758244e-01
5.560000000000000142e+01,1.071215485493459130e-01
5.564000000000000057e+01,1.511808888438503085e-01
5.567999999999999972e+01,1.170102222424007632e-01
5.571999999999999886e+01,1.597352901326056229e-01
5.575999999999999801e+01,1.335113592722567966e-01
5.579999999999999716e+01,1.497107540322934194e-01
5.584000000000000341e+01,1.371789176939127441e-01
5.588000000000000256e+01,1.387853500059957335e-01
5.592000000000000171e+01,1.505524577500804151e-01
5.596000000000000085e+01,1.499405920036633866e-01
5.600000000000000000e+01,1.630250116405403127e-01
5.603999999999999915e+01,1.725695122250767988e-01
5.607999999999999829e+01,1.697350097591809048e-01
5.611999999999999744e+01,1.748513649225403310e-01
5.615999999999999659e+01,1.618432991347388827e-01
5.620000000000000284e+01,1.757900806808531391e-01
5.624000000000000199e+01,2.069687181483127747e-01
5.628000000000000114e+01,1.943895900848142122e-01
5.632000000000000028e+01,2.560543264698825205e-01
5.635999999999999943e+01,2.363952125020500894e-01
5.639999999999999858e+01,2.472265262594948720e-01
5.643999999999999773e+01,2.545178224314972870e-01
5.647999999999999687e+01,2.905317117932003090e-01
5.652000000000000313e+01,2.836716839185619010e-01
5.656000000000000227e+01,3.165830722079808757e-01
5.660000000000000142e+01,3.181113199426542915e-01
5.664000000000000057e+01,3.364293713583322853e-01
5.667999999999999972e+01,3.317613829501870337e-01
5.671999999999999886e+01,3.195757246182763245e-01
5.675999999999999801e+01,2.994304328020507278e-01
5.679999999999999716e+01,2.920973218884371225e-01
5.684000000000000341e+01,2.821080022707574964e-01
5.688000000000000256e+01,2.562038528785288705e-01
5.692000000000000171e+01,2.417859937072644183e-01
5.696000000000000085e+01,2.251538499792422876e-01
5.700000000000000000e+01,2.341504953972146363e-01
5.703999999999999915e+01,2.223707808477674019e-01
5.707999999999999829e+01,2.083767521816318469e-01
5.711999999999999744e+01,1.957040292034106510e-01
5.715999999999999659e+01,1.808169724018809377e-01
5.720000000000000284e+01,1.942103777232290773e-01
5.724000000000000199e+01,2.005279387350183129e-01
5.728000000000000114e+01,1.608777193468989564e-01
5.732000000000000028e+01,1.693958493474859717e-01
5.735999999999999943e+01,1.783513185016478431e-01
5.739999999999999858e+01,1.705079223737500926e-01
5.743999999999999773e+01,1.891771144199130006e-01
5.747999999999999687e+01,1.570169860199863709e-01
5.752000000000000313e+01,1.509274723802608020e-01
5.756000000000000227e+01,1.527884616506236526e-01
5.760000000000000142e+01,1.440378882737232413e-01
5.764000000000000057e+01,1.432377981002908585e-01
5.767999999999999972e+01,1.331519866946919151e-01
5.771999999999999886e+01,1.402976666379614490e-01
5.775999999999999801e+01,1.509742631523774414e-01
5.779999999999999716e+01,1.475036180950665687e-01
5.784000000000000341e+01,1.510994995601945279e-01
5.788000000000000256e+01,1.462935179410832509e-01
5.792000000000000171e+01,1.291080800192707378e-01
5.796000000000000085e+01,1.265023520830310666e-01
5.800000000000000000e+01,1.296372501342721584e-01
5.803999999999999915e+01,1.389547180269229965e-01
5.807999999999999829e+01,1.367765976181100629e-01
5.811999999999999744e+01,1.394551662223693089e-01
5.815999999999999659e+01,1.496421362298248070e-01
5.820000000000000284e+01,1.474495809614079223e-01
5.824000000000000199e+01,1.262481849552219704e-01
5.828000000000000114e+01,1.147649293284972727e-01
5.832000000000000028e+01,1.143256653496408787e-01
5.835999999999999943e+01,1.222786609219081305e-01
5.839999999999999858e+01,1.258072486820553670e-01
5.843999999999999773e+01,1.227016502405770398e-01
5.847999999999999687e+01,1.138457631586411167e-01
5.852000000000000313e+01,1.452027631358020765e-01
5.856000000000000227e+01,1.226365006768247723e-01
5.860000000000000142e+01,1.133239294287399501e-01
5.864000000000000057e+01,1.283138822192143869e-01
5.867999999999999972e+01,1.083845524249006792e-01
5.871999999999999886e+01,1.269002455941765917e-01
5.875999999999999801e+01,1.308265070050419199e-01
5.879999999999999716e+01,1.369575676792714192e-01
5.884000000000000341e+01,1.143566582568193019e-01
5.888000000000000256e+01,1.178260285820216385e-01
5.892000000000000171e+01,1.212904000744623317e-01
5.896000000000000085e+01,1.229819480518748454e-01
5.900000000000000000e+01,1.056644680786245488e-01
5.903999999999999915e+01,1.236982562918088613e-01
5.907999999999999829e+01,9.134428363373514603e-02
5.911999999999999744e+01,8.815420755412849141e-02
5.915999999999999659e+01,9.379814766668052861e-02
5.920000000000000284e+01,8.971403841403967350e-02
5.924000000000000199e+01,1.099323054003053662e-01
5.928000000000000114e+01,8.595011415010925249e-02
5.932000000000000028e+01,8.759614055391647114e-02
5.935999999999999943e+01,1.007278561267659772e-01
5.939999999999999858e+01,9.750216745928537432e-02
5.943999999999999773e+01,7.394148133301284287e-02
5.947999999999999687e+01,7.645092715474188783e-02
5.952000000000000313e+01,8.912016161055527630e-02
5.956000000000000227e+01,9.736470250825315920e-02
5.960000000000000142e+01,8.173857687600558086e-02
5.964000000000000057e+01,8.024979368306346672e-02
5.967999999999999972e+01,1.030632783426157495e-01
5.971999999999999886e+01,7.106930740555600368e-02
5.975999999999999801e+01,7.531033470982555211e-02
5.979999999999999716e+01,5.877432216827221945e-02
5.984000000000000341e+01,6.433076952977694052e-02
5.988000000000000256e+01,9.772506513513755377e-02
5.992000000000000171e+01,7.056645768322740431e-02
5.996000000000000085e+01,7.964279920609547425e-02
