2.003999999999999915e+01,7.755501636852226918e-03
2.007999999999999829e+01,8.707998214866471617e-03
2.012000000000000099e+01,3.877026840583503407e-03
2.016000000000000014e+01,4.167450043198046329e-03
2.019999999999999929e+01,7.105640740468267304e-03
2.023999999999999844e+01,5.514596596131879185e-03
2.028000000000000114e+01,5.979042869023631218e-03
2.032000000000000028e+01,6.547949727348432308e-03
2.035999999999999943e+01,7.221317074312341537e-03
2.039999999999999858e+01,3.539648275976055216e-03
2.044000000000000128e+01,6.268446594748026436e-03
2.048000000000000043e+01,6.976476293293867176e-03
2.051999999999999957e+01,5.419858557944544353e-03
2.055999999999999872e+01,7.138124146641280747e-03
2.060000000000000142e+01,7.184018991694494233e-03
2.064000000000000057e+01,8.588607048901226657e-03
2.067999999999999972e+01,3.373570197980910526e-03
2.071999999999999886e+01,4.952237770272065707e-03
2.076000000000000156e+01,4.370776777993579110e-03
2.080000000000000071e+01,5.252528060782107010e-03
2.083999999999999986e+01,7.702010971932995477e-03
2.087999999999999901e+01,5.691937126166829800e-03
2.092000000000000171e+01,4.308919664371027407e-03
2.096000000000000085e+01,2.681963072340422596e-03
2.100000000000000000e+01,3.633092405693360942e-03
2.103999999999999915e+01,6.535190867099799697e-03
2.107999999999999829e+01,7.172640539495590654e-03
2.112000000000000099e+01,6.102878393229915592e-03
2.116000000000000014e+01,6.008570217135329218e-03
2.119999999999999929e+01,4.067690762005574633e-03
2.123999999999999844e+01,6.795285653282466184e-03
2.128000000000000114e+01,3.565210701755387387e-03
2.132000000000000028e+01,2.077065300545394028e-03
2.135999999999999943e+01,5.814831022503349350e-03
2.139999999999999858e+01,4.570441478775982141e-03
2.144000000000000128e+01,7.890006347396135919e-03
2.148000000000000043e+01,3.614429504509481233e-03
2.151999999999999957e+01,8.675861767795767926e-03
2.155999999999999872e+01,4.957598358308077345e-03
2.160000000000000142e+01,5.420050990331107960e-03
2.164000000000000057e+01,4.279809995460523778e-03
2.167999999999999972e+01,4.393740246011130016e-03
2.171999999999999886e+01,5.134724944652884794e-03
2.176000000000000156e+01,8.105395562628386202e-03
2.180000000000000071e+01,6.059070130282583067e-03
2.183999999999999986e+01,6.590828590647089362e-03
2.187999999999999901e+01,4.962455776211063471e-03
2.192000000000000171e+01,3.682418392324808727e-03
2.196000000000000085e+01,2.541677442015642836e-03
2.200000000000000000e+01,3.003505129740420294e-03
2.203999999999999915e+01,4.475624474865603532e-03
2.207999999999999829e+01,6.261239046668230085e-03
2.212000000000000099e+01,4.353769828262847585e-03
2.216000000000000014e+01,5.233422628394811607e-03
2.219999999999999929e+01,2.036753461069893290e-03
2.223999999999999844e+01,9.652496014618943418e-04
2.228000000000000114e+01,2.855066553491597027e-03
2.232000000000000028e+01,4.361581817506034013e-03
2.235999999999999943e+01,3.917003545371077790e-03
2.239999999999999858e+01,5.493070743687856160e-03
2.244000000000000128e+01,4.003170077980961437e-03
2.248000000000000043e+01,3.906797988601833256e-03
2.251999999999999957e+01,6.388508146435710987e-03
2.255999999999999872e+01,4.793895465667030384e-03
2.260000000000000142e+01,7.031598239595589044e-03
2.264000000000000057e+01,3.729705680082883064e-03
2.267999999999999972e+01,7.918309134806499408e-03
2.271999999999999886e+01,3.675612276695751357e-03
2.276000000000000156e+01,4.066546270124667302e-03
2.280000000000000071e+01,7.000722016512426864e-03
2.283999999999999986e+01,3.315267627899235858e-03
2.287999999999999901e+01,6.214473535444918310e-03
2.292000000000000171e+01,3.957321415652534716e-03
2.296000000000000085e+01,5.846042229679744053e-03
2.300000000000000000e+01,5.470109608586165746e-03
2.303999999999999915e+01,5.163791174239837876e-03
2.307999999999999829e+01,6.843276748151419855e-03
2.312000000000000099e+01,5.108394645577566708e-03
2.316000000000000014e+01,5.254796907584349634e-03
2.319999999999999929e+01,8.371173485349903262e-04
2.323999999999999844e+01,6.139680717179159600e-03
2.328000000000000114e+01,6.634283354304089907e-03
2.332000000000000028e+01,5.351989215706793278e-03
2.335999999999999943e+01,2.432157471379138309e-03
2.339999999999999858e+01,6.306023665067539245e-03
2.344000000000000128e+01,3.595098088542010659e-03
2.348000000000000043e+01,3.880330236531794996e-03
2.351999999999999957e+01,3.364179992330105801e-03
2.355999999999999872e+01,5.704828012270010858e-03
2.360000000000000142e+01,4.352388660625340459e-03
2.364000000000000057e+01,5.926427012927226734e-03
2.367999999999999972e+01,6.803602035951149783e-03
2.371999999999999886e+01,3.743810680133459294e-03
2.376000000000000156e+01,5.666045922970882644e-03
2.380000000000000071e+01,6.229461028915928185e-03
2.383999999999999986e+01,3.552705799566455765e-03
2.387999999999999901e+01,3.314670259649527169e-03
2.392000000000000171e+01,3.529484760673606836e-03
2.396000000000000085e+01,3.953270488969645204e-03
2.400000000000000000e+01,6.014459832298022814e-03
2.403999999999999915e+01,5.567114506987462172e-03
2.407999999999999829e+01,8.255284721068598813e-03
2.412000000000000099e+01,6.205171804350228561e-03
2.416000000000000014e+01,2.796237879593821418e-03
2.419999999999999929e+01,1.303425619471512698e-03
2.423999999999999844e+01,2.284171994332562673e-03
2.428000000000000114e+01,3.299689738631614820e-03
2.432000000000000028e+01,3.269944437984820609e-03
2.435999999999999943e+01,4.250485180688662844e-03
2.439999999999999858e+01,2.966369100483062793e-03
2.444000000000000128e+01,5.549403839148903637e-03
2.448000000000000043e+01,5.101305593995527667e-03
2.451999999999999957e+01,4.966696671087973865e-03
2.455999999999999872e+01,5.842373307561248702e-03
2.460000000000000142e+01,1.910086018314571072e-03
2.464000000000000057e+01,4.527614949596020857e-03
2.467999999999999972e+01,5.263724364071227166e-03
2.471999999999999886e+01,4.222933615035580519e-03
2.476000000000000156e+01,3.565311240874898414e-03
2.480000000000000071e+01,2.071463560419508059e-03
2.483999999999999986e+01,3.504090680091857032e-03
2.487999999999999901e+01,5.563764601132412634e-03
2.492000000000000171e+01,3.059352538976481059e-03
2.496000000000000085e+01,3.760133520137961052e-03
2.500000000000000000e+01,5.436359179250253512e-03
2.503999999999999915e+01,2.827217098355746649e-03
2.507999999999999829e+01,3.527787220486132934e-03
2.512000000000000099e+01,1.057863543308129855e-03
2.516000000000000014e+01,4.266759410925560249e-03
2.519999999999999929e+01,3.538685318324810269e-03
2.523999999999999844e+01,3.089258988982149321e-03
2.528000000000000114e+01,3.371397943157426660e-03
2.532000000000000028e+01,4.628980800931811745e-03
2.535999999999999943e+01,4.249021213277757829e-03
2.539999999999999858e+01,1.674082016258109790e-03
2.544000000000000128e+01,2.687572684689294028e-03
2.548000000000000043e+01,2.655797501149786272e-03
2.551999999999999957e+01,8.122804015237196232e-04
2.555999999999999872e+01,5.344378212682476988e-03
2.560000000000000142e+01,4.685271694611278619e-03
2.564000000000000057e+01,4.339651788555012879e-03
2.567999999999999972e+01,4.272678581023248851e-03
2.571999999999999886e+01,3.613356557810818229e-03
2.576000000000000156e+01,2.570724522302462057e-03
2.580000000000000071e+01,5.186201114492181019e-03
2.583999999999999986e+01,4.422143264903525238e-03
2.587999999999999901e+01,5.504523381209706044e-03
2.592000000000000171e+01,6.203593098044123469e-03
2.596000000000000085e+01,4.742521667093953404e-03
2.600000000000000000e+01,7.729108246007529394e-04
2.603999999999999915e+01,4.502826765829836750e-03
2.607999999999999829e+01,2.727978866033439666e-03
2.612000000000000099e+01,3.531204501993520564e-03
2.616000000000000014e+01,4.369196958075451109e-03
2.619999999999999929e+01,2.977368052216127891e-03
2.623999999999999844e+01,5.766243959768033167e-03
2.628000000000000114e+01,5.314943627593768545e-03
2.632000000000000028e+01,3.504817060507564152e-03
2.635999999999999943e+01,3.785006014663824889e-03
2.639999999999999858e+01,3.019926890588264193e-03
2.644000000000000128e+01,4.798080711221061785e-03
2.648000000000000043e+01,5.844524610302156281e-03
2.651999999999999957e+01,4.939864906661890938e-03
2.655999999999999872e+01,4.453209038864745263e-03
2.660000000000000142e+01,3.443881859312725342e-03
2.664000000000000057e+01,3.758393556123556124e-03
2.667999999999999972e+01,2.156641079733649744e-03
2.671999999999999886e+01,5.571747855942166261e-03
2.676000000000000156e+01,3.238210428752743859e-03
2.680000000000000071e+01,4.284060675840787973e-03
2.683999999999999986e+01,5.782753897910677086e-03
2.687999999999999901e+01,1.323763726022049274e-03
2.692000000000000171e+01,4.633977841781451029e-03
2.696000000000000085e+01,2.404586170351769806e-03
2.700000000000000000e+01,2.892625171997246537e-03
2.703999999999999915e+01,4.286424281708597038e-03
2.707999999999999829e+01,5.053031468048151814e-03
2.712000000000000099e+01,4.600169750382358119e-03
2.716000000000000014e+01,4.425951149864484555e-03
2.719999999999999929e+01,4.077457952646784851e-03
2.723999999999999844e+01,1.952058493898656570e-03
2.728000000000000114e+01,3.171205731203992611e-03
2.732000000000000028e+01,3.310242847319965192e-03
2.735999999999999943e+01,2.647888279024186720e-03
2.739999999999999858e+01,4.528764332381683168e-03
2.744000000000000128e+01,3.273980789077495738e-03
2.748000000000000043e+01,5.259224007767617122e-03
2.751999999999999957e+01,7.732148372638739629e-03
2.755999999999999872e+01,6.511975783323113547e-03
2.760000000000000142e+01,8.287950948744758628e-03
2.764000000000000057e+01,8.809616135143128607e-03
2.767999999999999972e+01,9.644762997064380144e-03
2.771999999999999886e+01,8.981720969499260715e-03
2.776000000000000156e+01,7.099208489225413733e-03
2.780000000000000071e+01,6.226973728021511362e-03
2.783999999999999986e+01,3.508151619984882594e-03
2.787999999999999901e+01,3.994515489306518612e-03
2.792000000000000171e+01,3.365927968832906590e-03
2.796000000000000085e+01,3.643098330164100916e-03
2.800000000000000000e+01,1.516243890343517246e-03
2.803999999999999915e+01,3.570089908205905261e-03
2.807999999999999829e+01,6.599373150884091203e-03
2.812000000000000099e+01,4.576805233098597478e-03
2.816000000000000014e+01,3.285795629665841811e-03
2.819999999999999929e+01,4.642534162096477110e-03
2.823999999999999844e+01,4.048164929665437443e-03
2.828000000000000114e+01,7.599655757457147651e-03
2.832000000000000028e+01,4.148265205814303039e-03
2.835999999999999943e+01,0.000000000000000000e+00
2.839999999999999858e+01,1.426027048580930144e-03
2.844000000000000128e+01,3.513932100563968604e-03
2.848000000000000043e+01,3.685568623617997697e-03
2.851999999999999957e+01,1.662217987377485667e-03
2.855999999999999872e+01,4.098285084070024502e-03
2.860000000000000142e+01,2.458014726271886500e-03
2.864000000000000057e+01,5.416521174604680203e-03
2.867999999999999972e+01,5.309044659055867782e-03
2.871999999999999886e+01,4.016935184439711023e-03
2.876000000000000156e+01,4.222858539588717798e-03
2.880000000000000071e+01,4.602901593243892767e-03
2.883999999999999986e+01,2.160840012716771456e-03
2.887999999999999901e+01,2.296845289162817872e-03
2.892000000000000171e+01,1.492095839446835968e-03
2.896000000000000085e+01,1.767300935168833508e-03
2.900000000000000000e+01,4.097975347035399778e-03
2.903999999999999915e+01,2.456830689767073878e-03
2.907999999999999829e+01,2.209198637822881641e-03
2.912000000000000099e+01,2.379564226908323105e-03
2.916000000000000014e+01,4.849277461837613219e-03
2.919999999999999929e+01,4.218166657867377517e-03
2.923999999999999844e+01,6.409000556599789462e-03
2.928000000000000114e+01,4.140257371683273187e-03
2.932000000000000028e+01,3.125666944541327132e-03
2.935999999999999943e+01,5.525297813559782237e-03
2.939999999999999858e+01,2.942754058100679332e-03
2.944000000000000128e+01,3.844111038606954755e-03
2.948000000000000043e+01,4.536348088461131592e-03
2.951999999999999957e+01,4.078790060065174729e-03
2.955999999999999872e+01,2.157878506357094935e-03
2.960000000000000142e+01,5.114459969296431333e-03
2.964000000000000057e+01,4.029541277798569937e-03
2.967999999999999972e+01,1.376749320517347500e-03
2.971999999999999886e+01,3.740809356287459492e-03
2.976000000000000156e+01,4.014398682239583155e-03
2.980000000000000071e+01,2.754954268722899398e-03
2.983999999999999986e+01,3.899375305642069876e-03
2.987999999999999901e+01,4.451437460308631418e-03
2.992000000000000171e+01,4.411140635928598001e-03
2.996000000000000085e+01,2.384892067850099672e-03
3.000000000000000000e+01,4.225780864282427905e-03
3.003999999999999915e+01,3.279401939410072665e-03
3.007999999999999829e+01,5.259485134656525021e-03
3.012000000000000099e+01,6.682048683583033388e-03
3.016000000000000014e+01,6.048980371448380543e-03
3.019999999999999929e+01,3.046721751190552534e-03
3.023999999999999844e+01,5.583911116109301423e-03
3.028000000000000114e+01,6.344186863156584325e-03
3.032000000000000028e+01,3.724917327501820700e-03
3.035999999999999943e+01,5.321182452176726439e-03
3.039999999999999858e+01,6.394767069670406583e-03
3.044000000000000128e+01,6.736632183010209628e-03
3.048000000000000043e+01,6.730015679063103273e-03
3.051999999999999957e+01,4.040649742373119031e-03
3.055999999999999872e+01,7.064930099990250970e-03
3.060000000000000142e+01,7.058062664312105688e-03
3.064000000000000057e+01,1.123188939470943538e-02
3.067999999999999972e+01,8.716387385096523166e-03
3.071999999999999886e+01,3.901373442431832570e-03
3.076000000000000156e+01,7.447831379034524496e-03
3.080000000000000071e+01,8.276699388640142846e-03
3.083999999999999986e+01,6.004739390793818569e-03
3.087999999999999901e+01,5.300486726025606908e-03
3.092000000000000171e+01,5.815543130577080673e-03
3.096000000000000085e+01,4.902082438724219594e-03
3.100000000000000000e+01,6.566683473764586831e-03
3.103999999999999915e+01,4.329140233364892933e-03
3.107999999999999829e+01,5.680013210467505652e-03
3.112000000000000099e+01,3.093901901845672389e-03
3.116000000000000014e+01,4.688483500977840175e-03
3.119999999999999929e+01,5.692499692788042165e-04
3.123999999999999844e+01,2.895297237014953905e-03
3.128000000000000114e+01,3.444428467030613214e-03
3.132000000000000028e+01,3.052799163246556601e-03
3.135999999999999943e+01,3.845638047352154063e-03
3.139999999999999858e+01,2.443482802998003453e-03
3.144000000000000128e+01,4.072305837857314800e-03
3.148000000000000043e+01,4.411969784776601303e-03
3.151999999999999957e+01,4.751547764730470851e-03
3.155999999999999872e+01,1.816096911458839292e-03
3.160000000000000142e+01,3.438321988846909129e-04
3.164000000000000057e+01,2.982579599144097576e-03
3.167999999999999972e+01,3.774730360350502054e-03
3.171999999999999886e+01,2.371886218745452440e-03
3.176000000000000156e+01,5.254252983074312981e-03
3.180000000000000071e+01,4.513192166449443710e-03
3.183999999999999986e+01,5.165637276365381801e-03
3.187999999999999901e+01,5.957354814956044263e-03
3.192000000000000171e+01,6.435427068373646663e-03
3.196000000000000085e+01,3.394590803750990524e-03
3.200000000000000000e+01,1.607900811707521508e-03
3.203999999999999915e+01,2.712828380182322283e-03
3.207999999999999829e+01,2.145357425146740375e-03
3.211999999999999744e+01,2.622993552129760427e-03
3.215999999999999659e+01,2.961182896658185338e-03
3.220000000000000284e+01,6.156149597832590373e-03
3.224000000000000199e+01,4.717332969122698186e-03
3.228000000000000114e+01,3.557147067933696949e-03
3.232000000000000028e+01,5.079539149526550966e-03
3.235999999999999943e+01,3.884337529157855413e-03
3.239999999999999858e+01,4.640077547357675941e-03
3.243999999999999773e+01,2.399505136436451240e-03
3.247999999999999687e+01,2.876350137817672813e-03
3.252000000000000313e+01,4.258941986492103746e-03
3.256000000000000227e+01,4.979488834325598856e-03
3.260000000000000142e+01,3.539878466576949594e-03
3.264000000000000057e+01,3.702810989668572309e-03
3.267999999999999972e+01,4.005014005555695110e-03
3.271999999999999886e+01,5.038764301283973727e-03
3.275999999999999801e+01,3.076201393539502397e-03
3.279999999999999716e+01,5.468526508478857573e-03
3.284000000000000341e+01,1.380556556712740374e-03
3.288000000000000256e+01,4.713378303329942599e-03
3.292000000000000171e+01,1.774943689832449590e-03
3.296000000000000085e+01,2.668799461396205875e-03
3.300000000000000000e+01,4.363881468636288639e-03
3.303999999999999915e+01,4.177523729132230981e-03
3.307999999999999829e+01,3.607838264037340967e-03
3.311999999999999744e+01,2.062548092718041563e-03
3.315999999999999659e+01,4.906984889633351880e-03
3.320000000000000284e+01,4.337029617984971414e-03
3.324000000000000199e+01,5.752853768928379782e-03
3.328000000000000114e+01,3.510406940845024054e-03
3.332000000000000028e+01,6.389322844445860690e-03
3.335999999999999943e+01,2.509223889448143705e-03
3.339999999999999858e+01,5.387958857279739368e-03
3.343999999999999773e+01,3.841946491586884210e-03
3.347999999999999687e+01,2.504882316203200284e-03
3.352000000000000313e+01,3.954912669871878984e-03
3.356000000000000227e+01,3.523502018474920783e-03
3.360000000000000142e+01,2.639082749772727471e-03
3.364000000000000057e+01,6.876025438403036982e-03
3.367999999999999972e+01,3.970714510422178670e-03
3.371999999999999886e+01,4.653813411542175905e-03
3.375999999999999801e+01,8.424845713931297577e-04
3.379999999999999716e+01,2.884153452026146092e-03
3.384000000000000341e+01,4.751531668161748830e-03
3.388000000000000256e+01,4.528429204701344031e-03
3.392000000000000171e+01,3.887157166280466852e-03
3.396000000000000085e+01,2.339958022354881022e-03
3.400000000000000000e+01,3.196614262293207085e-03
3.403999999999999915e+01,3.530581186799830462e-03
3.407999999999999829e+01,4.561252283456473586e-03
3.411999999999999744e+01,6.567345989040757753e-03
3.415999999999999659e+01,3.660933185059028760e-03
3.420000000000000284e+01,2.531258580435307663e-03
3.424000000000000199e+01,1.819569227214200193e-03
3.428000000000000114e+01,2.780098429673833783e-03
3.432000000000000028e+01,3.984413606465911362e-03
3.435999999999999943e+01,2.680169141777061920e-03
3.439999999999999858e+01,4.337216160155669617e-03
3.443999999999999773e+01,4.077980227305052531e-03
3.447999999999999687e+01,4.236728965093254813e-03
3.452000000000000313e+01,2.897272358421675801e-03
3.456000000000000227e+01,3.578431796837614528e-03
3.460000000000000142e+01,4.120138548367330462e-03
3.464000000000000057e+01,2.083605347465497873e-03
3.467999999999999972e+01,3.565800019216563282e-03
3.471999999999999886e+01,4.490463913342132053e-03
3.475999999999999801e+01,5.484713633584328667e-03
3.479999999999999716e+01,2.855528513325690521e-03
3.484000000000000341e+01,2.212118943900384833e-03
3.488000000000000256e+01,7.073306314855695026e-03
3.492000000000000171e+01,4.304479634836785515e-03
3.496000000000000085e+01,3.486588398572873591e-03
3.500000000000000000e+01,1.623408273375473530e-03
3.503999999999999915e+01,3.697032950042695391e-03
3.507999999999999829e+01,6.502199195707356744e-03
3.511999999999999744e+01,6.659444694020038961e-03
3.515999999999999659e+01,2.426778513364384084e-03
3.520000000000000284e+01,4.987781716506237313e-03
3.524000000000000199e+01,4.238907364681713738e-03
3.528000000000000114e+01,4.604812081545753451e-03
3.532000000000000028e+01,5.528058703161225183e-03
3.535999999999999943e+01,4.639539597375706877e-03
3.539999999999999858e+01,4.726440003111077523e-03
3.543999999999999773e+01,5.544881106698228146e-03
3.547999999999999687e+01,4.934794176163439031e-03
3.552000000000000313e+01,6.693719134625571859e-03
3.556000000000000227e+01,6.745397331806254546e-03
3.560000000000000142e+01,4.636911053857687912e-03
3.564000000000000057e+01,3.921921507023616756e-03
3.567999999999999972e+01,5.645623095403518206e-03
3.571999999999999886e+01,3.571688533539251354e-03
3.575999999999999801e+01,4.877119964105123932e-03
3.579999999999999716e+01,6.252134704144620553e-03
3.584000000000000341e+01,8.079970640524718889e-03
3.588000000000000256e+01,7.190204357074674903e-03
3.592000000000000171e+01,4.175112640840149963e-03
3.596000000000000085e+01,7.152372685299564214e-03
3.600000000000000000e+01,6.541034802135754778e-03
3.603999999999999915e+01,6.626396348217879553e-03
3.607999999999999829e+01,4.516752440946776234e-03
3.611999999999999744e+01,4.323201353709350478e-03
3.615999999999999659e+01,3.537276187567395865e-03
3.620000000000000284e+01,4.528084381085400144e-03
3.624000000000000199e+01,6.842708220415578448e-03
3.628000000000000114e+01,6.683607588851160804e-03
3.632000000000000028e+01,7.395404792457170584e-03
3.635999999999999943e+01,4.065685580240476632e-03
3.639999999999999858e+01,5.265044762733340003e-03
3.643999999999999773e+01,6.777864422871588204e-03
3.647999999999999687e+01,4.632405360466191648e-03
3.652000000000000313e+01,7.608301286228074702e-03
3.656000000000000227e+01,7.378835912912199216e-03
3.660000000000000142e+01,6.626675029351119031e-03
3.664000000000000057e+01,7.442207540537744935e-03
3.667999999999999972e+01,5.818854429586595503e-03
3.671999999999999886e+01,4.752839835598221714e-03
3.675999999999999801e+01,6.787470280619394350e-03
3.679999999999999716e+01,6.243855546335108642e-03
3.684000000000000341e+01,4.236869670237747125e-03
3.688000000000000256e+01,5.121489642589354026e-03
3.692000000000000171e+01,7.748001415613169768e-03
3.696000000000000085e+01,3.929047968849954872e-03
3.700000000000000000e+01,5.405647432208737953e-03
3.703999999999999915e+01,4.304001135498291414e-03
3.707999999999999829e+01,7.626912137910718884e-03
3.711999999999999744e+01,4.330158449878042555e-03
3.715999999999999659e+01,6.781874901845332156e-03
3.720000000000000284e+01,6.411466489692414436e-03
3.724000000000000199e+01,5.622880468680253700e-03
3.728000000000000114e+01,6.262627026926620433e-03
3.732000000000000028e+01,5.264802198350140849e-03
3.735999999999999943e+01,6.357266272676778164e-03
3.739999999999999858e+01,5.637959683110405594e-03
3.743999999999999773e+01,8.019296487056213479e-03
3.747999999999999687e+01,7.404308665841868690e-03
3.752000000000000313e+01,6.162103658031849868e-03
3.756000000000000227e+01,5.964992568261707345e-03
3.760000000000000142e+01,7.788490167238023253e-03
3.764000000000000057e+01,5.884026603252912567e-03
3.767999999999999972e+01,7.428604018980714679e-03
3.771999999999999886e+01,6.847851646195781197e-03
3.775999999999999801e+01,6.719915823641303514e-03
3.779999999999999716e+01,7.253835354701999687e-03
3.784000000000000341e+01,7.160536924815347030e-03
3.788000000000000256e+01,6.509700070580264064e-03
3.792000000000000171e+01,6.555558096274931995e-03
3.796000000000000085e+01,6.601314571176420017e-03
3.800000000000000000e+01,9.050916750545688963e-03
3.803999999999999915e+01,7.389318815352992342e-03
3.807999999999999829e+01,9.559998875594517137e-03
3.811999999999999744e+01,7.410439727507467031e-03
3.815999999999999659e+01,1.076546958269622607e-02
3.820000000000000284e+01,8.755065535075044411e-03
3.824000000000000199e+01,7.197476876156791610e-03
3.828000000000000114e+01,9.959923162453216544e-03
3.832000000000000028e+01,1.059703820832748160e-02
3.835999999999999943e+01,9.283021000467876413e-03
3.839999999999999858e+01,1.124384394654764224e-02
3.843999999999999773e+01,1.156709279557363232e-02
3.847999999999999687e+01,1.286575370298549507e-02
3.852000000000000313e+01,1.583662290591823091e-02
3.856000000000000227e+01,1.354657678498472767e-02
3.860000000000000142e+01,1.170934518160848641e-02
3.864000000000000057e+01,1.342567168497942921e-02
3.867999999999999972e+01,1.458445782812273217e-02
3.871999999999999886e+01,1.717157306594194882e-02
3.875999999999999801e+01,2.244125070271527425e-02
3.879999999999999716e+01,2.060350214994684931e-02
3.884000000000000341e+01,2.294642792049184782e-02
3.888000000000000256e+01,2.675252221523338400e-02
3.892000000000000171e+01,2.686549206630319681e-02
3.896000000000000085e+01,3.244820916807313743e-02
3.900000000000000000e+01,4.210708075589131294e-02
3.903999999999999915e+01,4.880446376028128863e-02
3.907999999999999829e+01,6.030963720775699838e-02
3.911999999999999744e+01,8.571579315929740706e-02
3.915999999999999659e+01,1.213995905816779713e-01
3.920000000000000284e+01,1.818892329405235597e-01
3.924000000000000199e+01,2.973908412148605906e-01
3.928000000000000114e+01,4.842442893385291436e-01
3.932000000000000028e+01,7.493827007373285998e-01
3.935999999999999943e+01,9.435523005868816648e-01
3.939999999999999858e+01,1.000000000000000000e+00
3.943999999999999773e+01,9.224536592664096535e-01
3.947999999999999687e+01,7.583999484465749896e-01
3.952000000000000313e+01,5.511795994140836763e-01
3.956000000000000227e+01,3.738865475012896344e-01
3.960000000000000142e+01,2.337326346675636102e-01
3.964000000000000057e+01,1.555934899373754288e-01
3.967999999999999972e+01,1.046989761508760469e-01
3.971999999999999886e+01,8.045681632743194311e-02
3.975999999999999801e+01,5.739910436514562841e-02
3.979999999999999716e+01,4.946176684580236987e-02
3.984000000000000341e+01,3.873713789063391172e-02
3.988000000000000256e+01,3.961406169847933589e-02
3.992000000000000171e+01,3.345323623994498480e-02
3.996000000000000085e+01,2.861621742538441107e-02
4.000000000000000000e+01,2.357005322335995606e-02
4.003999999999999915e+01,2.183356502341890493e-02
4.007999999999999829e+01,2.086344610992659290e-02
4.011999999999999744e+01,1.930094353492757542e-02
4.015999999999999659e+01,2.094359722154073844e-02
4.020000000000000284e+01,1.763888996600327524e-02
4.024000000000000199e+01,1.395083765875591506e-02
4.028000000000000114e+01,1.412989783997136393e-02
4.032000000000000028e+01,1.786251206258763005e-02
4.035999999999999943e+01,1.406961852034025774e-02
4.039999999999999858e+01,1.281992414170879564e-02
4.043999999999999773e+01,1.184884074463013991e-02
4.047999999999999687e+01,1.171380529945350787e-02
4.052000000000000313e+01,1.074250650795542661e-02
4.056000000000000227e+01,1.151309070887909271e-02
4.060000000000000142e+01,8.520866767391754512e-03
4.064000000000000057e+01,1.012739059384697680e-02
4.067999999999999972e+01,9.782776552518574267e-03
4.071999999999999886e+01,9.995491348756841560e-03
4.075999999999999801e+01,8.919024600856067381e-03
4.079999999999999716e+01,7.633410529612178960e-03
4.084000000000000341e+01,6.243168488320570940e-03
4.088000000000000256e+01,8.894236567064584334e-03
4.092000000000000171e+01,9.036729130118039896e-03
4.096000000000000085e+01,6.879684980865647878e-03
4.100000000000000000e+01,7.091639459837505155e-03
4.103999999999999915e+01,7.303484934881166249e-03
4.107999999999999829e+01,8.212017643131636763e-03
4.111999999999999744e+01,7.726848486008072898e-03
4.115999999999999659e+01,5.917657000109428737e-03
4.120000000000000284e+01,7.139420175697703402e-03
4.124000000000000199e+01,5.608728344368599066e-03
4.128000000000000114e+01,2.928212977364754149e-03
4.132000000000000028e+01,8.574304119326062526e-03
4.135999999999999943e+01,7.774919394164620141e-03
4.139999999999999858e+01,7.498022044376044526e-03
4.143999999999999773e+01,7.116495272630325025e-03
4.147999999999999687e+01,6.281940815169032716e-03
4.152000000000000313e+01,6.178912342877407836e-03
4.156000000000000227e+01,7.155807925925989667e-03
4.160000000000000142e+01,7.609995899484206343e-03
4.164000000000000057e+01,6.809840016132689099e-03
4.167999999999999972e+01,5.417296696309983894e-03
4.171999999999999886e+01,5.104677044651641932e-03
4.175999999999999801e+01,5.593262430792105867e-03
4.179999999999999716e+01,5.315261006597264345e-03
4.184000000000000341e+01,6.326221860363584124e-03
4.188000000000000256e+01,7.511270761010765268e-03
4.192000000000000171e+01,3.992833274242133662e-03
4.196000000000000085e+01,6.257694128894567172e-03
4.200000000000000000e+01,5.839777770937255863e-03
4.203999999999999915e+01,4.341715671612831652e-03
4.207999999999999829e+01,5.282329220468586634e-03
4.211999999999999744e+01,5.665394084816033349e-03
4.215999999999999659e+01,5.943827784915031026e-03
4.220000000000000284e+01,4.340799572452761629e-03
4.224000000000000199e+01,4.549329920458777300e-03
4.228000000000000114e+01,6.325540015263958656e-03
4.232000000000000028e+01,4.513136889000042909e-03
4.235999999999999943e+01,3.989694782375804993e-03
4.239999999999999858e+01,4.720373781900807919e-03
4.243999999999999773e+01,3.883148638368832516e-03
4.247999999999999687e+01,5.380078724988079930e-03
4.252000000000000313e+01,6.180099892373603493e-03
4.256000000000000227e+01,3.217308174444029854e-03
4.260000000000000142e+01,3.703545530570134196e-03
4.264000000000000057e+01,4.015470927527365827e-03
4.267999999999999972e+01,4.466642618789773596e-03
4.271999999999999886e+01,4.882861424081182990e-03
4.275999999999999801e+01,5.682205046964997931e-03
4.279999999999999716e+01,2.370337036805463763e-03
4.284000000000000341e+01,4.179808721367350537e-03
4.288000000000000256e+01,2.574864913226913420e-03
4.292000000000000171e+01,2.467919669789383087e-03
4.296000000000000085e+01,4.137691427832372593e-03
4.300000000000000000e+01,5.075713288417659473e-03
4.303999999999999915e+01,5.491024054929977832e-03
4.307999999999999829e+01,4.477788396467722275e-03
4.311999999999999744e+01,4.230914668113137413e-03
4.315999999999999659e+01,4.854922223161630898e-03
4.320000000000000284e+01,5.618174814193818353e-03
4.324000000000000199e+01,4.256084259146619350e-03
4.328000000000000114e+01,5.785584065514571932e-03
4.332000000000000028e+01,4.353584931500482404e-03
4.335999999999999943e+01,2.747272096026213278e-03
4.339999999999999858e+01,4.380947498549710682e-03
4.343999999999999773e+01,5.700949739239302878e-03
4.347999999999999687e+01,4.407850819335472348e-03
4.352000000000000313e+01,5.483744429636321777e-03
4.356000000000000227e+01,4.051056135845169243e-03
4.360000000000000142e+01,4.464762928224053767e-03
4.364000000000000057e+01,3.902839557566724522e-03
4.367999999999999972e+01,5.709908329938229166e-03
4.371999999999999886e+01,4.032879943541343645e-03
4.375999999999999801e+01,4.271925889531545846e-03
4.379999999999999716e+01,4.371496886024441204e-03
4.384000000000000341e+01,2.972839985064591219e-03
4.388000000000000256e+01,2.305703358430729200e-03
4.392000000000000171e+01,2.823004526382689658e-03
4.396000000000000085e+01,3.618908158018883242e-03
4.400000000000000000e+01,3.299821488687410508e-03
4.403999999999999915e+01,3.189657456059357202e-03
4.407999999999999829e+01,3.183896513251403479e-03
4.411999999999999744e+01,3.003820029897994598e-03
4.415999999999999659e+01,3.311384426437707310e-03
4.420000000000000284e+01,3.409793272147594329e-03
4.424000000000000199e+01,5.110716938449013334e-03
4.428000000000000114e+01,2.665585573634057185e-03
4.432000000000000028e+01,2.450085536358778855e-03
4.435999999999999943e+01,3.697740762507343865e-03
4.439999999999999858e+01,3.168448202516121418e-03
4.443999999999999773e+01,3.579713461914098976e-03
4.447999999999999687e+01,2.144351108191489691e-03
4.452000000000000313e+01,3.774775198753480866e-03
4.456000000000000227e+01,5.230882684036460353e-03
4.460000000000000142e+01,3.342250147869694956e-03
4.464000000000000057e+01,3.578728714801554956e-03
4.467999999999999972e+01,2.212457901518148466e-03
4.471999999999999886e+01,4.748128649264295002e-03
4.475999999999999801e+01,2.127388520169549383e-03
4.479999999999999716e+01,3.478269391909333957e-03
4.484000000000000341e+01,4.376114447240792536e-03
4.488000000000000256e+01,5.657079190084711613e-03
4.492000000000000171e+01,6.101769939271457430e-03
4.496000000000000085e+01,4.839191180595847804e-03
4.500000000000000000e+01,3.959731819050820410e-03
4.503999999999999915e+01,4.578265892128752582e-03
4.507999999999999829e+01,3.280491266783770819e-03
4.511999999999999744e+01,3.027792265419990310e-03
4.515999999999999659e+01,3.436930807582527694e-03
4.520000000000000284e+01,2.835595595047918274e-03
4.524000000000000199e+01,3.662573699773560842e-03
4.528000000000000114e+01,2.991320422463857303e-03
4.532000000000000028e+01,3.887739535612275751e-03
4.535999999999999943e+01,1.091018621261207648e-03
4.539999999999999858e+01,2.056878355656560891e-03
4.543999999999999773e+01,4.451050923342351161e-03
4.547999999999999687e+01,3.883719323772180827e-03
4.552000000000000313e+01,2.898190078992790748e-03
4.556000000000000227e+01,2.748696493282342616e-03
4.560000000000000142e+01,5.351428388151518827e-03
4.564000000000000057e+01,5.097175178678230861e-03
4.567999999999999972e+01,2.787252552086820316e-03
4.571999999999999886e+01,2.602438415157087848e-03
4.575999999999999801e+01,4.507892854398611211e-03
4.579999999999999716e+01,4.078959052568549397e-03
4.584000000000000341e+01,4.486060232249707361e-03
4.588000000000000256e+01,2.523933160574905275e-03
4.592000000000000171e+01,4.010827129056991451e-03
4.596000000000000085e+01,2.571055585452028044e-03
4.600000000000000000e+01,4.789343788594725704e-03
4.603999999999999915e+01,2.443494901329389211e-03
4.607999999999999829e+01,1.421437848561780959e-03
4.611999999999999744e+01,3.743881901891912400e-03
4.615999999999999659e+01,4.184854460058623146e-03
4.620000000000000284e+01,4.346986994304566365e-03
4.624000000000000199e+01,5.798071159175938183e-03
4.628000000000000114e+01,2.789537102964856612e-03
4.632000000000000028e+01,6.923043688794545958e-03
4.635999999999999943e+01,4.262664141291833478e-03
4.639999999999999858e+01,4.807425755543354162e-03
4.643999999999999773e+01,4.202351347699131642e-03
4.647999999999999687e+01,2.482280637661662525e-03
4.652000000000000313e+01,3.479593365246268569e-03
4.656000000000000227e+01,3.954186480889299027e-03
4.660000000000000142e+01,2.895705203599829424e-03
4.664000000000000057e+01,4.275888539978956772e-03
4.667999999999999972e+01,2.729404621979731552e-03
4.671999999999999886e+01,1.914434105935231521e-03
4.675999999999999801e+01,3.956205713534826675e-03
4.679999999999999716e+01,4.081664460571170217e-03
4.684000000000000341e+01,2.465009333732553522e-03
4.688000000000000256e+01,3.879295123638383004e-03
4.692000000000000171e+01,2.541112161884329611e-03
4.696000000000000085e+01,3.258355055786258964e-03
4.700000000000000000e+01,3.104479106048580773e-03
4.703999999999999915e+01,2.218843482663119832e-03
4.707999999999999829e+01,1.995040756693834769e-03
4.711999999999999744e+01,3.722144049115347353e-03
4.715999999999999659e+01,5.205244811257464348e-03
4.720000000000000284e+01,4.737191928200280497e-03
4.724000000000000199e+01,4.129655771365123122e-03
4.728000000000000114e+01,3.208437160475791691e-03
4.732000000000000028e+01,3.994245367132318036e-03
4.735999999999999943e+01,1.644345773734453859e-03
4.739999999999999858e+01,1.489230238044796789e-03
4.743999999999999773e+01,3.389539396483584252e-03
4.747999999999999687e+01,2.258659914575447160e-03
4.752000000000000313e+01,4.576797601065765372e-03
4.756000000000000227e+01,4.421183520764397287e-03
4.760000000000000142e+01,4.265444562325203075e-03
4.764000000000000057e+01,3.064386128060781270e-03
4.767999999999999972e+01,4.963946308054473754e-03
4.771999999999999886e+01,4.982031217920267381e-03
4.775999999999999801e+01,2.944441677381947741e-03
4.779999999999999716e+01,2.718397242951294934e-03
4.784000000000000341e+01,3.607101483905381187e-03
4.788000000000000256e+01,2.962728234520188835e-03
4.792000000000000171e+01,2.666627499609964050e-03
4.796000000000000085e+01,4.704668734078274253e-03
4.800000000000000000e+01,5.070272921039639322e-03
4.803999999999999915e+01,3.728600147003653057e-03
4.807999999999999829e+01,3.362316200802842412e-03
4.811999999999999744e+01,3.901741352250351954e-03
4.815999999999999659e+01,3.535205036336929157e-03
4.820000000000000284e+01,3.830498907608771448e-03
4.824000000000000199e+01,4.021146901950060394e-03
4.828000000000000114e+01,4.420707272834866960e-03
4.832000000000000028e+01,5.273058640344370149e-03
4.835999999999999943e+01,6.299482374113013483e-03
4.839999999999999858e+01,4.259875424577183080e-03
4.843999999999999773e+01,7.917090796759726663e-04
4.847999999999999687e+01,3.315864198958835048e-03
4.852000000000000313e+01,2.808828161251789458e-03
4.856000000000000227e+01,4.252694657352930341e-03
4.860000000000000142e+01,2.978928153144269012e-03
4.864000000000000057e+01,3.447025088977187426e-03
4.867999999999999972e+01,4.507271417074936413e-03
4.871999999999999886e+01,5.602229973500393381e-03
4.875999999999999801e+01,5.268628360208776895e-03
4.879999999999999716e+01,4.865219331567593314e-03
4.884000000000000341e+01,6.343032525783980774e-03
4.888000000000000256e+01,4.685134241775456079e-03
4.892000000000000171e+01,5.709773771054880119e-03
4.896000000000000085e+01,2.797385844503169541e-03
4.900000000000000000e+01,4.309526372473875683e-03
4.903999999999999915e+01,3.626630085847932974e-03
4.907999999999999829e+01,3.396522956761413494e-03
4.911999999999999744e+01,3.096607637973649088e-03
4.915999999999999659e+01,3.946277617066350045e-03
4.920000000000000284e+01,3.576425261887086066e-03
4.924000000000000199e+01,2.370288459302842630e-03
4.928000000000000114e+01,4.125407132432468843e-03
4.932000000000000028e+01,3.859687396889951994e-03
4.935999999999999943e+01,3.454479257489522642e-03
4.939999999999999858e+01,2.909782617437213850e-03
4.943999999999999773e+01,3.444990964314748050e-03
4.947999999999999687e+01,3.736191166863136407e-03
4.952000000000000313e+01,3.992422028467114761e-03
4.956000000000000227e+01,4.074324185546921405e-03
4.960000000000000142e+01,5.410330025862965936e-03
4.964000000000000057e+01,4.028700349226217899e-03
4.967999999999999972e+01,4.876689029738325541e-03
4.971999999999999886e+01,3.564479066852885378e-03
4.975999999999999801e+01,4.028969650474555596e-03
4.979999999999999716e+01,4.841728199255010932e-03
4.984000000000000341e+01,4.400123048363677354e-03
4.988000000000000256e+01,4.341625485739651624e-03
4.992000000000000171e+01,3.690720547088438986e-03
4.996000000000000085e+01,4.537797137402940252e-03
5.000000000000000000e+01,2.876276239797687009e-03
5.003999999999999915e+01,2.643057044177340911e-03
5.007999999999999829e+01,2.897464402943833017e-03
5.011999999999999744e+01,4.580173270107309666e-03
5.015999999999999659e+01,3.858803712264535606e-03
5.020000000000000284e+01,3.137302984676438276e-03
5.024000000000000199e+01,6.248050827158365024e-03
5.028000000000000114e+01,2.321024333624555590e-03
5.032000000000000028e+01,3.201761084073381954e-03
5.035999999999999943e+01,3.176531043493406158e-03
5.039999999999999858e+01,4.405402750270444832e-03
5.043999999999999773e+01,3.752792604930214014e-03
5.047999999999999687e+01,4.876881263805787556e-03
5.052000000000000313e+01,2.447176675546676016e-03
5.056000000000000227e+01,4.964594017292217262e-03
5.060000000000000142e+01,3.684339201440006619e-03
5.064000000000000057e+01,2.996229034948529740e-03
5.067999999999999972e+01,4.015137555310156585e-03
5.071999999999999886e+01,5.173272914390777966e-03
5.075999999999999801e+01,3.822808946466380552e-03
5.079999999999999716e+01,3.378047590994896592e-03
5.084000000000000341e+01,5.546139769308327389e-03
5.088000000000000256e+01,4.299797096127205322e-03
5.092000000000000171e+01,6.084385563500445404e-03
5.096000000000000085e+01,4.628738069273456192e-03
5.100000000000000000e+01,2.720039852368100197e-03
5.103999999999999915e+01,4.086151202510367522e-03
5.107999999999999829e+01,3.048181901385270745e-03
5.111999999999999744e+01,4.936623806755383211e-03
5.115999999999999659e+01,5.361659918074313143e-03
5.120000000000000284e+01,5.612363356316644146e-03
5.124000000000000199e+01,4.120942273348289150e-03
5.128000000000000114e+01,2.490028140411880506e-03
5.132000000000000028e+01,3.681005279911532969e-03
5.135999999999999943e+01,4.384091008890732451e-03
5.139999999999999858e+01,3.310212012786929812e-03
5.143999999999999773e+01,5.371782349005350954e-03
5.147999999999999687e+01,5.969946116820884843e-03
5.152000000000000313e+01,3.850469818367446319e-03
5.156000000000000227e+01,5.005801828640126828e-03
5.160000000000000142e+01,4.175129729681328027e-03
5.164000000000000057e+01,3.971439676930671459e-03
5.167999999999999972e+01,4.917328824040929566e-03
5.171999999999999886e+01,1.786824569750938277e-03
5.175999999999999801e+01,4.404755125665067543e-03
5.179999999999999716e+01,2.946292086591024810e-03
5.184000000000000341e+01,4.379398695024449943e-03
5.188000000000000256e+01,5.882049701759092114e-03
5.192000000000000171e+01,3.761224440177493491e-03
5.196000000000000085e+01,3.974531468578307997e-03
5.200000000000000000e+01,4.954178938827423842e-03
5.203999999999999915e+01,4.331059218772397718e-03
5.207999999999999829e+01,3.429085246084309299e-03
5.211999999999999744e+01,3.781208858612900708e-03
5.215999999999999659e+01,4.098356741795631045e-03
5.220000000000000284e+01,4.659247332410128978e-03
5.224000000000000199e+01,3.687049882143589915e-03
5.228000000000000114e+01,2.958594945720892811e-03
5.232000000000000028e+01,2.717761143223210597e-03
5.235999999999999943e+01,2.790349294374347509e-03
5.239999999999999858e+01,2.967320402201656382e-03
5.243999999999999773e+01,5.164864288215807904e-03
5.247999999999999687e+01,2.658896233208379693e-03
5.252000000000000313e+01,4.995525915212174935e-03
5.256000000000000227e+01,2.419604562427771569e-03
5.260000000000000142e+01,3.327527901905180142e-03
5.264000000000000057e+01,3.747556733455392319e-03
5.267999999999999972e+01,4.271967844124030002e-03
5.271999999999999886e+01,3.890406452920153104e-03
5.275999999999999801e+01,3.926785497514830893e-03
5.279999999999999716e+01,3.823667813970936438e-03
5.284000000000000341e+01,4.068810739244762588e-03
5.288000000000000256e+01,4.244136376184978916e-03
5.292000000000000171e+01,3.408969577193542936e-03
5.296000000000000085e+01,5.430529898782209160e-03
5.300000000000000000e+01,4.211849322278608462e-03
5.303999999999999915e+01,3.306589053926495183e-03
5.307999999999999829e+01,4.805137998718770134e-03
5.311999999999999744e+01,5.571912557181158028e-03
5.315999999999999659e+01,3.377164363947030273e-03
5.320000000000000284e+01,4.840458494547541547e-03
5.324000000000000199e+01,4.143545463881914866e-03
5.328000000000000114e+01,2.157420592567395497e-03
5.332000000000000028e+01,2.296385820061920460e-03
5.335999999999999943e+01,4.943679033232447478e-03
5.339999999999999858e+01,4.664288730639137674e-03
5.343999999999999773e+01,4.280239967900324911e-03
5.347999999999999687e+01,4.139930815186512909e-03
5.352000000000000313e+01,3.999482458828607437e-03
5.356000000000000227e+01,3.022739201317915011e-03
5.360000000000000142e+01,2.847172330593499435e-03
5.364000000000000057e+01,5.493491118255394712e-03
5.367999999999999972e+01,3.854372861434258567e-03
5.371999999999999886e+01,3.991945568518078316e-03
5.375999999999999801e+01,4.199058124586935691e-03
5.379999999999999716e+01,3.744074282221456721e-03
5.384000000000000341e+01,2.696673578020592887e-03
5.388000000000000256e+01,4.331798684656476897e-03
5.392000000000000171e+01,3.667355717743088234e-03
5.396000000000000085e+01,4.082806800041931597e-03
5.400000000000000000e+01,3.557442466365048645e-03
5.403999999999999915e+01,4.390690521884047307e-03
5.407999999999999829e+01,4.317962784535854526e-03
5.411999999999999744e+01,3.827016591276790041e-03
5.415999999999999659e+01,4.555323230045921559e-03
5.420000000000000284e+01,4.168614885387287965e-03
5.424000000000000199e+01,4.374042478632893596e-03
5.428000000000000114e+01,3.185736361291215471e-03
5.432000000000000028e+01,4.714794806749161848e-03
5.435999999999999943e+01,5.477236048567988951e-03
5.439999999999999858e+01,3.034272821202352831e-03
5.443999999999999773e+01,4.109989650272771917e-03
5.447999999999999687e+01,5.882361286572984974e-03
5.452000000000000313e+01,2.811856778573814091e-03
5.456000000000000227e+01,1.901279185467331890e-03
5.460000000000000142e+01,5.833294296086082020e-03
5.464000000000000057e+01,3.389481037379848960e-03
5.467999999999999972e+01,3.628191653631139459e-03
5.471999999999999886e+01,5.364872280366769428e-03
5.475999999999999801e+01,4.349065183826129714e-03
5.479999999999999716e+01,4.273790837038723457e-03
5.484000000000000341e+01,3.362218491691759507e-03
5.488000000000000256e+01,3.321499069117224857e-03
5.492000000000000171e+01,4.151632472521157337e-03
5.496000000000000085e+01,4.633225020733910612e-03
5.500000000000000000e+01,3.546883032585857864e-03
5.503999999999999915e+01,3.679791746998866374e-03
5.507999999999999829e+01,3.742877849410399145e-03
5.511999999999999744e+01,4.049699593294525841e-03
5.515999999999999659e+01,5.610611566054290837e-03
5.520000000000000284e+01,3.060281899642727701e-03
5.524000000000000199e+01,4.133149803877335382e-03
5.528000000000000114e+01,5.380073329015799821e-03
5.532000000000000028e+01,4.431944842905687250e-03
5.535999999999999943e+01,5.121144085362323330e-03
5.539999999999999858e+01,5.043723607536841104e-03
5.543999999999999773e+01,5.175198180135829641e-03
5.547999999999999687e+01,3.529698154667766392e-03
5.552000000000000313e+01,4.497040338091158260e-03
5.556000000000000227e+01,5.290039297896199748e-03
5.560000000000000142e+01,5.281578236752859819e-03
5.564000000000000057e+01,4.715535774742318775e-03
5.567999999999999972e+01,4.846145216142754356e-03
5.571999999999999886e+01,5.081129580320559169e-03
5.575999999999999801e+01,4.479813719677702005e-03
5.579999999999999716e+01,4.261591121795887081e-03
5.584000000000000341e+01,5.367136740685261170e-03
5.588000000000000256e+01,5.636381844372079404e-03
5.592000000000000171e+01,4.337690185436976487e-03
5.596000000000000085e+01,4.641484986462761711e-03
5.600000000000000000e+01,4.004459531814756439e-03
5.603999999999999915e+01,5.353158327200640068e-03
5.607999999999999829e+01,5.482318139753247083e-03
5.611999999999999744e+01,3.799661988838977898e-03
5.615999999999999659e+01,4.834365948202128983e-03
5.620000000000000284e+01,4.370812100778532182e-03
5.624000000000000199e+01,6.798817253526654933e-03
5.628000000000000114e+01,4.906539253487809428e-03
5.632000000000000028e+01,6.428417310479495918e-03
5.635999999999999943e+01,4.605526888596844955e-03
5.639999999999999858e+01,6.440671047031928942e-03
5.643999999999999773e+01,5.906561400505285463e-03
5.647999999999999687e+01,6.173621171599742025e-03
5.652000000000000313e+01,8.008326230843165403e-03
5.656000000000000227e+01,9.947404180190787606e-03
5.660000000000000142e+01,1.157277712249128732e-02
5.664000000000000057e+01,1.340704221139740228e-02
5.667999999999999972e+01,1.628635495082993503e-02
5.671999999999999886e+01,2.045459396087005374e-02
5.675999999999999801e+01,2.448332666016943271e-02
5.679999999999999716e+01,3.589795335836687418e-02
5.684000000000000341e+01,4.557044198419905184e-02
5.688000000000000256e+01,5.646217686007006659e-02
5.692000000000000171e+01,6.522853548632696896e-02
5.696000000000000085e+01,7.416894566814134782e-02
5.700000000000000000e+01,7.520056983514332438e-02
5.703999999999999915e+01,7.100607377616542648e-02
5.707999999999999829e+01,6.768242531629209413e-02
5.711999999999999744e+01,6.181532232247743258e-02
5.715999999999999659e+01,5.643582875051849496e-02
5.720000000000000284e+01,4.346110703004538167e-02
5.724000000000000199e+01,3.644384575918237223e-02
5.728000000000000114e+01,2.751024626773830237e-02
5.732000000000000028e+01,2.453410703231641635e-02
5.735999999999999943e+01,1.831771634826050155e-02
5.739999999999999858e+01,1.419156607333315646e-02
5.743999999999999773e+01,1.288729226136579517e-02
5.747999999999999687e+01,9.666679744847540487e-03
5.752000000000000313e+01,8.222748996807933280e-03
5.756000000000000227e+01,5.872834034826501445e-03
5.760000000000000142e+01,7.111271115951072266e-03
5.764000000000000057e+01,6.990806172492084435e-03
5.767999999999999972e+01,6.347594708370319673e-03
5.771999999999999886e+01,5.913272777417223278e-03
5.775999999999999801e+01,6.628515333642926409e-03
5.779999999999999716e+01,5.288059144180268754e-03
5.784000000000000341e+01,7.257235883488258148e-03
5.788000000000000256e+01,4.279008897714773121e-03
5.792000000000000171e+01,5.864648048196161555e-03
5.796000000000000085e+01,3.687437047687368383e-03
5.800000000000000000e+01,3.356586287522570801e-03
5.803999999999999915e+01,5.394692921354534744e-03
5.807999999999999829e+01,3.251871313457073160e-03
5.811999999999999744e+01,5.533556091058881160e-03
5.815999999999999659e+01,6.247298685576928648e-03
5.820000000000000284e+01,6.264094417628473035e-03
5.824000000000000199e+01,4.887146856490572240e-03
5.828000000000000114e+01,4.241684723852610570e-03
5.832000000000000028e+01,4.292868106224177922e-03
5.835999999999999943e+01,5.110376540204191950e-03
5.839999999999999858e+01,5.056738544265654972e-03
5.843999999999999773e+01,3.783555854650111176e-03
5.847999999999999687e+01,3.485736826439840303e-03
5.852000000000000313e+01,4.407160079716002272e-03
5.856000000000000227e+01,5.293592116612514525e-03
5.860000000000000142e+01,4.159163288637884870e-03
5.864000000000000057e+01,2.954903233999223253e-03
5.867999999999999972e+01,4.119599024653943647e-03
5.871999999999999886e+01,3.576992010323665726e-03
5.875999999999999801e+01,4.044587796537362639e-03
5.879999999999999716e+01,3.606196368196443701e-03
5.884000000000000341e+01,4.630925163865405765e-03
5.888000000000000256e+01,3.774151683891292450e-03
5.892000000000000171e+01,4.275978784249785496e-03
5.896000000000000085e+01,4.220216449842302021e-03
5.900000000000000000e+01,3.572024767178424553e-03
5.903999999999999915e+01,4.108234290983042887e-03
5.907999999999999829e+01,3.633936472585963355e-03
5.911999999999999744e+01,3.438204432961819868e-03
5.915999999999999659e+01,4.008795509066903108e-03
5.920000000000000284e+01,3.986956752945782813e-03
5.924000000000000199e+01,3.337848251108064060e-03
5.928000000000000114e+01,4.360897808725334827e-03
5.932000000000000028e+01,3.258565309090815602e-03
5.935999999999999943e+01,4.525187009252331499e-03
5.939999999999999858e+01,4.641941326074675196e-03
5.943999999999999773e+01,3.295269812495849222e-03
5.947999999999999687e+01,4.213032758241835873e-03
5.952000000000000313e+01,2.796374262587536259e-03
5.956000000000000227e+01,3.609310215973668325e-03
5.960000000000000142e+01,3.342057935443724058e-03
5.964000000000000057e+01,4.677283209830232144e-03
5.967999999999999972e+01,2.632892154747160356e-03
5.971999999999999886e+01,3.340692411975399248e-03
5.975999999999999801e+01,3.769619832130018198e-03
5.979999999999999716e+01,3.292557617880993975e-03
5.984000000000000341e+01,3.721176140649649130e-03
5.988000000000000256e+01,4.045120619445046611e-03
5.992000000000000171e+01,2.452720489257914811e-03
5.996000000000000085e+01,1.731160989010128602e-03
