2.003999999999999915e+01,4.283009356238922510e-02
2.007999999999999829e+01,5.148875100969219770e-02
2.012000000000000099e+01,4.385579201906700253e-02
2.016000000000000014e+01,4.972698729553264030e-02
2.019999999999999929e+01,3.182092449308278337e-02
2.023999999999999844e+01,3.710630739545181522e-02
2.028000000000000114e+01,4.077778614971190596e-02
2.032000000000000028e+01,3.608360721645161029e-02
2.035999999999999943e+01,4.327902292363328823e-02
2.039999999999999858e+01,4.342977165036718962e-02
2.044000000000000128e+01,2.787599618182939887e-02
2.048000000000000043e+01,4.798971647578290090e-02
2.051999999999999957e+01,3.214365402879829081e-02
2.055999999999999872e+01,3.978257511769038579e-02
2.060000000000000142e+01,4.448658062572118793e-02
2.064000000000000057e+01,4.067813465988662919e-02
2.067999999999999972e+01,4.009941161169464086e-02
2.071999999999999886e+01,3.746642999974282573e-02
2.076000000000000156e+01,3.468729142687573819e-02
2.080000000000000071e+01,4.306383866719807468e-02
2.083999999999999986e+01,3.852460789678691794e-02
2.087999999999999901e+01,4.455394997122538725e-02
2.092000000000000171e+01,3.458518856797443419e-02
2.096000000000000085e+01,4.208352453708170265e-02
2.100000000000000000e+01,3.387730729496532533e-02
2.103999999999999915e+01,3.917519872344579768e-02
2.107999999999999829e+01,4.080426367124419251e-02
2.112000000000000099e+01,4.258070741661722919e-02
2.116000000000000014e+01,3.496400950993553552e-02
2.119999999999999929e+01,2.514625096287733882e-02
2.123999999999999844e+01,3.396979292660891325e-02
2.128000000000000114e+01,3.545506790179499268e-02
2.132000000000000028e+01,3.312472675509028214e-02
2.135999999999999943e+01,3.872094387800235210e-02
2.139999999999999858e+01,4.505163411371682775e-02
2.144000000000000128e+01,2.980666010792225665e-02
2.148000000000000043e+01,3.511107785292170297e-02
2.151999999999999957e+01,3.087555808695360490e-02
2.155999999999999872e+01,3.383270019875763562e-02
2.160000000000000142e+01,4.809226387819229981e-02
2.164000000000000057e+01,2.125478458175210014e-02
2.167999999999999972e+01,4.094625210003342147e-02
2.171999999999999886e+01,3.319095263679185809e-02
2.176000000000000156e+01,3.336219071748713211e-02
2.180000000000000071e+01,3.749697971292586390e-02
2.183999999999999986e+01,3.444024990966813859e-02
2.187999999999999901e+01,2.624688011635931129e-02
2.192000000000000171e+01,3.067691016234563514e-02
2.196000000000000085e+01,1.866845122647198263e-02
2.200000000000000000e+01,2.676902548060590761e-02
2.203999999999999915e+01,3.780569777346867721e-02
2.207999999999999829e+01,3.313776089577213924e-02
2.212000000000000099e+01,2.450738923902416252e-02
2.216000000000000014e+01,4.479267483006835193e-02
2.219999999999999929e+01,4.218126194860311040e-02
2.223999999999999844e+01,3.927683821540588899e-02
2.228000000000000114e+01,2.551144274024087083e-02
2.232000000000000028e+01,3.185506387453925642e-02
2.235999999999999943e+01,2.924581279714611251e-02
2.239999999999999858e+01,3.617761536641240366e-02
2.244000000000000128e+01,3.327587834404544670e-02
2.248000000000000043e+01,3.595220626657655294e-02
2.251999999999999957e+01,3.246442059736196623e-02
2.255999999999999872e+01,3.499502734531228371e-02
2.260000000000000142e+01,3.503094650140465421e-02
2.264000000000000057e+01,4.181913995853062810e-02
2.267999999999999972e+01,2.703160492453966432e-02
2.271999999999999886e+01,2.897719004091067058e-02
2.276000000000000156e+01,4.354613147264919243e-02
2.280000000000000071e+01,2.641171099530162034e-02
2.283999999999999986e+01,2.116675665918084023e-02
2.287999999999999901e+01,3.779211638618305141e-02
2.292000000000000171e+01,2.697064695462279491e-02
2.296000000000000085e+01,3.405650288442396700e-02
2.300000000000000000e+01,2.998779535443158242e-02
2.303999999999999915e+01,3.868920683763162754e-02
2.307999999999999829e+01,4.225391615374086279e-02
2.312000000000000099e+01,3.275595211694021236e-02
2.316000000000000014e+01,3.984430822645262243e-02
2.319999999999999929e+01,4.898803903541663202e-02
2.323999999999999844e+01,5.255472776961487430e-02
2.328000000000000114e+01,5.494768853050799318e-02
2.332000000000000028e+01,6.820265012120532711e-02
2.335999999999999943e+01,9.011795238212469417e-02
2.339999999999999858e+01,1.001447844285659333e-01
2.344000000000000128e+01,1.254369272611358666e-01
2.348000000000000043e+01,1.257774244178073153e-01
2.351999999999999957e+01,1.247974039599645812e-01
2.355999999999999872e+01,9.666407559407336203e-02
2.360000000000000142e+01,7.895240193260780193e-02
2.364000000000000057e+01,6.476385223035517613e-02
2.367999999999999972e+01,5.585975088435902319e-02
2.371999999999999886e+01,3.374616789113226573e-02
2.376000000000000156e+01,5.052900923744239187e-02
2.380000000000000071e+01,3.267289274444792890e-02
2.383999999999999986e+01,4.153068836437596306e-02
2.387999999999999901e+01,4.334363669044104944e-02
2.392000000000000171e+01,4.031339373708948265e-02
2.396000000000000085e+01,3.566905595937393258e-02
2.400000000000000000e+01,2.544763672810099880e-02
2.403999999999999915e+01,2.109775602317644910e-02
2.407999999999999829e+01,3.304059338389926659e-02
2.412000000000000099e+01,3.133359675430882202e-02
2.416000000000000014e+01,3.887400816678434484e-02
2.419999999999999929e+01,3.232424982640767774e-02
2.423999999999999844e+01,2.504104538849691308e-02
2.428000000000000114e+01,2.230837218931806462e-02
2.432000000000000028e+01,3.762973108999002891e-02
2.435999999999999943e+01,2.726551268926318689e-02
2.439999999999999858e+01,4.772493914793349973e-02
2.444000000000000128e+01,3.016949887278955883e-02
2.448000000000000043e+01,4.901523313234272539e-02
2.451999999999999957e+01,6.859527884439528544e-02
2.455999999999999872e+01,7.056248321126100398e-02
2.460000000000000142e+01,8.045607796973655579e-02
2.464000000000000057e+01,6.877384268126368605e-02
2.467999999999999972e+01,7.954893701355822411e-02
2.471999999999999886e+01,6.566587583194856415e-02
2.476000000000000156e+01,6.631417101271924741e-02
2.480000000000000071e+01,4.817539476648769609e-02
2.483999999999999986e+01,4.559541117810703842e-02
2.487999999999999901e+01,5.593222847059232256e-02
2.492000000000000171e+01,3.544623724269386350e-02
2.496000000000000085e+01,4.182087730161512806e-02
2.500000000000000000e+01,4.687492306100676798e-02
2.503999999999999915e+01,3.534354304500231941e-02
2.507999999999999829e+01,3.804994839923238337e-02
2.512000000000000099e+01,2.886779441856061196e-02
2.516000000000000014e+01,3.230887239917711040e-02
2.519999999999999929e+01,3.531000895222943803e-02
2.523999999999999844e+01,3.684376156454323425e-02
2.528000000000000114e+01,1.944364067323798087e-02
2.532000000000000028e+01,2.317982138940372430e-02
2.535999999999999943e+01,2.045818694989477368e-02
2.539999999999999858e+01,2.507579262743194967e-02
2.544000000000000128e+01,3.615197311464163343e-02
2.548000000000000043e+01,3.108303664561025761e-02
2.551999999999999957e+01,1.647395540881231926e-02
2.555999999999999872e+01,2.168016849186897924e-02
2.560000000000000142e+01,3.246428485952048554e-02
2.564000000000000057e+01,3.444213627070628891e-02
2.567999999999999972e+01,1.425699492497220500e-02
2.571999999999999886e+01,1.579524328423310628e-02
2.576000000000000156e+01,1.615963517097343191e-02
2.580000000000000071e+01,1.755182659963933772e-02
2.583999999999999986e+01,2.481546328909417509e-02
2.587999999999999901e+01,2.033727847065635794e-02
2.592000000000000171e+01,2.833550902891386961e-02
2.596000000000000085e+01,2.268381025873056692e-02
2.600000000000000000e+01,1.057426317178473789e-02
2.603999999999999915e+01,1.314278333084451661e-02
2.607999999999999829e+01,1.189544073242281182e-02
2.612000000000000099e+01,1.842763256222630652e-02
2.616000000000000014e+01,1.776808175599053560e-02
2.619999999999999929e+01,2.532839285024687109e-02
2.623999999999999844e+01,1.703710202107218755e-02
2.628000000000000114e+01,2.709329614751889923e-02
2.632000000000000028e+01,1.263802906314282805e-02
2.635999999999999943e+01,2.651109278371638345e-02
2.639999999999999858e+01,1.469847350192364857e-02
2.644000000000000128e+01,2.152688529708220860e-02
2.648000000000000043e+01,1.984254302344909404e-02
2.651999999999999957e+01,1.845207695651307142e-02
2.655999999999999872e+01,1.911681149331757867e-02
2.660000000000000142e+01,2.036897250328496140e-02
2.664000000000000057e+01,7.384060127952072131e-03
2.667999999999999972e+01,2.023224947840870230e-02
2.671999999999999886e+01,1.326582747799288572e-02
2.676000000000000156e+01,1.378535233311270827e-02
2.680000000000000071e+01,9.314759478119634742e-03
2.683999999999999986e+01,1.585276227274875702e-02
2.687999999999999901e+01,1.784097482953188665e-02
2.692000000000000171e+01,3.142488771400498565e-02
2.696000000000000085e+01,1.565365843513634100e-02
2.700000000000000000e+01,2.498162827250878515e-02
2.703999999999999915e+01,2.682425546574423655e-02
2.707999999999999829e+01,2.646551735110896572e-02
2.712000000000000099e+01,2.948294567647076828e-02
2.716000000000000014e+01,3.631686998666459193e-02
2.719999999999999929e+01,3.111534998262026688e-02
2.723999999999999844e+01,3.061098505307758774e-02
2.728000000000000114e+01,1.821794886996174270e-02
2.732000000000000028e+01,1.727381508305507116e-02
2.735999999999999943e+01,2.880602206039623372e-02
2.739999999999999858e+01,2.331234936342719416e-02
2.744000000000000128e+01,1.913994564469803997e-02
2.748000000000000043e+01,2.612288162030424257e-02
2.751999999999999957e+01,3.031732066658803654e-02
2.755999999999999872e+01,3.201681512258323925e-02
2.760000000000000142e+01,2.124051292125751431e-02
2.764000000000000057e+01,2.749063035603307656e-02
2.767999999999999972e+01,3.608944477424726183e-02
2.771999999999999886e+01,2.311226955777798825e-02
2.776000000000000156e+01,2.936316584672015936e-02
2.780000000000000071e+01,1.682683526606078631e-02
2.783999999999999986e+01,2.630733895589495649e-02
2.787999999999999901e+01,2.903634250666914732e-02
2.792000000000000171e+01,2.266540855300025817e-02
2.796000000000000085e+01,2.143192398501222312e-02
2.800000000000000000e+01,3.179408378537835339e-02
2.803999999999999915e+01,4.127582338845057347e-02
2.807999999999999829e+01,5.369334807248526270e-02
2.812000000000000099e+01,3.807666534091503491e-02
2.816000000000000014e+01,6.414494587662097902e-02
2.819999999999999929e+01,7.348085969825886299e-02
2.823999999999999844e+01,5.830521282581047071e-02
2.828000000000000114e+01,8.319997373912399463e-02
2.832000000000000028e+01,1.022238749499352617e-01
2.835999999999999943e+01,1.243303239395342624e-01
2.839999999999999858e+01,1.545097436325849338e-01
2.844000000000000128e+01,1.937895723971260198e-01
2.848000000000000043e+01,2.040077346523435642e-01
2.851999999999999957e+01,2.284635040369486225e-01
2.855999999999999872e+01,2.091798821869997327e-01
2.860000000000000142e+01,1.797688471583453462e-01
2.864000000000000057e+01,1.582839931919338139e-01
2.867999999999999972e+01,1.235894005798609807e-01
2.871999999999999886e+01,1.057743944387527779e-01
2.876000000000000156e+01,7.034632933281889655e-02
2.880000000000000071e+01,7.278698698224882191e-02
2.883999999999999986e+01,6.906320357419092060e-02
2.887999999999999901e+01,5.433132924464591923e-02
2.892000000000000171e+01,6.631310381188892933e-02
2.896000000000000085e+01,4.248143553214907969e-02
2.900000000000000000e+01,4.110687303583381025e-02
2.903999999999999915e+01,2.784354809295390074e-02
2.907999999999999829e+01,4.555040272481738345e-02
2.912000000000000099e+01,2.568247974981477041e-02
2.916000000000000014e+01,2.592321897514958742e-02
2.919999999999999929e+01,1.721073157966674858e-02
2.923999999999999844e+01,2.699235297557497568e-02
2.928000000000000114e+01,1.989477449227844072e-02
2.932000000000000028e+01,9.568274196697160172e-03
2.935999999999999943e+01,1.846976250380774273e-02
2.939999999999999858e+01,1.856479103306156800e-02
2.944000000000000128e+01,1.939387608895211737e-02
2.948000000000000043e+01,1.259071486825756592e-02
2.951999999999999957e+01,1.444757514231485851e-02
2.955999999999999872e+01,1.410294160928604427e-02
2.960000000000000142e+01,1.214392101980683175e-02
2.964000000000000057e+01,1.003828335931883711e-02
2.967999999999999972e+01,1.116190228867565762e-02
2.971999999999999886e+01,3.479044859631904435e-03
2.976000000000000156e+01,1.091439354517363680e-02
2.980000000000000071e+01,1.614823598822128989e-02
2.983999999999999986e+01,1.756602085239654040e-02
2.987999999999999901e+01,1.502096885933035253e-02
2.992000000000000171e+01,0.000000000000000000e+00
2.996000000000000085e+01,5.674760712851138408e-03
3.000000000000000000e+01,1.178999452478528970e-02
3.003999999999999915e+01,1.423593760080803239e-02
3.007999999999999829e+01,7.728608459517220808e-03
3.012000000000000099e+01,1.267003663467641122e-02
3.016000000000000014e+01,6.016198742969144052e-03
3.019999999999999929e+01,9.930450787770160256e-03
3.023999999999999844e+01,7.533412029402816734e-03
3.028000000000000114e+01,2.084166126544086117e-02
3.032000000000000028e+01,1.477544423689038273e-02
3.035999999999999943e+01,1.149811694712619091e-02
3.039999999999999858e+01,8.074133207561300443e-03
3.044000000000000128e+01,1.316334608788355225e-02
3.048000000000000043e+01,1.355580499343992350e-02
3.051999999999999957e+01,2.084690710993700527e-02
3.055999999999999872e+01,2.212025625432369885e-02
3.060000000000000142e+01,8.715995211776126836e-03
3.064000000000000057e+01,2.797479985669158557e-03
3.067999999999999972e+01,6.859921002050915588e-03
3.071999999999999886e+01,1.723388604332963536e-02
3.076000000000000156e+01,1.058179731458709638e-02
3.080000000000000071e+01,1.302999537582362304e-02
3.083999999999999986e+01,7.258767869959587178e-03
3.087999999999999901e+01,1.733957447578207342e-02
3.092000000000000171e+01,1.773317931135862807e-02
3.096000000000000085e+01,1.827365309278458638e-02
3.100000000000000000e+01,2.116265183450611112e-02
3.103999999999999915e+01,1.774031832169948447e-02
3.107999999999999829e+01,1.387773871383443311e-02
3.112000000000000099e+01,3.364637268969820211e-02
3.116000000000000014e+01,1.642723218093213380e-02
3.119999999999999929e+01,3.105882463561177032e-02
3.123999999999999844e+01,3.145310535967222459e-02
3.128000000000000114e+01,3.669110903466846207e-02
3.132000000000000028e+01,4.251629461980500208e-02
3.135999999999999943e+01,4.012202769445713524e-02
3.139999999999999858e+01,5.181844146780062443e-02
3.144000000000000128e+01,5.015819638249068013e-02
3.148000000000000043e+01,5.348844109107747657e-02
3.151999999999999957e+01,5.902040661077506689e-02
3.155999999999999872e+01,6.895574895602964161e-02
3.160000000000000142e+01,8.212024840786556756e-02
3.164000000000000057e+01,9.763323965890935430e-02
3.167999999999999972e+01,9.582657505926615860e-02
3.171999999999999886e+01,1.222011863346612603e-01
3.176000000000000156e+01,1.534194956901761553e-01
3.180000000000000071e+01,1.723085679745323395e-01
3.183999999999999986e+01,2.077835106579481173e-01
3.187999999999999901e+01,2.140498334579603312e-01
3.192000000000000171e+01,2.154725504649581125e-01
3.196000000000000085e+01,2.047127993163261606e-01
3.200000000000000000e+01,1.917514279339607997e-01
3.203999999999999915e+01,1.594155011665832622e-01
3.207999999999999829e+01,1.474816397136820556e-01
3.211999999999999744e+01,1.368688047485660531e-01
3.215999999999999659e+01,1.118718331779661734e-01
3.220000000000000284e+01,1.015526096779016951e-01
3.224000000000000199e+01,9.226085203631666232e-02
3.228000000000000114e+01,8.076745965302221941e-02
3.232000000000000028e+01,7.573228559770615875e-02
3.235999999999999943e+01,5.616618736826542446e-02
3.239999999999999858e+01,5.861668713656728591e-02
3.243999999999999773e+01,4.859113946682172558e-02
3.247999999999999687e+01,4.649157389279207769e-02
3.252000000000000313e+01,4.380491040545551190e-02
3.256000000000000227e+01,3.965048369743841283e-02
3.260000000000000142e+01,2.771687184673210166e-02
3.264000000000000057e+01,3.897406320476808766e-02
3.267999999999999972e+01,2.645334984267581555e-02
3.271999999999999886e+01,2.684903113812376479e-02
3.275999999999999801e+01,3.252869031689465534e-02
3.279999999999999716e+01,3.028237678433546784e-02
3.284000000000000341e+01,2.818283478693022620e-02
3.288000000000000256e+01,2.212030048968441354e-02
3.292000000000000171e+01,2.310306225510096526e-02
3.296000000000000085e+01,3.025045477580629721e-02
3.300000000000000000e+01,4.679157450685311748e-02
3.303999999999999915e+01,1.252726590524119998e-01
3.307999999999999829e+01,1.180358373041637127e-01
3.311999999999999744e+01,3.462162556660176860e-02
3.315999999999999659e+01,3.105419153356328565e-02
3.320000000000000284e+01,1.530422509528738331e-02
3.324000000000000199e+01,1.467228445818196010e-02
3.328000000000000114e+01,3.150680284249413737e-02
3.332000000000000028e+01,2.397627452238644194e-02
3.335999999999999943e+01,3.802196284098694617e-02
3.339999999999999858e+01,2.887681795643912835e-02
3.343999999999999773e+01,3.191414439420294652e-02
3.347999999999999687e+01,2.379636435936007335e-02
3.352000000000000313e+01,2.154963165225220328e-02
3.356000000000000227e+01,2.253195449589431160e-02
3.360000000000000142e+01,2.850465728732967663e-02
3.364000000000000057e+01,2.420290855069216415e-02
3.367999999999999972e+01,3.589982605178286545e-02
3.371999999999999886e+01,3.512062979265045265e-02
3.375999999999999801e+01,3.125905887198737049e-02
3.379999999999999716e+01,3.723150532770889976e-02
3.384000000000000341e+01,3.292948989251752445e-02
3.388000000000000256e+01,4.125025459879273076e-02
3.392000000000000171e+01,4.634185914746441481e-02
3.396000000000000085e+01,3.675567941349077578e-02
3.400000000000000000e+01,4.801179712813279099e-02
3.403999999999999915e+01,6.073561905309753095e-02
3.407999999999999829e+01,5.232345342247144565e-02
3.411999999999999744e+01,6.328580696474751799e-02
3.415999999999999659e+01,6.969799306180358978e-02
3.420000000000000284e+01,7.845853831371620013e-02
3.424000000000000199e+01,8.472379285648608260e-02
3.428000000000000114e+01,1.021440347570331669e-01
3.432000000000000028e+01,1.075284634262401867e-01
3.435999999999999943e+01,1.077756054641834105e-01
3.439999999999999858e+01,1.304795734888727909e-01
3.443999999999999773e+01,1.236812345742055591e-01
3.447999999999999687e+01,1.214328983934330614e-01
3.452000000000000313e+01,1.345960761032572173e-01
3.456000000000000227e+01,1.269167957982766104e-01
3.460000000000000142e+01,1.176228693658471075e-01
3.464000000000000057e+01,1.209516836960923686e-01
3.467999999999999972e+01,1.066671323214496703e-01
3.471999999999999886e+01,1.064730896223552437e-01
3.475999999999999801e+01,9.805941824449734834e-02
3.479999999999999716e+01,9.404895581418939998e-02
3.484000000000000341e+01,8.886416643842746932e-02
3.488000000000000256e+01,6.929509952255831495e-02
3.492000000000000171e+01,6.954084194563438237e-02
3.496000000000000085e+01,7.360267620278464207e-02
3.500000000000000000e+01,6.797709728775405691e-02
3.503999999999999915e+01,5.178343989316900459e-02
3.507999999999999829e+01,5.643202398786381635e-02
3.511999999999999744e+01,4.610920928383976242e-02
3.515999999999999659e+01,4.987688045711617668e-02
3.520000000000000284e+01,5.437830970723892682e-02
3.524000000000000199e+01,4.141312144232276587e-02
3.528000000000000114e+01,4.268519004280399431e-02
3.532000000000000028e+01,4.513134211983048372e-02
3.535999999999999943e+01,4.963223883563989969e-02
3.539999999999999858e+01,4.561991929999615475e-02
3.543999999999999773e+01,5.217541819445421086e-02
3.547999999999999687e+01,4.273205919647490858e-02
3.552000000000000313e+01,5.280992403731906565e-02
3.556000000000000227e+01,4.659537242898803555e-02
3.560000000000000142e+01,5.726005080992749297e-02
3.564000000000000057e+01,5.427429830097275920e-02
3.567999999999999972e+01,6.655322237234212457e-02
3.571999999999999886e+01,6.474137979127850273e-02
3.575999999999999801e+01,7.423122508877752490e-02
3.579999999999999716e+01,6.786897311909619035e-02
3.584000000000000341e+01,7.809238429167555950e-02
3.588000000000000256e+01,9.521416095108516109e-02
3.592000000000000171e+01,1.064646841200747457e-01
3.596000000000000085e+01,1.172747083407114366e-01
3.600000000000000000e+01,1.288184491868346881e-01
3.603999999999999915e+01,1.391878009104642044e-01
3.607999999999999829e+01,1.544006268768708667e-01
3.611999999999999744e+01,1.693197228104534602e-01
3.615999999999999659e+01,2.039067866275726948e-01
3.620000000000000284e+01,2.211739603938223109e-01
3.624000000000000199e+01,2.388812839385486553e-01
3.628000000000000114e+01,2.560013147485771801e-01
3.632000000000000028e+01,2.907344242706570436e-01
3.635999999999999943e+01,2.947909097237093046e-01
3.639999999999999858e+01,2.928293396097247925e-01
3.643999999999999773e+01,2.810335045053109493e-01
3.647999999999999687e+01,2.645406045409327556e-01
3.652000000000000313e+01,2.367456633829798651e-01
3.656000000000000227e+01,2.259766796784665743e-01
3.660000000000000142e+01,1.967135675509962545e-01
3.664000000000000057e+01,1.860909579956399607e-01
3.667999999999999972e+01,1.744407033625031689e-01
3.671999999999999886e+01,1.391591118856722320e-01
3.675999999999999801e+01,1.344069704331279924e-01
3.679999999999999716e+01,1.249577475400755616e-01
3.684000000000000341e+01,1.069952337831224232e-01
3.688000000000000256e+01,1.012150131076339082e-01
3.692000000000000171e+01,8.178429522007550634e-02
3.696000000000000085e+01,9.376368022876963026e-02
3.700000000000000000e+01,7.976327859297849265e-02
3.703999999999999915e+01,7.134018748733747528e-02
3.707999999999999829e+01,6.071521293182842449e-02
3.711999999999999744e+01,6.917104769502049888e-02
3.715999999999999659e+01,5.370196840466861382e-02
3.720000000000000284e+01,5.276360090805250896e-02
3.724000000000000199e+01,5.417343505112576924e-02
3.728000000000000114e+01,5.117971729447687995e-02
3.732000000000000028e+01,4.304855953653313055e-02
3.735999999999999943e+01,4.812711042984470916e-02
3.739999999999999858e+01,3.647281791845075755e-02
3.743999999999999773e+01,2.922159756511943582e-02
3.747999999999999687e+01,2.989610023650544554e-02
3.752000000000000313e+01,3.834954665423988274e-02
3.756000000000000227e+01,3.770255607864596986e-02
3.760000000000000142e+01,3.911019407802760611e-02
3.764000000000000057e+01,4.081113211020544196e-02
3.767999999999999972e+01,3.693427987057369688e-02
3.771999999999999886e+01,2.894740734457380490e-02
3.775999999999999801e+01,3.226211906873709123e-02
3.779999999999999716e+01,3.029258871498868508e-02
3.784000000000000341e+01,3.815686640825805692e-02
3.788000000000000256e+01,2.870116700280220950e-02
3.792000000000000171e+01,3.069382076303848322e-02
3.796000000000000085e+01,4.163961311778287960e-02
3.800000000000000000e+01,3.981551553592740239e-02
3.803999999999999915e+01,2.595541197390884708e-02
3.807999999999999829e+01,1.664512461466606530e-02
3.811999999999999744e+01,2.700270358312843039e-02
3.815999999999999659e+01,2.370972108991331942e-02
3.820000000000000284e+01,3.171830004861349306e-02
3.824000000000000199e+01,4.163469721540045965e-02
3.828000000000000114e+01,3.276332449977287925e-02
3.832000000000000028e+01,3.372573496034717011e-02
3.835999999999999943e+01,4.217349123174020387e-02
3.839999999999999858e+01,4.152076698587711667e-02
3.843999999999999773e+01,4.629850352448358630e-02
3.847999999999999687e+01,4.476452231091598150e-02
3.852000000000000313e+01,4.572545362066300634e-02
3.856000000000000227e+01,4.595219685353584688e-02
3.860000000000000142e+01,3.825266685272023237e-02
3.864000000000000057e+01,3.789169094894648954e-02
3.867999999999999972e+01,3.620941192739089709e-02
3.871999999999999886e+01,4.215923726934304311e-02
3.875999999999999801e+01,3.988922667573289310e-02
3.879999999999999716e+01,3.248169939581228849e-02
3.884000000000000341e+01,4.943887172300331229e-02
3.888000000000000256e+01,4.188393205302307076e-02
3.892000000000000171e+01,3.330123124145493302e-02
3.896000000000000085e+01,1.840678780689680716e-02
3.900000000000000000e+01,2.905125333558589151e-02
3.903999999999999915e+01,2.912743312792160505e-02
3.907999999999999829e+01,3.111138760441637535e-02
3.911999999999999744e+01,2.472871028643596619e-02
3.915999999999999659e+01,2.964754467873909061e-02
3.920000000000000284e+01,3.441926665628404491e-02
3.924000000000000199e+01,4.315363590892927481e-02
3.928000000000000114e+01,3.750349963898867017e-02
3.932000000000000028e+01,3.801766458602653248e-02
3.935999999999999943e+01,3.192651177279265395e-02
3.939999999999999858e+01,3.464164573581831469e-02
3.943999999999999773e+01,2.884335411802398108e-02
3.947999999999999687e+01,4.007086865620616833e-02
3.952000000000000313e+01,4.102362699882096397e-02
3.956000000000000227e+01,4.315024912577423294e-02
3.960000000000000142e+01,3.984575870345535842e-02
3.964000000000000057e+01,3.962323159575121406e-02
3.967999999999999972e+01,4.233588852429290977e-02
3.971999999999999886e+01,5.312092961954548165e-02
3.975999999999999801e+01,5.157632120260954856e-02
3.979999999999999716e+01,5.340722222161829041e-02
3.984000000000000341e+01,5.861363060400372887e-02
3.988000000000000256e+01,5.237104649130235740e-02
3.992000000000000171e+01,5.845737515069936857e-02
3.996000000000000085e+01,6.615787848615774236e-02
4.000000000000000000e+01,8.134364265714733033e-02
4.003999999999999915e+01,7.010913105108172727e-02
4.007999999999999829e+01,7.736816657048224688e-02
4.011999999999999744e+01,9.299311994251568958e-02
4.015999999999999659e+01,1.077370251291544512e-01
4.020000000000000284e+01,1.248289785854513750e-01
4.024000000000000199e+01,1.292977032471420706e-01
4.028000000000000114e+01,1.585713845208996386e-01
4.032000000000000028e+01,1.893124446118057136e-01
4.035999999999999943e+01,2.187321145370743902e-01
4.039999999999999858e+01,2.631226620680425232e-01
4.043999999999999773e+01,3.240986343959527116e-01
4.047999999999999687e+01,4.034213559178481678e-01
4.052000000000000313e+01,5.093103480860139420e-01
4.056000000000000227e+01,6.615805316110093814e-01
4.060000000000000142e+01,8.057775610681162659e-01
4.064000000000000057e+01,9.392594446803492758e-01
4.067999999999999972e+01,9.978845414401271707e-01
4.071999999999999886e+01,1.000000000000000000e+00
4.075999999999999801e+01,9.027468741935240626e-01
4.079999999999999716e+01,8.156209574756365654e-01
4.084000000000000341e+01,6.960568580914954229e-01
4.088000000000000256e+01,5.797214349781621978e-01
4.092000000000000171e+01,4.974378992812676370e-01
4.096000000000000085e+01,4.442158239310114998e-01
4.100000000000000000e+01,4.367878083161336189e-01
4.103999999999999915e+01,4.472661812618863864e-01
4.107999999999999829e+01,4.975207443600427881e-01
4.111999999999999744e+01,5.402892352701301748e-01
4.115999999999999659e+01,5.801217452994098522e-01
4.120000000000000284e+01,5.960291319457788894e-01
4.124000000000000199e+01,5.824338593162331490e-01
4.128000000000000114e+01,5.479957804804603816e-01
4.132000000000000028e+01,4.773032867567935100e-01
4.135999999999999943e+01,4.165911958999622966e-01
4.139999999999999858e+01,3.478059095238824061e-01
4.143999999999999773e+01,2.998625350987721982e-01
4.147999999999999687e+01,2.470750595368981783e-01
4.152000000000000313e+01,2.070567454618058578e-01
4.156000000000000227e+01,1.737897253630883987e-01
4.160000000000000142e+01,1.419900177593438617e-01
4.164000000000000057e+01,1.173819316042410549e-01
4.167999999999999972e+01,1.015800140890224662e-01
4.171999999999999886e+01,8.152109182483596728e-02
4.175999999999999801e+01,7.716686272804203217e-02
4.179999999999999716e+01,7.163794605896406376e-02
4.184000000000000341e+01,6.596178018564061163e-02
4.188000000000000256e+01,6.733044611975008698e-02
4.192000000000000171e+01,6.282754767824128006e-02
4.196000000000000085e+01,5.773706219738016648e-02
4.200000000000000000e+01,5.073799275239031931e-02
4.203999999999999915e+01,5.753549829140492539e-02
4.207999999999999829e+01,6.477285101396992872e-02
4.211999999999999744e+01,5.043346797737547488e-02
4.215999999999999659e+01,5.957794928994392808e-02
4.220000000000000284e+01,5.668620907527843061e-02
4.224000000000000199e+01,6.759103348177744608e-02
4.228000000000000114e+01,6.190953883607720060e-02
4.232000000000000028e+01,6.385996202276580935e-02
4.235999999999999943e+01,5.803069436017587596e-02
4.239999999999999858e+01,6.863997273289555723e-02
4.243999999999999773e+01,5.004008406426272565e-02
4.247999999999999687e+01,3.672366964493155306e-02
4.252000000000000313e+01,4.234100754182210102e-02
4.256000000000000227e+01,4.193997069620555851e-02
4.260000000000000142e+01,4.124486806175083065e-02
4.264000000000000057e+01,4.964943873715049055e-02
4.267999999999999972e+01,3.427558655042466790e-02
4.271999999999999886e+01,3.754192190547864932e-02
4.275999999999999801e+01,3.611086700739416649e-02
4.279999999999999716e+01,4.011004698386839984e-02
4.284000000000000341e+01,4.073282741427672327e-02
4.288000000000000256e+01,3.548399372743494401e-02
4.292000000000000171e+01,2.597809311458556744e-02
4.296000000000000085e+01,3.408492716750147894e-02
4.300000000000000000e+01,3.822824456087568767e-02
4.303999999999999915e+01,3.796771160473734474e-02
4.307999999999999829e+01,2.743223799448063494e-02
4.311999999999999744e+01,2.717063046967000545e-02
4.315999999999999659e+01,3.175213034310247345e-02
4.320000000000000284e+01,3.339754363475984367e-02
4.324000000000000199e+01,2.902454695025434919e-02
4.328000000000000114e+01,2.362356321425014213e-02
4.332000000000000028e+01,2.497378226162936046e-02
4.335999999999999943e+01,3.057998952120789815e-02
4.339999999999999858e+01,2.444346748811472569e-02
4.343999999999999773e+01,1.874672217126037085e-02
4.347999999999999687e+01,1.921406252431366243e-02
4.352000000000000313e+01,1.909373500786313085e-02
4.356000000000000227e+01,3.027469121921737977e-02
4.360000000000000142e+01,2.017238939799852887e-02
4.364000000000000057e+01,2.768278700888913285e-02
4.367999999999999972e+01,1.567124891168197517e-02
4.371999999999999886e+01,1.951107963183697572e-02
4.375999999999999801e+01,3.274408004154454738e-02
4.379999999999999716e+01,1.016286868154538808e-02
4.384000000000000341e+01,2.089950741151701957e-02
4.388000000000000256e+01,2.737902947384920904e-02
4.392000000000000171e+01,2.020769162471359320e-02
4.396000000000000085e+01,3.138292265614826132e-02
4.400000000000000000e+01,2.347653301634409703e-02
4.403999999999999915e+01,2.364230370590804375e-02
4.407999999999999829e+01,2.483492677382675637e-02
4.411999999999999744e+01,2.499951926631896471e-02
4.415999999999999659e+01,2.046664896579306406e-02
4.420000000000000284e+01,1.813484247232548599e-02
4.424000000000000199e+01,1.800409771334824868e-02
4.428000000000000114e+01,2.124863026270098348e-02
4.432000000000000028e+01,2.361189907958820972e-02
4.435999999999999943e+01,3.184565355828548883e-02
4.439999999999999858e+01,2.422686516768484885e-02
4.443999999999999773e+01,1.880912814873462666e-02
4.447999999999999687e+01,3.159115586116983954e-02
4.452000000000000313e+01,2.264954625456542733e-02
4.456000000000000227e+01,2.060585238753766951e-02
4.460000000000000142e+01,3.045049718475074940e-02
4.464000000000000057e+01,3.104756093830058489e-02
4.467999999999999972e+01,2.694713495544842977e-02
4.471999999999999886e+01,2.137831569124712394e-02
4.475999999999999801e+01,2.843171283001947117e-02
4.479999999999999716e+01,2.476974857684709555e-02
4.484000000000000341e+01,1.435540541578757961e-02
4.488000000000000256e+01,1.847137611540998481e-02
4.492000000000000171e+01,2.478837331586697390e-02
4.496000000000000085e+01,2.391265377333001013e-02
4.500000000000000000e+01,2.934771834891801781e-02
4.503999999999999915e+01,2.714973041897333558e-02
4.507999999999999829e+01,2.539143422997982083e-02
4.511999999999999744e+01,2.275183285716107090e-02
4.515999999999999659e+01,2.157935952076424357e-02
4.520000000000000284e+01,2.158045773661934272e-02
4.524000000000000199e+01,2.539711513657555084e-02
4.528000000000000114e+01,2.906634509143921422e-02
4.532000000000000028e+01,2.701061170820651808e-02
4.535999999999999943e+01,2.686232761595856722e-02
4.539999999999999858e+01,2.377784295069619927e-02
4.543999999999999773e+01,2.201369460807885148e-02
4.547999999999999687e+01,1.701978713570919885e-02
4.552000000000000313e+01,3.125303094856399233e-02
4.556000000000000227e+01,3.315632472687183446e-02
4.560000000000000142e+01,4.093003991738206754e-02
4.564000000000000057e+01,2.580584211054137017e-02
4.567999999999999972e+01,2.829423803484273567e-02
4.571999999999999886e+01,3.327717342022071256e-02
4.575999999999999801e+01,3.679166163748186918e-02
4.579999999999999716e+01,2.826974179639004867e-02
4.584000000000000341e+01,2.958121548871819884e-02
4.588000000000000256e+01,3.133233947063782804e-02
4.592000000000000171e+01,3.660543299140082973e-02
4.596000000000000085e+01,2.793400648812661979e-02
4.600000000000000000e+01,3.173795493241741289e-02
4.603999999999999915e+01,1.983605273792374973e-02
4.607999999999999829e+01,2.686771840110071738e-02
4.611999999999999744e+01,3.536646235906784619e-02
4.615999999999999659e+01,2.522380534452759587e-02
4.620000000000000284e+01,2.975817100172662225e-02
4.624000000000000199e+01,3.179662417938628610e-02
4.628000000000000114e+01,2.943105912952634004e-02
4.632000000000000028e+01,2.970677965802416901e-02
4.635999999999999943e+01,3.086245722270042000e-02
4.639999999999999858e+01,3.187064931038051385e-02
4.643999999999999773e+01,2.891514649767185779e-02
4.647999999999999687e+01,2.507826803382628977e-02
4.652000000000000313e+01,3.048763904654113940e-02
4.656000000000000227e+01,2.371378541631031373e-02
4.660000000000000142e+01,3.147015652633793764e-02
4.664000000000000057e+01,3.496926796153496803e-02
4.667999999999999972e+01,2.804647500569372454e-02
4.671999999999999886e+01,2.376494690253035807e-02
4.675999999999999801e+01,3.283941760294590423e-02
4.679999999999999716e+01,1.578681667391804155e-02
4.684000000000000341e+01,2.383238686740872872e-02
4.688000000000000256e+01,2.820779377386475884e-02
4.692000000000000171e+01,3.889388531518231384e-02
4.696000000000000085e+01,3.079175722683174382e-02
4.700000000000000000e+01,3.193585374422570899e-02
4.703999999999999915e+01,4.232617279479623101e-02
4.707999999999999829e+01,3.906546820102775597e-02
4.711999999999999744e+01,3.565724082403928102e-02
4.715999999999999659e+01,3.048693932745247942e-02
4.720000000000000284e+01,5.100189912347617011e-02
4.724000000000000199e+01,3.687668655535365769e-02
4.728000000000000114e+01,4.271242010846879739e-02
4.732000000000000028e+01,3.651166684564743220e-02
4.735999999999999943e+01,4.249266365147755936e-02
4.739999999999999858e+01,5.038100404732507448e-02
4.743999999999999773e+01,4.960872714295386232e-02
4.747999999999999687e+01,5.646810070970086082e-02
4.752000000000000313e+01,4.527311165983263774e-02
4.756000000000000227e+01,5.961658804366209291e-02
4.760000000000000142e+01,6.001545942816677998e-02
4.764000000000000057e+01,5.835867741065538933e-02
4.767999999999999972e+01,6.697552520583927027e-02
4.771999999999999886e+01,6.751885001603233349e-02
4.775999999999999801e+01,6.512585197169962203e-02
4.779999999999999716e+01,6.082396944087978263e-02
4.784000000000000341e+01,6.635537681508049679e-02
4.788000000000000256e+01,6.895045511705143182e-02
4.792000000000000171e+01,6.831564786262281364e-02
4.796000000000000085e+01,6.826716033005116036e-02
4.800000000000000000e+01,6.410811986113826300e-02
4.803999999999999915e+01,6.082894938054827366e-02
4.807999999999999829e+01,6.136519093173210121e-02
4.811999999999999744e+01,6.645072847112649950e-02
4.815999999999999659e+01,6.111428493446702248e-02
4.820000000000000284e+01,6.238201412209540969e-02
4.824000000000000199e+01,5.895206911477079287e-02
4.828000000000000114e+01,5.552131842555548674e-02
4.832000000000000028e+01,5.047521071807108822e-02
4.835999999999999943e+01,4.586862480096284833e-02
4.839999999999999858e+01,4.419677110027882966e-02
4.843999999999999773e+01,3.679979240119531092e-02
4.847999999999999687e+01,4.290550059106812419e-02
4.852000000000000313e+01,3.697465978796478370e-02
4.856000000000000227e+01,4.249162084746856138e-02
4.860000000000000142e+01,4.213667141249989589e-02
4.864000000000000057e+01,4.412933293534378187e-02
4.867999999999999972e+01,3.731453570256033220e-02
4.871999999999999886e+01,3.769099307388465436e-02
4.875999999999999801e+01,3.850695150990524757e-02
4.879999999999999716e+01,4.269795305407299291e-02
4.884000000000000341e+01,3.382494858411407013e-02
4.888000000000000256e+01,3.405129410340323320e-02
4.892000000000000171e+01,4.455120518578006145e-02
4.896000000000000085e+01,3.890478271450638348e-02
4.900000000000000000e+01,3.296396284351633954e-02
4.903999999999999915e+01,2.687552070604281099e-02
4.907999999999999829e+01,2.812509172536610882e-02
4.911999999999999744e+01,3.524490177090873477e-02
4.915999999999999659e+01,3.120879289719309668e-02
4.920000000000000284e+01,2.819927111312960089e-02
4.924000000000000199e+01,2.841799243316449342e-02
4.928000000000000114e+01,3.142462316732689415e-02
4.932000000000000028e+01,3.105451859940916784e-02
4.935999999999999943e+01,3.508686856429341083e-02
4.939999999999999858e+01,2.928428202671990929e-02
4.943999999999999773e+01,2.612281940720103529e-02
4.947999999999999687e+01,2.574925583896977427e-02
4.952000000000000313e+01,1.774240763759100600e-02
4.956000000000000227e+01,2.455918521804137042e-02
4.960000000000000142e+01,2.697177254782905792e-02
4.964000000000000057e+01,3.437390872564658612e-02
4.967999999999999972e+01,2.049247184055666762e-02
4.971999999999999886e+01,3.273649729369678546e-02
4.975999999999999801e+01,2.927447935922944042e-02
4.979999999999999716e+01,3.153588801152468202e-02
4.984000000000000341e+01,2.763176750813794644e-02
4.988000000000000256e+01,2.813007459416933323e-02
4.992000000000000171e+01,3.523246528406503292e-02
4.996000000000000085e+01,3.176600442654640977e-02
5.000000000000000000e+01,3.167452450013532456e-02
5.003999999999999915e+01,4.038878004689874790e-02
5.007999999999999829e+01,3.970839547495148836e-02
5.011999999999999744e+01,4.299009443961155502e-02
5.015999999999999659e+01,4.964676604510721153e-02
5.020000000000000284e+01,5.483476042743921225e-02
5.024000000000000199e+01,6.148961963005855624e-02
5.028000000000000114e+01,6.975811878619814221e-02
5.032000000000000028e+01,8.874044258294865040e-02
5.035999999999999943e+01,7.513731323646308247e-02
5.039999999999999858e+01,7.606421173627704591e-02
5.043999999999999773e+01,7.478853454851473737e-02
5.047999999999999687e+01,6.925539871939494219e-02
5.052000000000000313e+01,6.416167276197985714e-02
5.056000000000000227e+01,5.260882593105711824e-02
5.060000000000000142e+01,5.529244217199205669e-02
5.064000000000000057e+01,3.742632163739259554e-02
5.067999999999999972e+01,3.203533355990344916e-02
5.071999999999999886e+01,4.029369351336425237e-02
5.075999999999999801e+01,3.842349208545379341e-02
5.079999999999999716e+01,3.288292425884568188e-02
5.084000000000000341e+01,2.528653722478238497e-02
5.088000000000000256e+01,3.662346934023104350e-02
5.092000000000000171e+01,2.975908546498452073e-02
5.096000000000000085e+01,2.861806807202892794e-02
5.100000000000000000e+01,2.953098494377261532e-02
5.103999999999999915e+01,3.631404135847220160e-02
5.107999999999999829e+01,2.592321393281128358e-02
5.111999999999999744e+01,3.094304028203169118e-02
5.115999999999999659e+01,2.421973526039059021e-02
5.120000000000000284e+01,2.791665487126271036e-02
5.124000000000000199e+01,2.398020072856379623e-02
5.128000000000000114e+01,2.591387369341288660e-02
5.132000000000000028e+01,3.063535037142203765e-02
5.135999999999999943e+01,1.921036914170138124e-02
5.139999999999999858e+01,2.260891835568237113e-02
5.143999999999999773e+01,2.395161727368830956e-02
5.147999999999999687e+01,2.044969691293327396e-02
5.152000000000000313e+01,2.663409857514281720e-02
5.156000000000000227e+01,2.606577313804307738e-02
5.160000000000000142e+01,2.168026264508501541e-02
5.164000000000000057e+01,2.477940987037337631e-02
5.167999999999999972e+01,2.127260098444946554e-02
5.171999999999999886e+01,2.715854934704834203e-02
5.175999999999999801e+01,2.174166686766865544e-02
5.179999999999999716e+01,2.997407645990320460e-02
5.184000000000000341e+01,1.912445915757313847e-02
5.188000000000000256e+01,3.029043051237520143e-02
5.192000000000000171e+01,2.560346935509745861e-02
5.196000000000000085e+01,2.590593683690619806e-02
5.200000000000000000e+01,2.708806912280695839e-02
5.203999999999999915e+01,2.665465164161565093e-02
5.207999999999999829e+01,2.988966172959835882e-02
5.211999999999999744e+01,2.270248555729632162e-02
5.215999999999999659e+01,2.138539089604645990e-02
5.220000000000000284e+01,2.476415802687326195e-02
5.224000000000000199e+01,2.212404885373973895e-02
5.228000000000000114e+01,1.948292674191660911e-02
5.232000000000000028e+01,1.610690358983117229e-02
5.235999999999999943e+01,2.373815378899110651e-02
5.239999999999999858e+01,2.623118262872441500e-02
5.243999999999999773e+01,2.857641303369523253e-02
5.247999999999999687e+01,2.372853705289015153e-02
5.252000000000000313e+01,3.238313863167460033e-02
5.256000000000000227e+01,2.342344806768007631e-02
5.260000000000000142e+01,2.767267650653712843e-02
5.264000000000000057e+01,2.370134982873978863e-02
5.267999999999999972e+01,2.545330051280983094e-02
5.271999999999999886e+01,2.206701325690931317e-02
5.275999999999999801e+01,2.777987495116199246e-02
5.279999999999999716e+01,2.101563427026087102e-02
5.284000000000000341e+01,1.395679722311642806e-02
5.288000000000000256e+01,2.979416025371006346e-02
5.292000000000000171e+01,2.860432131161664074e-02
5.296000000000000085e+01,2.477144449276078020e-02
5.300000000000000000e+01,2.519405639721896198e-02
5.303999999999999915e+01,2.121229981016743010e-02
5.307999999999999829e+01,2.354090868250719587e-02
5.311999999999999744e+01,3.159277211846647088e-02
5.315999999999999659e+01,2.232386673472886232e-02
5.320000000000000284e+01,2.538318603051734068e-02
5.324000000000000199e+01,1.890092426892304306e-02
5.328000000000000114e+01,2.122423010249620615e-02
5.332000000000000028e+01,2.589490440342719774e-02
5.335999999999999943e+01,2.366598113368846568e-02
5.339999999999999858e+01,2.084887807015266964e-02
5.343999999999999773e+01,2.801155195791994040e-02
5.347999999999999687e+01,3.179727499653622197e-02
5.352000000000000313e+01,2.222519511896918834e-02
5.356000000000000227e+01,2.219255435759842285e-02
5.360000000000000142e+01,2.392015873240577184e-02
5.364000000000000057e+01,2.432568484900340944e-02
5.367999999999999972e+01,1.812515122598931661e-02
5.371999999999999886e+01,2.645447342613168121e-02
5.375999999999999801e+01,1.687588689485351734e-02
5.379999999999999716e+01,2.285459248220240297e-02
5.384000000000000341e+01,2.545632856728841792e-02
5.388000000000000256e+01,2.115844013832083453e-02
5.392000000000000171e+01,2.214343320421018058e-02
5.396000000000000085e+01,2.723708804598090269e-02
5.400000000000000000e+01,1.897291510075245838e-02
5.403999999999999915e+01,3.155000124757722374e-02
5.407999999999999829e+01,2.196262311421009680e-02
5.411999999999999744e+01,1.956621978827226965e-02
5.415999999999999659e+01,2.758988772481649893e-02
5.420000000000000284e+01,2.944780059576799017e-02
5.424000000000000199e+01,2.220441221253985006e-02
5.428000000000000114e+01,2.303265358127465703e-02
5.432000000000000028e+01,2.620821160316758394e-02
5.435999999999999943e+01,2.248412024019108557e-02
5.439999999999999858e+01,2.374933108965373435e-02
5.443999999999999773e+01,2.486663987595446115e-02
5.447999999999999687e+01,2.201983717570068708e-02
5.452000000000000313e+01,1.917190547295000852e-02
5.456000000000000227e+01,2.013905004595890544e-02
5.460000000000000142e+01,3.240690631800771659e-02
5.464000000000000057e+01,2.192316047070903828e-02
5.467999999999999972e+01,1.789647438588307451e-02
5.471999999999999886e+01,2.678504304620341059e-02
5.475999999999999801e+01,2.804005556696969118e-02
5.479999999999999716e+01,1.843241134799311273e-02
5.484000000000000341e+01,2.027224359844943813e-02
5.488000000000000256e+01,1.961571569468084295e-02
5.492000000000000171e+01,2.321457703096278802e-02
5.496000000000000085e+01,2.417029686208290243e-02
5.500000000000000000e+01,2.042799223425995764e-02
5.503999999999999915e+01,1.991363018817699643e-02
5.507999999999999829e+01,2.394820350347454455e-02
5.511999999999999744e+01,2.343152334792597546e-02
5.515999999999999659e+01,2.511533911580686798e-02
5.520000000000000284e+01,1.872524432848298587e-02
5.524000000000000199e+01,2.378260528491205408e-02
5.528000000000000114e+01,2.208704639320894017e-02
5.532000000000000028e+01,1.848221337223678734e-02
5.535999999999999943e+01,2.294895414389188162e-02
5.539999999999999858e+01,2.330475855412783223e-02
5.543999999999999773e+01,2.806270246683145383e-02
5.547999999999999687e+01,2.342572646414586499e-02
5.552000000000000313e+01,2.568609831740804525e-02
5.556000000000000227e+01,2.779851007560464257e-02
5.560000000000000142e+01,2.491931187473639744e-02
5.564000000000000057e+01,3.069878178172331940e-02
5.567999999999999972e+01,2.312033685385559562e-02
5.571999999999999886e+01,3.124586176715240041e-02
5.575999999999999801e+01,3.188455593249635983e-02
5.579999999999999716e+01,2.415575404251384464e-02
5.584000000000000341e+01,2.802115401356544341e-02
5.588000000000000256e+01,3.320634936701698237e-02
5.592000000000000171e+01,2.738205274302102712e-02
5.596000000000000085e+01,3.256484293915146155e-02
5.600000000000000000e+01,2.776557745330504243e-02
5.603999999999999915e+01,3.764282478747266181e-02
5.607999999999999829e+01,3.592346303071707742e-02
5.611999999999999744e+01,2.686402907869766751e-02
5.615999999999999659e+01,4.070062525384129243e-02
5.620000000000000284e+01,3.883084435793130590e-02
5.624000000000000199e+01,4.033572107252254846e-02
5.628000000000000114e+01,4.389425847283853765e-02
5.632000000000000028e+01,4.466280669488013888e-02
5.635999999999999943e+01,4.308169528348219923e-02
5.639999999999999858e+01,4.384779275170692242e-02
5.643999999999999773e+01,5.253863084742232958e-02
5.647999999999999687e+01,5.477004132956771187e-02
5.652000000000000313e+01,6.155031256064599776e-02
5.656000000000000227e+01,5.966949394600411238e-02
5.660000000000000142e+01,7.701525251525376259e-02
5.664000000000000057e+01,8.129660091961884993e-02
5.667999999999999972e+01,8.983324737104304847e-02
5.671999999999999886e+01,8.075538613261741550e-02
5.675999999999999801e+01,8.972987614140377766e-02
5.679999999999999716e+01,7.859464181658827597e-02
5.684000000000000341e+01,8.301654209523272321e-02
5.688000000000000256e+01,7.833700433021023590e-02
5.692000000000000171e+01,7.585787129562562847e-02
5.696000000000000085e+01,6.985482989267408072e-02
5.700000000000000000e+01,7.911536039130860620e-02
5.703999999999999915e+01,6.210151147729361248e-02
5.707999999999999829e+01,6.387388325895140828e-02
5.711999999999999744e+01,5.258182000490885244e-02
5.715999999999999659e+01,5.112256374754545890e-02
5.720000000000000284e+01,4.379095139359197308e-02
5.724000000000000199e+01,4.144849409975048804e-02
5.728000000000000114e+01,4.453552141085578148e-02
5.732000000000000028e+01,4.894226949191345100e-02
5.735999999999999943e+01,4.277978260047882869e-02
5.739999999999999858e+01,3.852412115706441847e-02
5.743999999999999773e+01,4.072537646893143598e-02
5.747999999999999687e+01,3.074284132679183310e-02
5.752000000000000313e+01,2.824465923540436796e-02
5.756000000000000227e+01,2.941462077137641656e-02
5.760000000000000142e+01,3.219784298092679548e-02
5.764000000000000057e+01,3.424588849867237633e-02
5.767999999999999972e+01,2.983444422580827995e-02
5.771999999999999886e+01,2.791691764362419156e-02
5.775999999999999801e+01,3.084174197236725160e-02
5.779999999999999716e+01,2.114242764915698000e-02
5.784000000000000341e+01,1.995489023676150220e-02
5.788000000000000256e+01,2.405002913499204240e-02
5.792000000000000171e+01,2.608898198123337300e-02
5.796000000000000085e+01,2.695240993772313187e-02
5.800000000000000000e+01,2.179666314046215317e-02
5.803999999999999915e+01,2.441879686217129225e-02
5.807999999999999829e+01,2.615895388802684518e-02
5.811999999999999744e+01,3.053978508468345801e-02
5.815999999999999659e+01,2.464489426908994876e-02
5.820000000000000284e+01,2.696820729959746588e-02
5.824000000000000199e+01,3.149185666579924076e-02
5.828000000000000114e+01,2.676721824265355584e-02
5.832000000000000028e+01,3.011400024210398804e-02
5.835999999999999943e+01,3.081746456811351384e-02
5.839999999999999858e+01,3.284059370473967066e-02
5.843999999999999773e+01,3.295428705179370699e-02
5.847999999999999687e+01,3.835062562095396116e-02
5.852000000000000313e+01,4.697472645843912831e-02
5.856000000000000227e+01,4.047943676656310524e-02
5.860000000000000142e+01,4.455076548792336055e-02
5.864000000000000057e+01,5.258373628890933293e-02
5.867999999999999972e+01,4.975384931105752973e-02
5.871999999999999886e+01,5.660991129393239119e-02
5.875999999999999801e+01,6.537272825751574978e-02
5.879999999999999716e+01,7.486808048283206951e-02
5.884000000000000341e+01,7.452800707964529758e-02
5.888000000000000256e+01,7.213169788283758932e-02
5.892000000000000171e+01,8.323753463474115044e-02
5.896000000000000085e+01,8.964514174347072706e-02
5.900000000000000000e+01,8.607053772762429666e-02
5.903999999999999915e+01,8.998020800494638261e-02
5.907999999999999829e+01,7.260581816588372595e-02
5.911999999999999744e+01,8.018218596516617225e-02
5.915999999999999659e+01,6.911647920734481643e-02
5.920000000000000284e+01,7.140612668445786571e-02
5.924000000000000199e+01,6.239255574937852683e-02
5.928000000000000114e+01,6.189068711266637601e-02
5.932000000000000028e+01,5.184692238823718213e-02
5.935999999999999943e+01,5.501172640266945718e-02
5.939999999999999858e+01,5.010240224225815525e-02
5.943999999999999773e+01,4.974178753331658098e-02
5.947999999999999687e+01,5.040722726405404835e-02
5.952000000000000313e+01,4.373241863124870815e-02
5.956000000000000227e+01,4.674351543524220276e-02
5.960000000000000142e+01,4.916611119740041391e-02
5.964000000000000057e+01,4.630333325952506324e-02
5.967999999999999972e+01,3.976972881285855549e-02
5.971999999999999886e+01,4.204135827791328356e-02
5.975999999999999801e+01,3.711950414981819713e-02
5.979999999999999716e+01,3.234302464605259136e-02
5.984000000000000341e+01,3.299589710288246269e-02
5.988000000000000256e+01,2.924404665907654258e-02
5.992000000000000171e+01,3.708618667436991423e-02
5.996000000000000085e+01,2.525877024059311471e-02
