2.003999999999999915e+01,2.082160150767738485e-02
2.007999999999999829e+01,1.356931394285334699e-02
2.012000000000000099e+01,1.507642901762801246e-02
2.016000000000000014e+01,1.987760740750871280e-02
2.019999999999999929e+01,1.651809693696247930e-02
2.023999999999999844e+01,1.974682665375119758e-02
2.028000000000000114e+01,1.968126525573991523e-02
2.032000000000000028e+01,1.998992801626886875e-02
2.035999999999999943e+01,8.693989135339395130e-03
2.039999999999999858e+01,1.895982217765781672e-02
2.044000000000000128e+01,1.679750911565798532e-02
2.048000000000000043e+01,1.029275720032122622e-02
2.051999999999999957e+01,1.771327552939475428e-02
2.055999999999999872e+01,2.146516375503122395e-02
2.060000000000000142e+01,1.406165571551110278e-02
2.064000000000000057e+01,1.728924055856689845e-02
2.067999999999999972e+01,1.939369546611397974e-02
2.071999999999999886e+01,1.753004923598792258e-02
2.076000000000000156e+01,1.394433158940718356e-02
2.080000000000000071e+01,1.627304381352530013e-02
2.083999999999999986e+01,1.994925851150415250e-02
2.087999999999999901e+01,2.070551892905746899e-02
2.092000000000000171e+01,1.726907473741856602e-02
2.096000000000000085e+01,1.802510383012078526e-02
2.100000000000000000e+01,1.833181114968792866e-02
2.103999999999999915e+01,1.781485829500910681e-02
2.107999999999999829e+01,1.849567200538887804e-02
2.112000000000000099e+01,2.037425218290622730e-02
2.116000000000000014e+01,1.761092119987727606e-02
2.119999999999999929e+01,1.956413653812912046e-02
2.123999999999999844e+01,2.600929511782681947e-02
2.128000000000000114e+01,2.361995324748792854e-02
2.132000000000000028e+01,3.013974640039402894e-02
2.135999999999999943e+01,3.171815726059676321e-02
2.139999999999999858e+01,2.917872999719291205e-02
2.144000000000000128e+01,2.813653906011039790e-02
2.148000000000000043e+01,3.113708481311968507e-02
2.151999999999999957e+01,2.642614443813607467e-02
2.155999999999999872e+01,2.807883803717971943e-02
2.160000000000000142e+01,2.314306022195819490e-02
2.164000000000000057e+01,2.554419577321570198e-02
2.167999999999999972e+01,2.742114022604278875e-02
2.171999999999999886e+01,3.431410036972928207e-02
2.176000000000000156e+01,2.743129328622000845e-02
2.180000000000000071e+01,2.182111866582882309e-02
2.183999999999999986e+01,2.833938720314255894e-02
2.187999999999999901e+01,2.512474189394866761e-02
2.192000000000000171e+01,2.490468494878343014e-02
2.196000000000000085e+01,1.719774378040804519e-02
2.200000000000000000e+01,2.341606923336517904e-02
2.203999999999999915e+01,1.870359787792268830e-02
2.207999999999999829e+01,2.102856816927597960e-02
2.212000000000000099e+01,2.170633137549785735e-02
2.216000000000000014e+01,2.103635804121918584e-02
2.219999999999999929e+01,2.066573660255457620e-02
2.223999999999999844e+01,2.276562912008463571e-02
2.228000000000000114e+01,2.276910819697118213e-02
2.232000000000000028e+01,2.299707121507075028e-02
2.235999999999999943e+01,2.562068023496394745e-02
2.239999999999999858e+01,2.225475716727541922e-02
2.244000000000000128e+01,2.824717234487092790e-02
2.248000000000000043e+01,3.206830593157989490e-02
2.251999999999999957e+01,2.840255392418430946e-02
2.255999999999999872e+01,2.990255087258260683e-02
2.260000000000000142e+01,2.803338336612353973e-02
2.264000000000000057e+01,3.410006806322177231e-02
2.267999999999999972e+01,2.661558626285457155e-02
2.271999999999999886e+01,2.991192757444598865e-02
2.276000000000000156e+01,3.433116367777507005e-02
2.280000000000000071e+01,3.141324882282837960e-02
2.283999999999999986e+01,3.583224439672995365e-02
2.287999999999999901e+01,2.782308789313086769e-02
2.292000000000000171e+01,3.081935699379920873e-02
2.296000000000000085e+01,4.152687453274270246e-02
2.300000000000000000e+01,3.583825368660914501e-02
2.303999999999999915e+01,4.182886709672190700e-02
2.307999999999999829e+01,3.651434284929857416e-02
2.312000000000000099e+01,3.771318407825852842e-02
2.316000000000000014e+01,3.314709434105123087e-02
2.319999999999999929e+01,3.015310428227817308e-02
2.323999999999999844e+01,2.730872825189652880e-02
2.328000000000000114e+01,1.488117026904743276e-02
2.332000000000000028e+01,2.738442178992068349e-02
2.335999999999999943e+01,2.132037188592616345e-02
2.339999999999999858e+01,1.637921520693284838e-02
2.344000000000000128e+01,1.974824707626630926e-02
2.348000000000000043e+01,1.712774421415027767e-02
2.351999999999999957e+01,2.139494415239725014e-02
2.355999999999999872e+01,1.533028484634966181e-02
2.360000000000000142e+01,1.413190130759739080e-02
2.364000000000000057e+01,2.304052968287835165e-02
2.367999999999999972e+01,1.443000309885510493e-02
2.371999999999999886e+01,1.637569419685093453e-02
2.376000000000000156e+01,1.480248267900372179e-02
2.380000000000000071e+01,1.854475240267460315e-02
2.383999999999999986e+01,2.034034018805806754e-02
2.387999999999999901e+01,1.914109868830126890e-02
2.392000000000000171e+01,2.146051428098786143e-02
2.396000000000000085e+01,1.719145268206889038e-02
2.400000000000000000e+01,1.239819430530005387e-02
2.403999999999999915e+01,1.494184341974878240e-02
2.407999999999999829e+01,1.336764784988241431e-02
2.412000000000000099e+01,1.074518158393721404e-02
2.416000000000000014e+01,1.239004842928910846e-02
2.419999999999999929e+01,2.234510196246826050e-02
2.423999999999999844e+01,1.111248379418764212e-02
2.428000000000000114e+01,1.208317047106747567e-02
2.432000000000000028e+01,1.237992426545327616e-02
2.435999999999999943e+01,1.507231916558144161e-02
2.439999999999999858e+01,1.656670736290768303e-02
2.444000000000000128e+01,1.274536742442181243e-02
2.448000000000000043e+01,9.672579763879557424e-03
2.451999999999999957e+01,1.071738901206922140e-02
2.455999999999999872e+01,1.632900103489772284e-02
2.460000000000000142e+01,1.677461985150588766e-02
2.464000000000000057e+01,2.006508505223724217e-02
2.467999999999999972e+01,1.407183551581706570e-02
2.471999999999999886e+01,8.303064045348506825e-03
2.476000000000000156e+01,1.338997835350436670e-02
2.480000000000000071e+01,9.941854237125498026e-03
2.483999999999999986e+01,8.964237712074716799e-03
2.487999999999999901e+01,8.660304825119308561e-03
2.492000000000000171e+01,1.516920365065307572e-02
2.496000000000000085e+01,8.950474664240884448e-03
2.500000000000000000e+01,1.104193040723544864e-02
2.503999999999999915e+01,1.096209829239793397e-02
2.507999999999999829e+01,2.188768649409261052e-02
2.512000000000000099e+01,8.930365057097443965e-03
2.516000000000000014e+01,1.581284769607465418e-02
2.519999999999999929e+01,1.543304116215267127e-02
2.523999999999999844e+01,8.689357285066303879e-03
2.528000000000000114e+01,9.357445524283769869e-03
2.532000000000000028e+01,1.331958444679477715e-02
2.535999999999999943e+01,1.885381776000472423e-02
2.539999999999999858e+01,1.450539328838087831e-02
2.544000000000000128e+01,6.563194427592965868e-03
2.548000000000000043e+01,1.074942981369679529e-02
2.551999999999999957e+01,1.261464084564020531e-02
2.555999999999999872e+01,9.238988660620834140e-03
2.560000000000000142e+01,1.574574060959057706e-02
2.564000000000000057e+01,1.012380436706080376e-02
2.567999999999999972e+01,8.619462193553258100e-03
2.571999999999999886e+01,1.609911193261591086e-02
2.576000000000000156e+01,1.436991195129743923e-02
2.580000000000000071e+01,8.447995414421797036e-03
2.583999999999999986e+01,1.300742370911302237e-02
2.587999999999999901e+01,8.882075614125893928e-03
2.592000000000000171e+01,8.649718018720871024e-03
2.596000000000000085e+01,5.796864349472280638e-03
2.600000000000000000e+01,8.184618875447488215e-03
2.603999999999999915e+01,1.783440833595105468e-02
2.607999999999999829e+01,1.026450760444091483e-02
2.612000000000000099e+01,7.860347113753503312e-03
2.616000000000000014e+01,1.616213365317870770e-02
2.619999999999999929e+01,9.789730168518615688e-03
2.623999999999999844e+01,1.090396411069572899e-02
2.628000000000000114e+01,1.314108422756025615e-02
2.632000000000000028e+01,1.672569340310521915e-02
2.635999999999999943e+01,1.357208419050716895e-02
2.639999999999999858e+01,1.431146430243896914e-02
2.644000000000000128e+01,1.475124464525242284e-02
2.648000000000000043e+01,1.459195447847451421e-02
2.651999999999999957e+01,1.158756388504476702e-02
2.655999999999999872e+01,1.105367667233901098e-02
2.660000000000000142e+01,1.373896934881610118e-02
2.664000000000000057e+01,1.185720511020462754e-02
2.667999999999999972e+01,1.199673799472615598e-02
2.671999999999999886e+01,8.467625695972853458e-03
2.676000000000000156e+01,7.334148627700448446e-03
2.680000000000000071e+01,1.398677825792287929e-02
2.683999999999999986e+01,8.885055062205009582e-03
2.687999999999999901e+01,1.306679158189958875e-02
2.692000000000000171e+01,8.414013844693268157e-03
2.696000000000000085e+01,8.627503649416223830e-03
2.700000000000000000e+01,1.146123107900794483e-02
2.703999999999999915e+01,1.212366575471628821e-02
2.707999999999999829e+01,7.545233492462902203e-03
2.712000000000000099e+01,1.254973100064777844e-02
2.716000000000000014e+01,1.508346481863430399e-02
2.719999999999999929e+01,1.132818415596423267e-02
2.723999999999999844e+01,1.011827286999872517e-02
2.728000000000000114e+01,1.040558361388503258e-02
2.732000000000000028e+01,1.219011628970207914e-02
2.735999999999999943e+01,1.906551851015216362e-02
2.739999999999999858e+01,1.268921332100790729e-02
2.744000000000000128e+01,1.567123413701976969e-02
2.748000000000000043e+01,1.513434323053326584e-02
2.751999999999999957e+01,2.410551345463681286e-02
2.755999999999999872e+01,2.222074101787750028e-02
2.760000000000000142e+01,3.059270612224595023e-02
2.764000000000000057e+01,2.765952240608155616e-02
2.767999999999999972e+01,3.311138451925329379e-02
2.771999999999999886e+01,3.122608362986339925e-02
2.776000000000000156e+01,2.829250313358146196e-02
2.780000000000000071e+01,2.288815738036481529e-02
2.783999999999999986e+01,2.257467999672885250e-02
2.787999999999999901e+01,2.398302615604328350e-02
2.792000000000000171e+01,1.910235607212267331e-02
2.796000000000000085e+01,1.751573020870807532e-02
2.800000000000000000e+01,2.101997232319012532e-02
2.803999999999999915e+01,1.845980088258796295e-02
2.807999999999999829e+01,1.567489331874351993e-02
2.812000000000000099e+01,2.045148624008605309e-02
2.816000000000000014e+01,1.639356186897597892e-02
2.819999999999999929e+01,1.944793182338296414e-02
2.823999999999999844e+01,1.973206480117199388e-02
2.828000000000000114e+01,1.986632882675156905e-02
2.832000000000000028e+01,2.321976853090996010e-02
2.835999999999999943e+01,2.253022073384159871e-02
2.839999999999999858e+01,1.615059680358978123e-02
2.844000000000000128e+01,2.092612028578006919e-02
2.848000000000000043e+01,1.424675756982005624e-02
2.851999999999999957e+01,1.894714505237405852e-02
2.855999999999999872e+01,1.638523513666289427e-02
2.860000000000000142e+01,1.255044057580417816e-02
2.864000000000000057e+01,1.665148353034919329e-02
2.867999999999999972e+01,1.655980287902324849e-02
2.871999999999999886e+01,1.347328109411313410e-02
2.876000000000000156e+01,1.293212496490873421e-02
2.880000000000000071e+01,1.239083393179747118e-02
2.883999999999999986e+01,1.132533427239246389e-02
2.887999999999999901e+01,1.400308254513780298e-02
2.892000000000000171e+01,1.458440112234967063e-02
2.896000000000000085e+01,9.400774534845770733e-03
2.900000000000000000e+01,1.484822036442376599e-02
2.903999999999999915e+01,1.123654376537261933e-02
2.907999999999999829e+01,5.827907721655833408e-03
2.912000000000000099e+01,8.504843339566360919e-03
2.916000000000000014e+01,8.037201425485482678e-03
2.919999999999999929e+01,1.393317478251625274e-02
2.923999999999999844e+01,7.400980492603416103e-03
2.928000000000000114e+01,4.986371458820625449e-03
2.932000000000000028e+01,4.817656067297238984e-03
2.935999999999999943e+01,1.483080624773861628e-02
2.939999999999999858e+01,9.870287927860843871e-03
2.944000000000000128e+01,1.119851663093053042e-02
2.948000000000000043e+01,6.537195914397240203e-03
2.951999999999999957e+01,8.164622024969356295e-03
2.955999999999999872e+01,9.866779031773213401e-03
2.960000000000000142e+01,7.226474859246612321e-03
2.964000000000000057e+01,9.677034649854612119e-03
2.967999999999999972e+01,4.341220675942880462e-03
2.971999999999999886e+01,4.844947075703529005e-03
2.976000000000000156e+01,8.942183932076033792e-03
2.980000000000000071e+01,3.156752232302113392e-03
2.983999999999999986e+01,5.232287449663162136e-03
2.987999999999999901e+01,6.633876173507821314e-03
2.992000000000000171e+01,1.020648941015852434e-02
2.996000000000000085e+01,5.019448608548495588e-03
3.000000000000000000e+01,8.591786260045131823e-03
3.003999999999999915e+01,1.598223666462040074e-02
3.007999999999999829e+01,3.832089605302008931e-03
3.012000000000000099e+01,1.279448471059472549e-02
3.016000000000000014e+01,1.052659248696804703e-02
3.019999999999999929e+01,7.809355968370796340e-03
3.023999999999999844e+01,4.642775056881912402e-03
3.028000000000000114e+01,1.053504255560448050e-02
3.032000000000000028e+01,9.090140686898746242e-03
3.035999999999999943e+01,1.108901248471356668e-02
3.039999999999999858e+01,1.054224500008910104e-02
3.044000000000000128e+01,1.194189777338341973e-02
3.048000000000000043e+01,9.373425516274696070e-03
3.051999999999999957e+01,1.024872653400238538e-02
3.055999999999999872e+01,1.690563098912085515e-03
3.060000000000000142e+01,1.005235165765346744e-02
3.064000000000000057e+01,1.242458795708207935e-02
3.067999999999999972e+01,1.037949277267462278e-02
3.071999999999999886e+01,6.312831146925587666e-03
3.076000000000000156e+01,0.000000000000000000e+00
3.080000000000000071e+01,8.510825859437366400e-03
3.083999999999999986e+01,5.791362725297901151e-03
3.087999999999999901e+01,1.183127589000259813e-02
3.092000000000000171e+01,8.512591381238093086e-03
3.096000000000000085e+01,1.769666600737487480e-02
3.100000000000000000e+01,1.033484734295386613e-02
3.103999999999999915e+01,9.860713069743280712e-03
3.107999999999999829e+01,1.020998257814532094e-02
3.112000000000000099e+01,8.462817005357538280e-03
3.116000000000000014e+01,7.164716715150396160e-03
3.119999999999999929e+01,7.738167161724571023e-03
3.123999999999999844e+01,1.093184485353893703e-02
3.128000000000000114e+01,1.375104326715305067e-02
3.132000000000000028e+01,1.477327675252416810e-02
3.135999999999999943e+01,1.714298695852661120e-02
3.139999999999999858e+01,1.359801070535486892e-02
3.144000000000000128e+01,1.941135066523677968e-02
3.148000000000000043e+01,2.170576911051797300e-02
3.151999999999999957e+01,1.950798635498359260e-02
3.155999999999999872e+01,3.131031447829486780e-02
3.160000000000000142e+01,2.709082146669883687e-02
3.164000000000000057e+01,2.953440839558394912e-02
3.167999999999999972e+01,2.613817584048565290e-02
3.171999999999999886e+01,2.431402210664342090e-02
3.176000000000000156e+01,2.780533012803550544e-02
3.180000000000000071e+01,2.538195071104314138e-02
3.183999999999999986e+01,2.782482688961511810e-02
3.187999999999999901e+01,2.397867713077067586e-02
3.192000000000000171e+01,3.091332796204932301e-02
3.196000000000000085e+01,2.002933292181983266e-02
3.200000000000000000e+01,1.977640295459542202e-02
3.203999999999999915e+01,1.810084459973949900e-02
3.207999999999999829e+01,1.530212840188301116e-02
3.211999999999999744e+01,1.864241734498940997e-02
3.215999999999999659e+01,2.347991637158265352e-02
3.220000000000000284e+01,1.828500564549205218e-02
3.224000000000000199e+01,1.323968691556249785e-02
3.228000000000000114e+01,2.047252110722652327e-02
3.232000000000000028e+01,1.834675419818549216e-02
3.235999999999999943e+01,8.883812927743921228e-03
3.239999999999999858e+01,6.383420379835958586e-03
3.243999999999999773e+01,1.488843013099173246e-02
3.247999999999999687e+01,1.156420558870485324e-02
3.252000000000000313e+01,1.580147076029235140e-02
3.256000000000000227e+01,1.225235511704631138e-02
3.260000000000000142e+01,5.184315217410857650e-03
3.264000000000000057e+01,9.196544787872016832e-03
3.267999999999999972e+01,9.914452888015639134e-03
3.271999999999999886e+01,1.235417268266572957e-02
3.275999999999999801e+01,1.060115888350044236e-02
3.279999999999999716e+01,8.548529745773952165e-03
3.284000000000000341e+01,1.488093380557148349e-02
3.288000000000000256e+01,1.073172048419985744e-02
3.292000000000000171e+01,1.676436401982182162e-02
3.296000000000000085e+01,1.763099388372951423e-02
3.300000000000000000e+01,1.198399208651812833e-02
3.303999999999999915e+01,9.631022073842688408e-03
3.307999999999999829e+01,1.094642205097208672e-02
3.311999999999999744e+01,5.748190073219358771e-03
3.315999999999999659e+01,8.785255188346486471e-03
3.320000000000000284e+01,1.002535077294247796e-02
3.324000000000000199e+01,1.366106572481349916e-02
3.328000000000000114e+01,1.100775131203221742e-02
3.332000000000000028e+01,1.262174758663350826e-02
3.335999999999999943e+01,2.631110395443571857e-03
3.339999999999999858e+01,1.045883027126940333e-02
3.343999999999999773e+01,1.222212337267283844e-02
3.347999999999999687e+01,1.308685818575378891e-02
3.352000000000000313e+01,6.464680476448568525e-03
3.356000000000000227e+01,1.489075599886958978e-02
3.360000000000000142e+01,1.380849196583678815e-02
3.364000000000000057e+01,1.744274380064628552e-02
3.367999999999999972e+01,1.606071552243900150e-02
3.371999999999999886e+01,1.872139397049011125e-02
3.375999999999999801e+01,1.711446871606223455e-02
3.379999999999999716e+01,1.378544012292586517e-02
3.384000000000000341e+01,1.360070603462897217e-02
3.388000000000000256e+01,1.528751612240479216e-02
3.392000000000000171e+01,2.214004735640363875e-02
3.396000000000000085e+01,1.918476751110752970e-02
3.400000000000000000e+01,1.555553108642956928e-02
3.403999999999999915e+01,1.297429417912240521e-02
3.407999999999999829e+01,1.495983674125028230e-02
3.411999999999999744e+01,1.582221646640533108e-02
3.415999999999999659e+01,2.229952271408518899e-02
3.420000000000000284e+01,1.702245811835632200e-02
3.424000000000000199e+01,1.676137856420631747e-02
3.428000000000000114e+01,1.889591583138465827e-02
3.432000000000000028e+01,1.803559825603547745e-02
3.435999999999999943e+01,1.889708836043072285e-02
3.439999999999999858e+01,1.900975324559591936e-02
3.443999999999999773e+01,2.129343157849141605e-02
3.447999999999999687e+01,2.305288747822877363e-02
3.452000000000000313e+01,1.567833987351865965e-02
3.456000000000000227e+01,2.372638135569912071e-02
3.460000000000000142e+01,1.650127096527534420e-02
3.464000000000000057e+01,1.953288088187913815e-02
3.467999999999999972e+01,1.605085502468082959e-02
3.471999999999999886e+01,2.013031349570060247e-02
3.475999999999999801e+01,2.121491604706153902e-02
3.479999999999999716e+01,2.297317795210386537e-02
3.484000000000000341e+01,2.136224543845542320e-02
3.488000000000000256e+01,2.027523676137033340e-02
3.492000000000000171e+01,2.076029907185941020e-02
3.496000000000000085e+01,1.607934281458296352e-02
3.500000000000000000e+01,2.322732685644255529e-02
3.503999999999999915e+01,2.438574786767672836e-02
3.507999999999999829e+01,2.367232708545366840e-02
3.511999999999999744e+01,2.235981464269810176e-02
3.515999999999999659e+01,2.928259439677114231e-02
3.520000000000000284e+01,3.395919376043397137e-02
3.524000000000000199e+01,3.017559680281278744e-02
3.528000000000000114e+01,3.215665894720366735e-02
3.532000000000000028e+01,2.919630462445377966e-02
3.535999999999999943e+01,3.551938925785920464e-02
3.539999999999999858e+01,2.859074689746549450e-02
3.543999999999999773e+01,3.087067563674707887e-02
3.547999999999999687e+01,3.135362926399915678e-02
3.552000000000000313e+01,2.375072418770998728e-02
3.556000000000000227e+01,2.520665459605703207e-02
3.560000000000000142e+01,2.351799170712779580e-02
3.564000000000000057e+01,2.564742786233380895e-02
3.567999999999999972e+01,2.478200584569743847e-02
3.571999999999999886e+01,2.473997625183488661e-02
3.575999999999999801e+01,2.424858875197938649e-02
3.579999999999999716e+01,2.323297558757192113e-02
3.584000000000000341e+01,2.071985707239768285e-02
3.588000000000000256e+01,2.973620605954497426e-02
3.592000000000000171e+01,3.163997495223459105e-02
3.596000000000000085e+01,3.069862030891061522e-02
3.600000000000000000e+01,2.586399478272024405e-02
3.603999999999999915e+01,3.151068911823553392e-02
3.607999999999999829e+01,3.176675916228269281e-02
3.611999999999999744e+01,2.947717592118408864e-02
3.615999999999999659e+01,3.205383770017924266e-02
3.620000000000000284e+01,3.028802214287495964e-02
3.624000000000000199e+01,3.249003948216655502e-02
3.628000000000000114e+01,3.574005085525156639e-02
3.632000000000000028e+01,3.816636464825938491e-02
3.635999999999999943e+01,3.961924544199296738e-02
3.639999999999999858e+01,3.231245643218091240e-02
3.643999999999999773e+01,3.810735442719375560e-02
3.647999999999999687e+01,3.813728884833827992e-02
3.652000000000000313e+01,3.240225959769348074e-02
3.656000000000000227e+01,3.572606338365932888e-02
3.660000000000000142e+01,3.261109435625193093e-02
3.664000000000000057e+01,3.690786963557745465e-02
3.667999999999999972e+01,3.184603314080627218e-02
3.671999999999999886e+01,2.850599854843911818e-02
3.675999999999999801e+01,2.366845635312165089e-02
3.679999999999999716e+01,2.691646701859484042e-02
3.684000000000000341e+01,2.874183754591365381e-02
3.688000000000000256e+01,2.989324444353689061e-02
3.692000000000000171e+01,2.947227568588767568e-02
3.696000000000000085e+01,3.137204952822025134e-02
3.700000000000000000e+01,3.439468330240579019e-02
3.703999999999999915e+01,2.693568951163563541e-02
3.707999999999999829e+01,2.778685087812298241e-02
3.711999999999999744e+01,3.125822509545993222e-02
3.715999999999999659e+01,3.076145792958278474e-02
3.720000000000000284e+01,2.929125570808992912e-02
3.724000000000000199e+01,2.901878049156189285e-02
3.728000000000000114e+01,3.518476842673660954e-02
3.732000000000000028e+01,4.030245335189454325e-02
3.735999999999999943e+01,3.980490787019760890e-02
3.739999999999999858e+01,3.466541147201858408e-02
3.743999999999999773e+01,3.783606934980781461e-02
3.747999999999999687e+01,4.055736511100007519e-02
3.752000000000000313e+01,3.481845896940991697e-02
3.756000000000000227e+01,4.038441323554435580e-02
3.760000000000000142e+01,4.782190257109626003e-02
3.764000000000000057e+01,4.904521952924226214e-02
3.767999999999999972e+01,4.345542272695741837e-02
3.771999999999999886e+01,4.879614763752316425e-02
3.775999999999999801e+01,5.473565699497653231e-02
3.779999999999999716e+01,5.513480252908171259e-02
3.784000000000000341e+01,5.912743873975192382e-02
3.788000000000000256e+01,6.454240337056448007e-02
3.792000000000000171e+01,6.494107750873173712e-02
3.796000000000000085e+01,7.162847781266834524e-02
3.800000000000000000e+01,8.767417827061066427e-02
3.803999999999999915e+01,8.979433632622439709e-02
3.807999999999999829e+01,9.812835259320641657e-02
3.811999999999999744e+01,1.095317852268403447e-01
3.815999999999999659e+01,1.250527813781369402e-01
3.820000000000000284e+01,1.464881648044868423e-01
3.824000000000000199e+01,1.687469344845860253e-01
3.828000000000000114e+01,2.006634742757957002e-01
3.832000000000000028e+01,2.402912249036072145e-01
3.835999999999999943e+01,3.007320268817469389e-01
3.839999999999999858e+01,3.796649826325163013e-01
3.843999999999999773e+01,4.712504145282314094e-01
3.847999999999999687e+01,6.089541667761506627e-01
3.852000000000000313e+01,7.537701880859624115e-01
3.856000000000000227e+01,8.925966377480990532e-01
3.860000000000000142e+01,9.963848633371007457e-01
3.864000000000000057e+01,1.000000000000000000e+00
3.867999999999999972e+01,9.933581080650956130e-01
3.871999999999999886e+01,8.953026433028907771e-01
3.875999999999999801e+01,7.860168701587461060e-01
3.879999999999999716e+01,6.611584642177379401e-01
3.884000000000000341e+01,5.348025455818863350e-01
3.888000000000000256e+01,4.362972371233599933e-01
3.892000000000000171e+01,3.460272116570860534e-01
3.896000000000000085e+01,2.701316172574582675e-01
3.900000000000000000e+01,2.200652059041672548e-01
3.903999999999999915e+01,1.848224313855082179e-01
3.907999999999999829e+01,1.482318789057554265e-01
3.911999999999999744e+01,1.260157571009646316e-01
3.915999999999999659e+01,1.097140202211225601e-01
3.920000000000000284e+01,9.610735876087481144e-02
3.924000000000000199e+01,8.646852285314612918e-02
3.928000000000000114e+01,7.930015918725576152e-02
3.932000000000000028e+01,6.644169265574237371e-02
3.935999999999999943e+01,6.623570001699120857e-02
3.939999999999999858e+01,5.959092771039510572e-02
3.943999999999999773e+01,4.965181738482839918e-02
3.947999999999999687e+01,4.996941551784533225e-02
3.952000000000000313e+01,5.155960273496669466e-02
3.956000000000000227e+01,5.232608444040787871e-02
3.960000000000000142e+01,4.732759493414088331e-02
3.964000000000000057e+01,4.330222357566330948e-02
3.967999999999999972e+01,4.249600008619366237e-02
3.971999999999999886e+01,3.652374637635663612e-02
3.975999999999999801e+01,3.676534676520489681e-02
3.979999999999999716e+01,3.296393164741349274e-02
3.984000000000000341e+01,3.320520827396374747e-02
3.988000000000000256e+01,3.554261737034705021e-02
3.992000000000000171e+01,3.383701066632763960e-02
3.996000000000000085e+01,3.243071238098758219e-02
4.000000000000000000e+01,2.698139809940272235e-02
4.003999999999999915e+01,2.729673126722808804e-02
4.007999999999999829e+01,3.143015260995504073e-02
4.011999999999999744e+01,3.601261730095321745e-02
4.015999999999999659e+01,3.745047753167831533e-02
4.020000000000000284e+01,3.170087952975814832e-02
4.024000000000000199e+01,3.575878216209427141e-02
4.028000000000000114e+01,3.090727017126940201e-02
4.032000000000000028e+01,3.369209646035720152e-02
4.035999999999999943e+01,2.996327307085749556e-02
4.039999999999999858e+01,3.304724349841058062e-02
4.043999999999999773e+01,3.178872621003565185e-02
4.047999999999999687e+01,3.247660460140246175e-02
4.052000000000000313e+01,2.702517122568760116e-02
4.056000000000000227e+01,3.123150237958481623e-02
4.060000000000000142e+01,2.825037432162652920e-02
4.064000000000000057e+01,2.122622870068708104e-02
4.067999999999999972e+01,2.236249410283696823e-02
4.071999999999999886e+01,2.566975757911636388e-02
4.075999999999999801e+01,2.553294448375541606e-02
4.079999999999999716e+01,2.082903980926329932e-02
4.084000000000000341e+01,1.867047121832756187e-02
4.088000000000000256e+01,1.711067943643954092e-02
4.092000000000000171e+01,1.727267927524803529e-02
4.096000000000000085e+01,1.803345572726223686e-02
4.100000000000000000e+01,2.545728920623786112e-02
4.103999999999999915e+01,1.865610229625614194e-02
4.107999999999999829e+01,2.046453139398142843e-02
4.111999999999999744e+01,1.755613280793139747e-02
4.115999999999999659e+01,1.651926057632767744e-02
4.120000000000000284e+01,1.757851758316320706e-02
4.124000000000000199e+01,1.639157941351382722e-02
4.128000000000000114e+01,1.587828473433993900e-02
4.132000000000000028e+01,1.738625133920424295e-02
4.135999999999999943e+01,1.574961054616475994e-02
4.139999999999999858e+01,2.197390837108423658e-02
4.143999999999999773e+01,1.779143552037337761e-02
4.147999999999999687e+01,1.682810613222432763e-02
4.152000000000000313e+01,2.005719969700994060e-02
4.156000000000000227e+01,1.819512619769900891e-02
4.160000000000000142e+01,1.513500388954576968e-02
4.164000000000000057e+01,2.008555493310132042e-02
4.167999999999999972e+01,1.777377646029570588e-02
4.171999999999999886e+01,1.553669911573042628e-02
4.175999999999999801e+01,1.636902922700389854e-02
4.179999999999999716e+01,1.922261944726324362e-02
4.184000000000000341e+01,1.249298227969980989e-02
4.188000000000000256e+01,1.646925365928647925e-02
4.192000000000000171e+01,1.797472521581689256e-02
4.196000000000000085e+01,1.319114615883278628e-02
4.200000000000000000e+01,1.701718085737212449e-02
4.203999999999999915e+01,1.455416474655492169e-02
4.207999999999999829e+01,1.254018718587872686e-02
4.211999999999999744e+01,1.509296941251176208e-02
4.215999999999999659e+01,1.487548058601044325e-02
4.220000000000000284e+01,1.757766281694058200e-02
4.224000000000000199e+01,1.848285338718813967e-02
4.228000000000000114e+01,1.504555173714060626e-02
4.232000000000000028e+01,1.759749493691883937e-02
4.235999999999999943e+01,1.640588700566380370e-02
4.239999999999999858e+01,1.716067005394133343e-02
4.243999999999999773e+01,1.312375452641175062e-02
4.247999999999999687e+01,1.679803965169750918e-02
4.252000000000000313e+01,1.740258220000774972e-02
4.256000000000000227e+01,2.010325065744244730e-02
4.260000000000000142e+01,1.906036739631769908e-02
4.264000000000000057e+01,1.973927154528540978e-02
4.267999999999999972e+01,1.630028547666175637e-02
4.271999999999999886e+01,1.578096919249622962e-02
4.275999999999999801e+01,1.511174850871049337e-02
4.279999999999999716e+01,1.736219741354085022e-02
4.284000000000000341e+01,1.789052084951123917e-02
4.288000000000000256e+01,1.849354257401228385e-02
4.292000000000000171e+01,1.430486454765391921e-02
4.296000000000000085e+01,2.142103370968188175e-02
4.300000000000000000e+01,1.730688411014170980e-02
4.303999999999999915e+01,2.067933081060855521e-02
4.307999999999999829e+01,1.933494502916990876e-02
4.311999999999999744e+01,2.165890465935905659e-02
4.315999999999999659e+01,1.904142862988667667e-02
4.320000000000000284e+01,2.563250470341088896e-02
4.324000000000000199e+01,1.822315798423537053e-02
4.328000000000000114e+01,2.062130445731828743e-02
4.332000000000000028e+01,2.234547153542073422e-02
4.335999999999999943e+01,2.983427793548839441e-02
4.339999999999999858e+01,2.616763225541564666e-02
4.343999999999999773e+01,3.088599382379550104e-02
4.347999999999999687e+01,2.706927123852240560e-02
4.352000000000000313e+01,3.448252681010328946e-02
4.356000000000000227e+01,3.590619849388063112e-02
4.360000000000000142e+01,3.703022840042027863e-02
4.364000000000000057e+01,3.987604326902673829e-02
4.367999999999999972e+01,3.740608290180846840e-02
4.371999999999999886e+01,4.114996693909409725e-02
4.375999999999999801e+01,4.010214916917882039e-02
4.379999999999999716e+01,4.017717468454241880e-02
4.384000000000000341e+01,3.471182159048320087e-02
4.388000000000000256e+01,4.002723980816086380e-02
4.392000000000000171e+01,3.650810215250233082e-02
4.396000000000000085e+01,3.785519042233783521e-02
4.400000000000000000e+01,3.650687079530985646e-02
4.403999999999999915e+01,4.039911520112378363e-02
4.407999999999999829e+01,4.234462812061205034e-02
4.411999999999999744e+01,4.623652780902880871e-02
4.415999999999999659e+01,4.488751874720650625e-02
4.420000000000000284e+01,4.780579373824821177e-02
4.424000000000000199e+01,5.222124924062743895e-02
4.428000000000000114e+01,6.150292988513250680e-02
4.432000000000000028e+01,6.322280390793688643e-02
4.435999999999999943e+01,6.696393177278162079e-02
4.439999999999999858e+01,6.958187163495033190e-02
4.443999999999999773e+01,6.935466720184831069e-02
4.447999999999999687e+01,7.751246747125228875e-02
4.452000000000000313e+01,8.282512324954353911e-02
4.456000000000000227e+01,9.023390004090797722e-02
4.460000000000000142e+01,9.285097296873000283e-02
4.464000000000000057e+01,9.958559355100880806e-02
4.467999999999999972e+01,1.038494075536806477e-01
4.471999999999999886e+01,1.088617242862579271e-01
4.475999999999999801e+01,1.161947645242172034e-01
4.479999999999999716e+01,1.265972047760174080e-01
4.484000000000000341e+01,1.324325435586629629e-01
4.488000000000000256e+01,1.412624144986694141e-01
4.492000000000000171e+01,1.415571977598659714e-01
4.496000000000000085e+01,1.409533946294061479e-01
4.500000000000000000e+01,1.457398885029595748e-01
4.503999999999999915e+01,1.623552980974720117e-01
4.507999999999999829e+01,1.579327202949469822e-01
4.511999999999999744e+01,1.493173786410101345e-01
4.515999999999999659e+01,1.479640251153520880e-01
4.520000000000000284e+01,1.427173781849920553e-01
4.524000000000000199e+01,1.313314079328695427e-01
4.528000000000000114e+01,1.215923509674138592e-01
4.532000000000000028e+01,1.141740161364459133e-01
4.535999999999999943e+01,1.080282560931128677e-01
4.539999999999999858e+01,9.724052554909289048e-02
4.543999999999999773e+01,9.027087005855724544e-02
4.547999999999999687e+01,8.704442186294694683e-02
4.552000000000000313e+01,7.543261984098738326e-02
4.556000000000000227e+01,6.906137813087080690e-02
4.560000000000000142e+01,6.987725581126381924e-02
4.564000000000000057e+01,6.560195643961583278e-02
4.567999999999999972e+01,5.773283313076552070e-02
4.571999999999999886e+01,5.922199107716327043e-02
4.575999999999999801e+01,5.861467810327635614e-02
4.579999999999999716e+01,5.643496773564966873e-02
4.584000000000000341e+01,5.425508074975984169e-02
4.588000000000000256e+01,4.937978126471840451e-02
4.592000000000000171e+01,4.727440840917724457e-02
4.596000000000000085e+01,4.389610841076409253e-02
4.600000000000000000e+01,4.141604333005956262e-02
4.603999999999999915e+01,2.912813759791075749e-02
4.607999999999999829e+01,3.271199871522546127e-02
4.611999999999999744e+01,2.573934237887401735e-02
4.615999999999999659e+01,2.146174442385869602e-02
4.620000000000000284e+01,1.868132218205072539e-02
4.624000000000000199e+01,1.605045766404531934e-02
4.628000000000000114e+01,2.180459344209985731e-02
4.632000000000000028e+01,1.805035852581489061e-02
4.635999999999999943e+01,1.714091682253689880e-02
4.639999999999999858e+01,1.570722350563553971e-02
4.643999999999999773e+01,1.966382366759060474e-02
4.647999999999999687e+01,1.568427361691974997e-02
4.652000000000000313e+01,1.507359001203768117e-02
4.656000000000000227e+01,1.610981656034969622e-02
4.660000000000000142e+01,1.542390843522549980e-02
4.664000000000000057e+01,1.496242471533161186e-02
4.667999999999999972e+01,1.712113044316255356e-02
4.671999999999999886e+01,1.695875991869031166e-02
4.675999999999999801e+01,9.833518084438790455e-03
4.679999999999999716e+01,1.618427619665684450e-02
4.684000000000000341e+01,1.407480959049386797e-02
4.688000000000000256e+01,1.555881153074440207e-02
4.692000000000000171e+01,1.127782433973931187e-02
4.696000000000000085e+01,1.036570251739174671e-02
4.700000000000000000e+01,1.431979917854035722e-02
4.703999999999999915e+01,1.445546559125787840e-02
4.707999999999999829e+01,1.481555533207448705e-02
4.711999999999999744e+01,1.240536187754974311e-02
4.715999999999999659e+01,1.156720944676574610e-02
4.720000000000000284e+01,1.746696652582244505e-02
4.724000000000000199e+01,1.123798253602661251e-02
4.728000000000000114e+01,1.204637850278136163e-02
4.732000000000000028e+01,8.886608214381875800e-03
4.735999999999999943e+01,1.381236493562270837e-02
4.739999999999999858e+01,1.514429350905720922e-02
4.743999999999999773e+01,1.475408535271394844e-02
4.747999999999999687e+01,1.174332844101608209e-02
4.752000000000000313e+01,1.382339172175505587e-02
4.756000000000000227e+01,1.208502348108962850e-02
4.760000000000000142e+01,1.296684243596548519e-02
4.764000000000000057e+01,1.384848036613211750e-02
4.767999999999999972e+01,1.173523074814911138e-02
4.771999999999999886e+01,6.402490502181474620e-03
4.775999999999999801e+01,1.424627721002689161e-02
4.779999999999999716e+01,1.243195427917895626e-02
4.784000000000000341e+01,9.868773227636830347e-03
4.788000000000000256e+01,1.187233786277640951e-02
4.792000000000000171e+01,1.013233775586035688e-02
4.796000000000000085e+01,9.440303089798674288e-03
4.800000000000000000e+01,9.571630784756410271e-03
4.803999999999999915e+01,1.127499734919235747e-02
4.807999999999999829e+01,1.290331415114982783e-02
4.811999999999999744e+01,9.964521454428715633e-03
4.815999999999999659e+01,9.795649903630508984e-03
4.820000000000000284e+01,1.007580192105665684e-02
4.824000000000000199e+01,1.035577144495822971e-02
4.828000000000000114e+01,8.988469843378518731e-03
4.832000000000000028e+01,1.203817753007329835e-02
4.835999999999999943e+01,1.059564279120131340e-02
4.839999999999999858e+01,8.628851542654769960e-03
4.843999999999999773e+01,1.152827525244753959e-02
4.847999999999999687e+01,8.138632387598841722e-03
4.852000000000000313e+01,6.620497859728031315e-03
4.856000000000000227e+01,9.519372032605553577e-03
4.860000000000000142e+01,7.327061907286287062e-03
4.864000000000000057e+01,1.224699606984078204e-02
4.867999999999999972e+01,1.237521638090838261e-02
4.871999999999999886e+01,1.040695852553553610e-02
4.875999999999999801e+01,1.143322332918420003e-02
4.879999999999999716e+01,9.389730182256552510e-03
4.884000000000000341e+01,1.161350972935410591e-02
4.888000000000000256e+01,7.173883419410031700e-03
4.892000000000000171e+01,8.798353462960744470e-03
4.896000000000000085e+01,1.296813971209993289e-02
4.900000000000000000e+01,8.453092973208823149e-03
4.903999999999999915e+01,1.067595123979129916e-02
4.907999999999999829e+01,9.829050870350292471e-03
4.911999999999999744e+01,1.190180461800358774e-02
4.915999999999999659e+01,8.434166732737861591e-03
4.920000000000000284e+01,1.252797772827944980e-02
4.924000000000000199e+01,8.835367075920440294e-03
4.928000000000000114e+01,7.688071845781693260e-03
4.932000000000000028e+01,1.253000432928949755e-02
4.935999999999999943e+01,8.462499961563847706e-03
4.939999999999999858e+01,1.150723802121247051e-02
4.943999999999999773e+01,9.385922065684844384e-03
4.947999999999999687e+01,1.100780361298011982e-02
4.952000000000000313e+01,7.837969252447035684e-03
4.956000000000000227e+01,5.491493434013372185e-03
4.960000000000000142e+01,8.759906340589181453e-03
4.964000000000000057e+01,1.008157414981696726e-02
4.967999999999999972e+01,1.297527681376097093e-02
4.971999999999999886e+01,1.160133670473737118e-02
4.975999999999999801e+01,1.412032873436547785e-02
4.979999999999999716e+01,5.858191319679240117e-03
4.984000000000000341e+01,8.526545947773245260e-03
4.988000000000000256e+01,1.104497874630470597e-02
4.992000000000000171e+01,1.116745979821305405e-02
4.996000000000000085e+01,1.256250437683853471e-02
5.000000000000000000e+01,1.410709747469032944e-02
5.003999999999999915e+01,9.587223160894688817e-03
5.007999999999999829e+01,9.933559790676359247e-03
5.011999999999999744e+01,1.230113616187090454e-02
5.015999999999999659e+01,8.753980148930921162e-03
5.020000000000000284e+01,1.149552033792687264e-02
5.024000000000000199e+01,1.116729905118968649e-02
5.028000000000000114e+01,1.308492009609520633e-02
5.032000000000000028e+01,8.788337722630166007e-03
5.035999999999999943e+01,1.227780437217667296e-02
5.039999999999999858e+01,1.067608231708032374e-02
5.043999999999999773e+01,1.304215839661626748e-02
5.047999999999999687e+01,1.346148732246267056e-02
5.052000000000000313e+01,1.200893665733648169e-02
5.056000000000000227e+01,1.370063956606168247e-02
5.060000000000000142e+01,1.292152140286837239e-02
5.064000000000000057e+01,1.640967152725417502e-02
5.067999999999999972e+01,1.525583822537784212e-02
5.071999999999999886e+01,1.649758149928897549e-02
5.075999999999999801e+01,1.407062073938972029e-02
5.079999999999999716e+01,1.883076664026689384e-02
5.084000000000000341e+01,1.490607504874666943e-02
5.088000000000000256e+01,1.247854771367396844e-02
5.092000000000000171e+01,1.319527307116342280e-02
5.096000000000000085e+01,1.121657349353120774e-02
5.100000000000000000e+01,1.170831746687724106e-02
5.103999999999999915e+01,1.249934273477893050e-02
5.107999999999999829e+01,1.448806112697108815e-02
5.111999999999999744e+01,1.670119295723887509e-02
5.115999999999999659e+01,1.591942872022792527e-02
5.120000000000000284e+01,1.431393047651877137e-02
5.124000000000000199e+01,1.712543437284932968e-02
5.128000000000000114e+01,1.072802607518533874e-02
5.132000000000000028e+01,1.346428234191205005e-02
5.135999999999999943e+01,1.028580328687349159e-02
5.139999999999999858e+01,1.347088515677815485e-02
5.143999999999999773e+01,1.044176086652355215e-02
5.147999999999999687e+01,1.609709478514767880e-02
5.152000000000000313e+01,1.142050101268130523e-02
5.156000000000000227e+01,1.445508566495779315e-02
5.160000000000000142e+01,1.164980206858085184e-02
5.164000000000000057e+01,1.198876940218763718e-02
5.167999999999999972e+01,1.674473779870285992e-02
5.171999999999999886e+01,1.139338099643646962e-02
5.175999999999999801e+01,9.410877812304667758e-03
5.179999999999999716e+01,1.251918434306010901e-02
5.184000000000000341e+01,1.405507869400112776e-02
5.188000000000000256e+01,1.529131099805239660e-02
5.192000000000000171e+01,1.353264537432547626e-02
5.196000000000000085e+01,1.604124480678385811e-02
5.200000000000000000e+01,1.263510735074060282e-02
5.203999999999999915e+01,1.551766159226618084e-02
5.207999999999999829e+01,1.368336131965581029e-02
5.211999999999999744e+01,1.259754566156137678e-02
5.215999999999999659e+01,1.592872989132309430e-02
5.220000000000000284e+01,1.027560265682063607e-02
5.224000000000000199e+01,1.368127007388737597e-02
5.228000000000000114e+01,1.618833317975026942e-02
5.232000000000000028e+01,1.143304072225955793e-02
5.235999999999999943e+01,1.551193964066100578e-02
5.239999999999999858e+01,1.172954151476296274e-02
5.243999999999999773e+01,1.386149580403358075e-02
5.247999999999999687e+01,1.322315377654562432e-02
5.252000000000000313e+01,1.168620685032769647e-02
5.256000000000000227e+01,1.621334736679133637e-02
5.260000000000000142e+01,1.130696947595265060e-02
5.264000000000000057e+01,1.545938525747292923e-02
5.267999999999999972e+01,1.077722372095270102e-02
5.271999999999999886e+01,1.335703180563772505e-02
5.275999999999999801e+01,1.114511605089140225e-02
5.279999999999999716e+01,1.282612499279898316e-02
5.284000000000000341e+01,1.136249843346880638e-02
5.288000000000000256e+01,1.027301632496517049e-02
5.292000000000000171e+01,1.217804669169653825e-02
5.296000000000000085e+01,1.221119149427283765e-02
5.300000000000000000e+01,1.157033320498081566e-02
5.303999999999999915e+01,1.512186966736847778e-02
5.307999999999999829e+01,1.335760788249069388e-02
5.311999999999999744e+01,1.563600533217456012e-02
5.315999999999999659e+01,1.057717750152536475e-02
5.320000000000000284e+01,1.060915595852755799e-02
5.324000000000000199e+01,1.243776353718877362e-02
5.328000000000000114e+01,1.269395541087870588e-02
5.332000000000000028e+01,1.017984891146853609e-02
5.335999999999999943e+01,1.732347560694273356e-02
5.339999999999999858e+01,1.683040579200577314e-02
5.343999999999999773e+01,1.184508111553200793e-02
5.347999999999999687e+01,1.000400286467485224e-02
5.352000000000000313e+01,1.213071520853111276e-02
5.356000000000000227e+01,1.066358432474333491e-02
5.360000000000000142e+01,1.219096425153309154e-02
5.364000000000000057e+01,1.274486887716621067e-02
5.367999999999999972e+01,1.464619558349920109e-02
5.371999999999999886e+01,1.617298807793738150e-02
5.375999999999999801e+01,1.425567217640233246e-02
5.379999999999999716e+01,1.578207255966764672e-02
5.384000000000000341e+01,1.326542306601381609e-02
5.388000000000000256e+01,1.479143094642216237e-02
5.392000000000000171e+01,1.571830114341662976e-02
5.396000000000000085e+01,1.514762163142036738e-02
5.400000000000000000e+01,1.382806891889216787e-02
5.403999999999999915e+01,2.089349750574520659e-02
5.407999999999999829e+01,1.523122699414670815e-02
5.411999999999999744e+01,1.825340822863932844e-02
5.415999999999999659e+01,1.461217068051511546e-02
5.420000000000000284e+01,1.448951609861901489e-02
5.424000000000000199e+01,1.616348819035637319e-02
5.428000000000000114e+01,1.297086506102545014e-02
5.432000000000000028e+01,1.913650213392238328e-02
5.435999999999999943e+01,1.497020456333614420e-02
5.439999999999999858e+01,1.275026859597519838e-02
5.443999999999999773e+01,1.487245927433402878e-02
5.447999999999999687e+01,1.220292190265749241e-02
5.452000000000000313e+01,1.657074676382616282e-02
5.456000000000000227e+01,1.375107823870186548e-02
5.460000000000000142e+01,1.969072794525438333e-02
5.464000000000000057e+01,1.746960448137812108e-02
5.467999999999999972e+01,1.726970959591795501e-02
5.471999999999999886e+01,1.564713080160558614e-02
5.475999999999999801e+01,2.076244301006035034e-02
5.479999999999999716e+01,1.554581949790062936e-02
5.484000000000000341e+01,1.699221913202799555e-02
5.488000000000000256e+01,1.462016932520356083e-02
5.492000000000000171e+01,1.307146493906132662e-02
5.496000000000000085e+01,1.406806207035393545e-02
5.500000000000000000e+01,1.686128401478051084e-02
5.503999999999999915e+01,1.942970383719445568e-02
5.507999999999999829e+01,1.316354046630646354e-02
5.511999999999999744e+01,1.543209107220799327e-02
5.515999999999999659e+01,1.567901540702219126e-02
5.520000000000000284e+01,1.772256406536524068e-02
5.524000000000000199e+01,1.924183946953856444e-02
5.528000000000000114e+01,1.409769334930642722e-02
5.532000000000000028e+01,1.381974534499741912e-02
5.535999999999999943e+01,1.638656852146495868e-02
5.539999999999999858e+01,1.917779465845854611e-02
5.543999999999999773e+01,1.717729039531217666e-02
5.547999999999999687e+01,1.921943958938702665e-02
5.552000000000000313e+01,1.729340245449768887e-02
5.556000000000000227e+01,1.439388531824257848e-02
5.560000000000000142e+01,1.426427111459985415e-02
5.564000000000000057e+01,1.428419162331904212e-02
5.567999999999999972e+01,1.662480890498070629e-02
5.571999999999999886e+01,1.387422445850327452e-02
5.575999999999999801e+01,1.628930769336967357e-02
5.579999999999999716e+01,1.803038098189606309e-02
5.584000000000000341e+01,1.617760546128002921e-02
5.588000000000000256e+01,1.754393815165711246e-02
5.592000000000000171e+01,1.651430440725746782e-02
5.596000000000000085e+01,1.698182248333528210e-02
5.600000000000000000e+01,1.954543356707339613e-02
5.603999999999999915e+01,1.424773869569881217e-02
5.607999999999999829e+01,2.040459421589058825e-02
5.611999999999999744e+01,1.720279037236790293e-02
5.615999999999999659e+01,1.811850598204702706e-02
5.620000000000000284e+01,1.626391616831234649e-02
5.624000000000000199e+01,1.702949239917769114e-02
5.628000000000000114e+01,1.906761668523833386e-02
5.632000000000000028e+01,1.968305314560579722e-02
5.635999999999999943e+01,1.633030122066761458e-02
5.639999999999999858e+01,2.263527504861592363e-02
5.643999999999999773e+01,1.538899973375444478e-02
5.647999999999999687e+01,1.884859722486926029e-02
5.652000000000000313e+01,1.923841786665009268e-02
5.656000000000000227e+01,1.805581477393563769e-02
5.660000000000000142e+01,1.874470023815218156e-02
5.664000000000000057e+01,1.808576475394533395e-02
5.667999999999999972e+01,1.600414056275609870e-02
5.671999999999999886e+01,1.601860761664872929e-02
5.675999999999999801e+01,1.782969517515027233e-02
5.679999999999999716e+01,1.687047584142261497e-02
5.684000000000000341e+01,1.665972956753000722e-02
5.688000000000000256e+01,1.667338263108559052e-02
5.692000000000000171e+01,1.414133149056283345e-02
5.696000000000000085e+01,1.752362170013303799e-02
5.700000000000000000e+01,2.083084031083639806e-02
5.703999999999999915e+01,1.829817735562702316e-02
5.707999999999999829e+01,1.756213412165835708e-02
5.711999999999999744e+01,1.772429858335356281e-02
5.715999999999999659e+01,1.534075825344434658e-02
5.720000000000000284e+01,2.044377955949958428e-02
5.724000000000000199e+01,1.656247706324162280e-02
5.728000000000000114e+01,1.807144150924254455e-02
5.732000000000000028e+01,1.606142118366109608e-02
5.735999999999999943e+01,1.637209351833908422e-02
5.739999999999999858e+01,1.735636988131983305e-02
5.743999999999999773e+01,1.736716164064662851e-02
5.747999999999999687e+01,1.632960103776046057e-02
5.752000000000000313e+01,1.888548293429540004e-02
5.756000000000000227e+01,1.814698245363577378e-02
5.760000000000000142e+01,1.636012931700012857e-02
5.764000000000000057e+01,2.123629247217986848e-02
5.767999999999999972e+01,1.660405712344926316e-02
5.771999999999999886e+01,1.788616126431213579e-02
5.775999999999999801e+01,1.647282382347922680e-02
5.779999999999999716e+01,1.985081076682800039e-02
5.784000000000000341e+01,1.604129629435982127e-02
5.788000000000000256e+01,1.964347413256074815e-02
5.792000000000000171e+01,1.815444485696628488e-02
5.796000000000000085e+01,1.816256250579804596e-02
5.800000000000000000e+01,1.899401803539316549e-02
5.803999999999999915e+01,1.615675170955152215e-02
5.807999999999999829e+01,1.758673545797850152e-02
5.811999999999999744e+01,1.647101206469643586e-02
5.815999999999999659e+01,1.917333258601302409e-02
5.820000000000000284e+01,1.775772489638085053e-02
5.824000000000000199e+01,2.120830817443705718e-02
5.828000000000000114e+01,1.851953620847685694e-02
5.832000000000000028e+01,1.762738092820563540e-02
5.835999999999999943e+01,2.122707801866979826e-02
5.839999999999999858e+01,1.576758080647306173e-02
5.843999999999999773e+01,1.914226008617280969e-02
5.847999999999999687e+01,1.929742239713243615e-02
5.852000000000000313e+01,1.653253828398285746e-02
5.856000000000000227e+01,1.751082944558369700e-02
5.860000000000000142e+01,1.781510380637286659e-02
5.864000000000000057e+01,1.879297915991300430e-02
5.867999999999999972e+01,1.827329324978155603e-02
5.871999999999999886e+01,2.134704690144047581e-02
5.875999999999999801e+01,1.820657647339270213e-02
5.879999999999999716e+01,1.611404494960174544e-02
5.884000000000000341e+01,1.933690888851174322e-02
5.888000000000000256e+01,2.016379914648922661e-02
5.892000000000000171e+01,1.634868580647359099e-02
5.896000000000000085e+01,2.166721832793306116e-02
5.900000000000000000e+01,1.837576104174419578e-02
5.903999999999999915e+01,2.219652258396277375e-02
5.907999999999999829e+01,1.905438265672661918e-02
5.911999999999999744e+01,2.070356388227836270e-02
5.915999999999999659e+01,2.003163840208839128e-02
5.920000000000000284e+01,1.771241506397753379e-02
5.924000000000000199e+01,1.397049675193874976e-02
5.928000000000000114e+01,1.831407626907506289e-02
5.932000000000000028e+01,2.056115167069953037e-02
5.935999999999999943e+01,1.696833982699187671e-02
5.939999999999999858e+01,1.494753904319158500e-02
5.943999999999999773e+01,1.644530839796522897e-02
5.947999999999999687e+01,1.719419113702664453e-02
5.952000000000000313e+01,1.854180505393855996e-02
5.956000000000000227e+01,1.869132619546828508e-02
5.960000000000000142e+01,1.943957831900645222e-02
5.964000000000000057e+01,1.674370765218083715e-02
5.967999999999999972e+01,1.786587717895495378e-02
5.971999999999999886e+01,1.419630582803952518e-02
5.975999999999999801e+01,1.906143709507481659e-02
5.979999999999999716e+01,2.010810687687233228e-02
5.984000000000000341e+01,1.501541759573348130e-02
5.988000000000000256e+01,1.868203362069626935e-02
5.992000000000000171e+01,1.905426149112406792e-02
5.996000000000000085e+01,2.010008712290906052e-02
