2.003999999999999915e+01,9.161770266995443446e-02
2.007999999999999829e+01,4.716409269325654713e-02
2.012000000000000099e+01,6.179359201027324888e-02
2.016000000000000014e+01,6.718078107462584214e-02
2.019999999999999929e+01,8.081960561136260213e-02
2.023999999999999844e+01,5.517933842833307179e-02
2.028000000000000114e+01,4.637263962272728662e-02
2.032000000000000028e+01,6.529196528332813221e-02
2.035999999999999943e+01,7.661934404507445007e-02
2.039999999999999858e+01,1.995114392510270729e-02
2.044000000000000128e+01,2.797730480126010486e-02
2.048000000000000043e+01,4.260471606337540990e-02
2.051999999999999957e+01,4.765972629155147688e-02
2.055999999999999872e+01,5.931598328358281963e-02
2.060000000000000142e+01,3.400365362907820793e-02
2.064000000000000057e+01,5.589172837934743010e-02
2.067999999999999972e+01,5.929538384251607092e-02
2.071999999999999886e+01,2.176955344423647798e-02
2.076000000000000156e+01,7.534402809872942086e-02
2.080000000000000071e+01,5.795223542467195510e-02
2.083999999999999986e+01,5.937443266419794446e-02
2.087999999999999901e+01,5.353473394301486166e-02
2.092000000000000171e+01,3.482187125924675331e-02
2.096000000000000085e+01,6.628006882816041279e-02
2.100000000000000000e+01,4.822683133112354997e-02
2.103999999999999915e+01,5.393869191961087745e-02
2.107999999999999829e+01,8.704646808251596812e-02
2.112000000000000099e+01,6.767213340999812810e-02
2.116000000000000014e+01,7.305311483528997840e-02
2.119999999999999929e+01,6.292032376613214406e-02
2.123999999999999844e+01,7.985336654537351919e-02
2.128000000000000114e+01,1.056981448622377612e-01
2.132000000000000028e+01,1.133885493969929298e-01
2.135999999999999943e+01,1.121666638293564860e-01
2.139999999999999858e+01,1.195264338843758378e-01
2.144000000000000128e+01,8.727698340627497442e-02
2.148000000000000043e+01,1.154308785733964005e-01
2.151999999999999957e+01,1.541468708208986738e-01
2.155999999999999872e+01,9.251993244850129083e-02
2.160000000000000142e+01,1.127511756060293052e-01
2.164000000000000057e+01,6.729730511193886267e-02
2.167999999999999972e+01,7.135431330797889493e-02
2.171999999999999886e+01,9.488542053809899401e-02
2.176000000000000156e+01,8.969975064652270513e-02
2.180000000000000071e+01,1.023378037578578370e-01
2.183999999999999986e+01,7.800721408006461299e-02
2.187999999999999901e+01,4.377408731077250814e-02
2.192000000000000171e+01,6.862398833788505015e-02
2.196000000000000085e+01,2.679853777952890051e-02
2.200000000000000000e+01,2.854261075025521510e-02
2.203999999999999915e+01,4.712017241214488256e-02
2.207999999999999829e+01,4.721325140013615806e-02
2.212000000000000099e+01,5.786840030273782132e-02
2.216000000000000014e+01,5.234958428203061870e-02
2.219999999999999929e+01,4.055903598135860572e-02
2.223999999999999844e+01,4.329144594390105238e-02
2.228000000000000114e+01,4.503331171338681438e-02
2.232000000000000028e+01,6.954999416931360867e-02
2.235999999999999943e+01,7.459195782854308177e-02
2.239999999999999858e+01,7.270203118892443195e-02
2.244000000000000128e+01,4.803663731237392542e-02
2.248000000000000043e+01,3.162277567827936897e-02
2.251999999999999957e+01,6.934079744762110253e-02
2.255999999999999872e+01,2.090904603874578840e-02
2.260000000000000142e+01,1.901746132950136309e-02
2.264000000000000057e+01,4.353149811823204401e-02
2.267999999999999972e+01,3.635804579476661219e-02
2.271999999999999886e+01,3.677596588382235632e-02
2.276000000000000156e+01,3.950406486533677985e-02
2.280000000000000071e+01,4.718293678276429259e-02
2.283999999999999986e+01,1.294200340758192534e-02
2.287999999999999901e+01,7.747276518571488690e-03
2.292000000000000171e+01,5.173329769528656891e-02
2.296000000000000085e+01,4.521757161909473882e-02
2.300000000000000000e+01,5.256462043251462074e-02
2.303999999999999915e+01,2.261289764345250988e-02
2.307999999999999829e+01,2.731863847612979457e-02
2.312000000000000099e+01,2.674282882010055665e-02
2.316000000000000014e+01,1.890501997343432133e-02
2.319999999999999929e+01,1.304729561584884456e-02
2.323999999999999844e+01,3.656583592678660372e-02
2.328000000000000114e+01,3.433820063239526044e-02
2.332000000000000028e+01,3.178012302123799093e-02
2.335999999999999943e+01,6.883061358165881716e-02
2.339999999999999858e+01,5.174851766766248862e-02
2.344000000000000128e+01,6.173215599424065891e-02
2.348000000000000043e+01,1.593283181523317757e-02
2.351999999999999957e+01,1.832400509074072828e-02
2.355999999999999872e+01,3.787867271927317092e-02
2.360000000000000142e+01,0.000000000000000000e+00
2.364000000000000057e+01,1.790353238379082529e-02
2.367999999999999972e+01,8.187855609700251400e-04
2.371999999999999886e+01,5.800041120064874239e-02
2.376000000000000156e+01,2.969235829419577047e-02
2.380000000000000071e+01,4.363344949226127811e-02
2.383999999999999986e+01,3.677945695747614901e-02
2.387999999999999901e+01,6.128214700527177816e-02
2.392000000000000171e+01,5.409729179827890005e-02
2.396000000000000085e+01,7.133755143368708529e-02
2.400000000000000000e+01,1.794147333824880688e-02
2.403999999999999915e+01,4.574331733497614266e-02
2.407999999999999829e+01,2.337343785117155723e-02
2.412000000000000099e+01,3.170008112001281020e-02
2.416000000000000014e+01,5.289922331253717191e-02
2.419999999999999929e+01,2.491686003681480022e-02
2.423999999999999844e+01,3.225205682596922474e-02
2.428000000000000114e+01,2.209289477883969594e-02
2.432000000000000028e+01,3.681457575143964964e-03
2.435999999999999943e+01,5.128450181179661921e-02
2.439999999999999858e+01,1.306776404368265379e-02
2.444000000000000128e+01,1.313924762150736093e-02
2.448000000000000043e+01,9.975550168019918854e-04
2.451999999999999957e+01,6.019313299888765824e-03
2.455999999999999872e+01,2.094288205982601514e-02
2.460000000000000142e+01,1.111043889517856868e-02
2.464000000000000057e+01,4.913836799379499992e-02
2.467999999999999972e+01,4.491633400962523337e-02
2.471999999999999886e+01,3.904349639463945004e-02
2.476000000000000156e+01,4.736342846481873814e-02
2.480000000000000071e+01,6.360471325466129922e-02
2.483999999999999986e+01,2.736371878130374261e-02
2.487999999999999901e+01,3.733271329583600501e-02
2.492000000000000171e+01,3.244791585176812904e-02
2.496000000000000085e+01,1.534992049255379243e-02
2.500000000000000000e+01,7.713928238758016587e-02
2.503999999999999915e+01,1.647056581975512787e-02
2.507999999999999829e+01,2.412681946604607400e-02
2.512000000000000099e+01,4.531567753441336638e-02
2.516000000000000014e+01,2.293425286012581651e-02
2.519999999999999929e+01,4.313198338537178878e-02
2.523999999999999844e+01,3.164210889113451552e-02
2.528000000000000114e+01,5.117877911086690657e-02
2.532000000000000028e+01,6.015260752505672409e-02
2.535999999999999943e+01,2.555614414133453374e-02
2.539999999999999858e+01,4.311098687447151301e-02
2.544000000000000128e+01,6.726685542319739419e-02
2.548000000000000043e+01,4.488175640453858500e-02
2.551999999999999957e+01,7.926900081496916772e-02
2.555999999999999872e+01,3.905894308179218288e-02
2.560000000000000142e+01,2.690474523785530564e-02
2.564000000000000057e+01,2.465230897238220378e-02
2.567999999999999972e+01,3.263170695613470951e-02
2.571999999999999886e+01,6.503614009602819157e-02
2.576000000000000156e+01,2.944475167332073068e-02
2.580000000000000071e+01,5.953770501129908993e-02
2.583999999999999986e+01,3.087691865534293936e-02
2.587999999999999901e+01,2.367048987500361759e-02
2.592000000000000171e+01,3.230715066840590677e-02
2.596000000000000085e+01,4.061324961565235259e-02
2.600000000000000000e+01,4.924893386931822326e-02
2.603999999999999915e+01,7.812417828584367237e-04
2.607999999999999829e+01,2.657981530686776006e-02
2.612000000000000099e+01,3.983506391342830216e-02
2.616000000000000014e+01,7.256421052736686250e-02
2.619999999999999929e+01,4.818997355697465790e-02
2.623999999999999844e+01,2.876635377207800368e-02
2.628000000000000114e+01,1.924446658882334252e-02
2.632000000000000028e+01,1.533334193258775215e-02
2.635999999999999943e+01,8.733884261852792319e-02
2.639999999999999858e+01,3.193508603867244167e-02
2.644000000000000128e+01,8.677569728746065136e-02
2.648000000000000043e+01,4.589419790241597991e-02
2.651999999999999957e+01,9.611274277874777561e-02
2.655999999999999872e+01,8.328654709864889705e-02
2.660000000000000142e+01,7.244028196826469979e-02
2.664000000000000057e+01,7.380625451275237003e-02
2.667999999999999972e+01,9.035513325737949686e-02
2.671999999999999886e+01,8.511857442801799845e-02
2.676000000000000156e+01,8.153186442235277331e-02
2.680000000000000071e+01,1.050107365289469907e-01
2.683999999999999986e+01,1.123154318192229884e-01
2.687999999999999901e+01,2.196321660803689790e-01
2.692000000000000171e+01,3.035130813032034247e-01
2.696000000000000085e+01,3.401928129861266359e-01
2.700000000000000000e+01,2.979842090640215102e-01
2.703999999999999915e+01,2.280488124068799638e-01
2.707999999999999829e+01,1.676850376485397587e-01
2.712000000000000099e+01,9.906886096003801601e-02
2.716000000000000014e+01,9.415651756559660635e-02
2.719999999999999929e+01,3.709186253773767011e-02
2.723999999999999844e+01,4.868215440903432556e-02
2.728000000000000114e+01,6.951398464206262617e-02
2.732000000000000028e+01,4.776565778110152677e-02
2.735999999999999943e+01,6.133474972301050654e-02
2.739999999999999858e+01,2.308159545805838625e-02
2.744000000000000128e+01,6.206531556414762729e-02
2.748000000000000043e+01,5.384782858665774358e-02
2.751999999999999957e+01,2.978620848678924932e-02
2.755999999999999872e+01,3.609088090733635068e-02
2.760000000000000142e+01,4.437543860131391849e-02
2.764000000000000057e+01,5.496995423948392717e-02
2.767999999999999972e+01,5.005040399288335218e-02
2.771999999999999886e+01,5.470244666826264840e-02
2.776000000000000156e+01,1.974498266440609384e-02
2.780000000000000071e+01,3.264774785075536673e-02
2.783999999999999986e+01,1.848383304466711882e-02
2.787999999999999901e+01,4.062753694322083359e-02
2.792000000000000171e+01,7.069245229943169062e-02
2.796000000000000085e+01,3.210129752159000122e-02
2.800000000000000000e+01,2.552678775166457997e-02
2.803999999999999915e+01,3.347497364250582447e-02
2.807999999999999829e+01,4.967443822861178360e-02
2.812000000000000099e+01,2.197341157244829535e-02
2.816000000000000014e+01,4.378297021609451473e-02
2.819999999999999929e+01,4.809799254042315675e-02
2.823999999999999844e+01,4.515078567059154641e-02
2.828000000000000114e+01,3.791201813186668296e-02
2.832000000000000028e+01,5.212749769462575455e-02
2.835999999999999943e+01,1.353046413985161539e-02
2.839999999999999858e+01,3.731690980929281559e-02
2.844000000000000128e+01,1.258180700266913442e-02
2.848000000000000043e+01,6.772412733425672848e-02
2.851999999999999957e+01,5.355020321344672318e-02
2.855999999999999872e+01,6.281096221869132690e-02
2.860000000000000142e+01,1.925919724009409265e-02
2.864000000000000057e+01,3.545030476489885451e-02
2.867999999999999972e+01,4.470923765579153802e-02
2.871999999999999886e+01,6.122919681968757438e-02
2.876000000000000156e+01,4.540124262795361409e-02
2.880000000000000071e+01,5.861922688679026272e-02
2.883999999999999986e+01,5.236219895860853152e-02
2.887999999999999901e+01,3.521209355949959929e-02
2.892000000000000171e+01,6.526201767753220251e-02
2.896000000000000085e+01,5.438208285753527715e-02
2.900000000000000000e+01,6.231576849664359485e-02
2.903999999999999915e+01,4.318271981177345537e-02
2.907999999999999829e+01,5.243544793648799440e-02
2.912000000000000099e+01,7.852134419627436468e-02
2.916000000000000014e+01,6.334729798096135067e-02
2.919999999999999929e+01,9.735371549630938981e-02
2.923999999999999844e+01,5.049124909687364993e-02
2.928000000000000114e+01,7.723475446017137591e-02
2.932000000000000028e+01,9.044456657647167996e-02
2.935999999999999943e+01,7.064628920774536358e-02
2.939999999999999858e+01,9.804801962354391109e-02
2.944000000000000128e+01,1.277596264862236597e-01
2.948000000000000043e+01,8.683464750402009047e-02
2.951999999999999957e+01,1.234765231999999102e-01
2.955999999999999872e+01,1.314012686192678470e-01
2.960000000000000142e+01,1.300832763777499679e-01
2.964000000000000057e+01,1.733246851999434568e-01
2.967999999999999972e+01,2.046827568847429113e-01
2.971999999999999886e+01,2.347198730391189259e-01
2.976000000000000156e+01,3.294509282146563245e-01
2.980000000000000071e+01,3.631175430294816819e-01
2.983999999999999986e+01,4.080060271896302493e-01
2.987999999999999901e+01,3.726857474217997734e-01
2.992000000000000171e+01,3.802744836312550447e-01
2.996000000000000085e+01,3.238281018994743632e-01
3.000000000000000000e+01,3.172222966409535827e-01
3.003999999999999915e+01,2.934519462365655640e-01
3.007999999999999829e+01,3.178717962742692582e-01
3.012000000000000099e+01,3.343691830347719218e-01
3.016000000000000014e+01,3.214892633891656692e-01
3.019999999999999929e+01,3.792446035157931439e-01
3.023999999999999844e+01,4.072925591323957595e-01
3.028000000000000114e+01,4.571247475907784241e-01
3.032000000000000028e+01,5.142178898801097464e-01
3.035999999999999943e+01,6.330342736885133936e-01
3.039999999999999858e+01,6.930967113431268922e-01
3.044000000000000128e+01,7.934275455768529106e-01
3.048000000000000043e+01,8.330239831438069897e-01
3.051999999999999957e+01,9.805540824394732846e-01
3.055999999999999872e+01,9.907725016656069306e-01
3.060000000000000142e+01,1.000000000000000000e+00
3.064000000000000057e+01,8.884195387334168359e-01
3.067999999999999972e+01,7.299677999809586204e-01
3.071999999999999886e+01,5.708552093854186715e-01
3.076000000000000156e+01,4.714853953075585080e-01
3.080000000000000071e+01,3.282149686469877370e-01
3.083999999999999986e+01,2.994796788629815465e-01
3.087999999999999901e+01,2.809759878915238929e-01
3.092000000000000171e+01,2.284739133585965976e-01
3.096000000000000085e+01,2.142597649702354390e-01
3.100000000000000000e+01,1.752893148890711517e-01
3.103999999999999915e+01,1.650346273577878720e-01
3.107999999999999829e+01,1.775543598926968281e-01
3.112000000000000099e+01,1.468336143201105504e-01
3.116000000000000014e+01,1.180925928373835476e-01
3.119999999999999929e+01,1.160868797694529081e-01
3.123999999999999844e+01,9.922708859680634541e-02
3.128000000000000114e+01,1.041514849896559014e-01
3.132000000000000028e+01,9.257142724662111022e-02
3.135999999999999943e+01,9.881465966522125222e-02
3.139999999999999858e+01,9.713537085297697937e-02
3.144000000000000128e+01,8.423281418070507898e-02
3.148000000000000043e+01,1.195203945637267756e-01
3.151999999999999957e+01,1.109073297651133189e-01
3.155999999999999872e+01,1.584061859632070468e-01
3.160000000000000142e+01,1.672855850665737054e-01
3.164000000000000057e+01,1.365553018187223022e-01
3.167999999999999972e+01,1.460933590073914823e-01
3.171999999999999886e+01,1.005082295775203138e-01
3.176000000000000156e+01,9.354106455300097156e-02
3.180000000000000071e+01,6.511830643278321284e-02
3.183999999999999986e+01,9.775857385911074227e-02
3.187999999999999901e+01,1.082830956040107817e-01
3.192000000000000171e+01,1.917533206186279870e-01
3.196000000000000085e+01,3.164820968378455612e-01
3.200000000000000000e+01,3.296449373711094477e-01
3.203999999999999915e+01,2.668898844431917272e-01
3.207999999999999829e+01,1.605642354607328959e-01
3.211999999999999744e+01,1.684435909193821856e-01
3.215999999999999659e+01,8.489154683847606464e-02
3.220000000000000284e+01,1.063024180858063161e-01
3.224000000000000199e+01,1.036170804613675694e-01
3.228000000000000114e+01,8.706784109031709407e-02
3.232000000000000028e+01,6.853737950687815994e-02
3.235999999999999943e+01,4.703547045455965664e-02
3.239999999999999858e+01,4.896807066736484637e-02
3.243999999999999773e+01,4.099765567111107040e-02
3.247999999999999687e+01,5.019033116342780376e-02
3.252000000000000313e+01,4.683939197007726957e-02
3.256000000000000227e+01,6.659288031583193712e-02
3.260000000000000142e+01,4.277574906337760358e-02
3.264000000000000057e+01,5.097505273688140992e-02
3.267999999999999972e+01,4.002924484424898871e-02
3.271999999999999886e+01,5.647882551008753804e-02
3.275999999999999801e+01,6.566597233296153635e-02
3.279999999999999716e+01,6.098919386555618632e-02
3.284000000000000341e+01,9.096943712335756049e-02
3.288000000000000256e+01,1.143473900686667877e-01
3.292000000000000171e+01,8.194195310026858303e-02
3.296000000000000085e+01,7.528152141496716188e-02
3.300000000000000000e+01,7.093080499297535479e-02
3.303999999999999915e+01,6.657928065054947997e-02
3.307999999999999829e+01,5.067433971317691216e-02
3.311999999999999744e+01,7.371737608722288282e-02
3.315999999999999659e+01,5.153939509927496498e-02
3.320000000000000284e+01,9.801609116382928311e-02
3.324000000000000199e+01,9.795146831703419044e-02
3.328000000000000114e+01,1.830452429912975409e-01
3.332000000000000028e+01,1.555827987694727854e-01
3.335999999999999943e+01,1.683886189200110017e-01
3.339999999999999858e+01,1.178193143425222134e-01
3.343999999999999773e+01,6.922963062496485798e-02
3.347999999999999687e+01,5.793753551029796195e-02
3.352000000000000313e+01,5.522654726972333478e-02
3.356000000000000227e+01,1.917720490191567387e-02
3.360000000000000142e+01,3.395849945818470855e-02
3.364000000000000057e+01,6.689305542797435722e-02
3.367999999999999972e+01,6.153813461017904746e-02
3.371999999999999886e+01,4.264932132973602713e-02
3.375999999999999801e+01,7.096031842921940447e-02
3.379999999999999716e+01,6.824347190785387540e-02
3.384000000000000341e+01,7.212727088129063102e-02
3.388000000000000256e+01,6.907865978413796348e-02
3.392000000000000171e+01,6.041793473259705893e-02
3.396000000000000085e+01,6.462926489715482836e-02
3.400000000000000000e+01,5.794728577621098553e-02
3.403999999999999915e+01,5.720579413118612178e-02
3.407999999999999829e+01,4.458076613311735825e-02
3.411999999999999744e+01,2.634361512540363617e-02
3.415999999999999659e+01,4.210327711457524658e-02
3.420000000000000284e+01,4.729969524480158449e-02
3.424000000000000199e+01,7.262979451365701722e-02
3.428000000000000114e+01,4.085614436580579240e-02
3.432000000000000028e+01,4.902064064327175952e-02
3.435999999999999943e+01,4.959255615390556482e-02
3.439999999999999858e+01,6.369665592269935228e-02
3.443999999999999773e+01,5.964578788453640118e-02
3.447999999999999687e+01,7.605866460050764166e-02
3.452000000000000313e+01,7.794738918736432431e-02
3.456000000000000227e+01,8.181568392471427753e-02
3.460000000000000142e+01,1.068078669466705349e-01
3.464000000000000057e+01,8.426844422504016496e-02
3.467999999999999972e+01,6.238828829349608862e-02
3.471999999999999886e+01,8.275678204944805771e-02
3.475999999999999801e+01,9.487252796442761926e-02
3.479999999999999716e+01,1.056670883454604998e-01
3.484000000000000341e+01,9.962696073627579085e-02
3.488000000000000256e+01,8.467393088933834744e-02
3.492000000000000171e+01,1.126296906382663054e-01
3.496000000000000085e+01,1.105477776912952986e-01
3.500000000000000000e+01,1.269491390639115591e-01
3.503999999999999915e+01,1.938509976809421886e-01
3.507999999999999829e+01,1.901160169058986327e-01
3.511999999999999744e+01,2.596566689982762743e-01
3.515999999999999659e+01,3.255655978845524157e-01
3.520000000000000284e+01,3.515346087542261522e-01
3.524000000000000199e+01,3.768425631320144742e-01
3.528000000000000114e+01,3.872962564888990933e-01
3.532000000000000028e+01,3.568198029505875168e-01
3.535999999999999943e+01,3.692521190865764025e-01
3.539999999999999858e+01,3.348129440326289008e-01
3.543999999999999773e+01,3.142359806313193560e-01
3.547999999999999687e+01,2.210417128365426698e-01
3.552000000000000313e+01,2.139959645893875773e-01
3.556000000000000227e+01,2.006778791711120169e-01
3.560000000000000142e+01,1.708551458344562124e-01
3.564000000000000057e+01,1.433420082317198307e-01
3.567999999999999972e+01,1.121971238792144887e-01
3.571999999999999886e+01,1.028362260655036747e-01
3.575999999999999801e+01,1.037067061160746040e-01
3.579999999999999716e+01,8.180111403855784558e-02
3.584000000000000341e+01,7.606823687585753668e-02
3.588000000000000256e+01,5.218032670835137665e-02
3.592000000000000171e+01,6.691019259685514198e-02
3.596000000000000085e+01,5.061211706773623836e-02
3.600000000000000000e+01,1.945974791878926288e-02
3.603999999999999915e+01,6.125289550126890303e-02
3.607999999999999829e+01,4.462191424247777261e-02
3.611999999999999744e+01,4.152303936663806483e-02
3.615999999999999659e+01,2.456008707220431672e-02
3.620000000000000284e+01,2.112923753861914444e-02
3.624000000000000199e+01,2.925004206395214953e-02
3.628000000000000114e+01,3.935033886456971303e-02
3.632000000000000028e+01,3.426625307513510299e-02
3.635999999999999943e+01,3.413232627520094986e-02
3.639999999999999858e+01,2.442527945393587960e-02
3.643999999999999773e+01,2.197890937276079232e-02
3.647999999999999687e+01,2.811351214787709968e-02
3.652000000000000313e+01,2.929603221389286832e-02
3.656000000000000227e+01,4.566101115036101665e-02
3.660000000000000142e+01,2.142585971980242449e-02
3.664000000000000057e+01,2.953703659187878819e-02
3.667999999999999972e+01,3.104575110158326254e-02
3.671999999999999886e+01,2.727229936511740144e-02
3.675999999999999801e+01,3.967152088928648651e-02
3.679999999999999716e+01,7.385468005386318369e-02
3.684000000000000341e+01,5.786553801252285884e-02
3.688000000000000256e+01,4.979720175333382515e-02
3.692000000000000171e+01,4.997974394705798074e-02
3.696000000000000085e+01,7.029584412791839432e-02
3.700000000000000000e+01,4.737119997673307215e-02
3.703999999999999915e+01,6.471465358118533295e-02
3.707999999999999829e+01,6.291279640385134819e-02
3.711999999999999744e+01,6.936180862417362647e-02
3.715999999999999659e+01,6.194669814961778487e-02
3.720000000000000284e+01,6.179223000517605063e-02
3.724000000000000199e+01,4.117214590748980579e-02
3.728000000000000114e+01,5.124798872655071669e-02
3.732000000000000028e+01,3.392664785218772738e-02
3.735999999999999943e+01,4.433055993615044044e-02
3.739999999999999858e+01,4.054026397711365387e-02
3.743999999999999773e+01,9.484206968111276448e-02
3.747999999999999687e+01,1.511233133288553687e-01
3.752000000000000313e+01,2.308388344271470882e-01
3.756000000000000227e+01,2.382670314391138466e-01
3.760000000000000142e+01,2.034446803987040031e-01
3.764000000000000057e+01,1.956874206756340773e-01
3.767999999999999972e+01,1.367675982691287651e-01
3.771999999999999886e+01,1.174556938667616068e-01
3.775999999999999801e+01,6.480524517676816698e-02
3.779999999999999716e+01,3.525898677815091087e-02
3.784000000000000341e+01,4.664093887777046726e-02
3.788000000000000256e+01,5.340082117435628745e-02
3.792000000000000171e+01,3.837475880257176786e-02
3.796000000000000085e+01,5.272429463240851238e-02
3.800000000000000000e+01,6.443220211693666266e-02
3.803999999999999915e+01,2.827827543669894986e-02
3.807999999999999829e+01,3.536306976108209710e-02
3.811999999999999744e+01,1.604086761645335049e-02
3.815999999999999659e+01,3.731678699983730779e-02
3.820000000000000284e+01,3.746689800111764612e-02
3.824000000000000199e+01,2.243253948188030783e-02
3.828000000000000114e+01,3.083242400321607735e-02
3.832000000000000028e+01,1.909671815473363773e-02
3.835999999999999943e+01,6.248240197878700969e-02
3.839999999999999858e+01,2.070781889372278958e-02
3.843999999999999773e+01,3.768544115903663116e-02
3.847999999999999687e+01,3.551768925576643393e-02
3.852000000000000313e+01,1.849552963643206344e-02
3.856000000000000227e+01,2.424745141668493281e-02
3.860000000000000142e+01,3.626972869481466522e-02
3.864000000000000057e+01,3.376766730553934504e-02
3.867999999999999972e+01,3.786603227385125503e-02
3.871999999999999886e+01,2.744005495265540787e-02
3.875999999999999801e+01,4.176859686666916510e-02
3.879999999999999716e+01,1.582698328764417170e-02
3.884000000000000341e+01,1.034891705815468854e-02
3.888000000000000256e+01,3.754715219423692546e-02
3.892000000000000171e+01,2.018425814055506765e-02
3.896000000000000085e+01,3.186684253039726716e-02
3.900000000000000000e+01,3.760700848051484052e-02
3.903999999999999915e+01,4.067231516725280764e-03
3.907999999999999829e+01,3.126007781737093899e-02
3.911999999999999744e+01,3.963759545442391979e-02
3.915999999999999659e+01,2.391859090782193567e-02
3.920000000000000284e+01,3.163378774761162887e-02
3.924000000000000199e+01,1.921335256340190104e-02
3.928000000000000114e+01,1.471361449826158810e-02
3.932000000000000028e+01,2.737665723190844946e-02
3.935999999999999943e+01,5.951300032598347972e-02
3.939999999999999858e+01,8.933772616976524972e-02
3.943999999999999773e+01,1.330244825610483461e-01
3.947999999999999687e+01,1.743996180799355089e-01
3.952000000000000313e+01,1.619715117525190873e-01
3.956000000000000227e+01,1.700069201757134774e-01
3.960000000000000142e+01,1.720998829934129171e-01
3.964000000000000057e+01,1.395339184768191465e-01
3.967999999999999972e+01,1.294119101685611561e-01
3.971999999999999886e+01,1.054256632581377917e-01
3.975999999999999801e+01,9.299091103411256942e-02
3.979999999999999716e+01,7.065281036757728450e-02
3.984000000000000341e+01,1.143284902645121670e-01
3.988000000000000256e+01,1.385286581242521353e-01
3.992000000000000171e+01,2.228012622527223707e-01
3.996000000000000085e+01,3.555936939754102966e-01
4.000000000000000000e+01,4.560377034370347582e-01
4.003999999999999915e+01,5.370061936172590977e-01
4.007999999999999829e+01,6.011397585595368298e-01
4.011999999999999744e+01,6.124602779351800974e-01
4.015999999999999659e+01,5.521535044697863936e-01
4.020000000000000284e+01,5.030681312874125677e-01
4.024000000000000199e+01,3.935779940235469843e-01
4.028000000000000114e+01,3.071919347658731980e-01
4.032000000000000028e+01,2.026506414766919839e-01
4.035999999999999943e+01,1.535607217892916154e-01
4.039999999999999858e+01,1.186628636659729785e-01
4.043999999999999773e+01,8.277363913227829550e-02
4.047999999999999687e+01,6.338699391325486321e-02
4.052000000000000313e+01,5.522173448884055286e-02
4.056000000000000227e+01,5.662748663891797180e-02
4.060000000000000142e+01,4.119829000738121222e-02
4.064000000000000057e+01,4.392203785537625305e-02
4.067999999999999972e+01,1.693792850894030796e-02
4.071999999999999886e+01,3.385256960136152904e-02
4.075999999999999801e+01,2.575178895710978928e-03
4.079999999999999716e+01,3.302055702472660170e-02
4.084000000000000341e+01,3.177762382422674725e-02
4.088000000000000256e+01,3.284404910991772786e-02
4.092000000000000171e+01,2.862811798904510430e-02
4.096000000000000085e+01,3.332303136852416553e-02
4.100000000000000000e+01,2.415364819219412151e-02
4.103999999999999915e+01,2.224473348504718909e-02
4.107999999999999829e+01,2.759628543603191014e-02
4.111999999999999744e+01,2.271435469799846715e-02
4.115999999999999659e+01,4.357705797753226584e-02
4.120000000000000284e+01,3.572210396440689967e-02
4.124000000000000199e+01,3.182686454707595730e-02
4.128000000000000114e+01,1.736806071470822430e-02
4.132000000000000028e+01,3.789596914647125336e-02
4.135999999999999943e+01,4.290919231389689337e-02
4.139999999999999858e+01,2.481601532423082304e-02
4.143999999999999773e+01,4.699073687455217890e-02
4.147999999999999687e+01,3.483652226403097241e-02
4.152000000000000313e+01,3.456379713546088583e-02
4.156000000000000227e+01,2.273727146905500651e-02
4.160000000000000142e+01,6.108087155282650171e-02
4.164000000000000057e+01,5.717374066803352500e-02
4.167999999999999972e+01,4.732407000307462669e-02
4.171999999999999886e+01,3.285215567415106230e-02
4.175999999999999801e+01,4.478499716065064556e-02
4.179999999999999716e+01,5.407603825196194425e-02
4.184000000000000341e+01,5.280348957351722883e-02
4.188000000000000256e+01,1.456139076921082569e-02
4.192000000000000171e+01,2.648940322667090938e-02
4.196000000000000085e+01,2.884404392666053973e-02
4.200000000000000000e+01,3.383806688521592138e-02
4.203999999999999915e+01,5.335415163656041099e-02
4.207999999999999829e+01,2.368792137969852329e-02
4.211999999999999744e+01,2.174672856605007129e-02
4.215999999999999659e+01,2.310367376158016864e-03
4.220000000000000284e+01,2.413209376171716186e-02
4.224000000000000199e+01,3.010902055799571930e-02
4.228000000000000114e+01,1.264943287223924302e-02
4.232000000000000028e+01,2.753591631982408791e-02
4.235999999999999943e+01,2.393699889046880386e-02
4.239999999999999858e+01,2.297744560916574821e-02
4.243999999999999773e+01,2.762792500118212841e-02
4.247999999999999687e+01,5.274178693705967869e-02
4.252000000000000313e+01,1.745078156151777179e-02
4.256000000000000227e+01,1.648628334388801617e-02
4.260000000000000142e+01,5.380918425487719869e-02
4.264000000000000057e+01,3.138736138491905053e-02
4.267999999999999972e+01,3.603040163982896421e-02
4.271999999999999886e+01,3.110003572729255067e-02
4.275999999999999801e+01,3.309998592691733299e-02
4.279999999999999716e+01,3.476861182776200959e-02
4.284000000000000341e+01,5.260963570943424233e-02
4.288000000000000256e+01,2.588935110725745434e-02
4.292000000000000171e+01,1.138056708204734750e-02
4.296000000000000085e+01,2.162611213165342716e-02
4.300000000000000000e+01,3.121024934540953324e-02
4.303999999999999915e+01,1.867813559440729965e-02
4.307999999999999829e+01,3.519131374863855577e-02
4.311999999999999744e+01,3.090853524326157148e-02
4.315999999999999659e+01,2.827486303052128766e-02
4.320000000000000284e+01,6.495602945136036768e-03
4.324000000000000199e+01,2.399393645698737546e-02
4.328000000000000114e+01,4.248122186469498879e-02
4.332000000000000028e+01,4.347328637566923171e-02
4.335999999999999943e+01,4.182347986045220622e-02
4.339999999999999858e+01,2.696941708997041900e-02
4.343999999999999773e+01,2.267645894372176396e-02
4.347999999999999687e+01,2.868719547413485244e-03
4.352000000000000313e+01,4.049265757070729527e-02
4.356000000000000227e+01,2.563346875876233721e-02
4.360000000000000142e+01,4.708118690827330782e-02
4.364000000000000057e+01,2.825853042753046981e-02
4.367999999999999972e+01,4.145180902256932060e-02
4.371999999999999886e+01,2.361679485602087569e-02
4.375999999999999801e+01,4.604957418848083794e-02
4.379999999999999716e+01,8.003366529115114869e-02
4.384000000000000341e+01,1.097254912259477272e-01
4.388000000000000256e+01,1.192814750547864788e-01
4.392000000000000171e+01,1.159632535665060804e-01
4.396000000000000085e+01,7.600546225950616241e-02
4.400000000000000000e+01,6.674329361262422433e-02
4.403999999999999915e+01,2.018140256129359600e-02
4.407999999999999829e+01,4.326391940193365093e-02
4.411999999999999744e+01,2.145499713431913216e-02
4.415999999999999659e+01,4.255444610970479657e-02
4.420000000000000284e+01,4.252781504528227452e-02
4.424000000000000199e+01,3.985927311153820984e-02
4.428000000000000114e+01,3.784956331555318354e-02
4.432000000000000028e+01,3.517838591902307244e-02
4.435999999999999943e+01,2.425402602919329159e-02
4.439999999999999858e+01,3.313281278913281919e-02
4.443999999999999773e+01,5.191250993339504433e-02
4.447999999999999687e+01,3.042179441532491535e-02
4.452000000000000313e+01,3.005451804112279843e-02
4.456000000000000227e+01,5.609187070874824266e-02
4.460000000000000142e+01,5.176103973528271840e-02
4.464000000000000057e+01,3.884693910934480104e-02
4.467999999999999972e+01,4.177507867405865633e-02
4.471999999999999886e+01,5.856500972749358741e-02
4.475999999999999801e+01,5.125816505008255058e-02
4.479999999999999716e+01,7.992809852077313593e-02
4.484000000000000341e+01,1.478755531466458550e-01
4.488000000000000256e+01,1.445255757092335502e-01
4.492000000000000171e+01,1.316020924965497774e-01
4.496000000000000085e+01,8.864048382512595969e-02
4.500000000000000000e+01,9.287817662819505826e-02
4.503999999999999915e+01,5.981610175053150846e-02
4.507999999999999829e+01,5.777967511641218107e-02
4.511999999999999744e+01,4.055846746094053656e-02
4.515999999999999659e+01,4.413059549070182802e-02
4.520000000000000284e+01,3.713898162239263195e-02
4.524000000000000199e+01,2.717533712666468648e-02
4.528000000000000114e+01,3.668472495576290127e-02
4.532000000000000028e+01,4.289200405352644463e-02
4.535999999999999943e+01,3.721523608176122155e-02
4.539999999999999858e+01,3.912881365639360454e-02
4.543999999999999773e+01,7.272817213873440656e-02
4.547999999999999687e+01,5.912550856438202745e-02
4.552000000000000313e+01,5.047258924876767139e-02
4.556000000000000227e+01,4.874985927171897326e-02
4.560000000000000142e+01,6.617007264927257659e-02
4.564000000000000057e+01,8.028816280708039876e-02
4.567999999999999972e+01,4.654407288931194236e-02
4.571999999999999886e+01,3.491359122931007863e-02
4.575999999999999801e+01,5.628917391585838703e-02
4.579999999999999716e+01,4.234540140257721935e-02
4.584000000000000341e+01,3.929269933226030992e-02
4.588000000000000256e+01,4.482054452116424753e-02
4.592000000000000171e+01,3.483349798587533769e-02
4.596000000000000085e+01,3.738788886946253776e-02
4.600000000000000000e+01,4.753259813367695374e-02
4.603999999999999915e+01,2.169779236812715423e-02
4.607999999999999829e+01,2.259762130626630922e-02
4.611999999999999744e+01,3.240806111913116516e-02
4.615999999999999659e+01,5.211933344110986771e-02
4.620000000000000284e+01,2.099773180752590937e-02
4.624000000000000199e+01,4.862798236930385848e-02
4.628000000000000114e+01,2.608550431704279374e-02
4.632000000000000028e+01,4.183025696562368834e-02
4.635999999999999943e+01,3.479845936855680694e-02
4.639999999999999858e+01,4.096822823242740608e-02
4.643999999999999773e+01,4.185539076464609570e-02
4.647999999999999687e+01,3.448927481784284238e-02
4.652000000000000313e+01,1.886987858096627474e-02
4.656000000000000227e+01,2.173323326983263998e-02
4.660000000000000142e+01,1.667337852833619682e-02
4.664000000000000057e+01,2.415493041784275846e-02
4.667999999999999972e+01,3.559595060015822293e-02
4.671999999999999886e+01,4.868591589153896393e-02
4.675999999999999801e+01,4.064968523582420529e-02
4.679999999999999716e+01,4.020373673970920742e-02
4.684000000000000341e+01,3.282479139236272464e-02
4.688000000000000256e+01,4.953984867317236251e-02
4.692000000000000171e+01,4.446855379905472611e-02
4.696000000000000085e+01,6.118073655829812940e-02
4.700000000000000000e+01,2.540963673188565905e-02
4.703999999999999915e+01,3.023625638008292996e-02
4.707999999999999829e+01,5.387567789216855113e-02
4.711999999999999744e+01,3.691449273071873566e-02
4.715999999999999659e+01,3.381498858385687672e-02
4.720000000000000284e+01,4.424708915871849307e-02
4.724000000000000199e+01,3.751386583562629079e-02
4.728000000000000114e+01,3.573030708501210434e-02
4.732000000000000028e+01,3.526559179587962500e-02
4.735999999999999943e+01,3.876031401168280460e-02
4.739999999999999858e+01,3.697238643060135610e-02
4.743999999999999773e+01,2.957173275977060395e-02
4.747999999999999687e+01,3.735304354236965163e-02
4.752000000000000313e+01,4.645318873119357039e-02
4.756000000000000227e+01,3.706769760640005185e-02
4.760000000000000142e+01,5.375662340171726700e-02
4.764000000000000057e+01,4.997946237043525419e-02
4.767999999999999972e+01,6.402485259183157695e-02
4.771999999999999886e+01,4.407109861018562030e-02
4.775999999999999801e+01,3.566847710466489185e-02
4.779999999999999716e+01,6.423272136383299802e-02
4.784000000000000341e+01,6.407900769581559297e-02
4.788000000000000256e+01,5.369150527109935178e-02
4.792000000000000171e+01,4.858371292385245399e-02
4.796000000000000085e+01,2.201959581615586109e-02
4.800000000000000000e+01,4.364486779953954260e-02
4.803999999999999915e+01,4.909500310938168244e-02
4.807999999999999829e+01,3.638955304375177807e-02
4.811999999999999744e+01,5.635998599082856636e-02
4.815999999999999659e+01,3.738013758610014142e-02
4.820000000000000284e+01,3.622281689038248098e-02
4.824000000000000199e+01,4.727675590180007575e-02
4.828000000000000114e+01,3.390368532803841872e-02
4.832000000000000028e+01,2.449000879397977490e-02
4.835999999999999943e+01,5.633414093346220813e-02
4.839999999999999858e+01,3.470470365505137766e-02
4.843999999999999773e+01,5.202255005538668903e-02
4.847999999999999687e+01,5.877650605143951851e-02
4.852000000000000313e+01,4.869515467770815093e-02
4.856000000000000227e+01,5.808668712259110189e-02
4.860000000000000142e+01,6.549626025718022215e-02
4.864000000000000057e+01,3.824649857091919070e-02
4.867999999999999972e+01,4.928386073346975593e-02
4.871999999999999886e+01,3.259344857114426092e-02
4.875999999999999801e+01,5.022926285376944078e-02
4.879999999999999716e+01,2.495387302600948418e-02
4.884000000000000341e+01,2.344232260307569857e-02
4.888000000000000256e+01,1.730820433798306579e-02
4.892000000000000171e+01,3.592814530105332971e-02
4.896000000000000085e+01,5.553678099068620061e-02
4.900000000000000000e+01,4.807777864170980492e-02
4.903999999999999915e+01,4.985932944252276233e-02
4.907999999999999829e+01,5.626038883668911528e-02
4.911999999999999744e+01,3.361335786821308819e-02
4.915999999999999659e+01,4.496246075236092626e-02
4.920000000000000284e+01,6.489196057846620402e-02
4.924000000000000199e+01,5.907410942690685673e-02
4.928000000000000114e+01,4.038181027734542849e-02
4.932000000000000028e+01,4.149243501823565716e-02
4.935999999999999943e+01,6.702702458391064655e-02
4.939999999999999858e+01,5.988269180963866345e-02
4.943999999999999773e+01,5.966837270195009257e-02
4.947999999999999687e+01,4.459914965012359150e-02
4.952000000000000313e+01,5.065313936074467005e-02
4.956000000000000227e+01,3.789132772336689658e-02
4.960000000000000142e+01,6.473689620787201338e-02
4.964000000000000057e+01,5.758323355886929562e-02
4.967999999999999972e+01,4.679719029211998338e-02
4.971999999999999886e+01,6.439598933245137269e-02
4.975999999999999801e+01,7.374136138754890102e-02
4.979999999999999716e+01,6.262054881927349437e-02
4.984000000000000341e+01,6.008010421613384916e-02
4.988000000000000256e+01,5.951853613081481420e-02
4.992000000000000171e+01,5.169375726149609551e-02
4.996000000000000085e+01,6.499217123305990607e-02
5.000000000000000000e+01,6.904692390764209653e-02
5.003999999999999915e+01,6.022719417424639982e-02
5.007999999999999829e+01,7.913214148484265520e-02
5.011999999999999744e+01,7.427014486552332984e-02
5.015999999999999659e+01,7.138701208666517473e-02
5.020000000000000284e+01,8.236542268249129328e-02
5.024000000000000199e+01,7.782874596057724748e-02
5.028000000000000114e+01,9.771599240926653884e-02
5.032000000000000028e+01,5.950853976421262986e-02
5.035999999999999943e+01,7.609185899447200307e-02
5.039999999999999858e+01,9.366380775344469722e-02
5.043999999999999773e+01,1.330190765843099754e-01
5.047999999999999687e+01,1.241818735316218975e-01
5.052000000000000313e+01,9.850927255658140091e-02
5.056000000000000227e+01,1.500724991648937079e-01
5.060000000000000142e+01,1.366094498840263738e-01
5.064000000000000057e+01,1.426191902471023454e-01
5.067999999999999972e+01,1.819648466792239960e-01
5.071999999999999886e+01,2.051352450973627228e-01
5.075999999999999801e+01,2.012379257906322105e-01
5.079999999999999716e+01,1.745638552115524322e-01
5.084000000000000341e+01,2.244654505748395201e-01
5.088000000000000256e+01,2.291452262803783946e-01
5.092000000000000171e+01,2.173196604348641980e-01
5.096000000000000085e+01,1.929496450090040227e-01
5.100000000000000000e+01,1.926734456730093692e-01
5.103999999999999915e+01,1.729212290164892085e-01
5.107999999999999829e+01,1.746222289732264621e-01
5.111999999999999744e+01,1.545366866146430096e-01
5.115999999999999659e+01,1.192660897659512387e-01
5.120000000000000284e+01,1.371358543514282213e-01
5.124000000000000199e+01,1.342092946338699633e-01
5.128000000000000114e+01,9.497290815700572264e-02
5.132000000000000028e+01,1.161385162810460447e-01
5.135999999999999943e+01,1.013243685054908000e-01
5.139999999999999858e+01,8.089731534610127006e-02
5.143999999999999773e+01,8.555428180045183961e-02
5.147999999999999687e+01,8.690886062155771252e-02
5.152000000000000313e+01,7.142799624402695891e-02
5.156000000000000227e+01,8.664241223790634938e-02
5.160000000000000142e+01,9.195294552912330888e-02
5.164000000000000057e+01,8.273855156124186594e-02
5.167999999999999972e+01,9.365704911359466756e-02
5.171999999999999886e+01,8.245890270304326308e-02
5.175999999999999801e+01,9.238386763606283580e-02
5.179999999999999716e+01,9.207486632934995530e-02
5.184000000000000341e+01,7.195973699927105116e-02
5.188000000000000256e+01,6.834667083422447942e-02
5.192000000000000171e+01,9.113790047755446211e-02
5.196000000000000085e+01,8.092001739183696252e-02
5.200000000000000000e+01,9.017486237431655838e-02
5.203999999999999915e+01,8.655513439624995531e-02
5.207999999999999829e+01,8.359388540092629882e-02
5.211999999999999744e+01,9.020312458625014129e-02
5.215999999999999659e+01,8.459793434150009173e-02
5.220000000000000284e+01,6.578808941018525480e-02
5.224000000000000199e+01,6.942163201707791942e-02
5.228000000000000114e+01,8.592640037854441803e-02
5.232000000000000028e+01,8.163479553858882243e-02
5.235999999999999943e+01,8.493322112209340802e-02
5.239999999999999858e+01,1.040735373633364241e-01
5.243999999999999773e+01,1.037377728972559976e-01
5.247999999999999687e+01,1.004296500034598527e-01
5.252000000000000313e+01,1.024010289162262805e-01
5.256000000000000227e+01,9.545870510653685359e-02
5.260000000000000142e+01,1.003973691175708977e-01
5.264000000000000057e+01,7.166674064805794719e-02
5.267999999999999972e+01,6.702985220425329571e-02
5.271999999999999886e+01,8.582655301147924798e-02
5.275999999999999801e+01,7.557499865038862230e-02
5.279999999999999716e+01,7.159315686394057687e-02
5.284000000000000341e+01,4.813521625965540285e-02
5.288000000000000256e+01,5.339204937120625716e-02
5.292000000000000171e+01,5.171561035171831633e-02
5.296000000000000085e+01,7.512312212601858497e-02
5.300000000000000000e+01,5.066812240234283560e-02
5.303999999999999915e+01,7.143161324095677334e-02
5.307999999999999829e+01,5.093407859575552893e-02
5.311999999999999744e+01,4.726862545480756128e-02
5.315999999999999659e+01,5.053301755266625950e-02
5.320000000000000284e+01,5.313553999657684435e-02
5.324000000000000199e+01,2.999053035768633330e-02
5.328000000000000114e+01,3.159938254236011046e-02
5.332000000000000028e+01,4.046814720344814320e-02
5.335999999999999943e+01,4.372391773918497121e-02
5.339999999999999858e+01,5.027870334747517461e-02
5.343999999999999773e+01,6.310317255358606492e-02
5.347999999999999687e+01,3.895756642893940386e-02
5.352000000000000313e+01,6.993266358836151830e-02
5.356000000000000227e+01,4.182269151344029934e-02
5.360000000000000142e+01,2.889440680109014656e-02
5.364000000000000057e+01,4.798160621273184212e-02
5.367999999999999972e+01,5.716482874704019446e-02
5.371999999999999886e+01,2.904789060246973711e-02
5.375999999999999801e+01,4.515918697582480684e-02
5.379999999999999716e+01,4.113419210248368124e-02
5.384000000000000341e+01,4.535930960732873635e-02
5.388000000000000256e+01,5.090297356123159311e-02
5.392000000000000171e+01,6.106592697127281866e-02
5.396000000000000085e+01,4.713168810865434044e-02
5.400000000000000000e+01,3.715658611644508807e-02
5.403999999999999915e+01,3.675188537441775871e-02
5.407999999999999829e+01,3.469505168987295496e-02
5.411999999999999744e+01,3.494697703351741513e-02
5.415999999999999659e+01,4.674974508506883619e-02
5.420000000000000284e+01,3.973650170666314513e-02
5.424000000000000199e+01,5.516655531389679651e-02
5.428000000000000114e+01,5.112044490544419284e-02
5.432000000000000028e+01,2.825831763388050172e-02
5.435999999999999943e+01,2.750940743298876945e-02
5.439999999999999858e+01,4.062185044638796233e-02
5.443999999999999773e+01,3.689871805440109176e-02
5.447999999999999687e+01,4.538656284553657660e-02
5.452000000000000313e+01,4.727113754539191692e-02
5.456000000000000227e+01,4.750355757011321539e-02
5.460000000000000142e+01,5.829657693573697674e-02
5.464000000000000057e+01,5.621490562247601769e-02
5.467999999999999972e+01,5.314122316455328898e-02
5.471999999999999886e+01,4.115374018740130396e-02
5.475999999999999801e+01,5.821102028848438442e-02
5.479999999999999716e+01,3.862823977592817065e-02
5.484000000000000341e+01,5.106088905582294168e-02
5.488000000000000256e+01,3.873615544525027543e-02
5.492000000000000171e+01,4.324342184161941022e-02
5.496000000000000085e+01,4.675866441596741863e-02
5.500000000000000000e+01,6.017433925707781767e-02
5.503999999999999915e+01,4.025068743637266050e-02
5.507999999999999829e+01,3.979962423290934331e-02
5.511999999999999744e+01,4.132720029953797225e-02
5.515999999999999659e+01,3.856199867075687376e-02
5.520000000000000284e+01,5.328893333518446018e-02
5.524000000000000199e+01,6.273286323665995534e-02
5.528000000000000114e+01,4.279834939176976882e-02
5.532000000000000028e+01,6.940252080649421396e-02
5.535999999999999943e+01,6.068690418011293136e-02
5.539999999999999858e+01,4.635820106476085112e-02
5.543999999999999773e+01,7.031631573053992446e-02
5.547999999999999687e+01,6.984709482189409291e-02
5.552000000000000313e+01,5.617306890942023317e-02
5.556000000000000227e+01,6.494228021789069660e-02
5.560000000000000142e+01,4.994429948240851347e-02
5.564000000000000057e+01,5.540910545488874489e-02
5.567999999999999972e+01,5.295029088834649067e-02
5.571999999999999886e+01,6.402269528958705325e-02
5.575999999999999801e+01,5.066775143904322237e-02
5.579999999999999716e+01,5.216432086143223124e-02
5.584000000000000341e+01,6.026053970037327512e-02
5.588000000000000256e+01,4.590985174525490792e-02
5.592000000000000171e+01,4.608059714810211482e-02
5.596000000000000085e+01,5.945247617061085593e-02
5.600000000000000000e+01,4.707669814777427214e-02
5.603999999999999915e+01,6.869674247672687140e-02
5.607999999999999829e+01,5.994808339284704579e-02
5.611999999999999744e+01,5.383816726640132388e-02
5.615999999999999659e+01,4.640609850458032870e-02
5.620000000000000284e+01,2.906993876919005543e-02
5.624000000000000199e+01,3.747773028500252235e-02
5.628000000000000114e+01,4.753403406860413905e-02
5.632000000000000028e+01,3.382311320932873677e-02
5.635999999999999943e+01,4.189524438634398967e-02
5.639999999999999858e+01,4.072342449815927884e-02
5.643999999999999773e+01,3.063772621553650585e-02
5.647999999999999687e+01,1.989000977275399984e-02
5.652000000000000313e+01,2.498399744941925266e-02
5.656000000000000227e+01,4.162871917090962132e-02
5.660000000000000142e+01,4.605881043562471550e-02
5.664000000000000057e+01,4.421561010515039775e-02
5.667999999999999972e+01,3.741941429568808319e-02
5.671999999999999886e+01,3.491230668695537859e-02
5.675999999999999801e+01,4.527622199504379580e-02
5.679999999999999716e+01,4.507587020016589480e-02
5.684000000000000341e+01,3.728191982758909812e-02
5.688000000000000256e+01,4.499958279318470866e-02
5.692000000000000171e+01,5.370558008612125178e-02
5.696000000000000085e+01,4.854655821375439273e-02
5.700000000000000000e+01,4.800668634657086903e-02
5.703999999999999915e+01,3.756268547373926847e-02
5.707999999999999829e+01,4.527088473832861781e-02
5.711999999999999744e+01,3.284264243895864549e-02
5.715999999999999659e+01,5.275979937287381821e-02
5.720000000000000284e+01,6.112244764786946283e-02
5.724000000000000199e+01,5.066894685300437490e-02
5.728000000000000114e+01,5.440674335854540217e-02
5.732000000000000028e+01,6.342382434448509687e-02
5.735999999999999943e+01,6.748787906356353006e-02
5.739999999999999858e+01,4.646436231412542917e-02
5.743999999999999773e+01,6.504787072050274843e-02
5.747999999999999687e+01,5.326261232724975592e-02
5.752000000000000313e+01,6.656109826792969142e-02
5.756000000000000227e+01,5.048103723231608941e-02
5.760000000000000142e+01,5.321330175408210683e-02
5.764000000000000057e+01,4.274066528629785061e-02
5.767999999999999972e+01,4.909990386291145092e-02
5.771999999999999886e+01,4.918580194594873722e-02
5.775999999999999801e+01,4.794947495155613137e-02
5.779999999999999716e+01,2.459622871445195022e-02
5.784000000000000341e+01,4.481088330440772399e-02
5.788000000000000256e+01,3.762742332053823496e-02
5.792000000000000171e+01,4.562545510569251256e-02
5.796000000000000085e+01,4.140879485832505563e-02
5.800000000000000000e+01,3.818042003991176103e-02
5.803999999999999915e+01,3.693055228484089930e-02
5.807999999999999829e+01,2.313591258228112763e-02
5.811999999999999744e+01,4.036633072052096122e-02
5.815999999999999659e+01,4.340160088010313472e-02
5.820000000000000284e+01,3.323194469541598112e-02
5.824000000000000199e+01,3.857384027315471225e-02
5.828000000000000114e+01,4.127318930254317980e-02
5.832000000000000028e+01,3.868939411802450878e-02
5.835999999999999943e+01,3.280289979942632717e-02
5.839999999999999858e+01,3.516631139915869786e-02
5.843999999999999773e+01,4.148865884259891196e-02
5.847999999999999687e+01,3.559629070984973720e-02
5.852000000000000313e+01,2.112002448980477773e-02
5.856000000000000227e+01,4.228983893437889691e-02
5.860000000000000142e+01,3.672165516982967004e-02
5.864000000000000057e+01,4.072366438455542192e-02
5.867999999999999972e+01,3.086057655876900396e-02
5.871999999999999886e+01,2.660678430839683722e-02
5.875999999999999801e+01,4.182541405854103139e-02
5.879999999999999716e+01,4.218871788957949398e-02
5.884000000000000341e+01,3.495833259035075608e-02
5.888000000000000256e+01,2.574552254062764320e-02
5.892000000000000171e+01,4.128631895622631581e-02
5.896000000000000085e+01,3.074924982686560657e-02
5.900000000000000000e+01,5.222742214061411314e-02
5.903999999999999915e+01,2.947362878757545449e-02
5.907999999999999829e+01,2.619224294664230374e-02
5.911999999999999744e+01,3.941259247044478359e-02
5.915999999999999659e+01,4.470916389375587802e-02
5.920000000000000284e+01,4.406240229640343009e-02
5.924000000000000199e+01,4.572416791266576547e-02
5.928000000000000114e+01,3.550125621352447775e-02
5.932000000000000028e+01,3.451843222397181499e-02
5.935999999999999943e+01,4.046517276026434518e-02
5.939999999999999858e+01,4.740013533871337975e-02
5.943999999999999773e+01,4.740153058475105735e-02
5.947999999999999687e+01,2.693630293298564585e-02
5.952000000000000313e+01,3.485547388071676134e-02
5.956000000000000227e+01,4.673352996271745025e-02
5.960000000000000142e+01,3.253369152293687089e-02
5.964000000000000057e+01,4.836861865856459386e-02
5.967999999999999972e+01,2.591289182322056156e-02
5.971999999999999886e+01,4.141371450469837068e-02
5.975999999999999801e+01,2.654566715661813708e-02
5.979999999999999716e+01,5.095446363050983724e-02
5.984000000000000341e+01,5.093572712537791647e-02
5.988000000000000256e+01,4.530370129352256914e-02
5.992000000000000171e+01,5.221248082361722859e-02
5.996000000000000085e+01,4.954707362312736618e-02
