2.003999999999999915e+01,2.302036533516026162e-02
2.007999999999999829e+01,3.019870816054248328e-02
2.012000000000000099e+01,3.146185729858934355e-02
2.016000000000000014e+01,3.075340238683389044e-02
2.019999999999999929e+01,2.643017997946705763e-02
2.023999999999999844e+01,3.213043947629656838e-02
2.028000000000000114e+01,2.936860004790215958e-02
2.032000000000000028e+01,3.531571083797085953e-02
2.035999999999999943e+01,2.655670300236737114e-02
2.039999999999999858e+01,2.987512731347345338e-02
2.044000000000000128e+01,2.621029600681876182e-02
2.048000000000000043e+01,2.969340728368270385e-02
2.051999999999999957e+01,3.375180968354034999e-02
2.055999999999999872e+01,3.353817255101707029e-02
2.060000000000000142e+01,2.913465324545363999e-02
2.064000000000000057e+01,2.892138061762827492e-02
2.067999999999999972e+01,2.394311733323695526e-02
2.071999999999999886e+01,2.644142452125144288e-02
2.076000000000000156e+01,1.908093522235174144e-02
2.080000000000000071e+01,2.634477246871934700e-02
2.083999999999999986e+01,2.637887195421194028e-02
2.087999999999999901e+01,2.657746492666463942e-02
2.092000000000000171e+01,1.708157458240888021e-02
2.096000000000000085e+01,2.648223063255561796e-02
2.100000000000000000e+01,2.963904342781894033e-02
2.103999999999999915e+01,2.014367777483121527e-02
2.107999999999999829e+01,2.576558204891725434e-02
2.112000000000000099e+01,2.629385461550660941e-02
2.116000000000000014e+01,2.476834564276919962e-02
2.119999999999999929e+01,2.644717490549671271e-02
2.123999999999999844e+01,2.410042587453566781e-02
2.128000000000000114e+01,2.397211592762081220e-02
2.132000000000000028e+01,2.540497922188560131e-02
2.135999999999999943e+01,3.258907979560024537e-02
2.139999999999999858e+01,3.295422243700280029e-02
2.144000000000000128e+01,3.479837786329291471e-02
2.148000000000000043e+01,2.505840206123712693e-02
2.151999999999999957e+01,2.435598578482325166e-02
2.155999999999999872e+01,3.285544452697064521e-02
2.160000000000000142e+01,2.615581184060074976e-02
2.164000000000000057e+01,2.381072274317969084e-02
2.167999999999999972e+01,3.157124581097078830e-02
2.171999999999999886e+01,2.265382872311635931e-02
2.176000000000000156e+01,2.425281291989134225e-02
2.180000000000000071e+01,1.886851517481858212e-02
2.183999999999999986e+01,2.728694250904304536e-02
2.187999999999999901e+01,2.675029114705789607e-02
2.192000000000000171e+01,3.344371262960724178e-02
2.196000000000000085e+01,2.699198905496320855e-02
2.200000000000000000e+01,1.832215141484034096e-02
2.203999999999999915e+01,3.109574140563408154e-02
2.207999999999999829e+01,1.322450156428169217e-02
2.212000000000000099e+01,2.147970141934972196e-02
2.216000000000000014e+01,2.266945423085076419e-02
2.219999999999999929e+01,1.646512669023255868e-02
2.223999999999999844e+01,3.137559037502734433e-02
2.228000000000000114e+01,2.837573106116798166e-02
2.232000000000000028e+01,2.973040217421383039e-02
2.235999999999999943e+01,3.363212400119823531e-02
2.239999999999999858e+01,3.605514722253250898e-02
2.244000000000000128e+01,4.718707962772367842e-02
2.248000000000000043e+01,4.574896384567957858e-02
2.251999999999999957e+01,4.299646340242895687e-02
2.255999999999999872e+01,5.560767864018734824e-02
2.260000000000000142e+01,5.006209028465284649e-02
2.264000000000000057e+01,5.774410458860843726e-02
2.267999999999999972e+01,5.630670844444014833e-02
2.271999999999999886e+01,5.084370535978266492e-02
2.276000000000000156e+01,5.072112178835710278e-02
2.280000000000000071e+01,4.928414813606006584e-02
2.283999999999999986e+01,5.778844792892021826e-02
2.287999999999999901e+01,4.287781815979292699e-02
2.292000000000000171e+01,3.938730669176174898e-02
2.296000000000000085e+01,4.271605727018779747e-02
2.300000000000000000e+01,3.881502827889479063e-02
2.303999999999999915e+01,3.655729737013230229e-02
2.307999999999999829e+01,2.624820400738906573e-02
2.312000000000000099e+01,2.226542079268015173e-02
2.316000000000000014e+01,3.101728137089765705e-02
2.319999999999999929e+01,2.235174994446178717e-02
2.323999999999999844e+01,2.025900074408249624e-02
2.328000000000000114e+01,2.128839138522118507e-02
2.332000000000000028e+01,1.558094506420943000e-02
2.335999999999999943e+01,1.858239011958394069e-02
2.339999999999999858e+01,1.731174067168999089e-02
2.344000000000000128e+01,1.768438156394802271e-02
2.348000000000000043e+01,1.526377280887641387e-02
2.351999999999999957e+01,9.885597365080168661e-03
2.355999999999999872e+01,1.527026276594561395e-02
2.360000000000000142e+01,1.301434631563122557e-02
2.364000000000000057e+01,1.675609741394467819e-02
2.367999999999999972e+01,9.406623502301857467e-03
2.371999999999999886e+01,1.668141961656299105e-02
2.376000000000000156e+01,2.025922119446501787e-02
2.380000000000000071e+01,1.011673516518236254e-02
2.383999999999999986e+01,1.328398670183272845e-02
2.387999999999999901e+01,6.510223227437734322e-03
2.392000000000000171e+01,1.230677256829268949e-02
2.396000000000000085e+01,2.032170911925765960e-02
2.400000000000000000e+01,1.527361926047738315e-02
2.403999999999999915e+01,1.137585932680980350e-02
2.407999999999999829e+01,1.856956270702617498e-02
2.412000000000000099e+01,1.689030216729167991e-02
2.416000000000000014e+01,1.406094148975585954e-02
2.419999999999999929e+01,1.607902365141776826e-02
2.423999999999999844e+01,1.661837159248821111e-02
2.428000000000000114e+01,1.354287306568603688e-02
2.432000000000000028e+01,1.638287079188967613e-02
2.435999999999999943e+01,1.527938796743070517e-02
2.439999999999999858e+01,1.006810755091401555e-02
2.444000000000000128e+01,1.175821866763260629e-02
2.448000000000000043e+01,1.657044639873360078e-02
2.451999999999999957e+01,1.111301419666919574e-02
2.455999999999999872e+01,1.633624534974166889e-02
2.460000000000000142e+01,1.728735877240995811e-02
2.464000000000000057e+01,1.717052090000121406e-02
2.467999999999999972e+01,1.195998241292674409e-02
2.471999999999999886e+01,1.603341591320165543e-02
2.476000000000000156e+01,1.501314725033513035e-02
2.480000000000000071e+01,7.748961779989146578e-03
2.483999999999999986e+01,1.231564811521512412e-02
2.487999999999999901e+01,9.241727823649938112e-03
2.492000000000000171e+01,1.906673352570274760e-02
2.496000000000000085e+01,1.927933584660248764e-02
2.500000000000000000e+01,9.057952676325453298e-03
2.503999999999999915e+01,1.058527930685264525e-02
2.507999999999999829e+01,1.548118533893009553e-02
2.512000000000000099e+01,1.577633104119699481e-02
2.516000000000000014e+01,1.122424123867972294e-02
2.519999999999999929e+01,1.004072851499915840e-02
2.523999999999999844e+01,1.633369877484699625e-02
2.528000000000000114e+01,1.030304105154550634e-02
2.532000000000000028e+01,1.314555303413265930e-02
2.535999999999999943e+01,1.138730004148211239e-02
2.539999999999999858e+01,1.480509919520795956e-02
2.544000000000000128e+01,1.608687583257809722e-02
2.548000000000000043e+01,1.424673157641151086e-02
2.551999999999999957e+01,9.366823786049057257e-03
2.555999999999999872e+01,1.722151333434168360e-02
2.560000000000000142e+01,1.332767564063235335e-02
2.564000000000000057e+01,1.411693664640076458e-02
2.567999999999999972e+01,1.507059823058678853e-02
2.571999999999999886e+01,1.429902254664501028e-02
2.576000000000000156e+01,1.270594828970203309e-02
2.580000000000000071e+01,1.505654643307815545e-02
2.583999999999999986e+01,1.116320763879056176e-02
2.587999999999999901e+01,1.047411649413902864e-02
2.592000000000000171e+01,1.676854636950075514e-02
2.596000000000000085e+01,1.303976283987021145e-02
2.600000000000000000e+01,1.177580143495489048e-02
2.603999999999999915e+01,1.166213124325950375e-02
2.607999999999999829e+01,1.056264001750290178e-02
2.612000000000000099e+01,1.603587527267739607e-02
2.616000000000000014e+01,1.074647004946295559e-02
2.619999999999999929e+01,9.072096949874720526e-03
2.623999999999999844e+01,9.040959993788698357e-03
2.628000000000000114e+01,5.723570392251796021e-03
2.632000000000000028e+01,1.111501487349992462e-02
2.635999999999999943e+01,1.445257716450028783e-02
2.639999999999999858e+01,1.072461034272106581e-02
2.644000000000000128e+01,1.389799634228443617e-02
2.648000000000000043e+01,1.082743301637844290e-02
2.651999999999999957e+01,1.334369082608191301e-02
2.655999999999999872e+01,1.068405349836194264e-02
2.660000000000000142e+01,1.648677043302632095e-02
2.664000000000000057e+01,1.358079093791231089e-02
2.667999999999999972e+01,9.442504394433471129e-03
2.671999999999999886e+01,9.412188710960254362e-03
2.676000000000000156e+01,1.028567590368987573e-02
2.680000000000000071e+01,6.969160916512008065e-03
2.683999999999999986e+01,1.277226061492004600e-02
2.687999999999999901e+01,1.175629631043005607e-02
2.692000000000000171e+01,1.665577793348534466e-02
2.696000000000000085e+01,1.555777534095279142e-02
2.700000000000000000e+01,0.000000000000000000e+00
2.703999999999999915e+01,7.117927513910853564e-03
2.707999999999999829e+01,9.799373027513423942e-03
2.712000000000000099e+01,7.715703232255590599e-03
2.716000000000000014e+01,1.064373524975144834e-02
2.719999999999999929e+01,1.496851042830527750e-02
2.723999999999999844e+01,1.198126583434883097e-02
2.728000000000000114e+01,1.269119059317511122e-02
2.732000000000000028e+01,1.775554899917494711e-02
2.735999999999999943e+01,1.468630397416509012e-02
2.739999999999999858e+01,2.369435560424045656e-02
2.744000000000000128e+01,1.101271021436329815e-02
2.748000000000000043e+01,1.468058287718219945e-02
2.751999999999999957e+01,1.169369541645458310e-02
2.755999999999999872e+01,2.209863165111810093e-02
2.760000000000000142e+01,2.133010886693698788e-02
2.764000000000000057e+01,1.078481456050954697e-02
2.767999999999999972e+01,1.708198323706033514e-02
2.771999999999999886e+01,1.992855512844028329e-02
2.776000000000000156e+01,1.603820411726803244e-02
2.780000000000000071e+01,1.132631504696397957e-02
2.783999999999999986e+01,1.269417036389177030e-02
2.787999999999999901e+01,1.849860662224179705e-02
2.792000000000000171e+01,1.888064701834556852e-02
2.796000000000000085e+01,1.392244891154385995e-02
2.800000000000000000e+01,1.249708995408628336e-02
2.803999999999999915e+01,1.427593683742068263e-02
2.807999999999999829e+01,1.400086823827953811e-02
2.812000000000000099e+01,9.042823107910187910e-03
2.816000000000000014e+01,1.090393937307714348e-02
2.819999999999999929e+01,1.128624476810508905e-02
2.823999999999999844e+01,1.339390572832117356e-02
2.828000000000000114e+01,9.832689457414492060e-03
2.832000000000000028e+01,1.662343122897206107e-02
2.835999999999999943e+01,1.643076408367380795e-02
2.839999999999999858e+01,1.533438913209736638e-02
2.844000000000000128e+01,1.111603599338311862e-02
2.848000000000000043e+01,1.609942393008136421e-02
2.851999999999999957e+01,8.019697968156852541e-03
2.855999999999999872e+01,1.464630648293453741e-02
2.860000000000000142e+01,1.946546385088035805e-02
2.864000000000000057e+01,1.574020234431222631e-02
2.867999999999999972e+01,1.875193403460969147e-02
2.871999999999999886e+01,1.436945917201774316e-02
2.876000000000000156e+01,1.417707381687943226e-02
2.880000000000000071e+01,1.242370784445572494e-02
2.883999999999999986e+01,1.691438317047467416e-02
2.887999999999999901e+01,1.967976006357531962e-02
2.892000000000000171e+01,1.348992199460417006e-02
2.896000000000000085e+01,1.477649490504088017e-02
2.900000000000000000e+01,1.688466920078201400e-02
2.903999999999999915e+01,2.006091850832546555e-02
2.907999999999999829e+01,1.444626602400277821e-02
2.912000000000000099e+01,9.899687003006767475e-03
2.916000000000000014e+01,2.038806337945942709e-02
2.919999999999999929e+01,2.528970285089738104e-02
2.923999999999999844e+01,1.252735900703030696e-02
2.928000000000000114e+01,1.291033116559086799e-02
2.932000000000000028e+01,1.781201452658945014e-02
2.935999999999999943e+01,1.630537654983604812e-02
2.939999999999999858e+01,1.808507622336616091e-02
2.944000000000000128e+01,1.296350420919696773e-02
2.948000000000000043e+01,1.679717951375818766e-02
2.951999999999999957e+01,1.627648372308063487e-02
2.955999999999999872e+01,1.567363900901313015e-02
2.960000000000000142e+01,2.205424408507629039e-02
2.964000000000000057e+01,2.145141546867230034e-02
2.967999999999999972e+01,1.986269613680032714e-02
2.971999999999999886e+01,2.098520132625884133e-02
2.976000000000000156e+01,2.046454918314494914e-02
2.980000000000000071e+01,1.846505520037789588e-02
2.983999999999999986e+01,2.542080156820055586e-02
2.987999999999999901e+01,2.424289572802873841e-02
2.992000000000000171e+01,3.736050737257914228e-02
2.996000000000000085e+01,3.453944257069346824e-02
3.000000000000000000e+01,2.859636938639364273e-02
3.003999999999999915e+01,3.144421641433709641e-02
3.007999999999999829e+01,3.790702046483485771e-02
3.012000000000000099e+01,3.311415858592462597e-02
3.016000000000000014e+01,4.237033514557381197e-02
3.019999999999999929e+01,3.856336528861036700e-02
3.023999999999999844e+01,4.256141416975783853e-02
3.028000000000000114e+01,4.943499300006310576e-02
3.032000000000000028e+01,5.318655725405135870e-02
3.035999999999999943e+01,5.209078535233441914e-02
3.039999999999999858e+01,5.510291308074050098e-02
3.044000000000000128e+01,6.345531166871062889e-02
3.048000000000000043e+01,7.000022272066974693e-02
3.051999999999999957e+01,7.572354306532301516e-02
3.055999999999999872e+01,8.062527192843271795e-02
3.060000000000000142e+01,7.788628344873801956e-02
3.064000000000000057e+01,7.941950622089645473e-02
3.067999999999999972e+01,6.805388955274518925e-02
3.071999999999999886e+01,6.983356101445881148e-02
3.076000000000000156e+01,6.988789765407509014e-02
3.080000000000000071e+01,6.254798748043352563e-02
3.083999999999999986e+01,6.005539162250590063e-02
3.087999999999999901e+01,4.942912420063744205e-02
3.092000000000000171e+01,5.687762905215991427e-02
3.096000000000000085e+01,4.855175436845714232e-02
3.100000000000000000e+01,4.137607489248045639e-02
3.103999999999999915e+01,4.151244986838607820e-02
3.107999999999999829e+01,4.090938143123452192e-02
3.112000000000000099e+01,3.660917599795875804e-02
3.116000000000000014e+01,2.828320026000661833e-02
3.119999999999999929e+01,3.564940550200134534e-02
3.123999999999999844e+01,3.134913246803528591e-02
3.128000000000000114e+01,2.787041668781594164e-02
3.132000000000000028e+01,3.121080113834244843e-02
3.135999999999999943e+01,2.715692793628113333e-02
3.139999999999999858e+01,2.417108406598878281e-02
3.144000000000000128e+01,2.011715728018419538e-02
3.148000000000000043e+01,1.959600228503046923e-02
3.151999999999999957e+01,2.195035323766109797e-02
3.155999999999999872e+01,2.430467468858758459e-02
3.160000000000000142e+01,2.230458478390693472e-02
3.164000000000000057e+01,2.498747744302595025e-02
3.167999999999999972e+01,2.150847825933316707e-02
3.171999999999999886e+01,2.468425529685050468e-02
3.176000000000000156e+01,2.054792507298009926e-02
3.180000000000000071e+01,2.503816472773020066e-02
3.183999999999999986e+01,2.369514197703142394e-02
3.187999999999999901e+01,3.459364543393534525e-02
3.192000000000000171e+01,2.560984409497611344e-02
3.196000000000000085e+01,2.089822845802077889e-02
3.200000000000000000e+01,2.563476016428261825e-02
3.203999999999999915e+01,1.845832370909075010e-02
3.207999999999999829e+01,2.245535385379068827e-02
3.211999999999999744e+01,2.176933004347698236e-02
3.215999999999999659e+01,2.026168378210548363e-02
3.220000000000000284e+01,1.612493535670938422e-02
3.224000000000000199e+01,2.135417149552467850e-02
3.228000000000000114e+01,1.705302070123826050e-02
3.232000000000000028e+01,1.398419769840729930e-02
3.235999999999999943e+01,1.847387799834524294e-02
3.239999999999999858e+01,1.943071279370484766e-02
3.243999999999999773e+01,2.063397545486329865e-02
3.247999999999999687e+01,2.159071640611122736e-02
3.252000000000000313e+01,1.416727964893054956e-02
3.256000000000000227e+01,1.454881672406526175e-02
3.260000000000000142e+01,1.575188550309753605e-02
3.264000000000000057e+01,1.950180601693987312e-02
3.267999999999999972e+01,1.725413159918120706e-02
3.271999999999999886e+01,1.632093536407809228e-02
3.275999999999999801e+01,1.538768640013521080e-02
3.279999999999999716e+01,1.913739754709425575e-02
3.284000000000000341e+01,2.042231040938022671e-02
3.288000000000000256e+01,1.866731727770511856e-02
3.292000000000000171e+01,1.617284511803154454e-02
3.296000000000000085e+01,1.984017637672309126e-02
3.300000000000000000e+01,1.603106010549624344e-02
3.303999999999999915e+01,1.830158757058018490e-02
3.307999999999999829e+01,2.229737691807191433e-02
3.311999999999999744e+01,1.684492120704557741e-02
3.315999999999999659e+01,1.237830262774401030e-02
3.320000000000000284e+01,1.374485028706608561e-02
3.324000000000000199e+01,1.231795938502215637e-02
3.328000000000000114e+01,1.228769395988235646e-02
3.332000000000000028e+01,2.170555032811052540e-02
3.335999999999999943e+01,2.298968712965089589e-02
3.339999999999999858e+01,1.121061557555036968e-02
3.343999999999999773e+01,1.767058378501313448e-02
3.347999999999999687e+01,1.616114637223173625e-02
3.352000000000000313e+01,1.473379965366996766e-02
3.356000000000000227e+01,8.130422306060303833e-03
3.360000000000000142e+01,1.171458453436091153e-02
3.364000000000000057e+01,1.373767246259581000e-02
3.367999999999999972e+01,1.534989918662739428e-02
3.371999999999999886e+01,2.164506821409022119e-02
3.375999999999999801e+01,1.610939392145030111e-02
3.379999999999999716e+01,1.082012117052218690e-02
3.384000000000000341e+01,1.473248574713415665e-02
3.388000000000000256e+01,1.650866444320316095e-02
3.392000000000000171e+01,1.688807968669867043e-02
3.396000000000000085e+01,1.841763284431904846e-02
3.400000000000000000e+01,2.117948127540503211e-02
3.403999999999999915e+01,1.572543884418113602e-02
3.407999999999999829e+01,2.054108483159183471e-02
3.411999999999999744e+01,2.223464269008942201e-02
3.415999999999999659e+01,1.423346095914892855e-02
3.420000000000000284e+01,1.395506318319327151e-02
3.424000000000000199e+01,2.320692752671349446e-02
3.428000000000000114e+01,1.775240380978825028e-02
3.432000000000000028e+01,1.541980624473329384e-02
3.435999999999999943e+01,1.571618525583927395e-02
3.439999999999999858e+01,2.061333527475441366e-02
3.443999999999999773e+01,2.222407470369642396e-02
3.447999999999999687e+01,1.791934249391262390e-02
3.452000000000000313e+01,2.404860645330422070e-02
3.456000000000000227e+01,1.974369987867193033e-02
3.460000000000000142e+01,1.930013723845226681e-02
3.464000000000000057e+01,2.058180628536405987e-02
3.467999999999999972e+01,2.194554357359771932e-02
3.471999999999999886e+01,2.487019473332996097e-02
3.475999999999999801e+01,2.122210376604272489e-02
3.479999999999999716e+01,2.546110140732963517e-02
3.484000000000000341e+01,1.762276042335596954e-02
3.488000000000000256e+01,2.071135744188849423e-02
3.492000000000000171e+01,2.404633432347293848e-02
3.496000000000000085e+01,1.579691905855474046e-02
3.500000000000000000e+01,2.266450428593718910e-02
3.503999999999999915e+01,2.000164915780601460e-02
3.507999999999999829e+01,2.037854733744731001e-02
3.511999999999999744e+01,2.650641645871663898e-02
3.515999999999999659e+01,2.376110797038749611e-02
3.520000000000000284e+01,1.970116938745210614e-02
3.524000000000000199e+01,2.541794796878198842e-02
3.528000000000000114e+01,3.705001066194568704e-02
3.532000000000000028e+01,2.608848434093524737e-02
3.535999999999999943e+01,2.449288219358363231e-02
3.539999999999999858e+01,3.004493383903105580e-02
3.543999999999999773e+01,3.231055553855898682e-02
3.547999999999999687e+01,3.038600704856512374e-02
3.552000000000000313e+01,3.938838417327180513e-02
3.556000000000000227e+01,3.680635753790807707e-02
3.560000000000000142e+01,2.732293998221554249e-02
3.564000000000000057e+01,3.057392465723892186e-02
3.567999999999999972e+01,2.486956352399313785e-02
3.571999999999999886e+01,3.074938920288733737e-02
3.575999999999999801e+01,3.153529980323027671e-02
3.579999999999999716e+01,3.207462443192082152e-02
3.584000000000000341e+01,3.327110178408556468e-02
3.588000000000000256e+01,2.962013613572126933e-02
3.592000000000000171e+01,1.734245256797500509e-02
3.596000000000000085e+01,3.365568481770934289e-02
3.600000000000000000e+01,2.827905436059049982e-02
3.603999999999999915e+01,1.961598234398435545e-02
3.607999999999999829e+01,2.368730404147778232e-02
3.611999999999999744e+01,2.365060129522229479e-02
3.615999999999999659e+01,2.205277547191631174e-02
3.620000000000000284e+01,1.840087699585045422e-02
3.624000000000000199e+01,2.674394593472543061e-02
3.628000000000000114e+01,2.038058810126220852e-02
3.632000000000000028e+01,2.034328491734157043e-02
3.635999999999999943e+01,2.687851000946134272e-02
3.639999999999999858e+01,2.667664496365246274e-02
3.643999999999999773e+01,2.310617248239914615e-02
3.647999999999999687e+01,1.731730566156379145e-02
3.652000000000000313e+01,2.746699124777652462e-02
3.656000000000000227e+01,2.997584412974469911e-02
3.660000000000000142e+01,2.320070086165865533e-02
3.664000000000000057e+01,3.113173567422833354e-02
3.667999999999999972e+01,3.643358160813377211e-02
3.671999999999999886e+01,3.031531759622817929e-02
3.675999999999999801e+01,2.206081195865414180e-02
3.679999999999999716e+01,2.629421169816248752e-02
3.684000000000000341e+01,2.978805653436271753e-02
3.688000000000000256e+01,2.950249475060920390e-02
3.692000000000000171e+01,2.584831624055698024e-02
3.696000000000000085e+01,2.539817091625530543e-02
3.700000000000000000e+01,2.683752786620891007e-02
3.703999999999999915e+01,2.433315883210014630e-02
3.707999999999999829e+01,2.306102545514227345e-02
3.711999999999999744e+01,2.096717362163265028e-02
3.715999999999999659e+01,2.421346257572759911e-02
3.720000000000000284e+01,1.998322270492948471e-02
3.724000000000000199e+01,1.986075006958139266e-02
3.728000000000000114e+01,2.170993242240217697e-02
3.732000000000000028e+01,2.470918765336811013e-02
3.735999999999999943e+01,2.171075736690415703e-02
3.739999999999999858e+01,2.183419361599571798e-02
3.743999999999999773e+01,2.557244442787654642e-02
3.747999999999999687e+01,2.232710979667085205e-02
3.752000000000000313e+01,2.573643912218644136e-02
3.756000000000000227e+01,2.569498120001911801e-02
3.760000000000000142e+01,2.483179553044580559e-02
3.764000000000000057e+01,3.177348536498045967e-02
3.767999999999999972e+01,3.526438562911864832e-02
3.771999999999999886e+01,2.667789152287073848e-02
3.775999999999999801e+01,2.548547993012425031e-02
3.779999999999999716e+01,2.840082473349784045e-02
3.784000000000000341e+01,2.474336779353719651e-02
3.788000000000000256e+01,3.110905131887924460e-02
3.792000000000000171e+01,2.827287127789652327e-02
3.796000000000000085e+01,2.905149573461089652e-02
3.800000000000000000e+01,3.171960310963422430e-02
3.803999999999999915e+01,3.225144408337778101e-02
3.807999999999999829e+01,3.237233868675407772e-02
3.811999999999999744e+01,3.750472296171207531e-02
3.815999999999999659e+01,3.228502515481793816e-02
3.820000000000000284e+01,3.421292694407307433e-02
3.824000000000000199e+01,3.457966539590931476e-02
3.828000000000000114e+01,4.398363896772666815e-02
3.832000000000000028e+01,4.229610415853315292e-02
3.835999999999999943e+01,3.978682689141449513e-02
3.839999999999999858e+01,4.269982454410547329e-02
3.843999999999999773e+01,4.528402699186712121e-02
3.847999999999999687e+01,4.934691239919045819e-02
3.852000000000000313e+01,4.971251757638665836e-02
3.856000000000000227e+01,5.623981777864837245e-02
3.860000000000000142e+01,6.071299887387898025e-02
3.864000000000000057e+01,7.619520332683611674e-02
3.867999999999999972e+01,7.688877641960524534e-02
3.871999999999999886e+01,8.842705505446803171e-02
3.875999999999999801e+01,1.007867461605988779e-01
3.879999999999999716e+01,1.149537465667029440e-01
3.884000000000000341e+01,1.248483536137269395e-01
3.888000000000000256e+01,1.427942865642211068e-01
3.892000000000000171e+01,1.558927176721093544e-01
3.896000000000000085e+01,1.759744173984705007e-01
3.900000000000000000e+01,2.027107524347522838e-01
3.903999999999999915e+01,2.451391167003616200e-01
3.907999999999999829e+01,2.993980771428669252e-01
3.911999999999999744e+01,3.748536602159894815e-01
3.915999999999999659e+01,4.903200777349880357e-01
3.920000000000000284e+01,6.338022414231511137e-01
3.924000000000000199e+01,7.690684135980832004e-01
3.928000000000000114e+01,9.114821644647423948e-01
3.932000000000000028e+01,1.000000000000000000e+00
3.935999999999999943e+01,9.900100528964448365e-01
3.939999999999999858e+01,9.489641500478599445e-01
3.943999999999999773e+01,8.754656024091711508e-01
3.947999999999999687e+01,7.612985958482821891e-01
3.952000000000000313e+01,6.569903817417868108e-01
3.956000000000000227e+01,5.590903177051462780e-01
3.960000000000000142e+01,4.770465883256604367e-01
3.964000000000000057e+01,4.194036387212647377e-01
3.967999999999999972e+01,3.855863611826711446e-01
3.971999999999999886e+01,3.608062908914958511e-01
3.975999999999999801e+01,3.278923771555761757e-01
3.979999999999999716e+01,3.039335109850205829e-01
3.984000000000000341e+01,2.750449670308097727e-01
3.988000000000000256e+01,2.583977944366308566e-01
3.992000000000000171e+01,2.282764966181478894e-01
3.996000000000000085e+01,2.043168667264055882e-01
4.000000000000000000e+01,1.868475365214803952e-01
4.003999999999999915e+01,1.586974553112096287e-01
4.007999999999999829e+01,1.522369269513191015e-01
4.011999999999999744e+01,1.396965015180081371e-01
4.015999999999999659e+01,1.451485113755653089e-01
4.020000000000000284e+01,1.436990412754404756e-01
4.024000000000000199e+01,1.387987320536965274e-01
4.028000000000000114e+01,1.434285680415124664e-01
4.032000000000000028e+01,1.414033961496686809e-01
4.035999999999999943e+01,1.347771689433919229e-01
4.039999999999999858e+01,1.412138843678408529e-01
4.043999999999999773e+01,1.314652460948002033e-01
4.047999999999999687e+01,1.238525171380572831e-01
4.052000000000000313e+01,1.075308230910006213e-01
4.056000000000000227e+01,1.027110640397250335e-01
4.060000000000000142e+01,8.794996634598116481e-02
4.064000000000000057e+01,7.557124927231936851e-02
4.067999999999999972e+01,5.859147069032182020e-02
4.071999999999999886e+01,5.475678667872568850e-02
4.075999999999999801e+01,4.459571880516773751e-02
4.079999999999999716e+01,4.692247888490680419e-02
4.084000000000000341e+01,4.292285355420832893e-02
4.088000000000000256e+01,3.539021858050647729e-02
4.092000000000000171e+01,2.711794973123537317e-02
4.096000000000000085e+01,3.166213827262420039e-02
4.100000000000000000e+01,3.061936150883139834e-02
4.103999999999999915e+01,3.434154349652118049e-02
4.107999999999999829e+01,2.508252660848068680e-02
4.111999999999999744e+01,2.683248507541976385e-02
4.115999999999999659e+01,3.277229303607778060e-02
4.120000000000000284e+01,3.024959714511428824e-02
4.124000000000000199e+01,2.296151263932789607e-02
4.128000000000000114e+01,2.733966546019838545e-02
4.132000000000000028e+01,2.317315397315521802e-02
4.135999999999999943e+01,2.311432997506310261e-02
4.139999999999999858e+01,2.231586281054750293e-02
4.143999999999999773e+01,1.749142636222703745e-02
4.147999999999999687e+01,1.718546574803700086e-02
4.152000000000000313e+01,2.189092899521108415e-02
4.156000000000000227e+01,1.903762089198746121e-02
4.160000000000000142e+01,2.234594897175248146e-02
4.164000000000000057e+01,1.357680680582171520e-02
4.167999999999999972e+01,2.107474970457021493e-02
4.171999999999999886e+01,1.846701601503335580e-02
4.175999999999999801e+01,1.939185513701888186e-02
4.179999999999999716e+01,2.237041989187440669e-02
4.184000000000000341e+01,1.836531481171732941e-02
4.188000000000000256e+01,2.536917037602062427e-02
4.192000000000000171e+01,1.774864813402692379e-02
4.196000000000000085e+01,2.212298259096092193e-02
4.200000000000000000e+01,1.507710490268719672e-02
4.203999999999999915e+01,1.821860342613651138e-02
4.207999999999999829e+01,1.733412027797531091e-02
4.211999999999999744e+01,1.907846350383133813e-02
4.215999999999999659e+01,1.737193044465128178e-02
4.220000000000000284e+01,2.207349635562777870e-02
4.224000000000000199e+01,1.699800814754118955e-02
4.228000000000000114e+01,1.980946376555006022e-02
4.232000000000000028e+01,1.005048717434810050e-02
4.235999999999999943e+01,1.277930834116686350e-02
4.239999999999999858e+01,1.953363873317387478e-02
4.243999999999999773e+01,1.987939461165062760e-02
4.247999999999999687e+01,1.258420319868042668e-02
4.252000000000000313e+01,1.120415576049247838e-02
4.256000000000000227e+01,1.573925152284889190e-02
4.260000000000000142e+01,1.279771393820195585e-02
4.264000000000000057e+01,1.609995053993807171e-02
4.267999999999999972e+01,1.545835199007442734e-02
4.271999999999999886e+01,2.056757727664657379e-02
4.275999999999999801e+01,1.491384077612045028e-02
4.279999999999999716e+01,1.460013589566144972e-02
4.284000000000000341e+01,1.379323437695198322e-02
4.288000000000000256e+01,1.487572131953325896e-02
4.292000000000000171e+01,1.258947540013775380e-02
4.296000000000000085e+01,2.377691322813822380e-02
4.300000000000000000e+01,2.050426861257681824e-02
4.303999999999999915e+01,1.871021869346179214e-02
4.307999999999999829e+01,1.675160002498352410e-02
4.311999999999999744e+01,1.380683049711827447e-02
4.315999999999999659e+01,1.800956455990842739e-02
4.320000000000000284e+01,1.489996992928460488e-02
4.324000000000000199e+01,2.148477948177671126e-02
4.328000000000000114e+01,1.352734303746336297e-02
4.332000000000000028e+01,1.444272789200436689e-02
4.335999999999999943e+01,1.585080364614584875e-02
4.339999999999999858e+01,1.898394152932877249e-02
4.343999999999999773e+01,1.792675514965699074e-02
4.347999999999999687e+01,1.152902986279233204e-02
4.352000000000000313e+01,1.392196387001417603e-02
4.356000000000000227e+01,1.976527771447640636e-02
4.360000000000000142e+01,1.394187404348095315e-02
4.364000000000000057e+01,1.814149934753723006e-02
4.367999999999999972e+01,1.913669334625468094e-02
4.371999999999999886e+01,1.651666459750254431e-02
4.375999999999999801e+01,1.578600727680833787e-02
4.379999999999999716e+01,1.595882300699118239e-02
4.384000000000000341e+01,1.826748301749201928e-02
4.388000000000000256e+01,1.728954971788618927e-02
4.392000000000000171e+01,1.951551488664432510e-02
4.396000000000000085e+01,1.738682946029839957e-02
4.400000000000000000e+01,1.870851535457648818e-02
4.403999999999999915e+01,1.501828403664614946e-02
4.407999999999999829e+01,1.601079449454291884e-02
4.411999999999999744e+01,9.526642184397865129e-03
4.415999999999999659e+01,1.602320159304166172e-02
4.420000000000000284e+01,1.249619454423171218e-02
4.424000000000000199e+01,1.159797283483274440e-02
4.428000000000000114e+01,1.275342875555681224e-02
4.432000000000000028e+01,1.366213379196556943e-02
4.435999999999999943e+01,1.448840343697835147e-02
4.439999999999999858e+01,1.375339051194271640e-02
4.443999999999999773e+01,1.285378251345681289e-02
4.447999999999999687e+01,1.047504853002535416e-02
4.452000000000000313e+01,1.088941073349708813e-02
4.456000000000000227e+01,9.578171002811816659e-03
4.460000000000000142e+01,1.114218404413261886e-02
4.464000000000000057e+01,1.722461175479340564e-02
4.467999999999999972e+01,1.303698931641043661e-02
4.471999999999999886e+01,1.344993813247035049e-02
4.475999999999999801e+01,1.295886247896985317e-02
4.479999999999999716e+01,9.263333841470607066e-03
4.484000000000000341e+01,1.756260615777362893e-02
4.488000000000000256e+01,1.674203832394385166e-02
4.492000000000000171e+01,1.526391732433804611e-02
4.496000000000000085e+01,1.214234478177525500e-02
4.500000000000000000e+01,1.616824021492656999e-02
4.503999999999999915e+01,1.411414334340147479e-02
4.507999999999999829e+01,1.304565288072066613e-02
4.511999999999999744e+01,9.676442709502791964e-03
4.515999999999999659e+01,1.928792490112734778e-02
4.520000000000000284e+01,1.600028660410125411e-02
4.524000000000000199e+01,1.862773963368332536e-02
4.528000000000000114e+01,1.238181917148984366e-02
4.532000000000000028e+01,1.763774157077283022e-02
4.535999999999999943e+01,1.689582360505514566e-02
4.539999999999999858e+01,1.861835225869349145e-02
4.543999999999999773e+01,2.165511288734981235e-02
4.547999999999999687e+01,1.762597509177023583e-02
4.552000000000000313e+01,1.770444426440493518e-02
4.556000000000000227e+01,1.646808281482917830e-02
4.560000000000000142e+01,1.556005264037696109e-02
4.564000000000000057e+01,2.549659406486962793e-02
4.567999999999999972e+01,1.875473156524231841e-02
4.571999999999999886e+01,1.694205349842589636e-02
4.575999999999999801e+01,2.227682869680435926e-02
4.579999999999999716e+01,2.071001554420127955e-02
4.584000000000000341e+01,2.325080316590963717e-02
4.588000000000000256e+01,2.028668915899673950e-02
4.592000000000000171e+01,2.093722557644801807e-02
4.596000000000000085e+01,1.936918415994585627e-02
4.600000000000000000e+01,1.558256413525242051e-02
4.603999999999999915e+01,1.968281515829618800e-02
4.607999999999999829e+01,1.556694227343605186e-02
4.611999999999999744e+01,1.342255327017904606e-02
4.615999999999999659e+01,2.105467006425321141e-02
4.620000000000000284e+01,1.628059581520190438e-02
4.624000000000000199e+01,1.972202127701288416e-02
4.628000000000000114e+01,2.135565337886053544e-02
4.632000000000000028e+01,1.789516600336349059e-02
4.635999999999999943e+01,1.451652079173493086e-02
4.639999999999999858e+01,1.179482390478715087e-02
4.643999999999999773e+01,1.235913484279709852e-02
4.647999999999999687e+01,2.237131284992102329e-02
4.652000000000000313e+01,1.430838240309406477e-02
4.656000000000000227e+01,1.437878733964797519e-02
4.660000000000000142e+01,1.642066686695078936e-02
4.664000000000000057e+01,1.591532286394228141e-02
4.667999999999999972e+01,1.384865215932771024e-02
4.671999999999999886e+01,1.662898839799903730e-02
4.675999999999999801e+01,1.875173585595303616e-02
4.679999999999999716e+01,1.684841028222975115e-02
4.684000000000000341e+01,1.510907571509930228e-02
4.688000000000000256e+01,1.074035483865184472e-02
4.692000000000000171e+01,1.713402265195937066e-02
4.696000000000000085e+01,1.317543805108689972e-02
4.700000000000000000e+01,1.422817124099255877e-02
4.703999999999999915e+01,1.889553317660248172e-02
4.707999999999999829e+01,1.625049131772661817e-02
4.711999999999999744e+01,1.409806758009295863e-02
4.715999999999999659e+01,1.605321906692154174e-02
4.720000000000000284e+01,1.595408498558038846e-02
4.724000000000000199e+01,1.380066456183167388e-02
4.728000000000000114e+01,1.460460316973138072e-02
4.732000000000000028e+01,1.483310029116241546e-02
4.735999999999999943e+01,1.473262955262263051e-02
4.739999999999999858e+01,1.643930165291751511e-02
4.743999999999999773e+01,1.707758114255860868e-02
4.747999999999999687e+01,1.451135577426474962e-02
4.752000000000000313e+01,1.621701492944962672e-02
4.756000000000000227e+01,1.463600954464527350e-02
4.760000000000000142e+01,1.272603165444301243e-02
4.764000000000000057e+01,1.393772209490567668e-02
4.767999999999999972e+01,1.457396408075895336e-02
4.771999999999999886e+01,1.866050538311580381e-02
4.775999999999999801e+01,1.888527133924404813e-02
4.779999999999999716e+01,1.508394490774864552e-02
4.784000000000000341e+01,1.276112026415713793e-02
4.788000000000000256e+01,1.397074997369637112e-02
4.792000000000000171e+01,1.789125192634262798e-02
4.796000000000000085e+01,1.302048664685570567e-02
4.800000000000000000e+01,1.529713127524385402e-02
4.803999999999999915e+01,1.593026474436029516e-02
4.807999999999999829e+01,1.754894655448195617e-02
4.811999999999999744e+01,1.333405084434822335e-02
4.815999999999999659e+01,1.470555740714495248e-02
4.820000000000000284e+01,2.010246093064113268e-02
4.824000000000000199e+01,1.654377553518199262e-02
4.828000000000000114e+01,1.446358341101035283e-02
4.832000000000000028e+01,1.550504645546012771e-02
4.835999999999999943e+01,1.408141081094946984e-02
4.839999999999999858e+01,1.536863811869158131e-02
4.843999999999999773e+01,1.262976065100437917e-02
4.847999999999999687e+01,1.523080486160906244e-02
4.852000000000000313e+01,1.446300781693743258e-02
4.856000000000000227e+01,8.601047937601278420e-03
4.860000000000000142e+01,1.243338849350861253e-02
4.864000000000000057e+01,1.774421535256276439e-02
4.867999999999999972e+01,1.492102611183108475e-02
4.871999999999999886e+01,1.563027496523521423e-02
4.875999999999999801e+01,1.436736618877191077e-02
4.879999999999999716e+01,1.507588941997552515e-02
4.884000000000000341e+01,1.356577907210023901e-02
4.888000000000000256e+01,1.345199224836605631e-02
4.892000000000000171e+01,1.555610951032101140e-02
4.896000000000000085e+01,1.379842819891173578e-02
4.900000000000000000e+01,1.770929103501658886e-02
4.903999999999999915e+01,1.323965640245914656e-02
4.907999999999999829e+01,1.517798757114742839e-02
4.911999999999999744e+01,1.785537254992098852e-02
4.915999999999999659e+01,1.888922469076292562e-02
4.920000000000000284e+01,1.499321787629183216e-02
4.924000000000000199e+01,1.421884842297153374e-02
4.928000000000000114e+01,1.426568781636369104e-02
4.932000000000000028e+01,1.135446113761538062e-02
4.935999999999999943e+01,1.411177163824053546e-02
4.939999999999999858e+01,1.399317265182809661e-02
4.943999999999999773e+01,1.617462581959129217e-02
4.947999999999999687e+01,1.449427034889813788e-02
4.952000000000000313e+01,1.421022601454044985e-02
4.956000000000000227e+01,1.762291978248081356e-02
4.960000000000000142e+01,1.331237031105762803e-02
4.964000000000000057e+01,1.212345045840669024e-02
4.967999999999999972e+01,2.054665200299858954e-02
4.971999999999999886e+01,1.672791063869104311e-02
4.975999999999999801e+01,2.252128912315062501e-02
4.979999999999999716e+01,1.492250928013480644e-02
4.984000000000000341e+01,1.619642453520313274e-02
4.988000000000000256e+01,1.812722075625892298e-02
4.992000000000000171e+01,1.422440461635587211e-02
4.996000000000000085e+01,1.500421643931540081e-02
5.000000000000000000e+01,1.381184663103400719e-02
5.003999999999999915e+01,1.746641950429666731e-02
5.007999999999999829e+01,1.651974892332787326e-02
5.011999999999999744e+01,1.483326639208343983e-02
5.015999999999999659e+01,1.437876634221161090e-02
5.020000000000000284e+01,1.819609894188228827e-02
5.024000000000000199e+01,1.798729192542023944e-02
5.028000000000000114e+01,1.555982345731651839e-02
5.032000000000000028e+01,1.723986904888458183e-02
5.035999999999999943e+01,1.645477723959952107e-02
5.039999999999999858e+01,1.887345847214605063e-02
5.043999999999999773e+01,1.997721462546397583e-02
5.047999999999999687e+01,2.050546812752275516e-02
5.052000000000000313e+01,2.045821820408449954e-02
5.056000000000000227e+01,2.402552889341938100e-02
5.060000000000000142e+01,2.660654394088858565e-02
5.064000000000000057e+01,2.327177455753899615e-02
5.067999999999999972e+01,2.305861466277742827e-02
5.071999999999999886e+01,2.350231947500840482e-02
5.075999999999999801e+01,2.682115782661592326e-02
5.079999999999999716e+01,2.603168758918217307e-02
5.084000000000000341e+01,2.721360987328480877e-02
5.088000000000000256e+01,2.798433803090690647e-02
5.092000000000000171e+01,2.809739688707486166e-02
5.096000000000000085e+01,3.363248755236635662e-02
5.100000000000000000e+01,3.111567534565504167e-02
5.103999999999999915e+01,2.884493098414050299e-02
5.107999999999999829e+01,2.895636516662817087e-02
5.111999999999999744e+01,3.120350271814441301e-02
5.115999999999999659e+01,2.909585031174292957e-02
5.120000000000000284e+01,2.616620691706513999e-02
5.124000000000000199e+01,2.685111097311694908e-02
5.128000000000000114e+01,2.326338088211606439e-02
5.132000000000000028e+01,2.690515457082694184e-02
5.135999999999999943e+01,2.873903657136706730e-02
5.139999999999999858e+01,2.317827302615455345e-02
5.143999999999999773e+01,2.542211787299037545e-02
5.147999999999999687e+01,2.429706417094870674e-02
5.152000000000000313e+01,2.456828289334976601e-02
5.156000000000000227e+01,2.294944792281218907e-02
5.160000000000000142e+01,2.486299530128497498e-02
5.164000000000000057e+01,2.505080370550057459e-02
5.167999999999999972e+01,2.762077904015057192e-02
5.171999999999999886e+01,2.296041890230230212e-02
5.175999999999999801e+01,2.191459615009151707e-02
5.179999999999999716e+01,1.897871505951500767e-02
5.184000000000000341e+01,2.006816047399322470e-02
5.188000000000000256e+01,2.123934120751608950e-02
5.192000000000000171e+01,2.068477754711681160e-02
5.196000000000000085e+01,1.807583618424318458e-02
5.200000000000000000e+01,1.727394862285101806e-02
5.203999999999999915e+01,1.630731888281631431e-02
5.207999999999999829e+01,1.583321125852992992e-02
5.211999999999999744e+01,1.913795031889754111e-02
5.215999999999999659e+01,1.628040112667214143e-02
5.220000000000000284e+01,1.851622720788244011e-02
5.224000000000000199e+01,2.149104670862540811e-02
5.228000000000000114e+01,1.756415243185450309e-02
5.232000000000000028e+01,2.078458444527041954e-02
5.235999999999999943e+01,1.710330113269676114e-02
5.239999999999999858e+01,1.325726867333990033e-02
5.243999999999999773e+01,1.910546232239253989e-02
5.247999999999999687e+01,1.599798498327732396e-02
5.252000000000000313e+01,1.954488126168816425e-02
5.256000000000000227e+01,1.561495140787001572e-02
5.260000000000000142e+01,1.883234242457373225e-02
5.264000000000000057e+01,1.572311963067301102e-02
5.267999999999999972e+01,1.811805348724668252e-02
5.271999999999999886e+01,1.796564612935524705e-02
5.275999999999999801e+01,1.871653839306154643e-02
5.279999999999999716e+01,1.749519482887719815e-02
5.284000000000000341e+01,1.397298212824991080e-02
5.288000000000000256e+01,1.488686647038611061e-02
5.292000000000000171e+01,1.538951719991124220e-02
5.296000000000000085e+01,1.194813379870813923e-02
5.300000000000000000e+01,1.499679845701964651e-02
5.303999999999999915e+01,1.410142743612724861e-02
5.307999999999999829e+01,1.690272638460175655e-02
5.311999999999999744e+01,1.411682543382484015e-02
5.315999999999999659e+01,1.979276465149727021e-02
5.320000000000000284e+01,1.355532613589127862e-02
5.324000000000000199e+01,1.898389344982384652e-02
5.328000000000000114e+01,1.578540682514585625e-02
5.332000000000000028e+01,1.653005992514339911e-02
5.335999999999999943e+01,2.064274504052852899e-02
5.339999999999999858e+01,1.645700642890387047e-02
5.343999999999999773e+01,1.687167028786991374e-02
5.347999999999999687e+01,1.260286674880832687e-02
5.352000000000000313e+01,1.753531961226267519e-02
5.356000000000000227e+01,1.507308512112029777e-02
5.360000000000000142e+01,1.951167774381765488e-02
5.364000000000000057e+01,1.762363719996421982e-02
5.367999999999999972e+01,1.483139953150893614e-02
5.371999999999999886e+01,1.466776370809329093e-02
5.375999999999999801e+01,1.787215215768668541e-02
5.379999999999999716e+01,2.009018302638607492e-02
5.384000000000000341e+01,1.762473952891718126e-02
5.388000000000000256e+01,1.367998810060704930e-02
5.392000000000000171e+01,1.515721118781925870e-02
5.396000000000000085e+01,1.441570159350725848e-02
5.400000000000000000e+01,1.392020255079079970e-02
5.403999999999999915e+01,1.588898289205395442e-02
5.407999999999999829e+01,1.629629329770803867e-02
5.411999999999999744e+01,1.916788153886601204e-02
5.415999999999999659e+01,1.505556147975236139e-02
5.420000000000000284e+01,1.422909904345278503e-02
5.424000000000000199e+01,1.898892119592991354e-02
5.428000000000000114e+01,2.144784633940137117e-02
5.432000000000000028e+01,1.782659955501427612e-02
5.435999999999999943e+01,2.053105823889760789e-02
5.439999999999999858e+01,1.929145491948995247e-02
5.443999999999999773e+01,1.377915628823912775e-02
5.447999999999999687e+01,1.253860746308046135e-02
5.452000000000000313e+01,1.902044928007676911e-02
5.456000000000000227e+01,1.367104517328625139e-02
5.460000000000000142e+01,1.768719283174676610e-02
5.464000000000000057e+01,1.504805543339578743e-02
5.467999999999999972e+01,1.717361277141919718e-02
5.471999999999999886e+01,1.642315764877047904e-02
5.475999999999999801e+01,1.813696797381998682e-02
5.479999999999999716e+01,1.985029896497220517e-02
5.484000000000000341e+01,1.819466637126718536e-02
5.488000000000000256e+01,1.620992036087483615e-02
5.492000000000000171e+01,1.718238550270081641e-02
5.496000000000000085e+01,1.322488019896282500e-02
5.500000000000000000e+01,2.002960718893332867e-02
5.503999999999999915e+01,1.270265122406229706e-02
5.507999999999999829e+01,1.622008413800261895e-02
5.511999999999999744e+01,2.072292912708591228e-02
5.515999999999999659e+01,1.561278618543642319e-02
5.520000000000000284e+01,1.797854632316267173e-02
5.524000000000000199e+01,1.828986527091051861e-02
5.528000000000000114e+01,1.597163531939203851e-02
5.532000000000000028e+01,1.923966905222817061e-02
5.535999999999999943e+01,1.856362220006483460e-02
5.539999999999999858e+01,1.673687053033618213e-02
5.543999999999999773e+01,1.630631540974061128e-02
5.547999999999999687e+01,1.620390032751857848e-02
5.552000000000000313e+01,1.996242425331156214e-02
5.556000000000000227e+01,1.320421303662877403e-02
5.560000000000000142e+01,1.918001770597277042e-02
5.564000000000000057e+01,1.258513234490058787e-02
5.567999999999999972e+01,1.593088477970751315e-02
5.571999999999999886e+01,2.026203767608957679e-02
5.575999999999999801e+01,1.736277690195011172e-02
5.579999999999999716e+01,2.029624492204678068e-02
5.584000000000000341e+01,1.895699053197539077e-02
5.588000000000000256e+01,1.909608230799926532e-02
5.592000000000000171e+01,2.293178908250241912e-02
5.596000000000000085e+01,1.929060391455901871e-02
5.600000000000000000e+01,2.082487860103376942e-02
5.603999999999999915e+01,1.915448274267283688e-02
5.607999999999999829e+01,2.307033585814730059e-02
5.611999999999999744e+01,2.263130301021014368e-02
5.615999999999999659e+01,1.931622982903807156e-02
5.620000000000000284e+01,2.364135663845258473e-02
5.624000000000000199e+01,2.599418103552093157e-02
5.628000000000000114e+01,2.612822784526952491e-02
5.632000000000000028e+01,2.478291949566780589e-02
5.635999999999999943e+01,2.565537122351440116e-02
5.639999999999999858e+01,2.652731264794956287e-02
5.643999999999999773e+01,2.789169179620695424e-02
5.647999999999999687e+01,3.057008922983464605e-02
5.652000000000000313e+01,3.899904338783847374e-02
5.656000000000000227e+01,3.929382892119925863e-02
5.660000000000000142e+01,4.098478855079534106e-02
5.664000000000000057e+01,5.393089753181943419e-02
5.667999999999999972e+01,5.463492888655748642e-02
5.671999999999999886e+01,6.026793175869657460e-02
5.675999999999999801e+01,6.894026830169130982e-02
5.679999999999999716e+01,8.245941668003273217e-02
5.684000000000000341e+01,7.601361977874945830e-02
5.688000000000000256e+01,7.778311664105928835e-02
5.692000000000000171e+01,7.766245606255806067e-02
5.696000000000000085e+01,7.409063273101475222e-02
5.700000000000000000e+01,7.396892909279291495e-02
5.703999999999999915e+01,7.277864702683231601e-02
5.707999999999999829e+01,5.778527505421397759e-02
5.711999999999999744e+01,5.585452208089834031e-02
5.715999999999999659e+01,5.573072303238100350e-02
5.720000000000000284e+01,5.314165418833751570e-02
5.724000000000000199e+01,5.482428172797419730e-02
5.728000000000000114e+01,5.059099631330837149e-02
5.732000000000000028e+01,4.956134999732536572e-02
5.735999999999999943e+01,5.066728626926574747e-02
5.739999999999999858e+01,4.281745632178225042e-02
5.743999999999999773e+01,4.318290929856190979e-02
5.747999999999999687e+01,4.091877079299326148e-02
5.752000000000000313e+01,4.300848138501846968e-02
5.756000000000000227e+01,3.910011546949750810e-02
5.760000000000000142e+01,3.814890883225870860e-02
5.764000000000000057e+01,4.056565136695709783e-02
5.767999999999999972e+01,3.903826841086049937e-02
5.771999999999999886e+01,3.529207999488141040e-02
5.775999999999999801e+01,3.359930829086855975e-02
5.779999999999999716e+01,3.420642692531986051e-02
5.784000000000000341e+01,3.900307219630496508e-02
5.788000000000000256e+01,3.287214675112582613e-02
5.792000000000000171e+01,2.821952798591142314e-02
5.796000000000000085e+01,3.054981007618923564e-02
5.800000000000000000e+01,3.016833248544805585e-02
5.803999999999999915e+01,2.419955976419944574e-02
5.807999999999999829e+01,2.315973223626483987e-02
5.811999999999999744e+01,2.285878431489836438e-02
5.815999999999999659e+01,2.904778457636332523e-02
5.820000000000000284e+01,2.274820338976807008e-02
5.824000000000000199e+01,2.080245736448524049e-02
5.828000000000000114e+01,1.836321584514031061e-02
5.832000000000000028e+01,2.200312874378250808e-02
5.835999999999999943e+01,2.030221471875017988e-02
5.839999999999999858e+01,1.646464020537044201e-02
5.843999999999999773e+01,1.714521324927106502e-02
5.847999999999999687e+01,1.363517091688386945e-02
5.852000000000000313e+01,1.834039060433777929e-02
5.856000000000000227e+01,1.754046322977073288e-02
5.860000000000000142e+01,1.673998296871031383e-02
5.864000000000000057e+01,1.528168397828990992e-02
5.867999999999999972e+01,1.801289536540839550e-02
5.871999999999999886e+01,1.696427739870488838e-02
5.875999999999999801e+01,1.764042425370689754e-02
5.879999999999999716e+01,1.716580048092600230e-02
5.884000000000000341e+01,1.660846104264599235e-02
5.888000000000000256e+01,1.621487956536480507e-02
5.892000000000000171e+01,1.672447847705183996e-02
5.896000000000000085e+01,1.632977806474030652e-02
5.900000000000000000e+01,1.741336342797145109e-02
5.903999999999999915e+01,1.636027591504949502e-02
5.907999999999999829e+01,1.440288675541540574e-02
5.911999999999999744e+01,1.581341812091798318e-02
5.915999999999999659e+01,1.574453935618257139e-02
5.920000000000000284e+01,1.452488222128572870e-02
5.924000000000000199e+01,1.618019448734041299e-02
5.928000000000000114e+01,1.495940602960758696e-02
5.932000000000000028e+01,1.513473901993599678e-02
5.935999999999999943e+01,1.711698335198072463e-02
5.939999999999999858e+01,1.203305982501638900e-02
5.943999999999999773e+01,1.500006424326535276e-02
5.947999999999999687e+01,1.583038726874483673e-02
5.952000000000000313e+01,1.247007478775230202e-02
5.956000000000000227e+01,1.338141378464443448e-02
5.960000000000000142e+01,1.338844106973237531e-02
5.964000000000000057e+01,1.865301588717234796e-02
5.967999999999999972e+01,1.537257102152368542e-02
5.971999999999999886e+01,2.006089054784475703e-02
5.975999999999999801e+01,1.431455177029398833e-02
5.979999999999999716e+01,1.694776650413019892e-02
5.984000000000000341e+01,1.727997660989904344e-02
5.988000000000000256e+01,1.276427917242648272e-02
5.992000000000000171e+01,1.252022624469792920e-02
5.996000000000000085e+01,1.720508212110421001e-02
