2.003999999999999915e+01,1.476940403129296461e-02
2.007999999999999829e+01,2.022518096132883136e-02
2.012000000000000099e+01,2.552412994532326715e-02
2.016000000000000014e+01,2.179554321348779744e-02
2.019999999999999929e+01,2.521079730663407584e-02
2.023999999999999844e+01,2.218907455329473602e-02
2.028000000000000114e+01,1.673396758160781289e-02
2.032000000000000028e+01,1.277056718801643752e-02
2.035999999999999943e+01,1.838456124878114217e-02
2.039999999999999858e+01,9.946897635517624320e-03
2.044000000000000128e+01,1.391269284103806292e-02
2.048000000000000043e+01,1.677963102556992783e-02
2.051999999999999957e+01,2.231579932216721379e-02
2.055999999999999872e+01,1.976644600037072430e-02
2.060000000000000142e+01,1.878729557033412961e-02
2.064000000000000057e+01,2.079138021427151192e-02
2.067999999999999972e+01,1.400342438969296062e-02
2.071999999999999886e+01,1.655735042977616450e-02
2.076000000000000156e+01,2.766813922928439487e-02
2.080000000000000071e+01,1.813310860951218573e-02
2.083999999999999986e+01,1.856797214308888305e-02
2.087999999999999901e+01,1.986651656514335992e-02
2.092000000000000171e+01,2.171473376060686564e-02
2.096000000000000085e+01,1.626243977172282112e-02
2.100000000000000000e+01,1.975951297099701187e-02
2.103999999999999915e+01,1.972416133068744665e-02
2.107999999999999829e+01,1.262380163624429730e-02
2.112000000000000099e+01,1.643535255745580057e-02
2.116000000000000014e+01,7.215754639159026491e-03
2.119999999999999929e+01,2.123285333599937361e-02
2.123999999999999844e+01,4.163380326978264288e-03
2.128000000000000114e+01,2.116385513037802313e-02
2.132000000000000028e+01,1.178786655301621022e-02
2.135999999999999943e+01,1.167524539598090508e-02
2.139999999999999858e+01,1.784292126658477626e-02
2.144000000000000128e+01,1.537554535455136484e-02
2.148000000000000043e+01,2.264254548814236684e-02
2.151999999999999957e+01,1.130475963729343607e-02
2.155999999999999872e+01,1.488246914733677706e-02
2.160000000000000142e+01,1.696879040579724399e-02
2.164000000000000057e+01,1.929076292166743284e-02
2.167999999999999972e+01,1.596074852955740170e-02
2.171999999999999886e+01,9.647808718795664387e-03
2.176000000000000156e+01,4.748045275993608393e-03
2.180000000000000071e+01,1.193770652333558079e-02
2.183999999999999986e+01,1.606593815546115273e-02
2.187999999999999901e+01,1.642622289882825215e-02
2.192000000000000171e+01,1.788567353021617082e-02
2.196000000000000085e+01,1.832473980557886711e-02
2.200000000000000000e+01,1.476035133222901481e-02
2.203999999999999915e+01,1.072508974813656153e-02
2.207999999999999829e+01,1.422614109786724673e-02
2.212000000000000099e+01,2.243743865212319277e-02
2.216000000000000014e+01,2.146415741265855076e-02
2.219999999999999929e+01,1.876397060217642465e-02
2.223999999999999844e+01,2.148054411660143062e-02
2.228000000000000114e+01,1.940863904733694523e-02
2.232000000000000028e+01,6.032602575435758695e-03
2.235999999999999943e+01,2.115286258180317999e-02
2.239999999999999858e+01,1.115266723069275809e-02
2.244000000000000128e+01,1.206435648166574552e-02
2.248000000000000043e+01,1.446770974307236106e-02
2.251999999999999957e+01,1.412362731511062480e-02
2.255999999999999872e+01,1.370117068710912170e-02
2.260000000000000142e+01,1.845996179432032175e-02
2.264000000000000057e+01,2.117783133254507941e-02
2.267999999999999972e+01,1.235605687843874603e-02
2.271999999999999886e+01,9.108036953148396925e-03
2.276000000000000156e+01,1.787092096734656937e-02
2.280000000000000071e+01,1.776322090196225459e-02
2.283999999999999986e+01,4.624338888888065990e-03
2.287999999999999901e+01,1.974623761122802981e-02
2.292000000000000171e+01,6.764601123922317147e-03
2.296000000000000085e+01,1.160300018006016863e-02
2.300000000000000000e+01,1.534249255293720915e-02
2.303999999999999915e+01,1.476450235478209833e-02
2.307999999999999829e+01,1.662018632304596705e-02
2.312000000000000099e+01,1.769096856995761025e-02
2.316000000000000014e+01,2.857459558600672703e-02
2.319999999999999929e+01,2.242344014332780036e-02
2.323999999999999844e+01,1.493786779256370267e-02
2.328000000000000114e+01,5.175855765088633979e-03
2.332000000000000028e+01,5.619194512064225322e-03
2.335999999999999943e+01,1.783791987909379845e-02
2.339999999999999858e+01,1.961601270829693711e-02
2.344000000000000128e+01,1.040395938952102216e-02
2.348000000000000043e+01,2.058196800031149645e-02
2.351999999999999957e+01,2.251739299585613432e-02
2.355999999999999872e+01,2.845651933223262986e-02
2.360000000000000142e+01,2.560354765492058038e-02
2.364000000000000057e+01,3.224940396048687347e-02
2.367999999999999972e+01,4.470450137099231391e-02
2.371999999999999886e+01,4.012480607499917945e-02
2.376000000000000156e+01,3.538821109857046010e-02
2.380000000000000071e+01,2.735464238562956840e-02
2.383999999999999986e+01,2.607233360480363735e-02
2.387999999999999901e+01,2.125754401580137731e-02
2.392000000000000171e+01,1.973993218776871200e-02
2.396000000000000085e+01,1.673088559904102948e-02
2.400000000000000000e+01,2.188612875977213879e-02
2.403999999999999915e+01,1.526619563122688303e-02
2.407999999999999829e+01,1.060890597168182015e-02
2.412000000000000099e+01,1.607844948909200114e-02
2.416000000000000014e+01,1.479693158081444616e-02
2.419999999999999929e+01,1.673408408378145029e-02
2.423999999999999844e+01,1.341170838667932533e-02
2.428000000000000114e+01,1.275848870237904394e-02
2.432000000000000028e+01,1.343989310378138242e-02
2.435999999999999943e+01,1.160933104955764669e-02
2.439999999999999858e+01,9.543354870563102929e-03
2.444000000000000128e+01,7.241963778507727600e-03
2.448000000000000043e+01,1.820747203658396735e-02
2.451999999999999957e+01,1.182416449558219146e-02
2.455999999999999872e+01,7.324989132405455156e-03
2.460000000000000142e+01,5.180956148931709429e-03
2.464000000000000057e+01,1.033768015363483415e-02
2.467999999999999972e+01,1.070587827724626268e-02
2.471999999999999886e+01,3.773491117246739572e-03
2.476000000000000156e+01,9.558484967485859560e-03
2.480000000000000071e+01,1.510805681005382775e-02
2.483999999999999986e+01,1.108048788499541373e-02
2.487999999999999901e+01,1.859277012988557951e-02
2.492000000000000171e+01,1.511487706006528139e-02
2.496000000000000085e+01,1.210807531466564710e-02
2.500000000000000000e+01,1.451797950216059119e-02
2.503999999999999915e+01,7.429240812273689432e-03
2.507999999999999829e+01,1.399989880664105103e-02
2.512000000000000099e+01,1.586052408042107342e-02
2.516000000000000014e+01,7.829994953475754790e-03
2.519999999999999929e+01,1.188882351202135042e-02
2.523999999999999844e+01,2.152135693711062711e-02
2.528000000000000114e+01,8.545436862068654313e-03
2.532000000000000028e+01,1.896313587167932843e-02
2.535999999999999943e+01,1.218900619151058566e-02
2.539999999999999858e+01,1.569868812640532255e-02
2.544000000000000128e+01,1.481233836117098329e-02
2.548000000000000043e+01,1.416156417750292010e-02
2.551999999999999957e+01,1.139130983627099046e-02
2.555999999999999872e+01,5.559552568849285108e-03
2.560000000000000142e+01,7.264038865727568198e-03
2.564000000000000057e+01,9.596606749485212320e-03
2.567999999999999972e+01,1.114422246132823306e-02
2.571999999999999886e+01,7.196775311286639568e-03
2.576000000000000156e+01,1.832174441507275833e-02
2.580000000000000071e+01,1.311839630653042522e-02
2.583999999999999986e+01,1.325323574509719611e-02
2.587999999999999901e+01,5.694957881168550076e-03
2.592000000000000171e+01,9.912016186731587714e-03
2.596000000000000085e+01,5.179926306104514627e-03
2.600000000000000000e+01,9.632610572465017881e-03
2.603999999999999915e+01,9.767753146040602033e-03
2.607999999999999829e+01,7.469397199213215384e-03
2.612000000000000099e+01,5.720611548090143161e-03
2.616000000000000014e+01,1.245008040554250114e-02
2.619999999999999929e+01,1.156492748587383858e-02
2.623999999999999844e+01,6.283727100275480863e-03
2.628000000000000114e+01,4.927672620091794013e-03
2.632000000000000028e+01,1.275638598057545793e-02
2.635999999999999943e+01,3.942763765891425104e-03
2.639999999999999858e+01,8.945515885279866145e-03
2.644000000000000128e+01,1.300629719185367184e-02
2.648000000000000043e+01,1.274952813445211913e-02
2.651999999999999957e+01,9.431237231899905829e-03
2.655999999999999872e+01,1.003808671673219431e-02
2.660000000000000142e+01,9.938467730673652967e-03
2.664000000000000057e+01,6.070808049342360513e-03
2.667999999999999972e+01,8.247835846281338645e-03
2.671999999999999886e+01,9.639890975764755371e-03
2.676000000000000156e+01,2.632294975120041437e-03
2.680000000000000071e+01,1.532870280274731094e-02
2.683999999999999986e+01,0.000000000000000000e+00
2.687999999999999901e+01,2.054667677804570755e-02
2.692000000000000171e+01,1.346075050761007079e-02
2.696000000000000085e+01,1.186999337555183325e-02
2.700000000000000000e+01,1.585290642527573471e-02
2.703999999999999915e+01,1.355571228259710298e-02
2.707999999999999829e+01,7.725974268539290667e-03
2.712000000000000099e+01,1.013896634901208585e-02
2.716000000000000014e+01,4.701812238318966650e-03
2.719999999999999929e+01,1.661359912215754076e-02
2.723999999999999844e+01,1.541561551470758788e-02
2.728000000000000114e+01,1.178410973815359822e-02
2.732000000000000028e+01,1.349076234197730748e-02
2.735999999999999943e+01,1.347040768536891114e-02
2.739999999999999858e+01,1.329308161393162949e-02
2.744000000000000128e+01,2.120147566731531152e-02
2.748000000000000043e+01,1.709912014339551659e-02
2.751999999999999957e+01,1.354630732502871276e-02
2.755999999999999872e+01,1.454662984035285864e-02
2.760000000000000142e+01,1.554698066278720724e-02
2.764000000000000057e+01,1.270076925100320324e-02
2.767999999999999972e+01,1.487870179820801816e-02
2.771999999999999886e+01,1.093351741546903615e-02
2.776000000000000156e+01,1.790011279223867671e-02
2.780000000000000071e+01,1.937160431604180097e-02
2.783999999999999986e+01,1.369945273300044418e-02
2.787999999999999901e+01,8.576836760901720980e-03
2.792000000000000171e+01,2.519925016901531853e-02
2.796000000000000085e+01,2.196072137087850054e-02
2.800000000000000000e+01,2.037075146253954083e-02
2.803999999999999915e+01,3.408865837058020626e-02
2.807999999999999829e+01,2.017393936972848578e-02
2.812000000000000099e+01,2.423615788629487899e-02
2.816000000000000014e+01,3.316550723898031849e-02
2.819999999999999929e+01,4.185936757934145824e-02
2.823999999999999844e+01,3.838545970149914721e-02
2.828000000000000114e+01,4.778586712776160261e-02
2.832000000000000028e+01,6.095437659325760732e-02
2.835999999999999943e+01,7.969652943867444606e-02
2.839999999999999858e+01,1.083299256189286797e-01
2.844000000000000128e+01,1.410454288003249457e-01
2.848000000000000043e+01,1.813756206208332888e-01
2.851999999999999957e+01,2.317540570746981499e-01
2.855999999999999872e+01,2.826035139068804880e-01
2.860000000000000142e+01,2.900414664117720864e-01
2.864000000000000057e+01,2.860966611325065356e-01
2.867999999999999972e+01,2.584443097047313120e-01
2.871999999999999886e+01,2.285939132244946548e-01
2.876000000000000156e+01,1.902653243679333639e-01
2.880000000000000071e+01,1.305842419488321693e-01
2.883999999999999986e+01,1.045019473651669639e-01
2.887999999999999901e+01,8.061770715078148131e-02
2.892000000000000171e+01,6.191459012178297111e-02
2.896000000000000085e+01,5.090465410411073449e-02
2.900000000000000000e+01,3.942370781322944440e-02
2.903999999999999915e+01,3.869751239318627856e-02
2.907999999999999829e+01,3.035663843913946267e-02
2.912000000000000099e+01,3.190699363070932659e-02
2.916000000000000014e+01,2.262409361221421819e-02
2.919999999999999929e+01,1.946433324141183183e-02
2.923999999999999844e+01,2.266321722509611475e-02
2.928000000000000114e+01,1.597086561418126910e-02
2.932000000000000028e+01,1.524464762269969048e-02
2.935999999999999943e+01,6.589738252405527401e-03
2.939999999999999858e+01,1.175114409443110339e-02
2.944000000000000128e+01,5.686780049888096045e-03
2.948000000000000043e+01,1.673580657226074811e-02
2.951999999999999957e+01,1.475351950250738606e-02
2.955999999999999872e+01,6.020064587911259056e-03
2.960000000000000142e+01,1.267295757807802674e-02
2.964000000000000057e+01,1.061213535445531923e-02
2.967999999999999972e+01,8.237293120082265011e-03
2.971999999999999886e+01,1.080805281021148846e-02
2.976000000000000156e+01,1.298628908131567970e-02
2.980000000000000071e+01,1.971761654186871340e-02
2.983999999999999986e+01,8.550510538906222480e-03
2.987999999999999901e+01,9.708175486584372932e-03
2.992000000000000171e+01,1.408439812003195457e-02
2.996000000000000085e+01,8.255364431171112113e-03
3.000000000000000000e+01,1.153252422859956001e-02
3.003999999999999915e+01,1.308262395016337662e-02
3.007999999999999829e+01,7.960047410808621104e-03
3.012000000000000099e+01,4.956998972047788402e-03
3.016000000000000014e+01,1.200216284675205067e-02
3.019999999999999929e+01,6.408508886873050953e-03
3.023999999999999844e+01,6.623966752367159254e-03
3.028000000000000114e+01,6.760898277844391152e-03
3.032000000000000028e+01,2.894211090281482209e-03
3.035999999999999943e+01,1.166629272065741393e-02
3.039999999999999858e+01,5.758504950938608466e-03
3.044000000000000128e+01,7.151359867341357951e-03
3.048000000000000043e+01,1.097774311650635652e-02
3.051999999999999957e+01,1.401907881066228462e-02
3.055999999999999872e+01,1.274278373525919612e-02
3.060000000000000142e+01,7.148857102006997248e-03
3.064000000000000057e+01,4.380964806830236515e-03
3.067999999999999972e+01,9.070714131424130813e-03
3.071999999999999886e+01,1.462395042514674955e-02
3.076000000000000156e+01,3.927273590271001570e-03
3.080000000000000071e+01,1.120748145738096647e-02
3.083999999999999986e+01,2.865789272869786325e-03
3.087999999999999901e+01,8.340383133947006089e-03
3.092000000000000171e+01,1.789703512218404277e-02
3.096000000000000085e+01,7.985194940891223586e-03
3.100000000000000000e+01,4.824473587796800945e-03
3.103999999999999915e+01,3.390753046152102795e-03
3.107999999999999829e+01,2.899014210720484135e-03
3.112000000000000099e+01,1.567404386927434903e-02
3.116000000000000014e+01,1.494671662564277248e-02
3.119999999999999929e+01,8.567214861002245274e-03
3.123999999999999844e+01,1.003785283854520018e-02
3.128000000000000114e+01,8.839384322896413210e-03
3.132000000000000028e+01,1.399951917065237091e-02
3.135999999999999943e+01,2.752725402070063145e-03
3.139999999999999858e+01,9.325800847733619822e-03
3.144000000000000128e+01,1.338677031043461821e-02
3.148000000000000043e+01,1.132454874392842085e-02
3.151999999999999957e+01,1.389388630209413729e-02
3.155999999999999872e+01,1.222407521514458188e-02
3.160000000000000142e+01,1.966042608288279953e-02
3.164000000000000057e+01,1.814751682724571533e-02
3.167999999999999972e+01,1.514302067093652171e-02
3.171999999999999886e+01,2.642580499629292035e-02
3.176000000000000156e+01,2.302869311969335184e-02
3.180000000000000071e+01,1.916051578958219079e-02
3.183999999999999986e+01,2.408448835763992921e-02
3.187999999999999901e+01,2.351327666714745149e-02
3.192000000000000171e+01,2.529706309928121677e-02
3.196000000000000085e+01,2.574626077610194658e-02
3.200000000000000000e+01,2.015075900763968822e-02
3.203999999999999915e+01,2.287639220572814866e-02
3.207999999999999829e+01,1.680976027264022982e-02
3.211999999999999744e+01,2.377437163120289798e-02
3.215999999999999659e+01,2.139720346014645572e-02
3.220000000000000284e+01,2.380858467622066349e-02
3.224000000000000199e+01,1.679968295440101983e-02
3.228000000000000114e+01,1.654187483549862323e-02
3.232000000000000028e+01,1.706902032242878231e-02
3.235999999999999943e+01,1.429902337877889638e-02
3.239999999999999858e+01,1.718109202945078059e-02
3.243999999999999773e+01,1.527448187076390490e-02
3.247999999999999687e+01,1.988345587846005943e-02
3.252000000000000313e+01,1.656367623243076848e-02
3.256000000000000227e+01,2.282105061229637577e-02
3.260000000000000142e+01,1.675356718695516361e-02
3.264000000000000057e+01,1.429709700213423716e-02
3.267999999999999972e+01,9.014489070580966948e-03
3.271999999999999886e+01,6.950383644494529008e-03
3.275999999999999801e+01,1.179436602523417123e-02
3.279999999999999716e+01,8.788091065912802605e-03
3.284000000000000341e+01,8.136796098546866807e-03
3.288000000000000256e+01,1.360856825619023193e-02
3.292000000000000171e+01,4.753297667332911447e-04
3.296000000000000085e+01,1.191308727395196110e-02
3.300000000000000000e+01,2.469279438344951921e-03
3.303999999999999915e+01,8.097744387779019434e-03
3.307999999999999829e+01,4.070404350144434837e-03
3.311999999999999744e+01,3.811071756939024124e-03
3.315999999999999659e+01,4.493679878864752231e-03
3.320000000000000284e+01,1.020032317575420358e-02
3.324000000000000199e+01,6.329660164109581801e-03
3.328000000000000114e+01,1.015209302846721041e-02
3.332000000000000028e+01,1.106987370175724524e-02
3.335999999999999943e+01,7.434462930101675554e-03
3.339999999999999858e+01,9.529599877211622494e-03
3.343999999999999773e+01,1.523573429904109822e-02
3.347999999999999687e+01,3.592876344824389584e-03
3.352000000000000313e+01,6.943779884473606084e-03
3.356000000000000227e+01,1.217863823668962134e-02
3.360000000000000142e+01,8.935208829486507298e-03
3.364000000000000057e+01,3.258131915063497246e-03
3.367999999999999972e+01,1.626439943099556792e-02
3.371999999999999886e+01,1.647477607943182917e-02
3.375999999999999801e+01,1.118993141968611764e-02
3.379999999999999716e+01,1.524671085376015991e-02
3.384000000000000341e+01,1.427927839324019503e-02
3.388000000000000256e+01,2.069092265759326851e-02
3.392000000000000171e+01,9.439558547931093530e-03
3.396000000000000085e+01,1.710703884567773420e-02
3.400000000000000000e+01,1.331315389670761386e-02
3.403999999999999915e+01,2.003841578723702249e-02
3.407999999999999829e+01,1.530231085446960224e-02
3.411999999999999744e+01,1.472670281735372934e-02
3.415999999999999659e+01,4.887777667811580608e-03
3.420000000000000284e+01,9.100578630868789293e-03
3.424000000000000199e+01,1.213574956947018058e-02
3.428000000000000114e+01,1.446430068549374101e-02
3.432000000000000028e+01,2.001132277538265544e-02
3.435999999999999943e+01,2.681426925848032564e-02
3.439999999999999858e+01,2.207734078026617544e-02
3.443999999999999773e+01,2.526899081272725861e-02
3.447999999999999687e+01,1.495821851492981636e-02
3.452000000000000313e+01,1.909167518188475271e-02
3.456000000000000227e+01,1.686637462621568342e-02
3.460000000000000142e+01,1.746703036790839617e-02
3.464000000000000057e+01,1.359297127106899421e-02
3.467999999999999972e+01,1.976703541092055677e-02
3.471999999999999886e+01,1.942533551159863342e-02
3.475999999999999801e+01,1.664996603293578126e-02
3.479999999999999716e+01,1.356047564239791330e-02
3.484000000000000341e+01,1.737903206760425465e-02
3.488000000000000256e+01,2.543657224264610217e-02
3.492000000000000171e+01,1.308352022710850340e-02
3.496000000000000085e+01,1.462517568327019631e-02
3.500000000000000000e+01,1.224162202815210626e-02
3.503999999999999915e+01,1.974918085172530993e-02
3.507999999999999829e+01,1.893542641253739486e-02
3.511999999999999744e+01,1.851406124040617246e-02
3.515999999999999659e+01,1.660104058636962046e-02
3.520000000000000284e+01,1.209733801841243912e-02
3.524000000000000199e+01,1.301013958110041648e-02
3.528000000000000114e+01,1.211727597023431850e-02
3.532000000000000028e+01,1.491387461615068834e-02
3.535999999999999943e+01,1.904487977971952226e-02
3.539999999999999858e+01,1.736662398843621946e-02
3.543999999999999773e+01,2.149737754482125909e-02
3.547999999999999687e+01,1.652179163859814753e-02
3.552000000000000313e+01,1.774772266193661366e-02
3.556000000000000227e+01,2.085756908334000445e-02
3.560000000000000142e+01,1.439006268709713994e-02
3.564000000000000057e+01,8.942949963697840662e-03
3.567999999999999972e+01,1.629150487905184005e-02
3.571999999999999886e+01,1.916532367204276666e-02
3.575999999999999801e+01,1.772140921776987552e-02
3.579999999999999716e+01,1.588485231267638617e-02
3.584000000000000341e+01,2.401789395216812409e-02
3.588000000000000256e+01,2.524263953360200013e-02
3.592000000000000171e+01,1.798905163479461167e-02
3.596000000000000085e+01,2.360962768840499382e-02
3.600000000000000000e+01,2.640400056720996688e-02
3.603999999999999915e+01,2.362460537360621879e-02
3.607999999999999829e+01,2.908776369756484181e-02
3.611999999999999744e+01,3.070419266981731787e-02
3.615999999999999659e+01,3.114295377969223885e-02
3.620000000000000284e+01,3.150307188262486263e-02
3.624000000000000199e+01,3.445360846794379150e-02
3.628000000000000114e+01,3.245838690467110765e-02
3.632000000000000028e+01,2.488939175095945464e-02
3.635999999999999943e+01,2.878151969626119300e-02
3.639999999999999858e+01,2.780638895979587258e-02
3.643999999999999773e+01,3.122721489324396804e-02
3.647999999999999687e+01,1.910453145787045781e-02
3.652000000000000313e+01,3.045374821763398299e-02
3.656000000000000227e+01,2.696597051724779898e-02
3.660000000000000142e+01,1.931744667889636821e-02
3.664000000000000057e+01,3.239325656149857902e-02
3.667999999999999972e+01,2.607896338079037160e-02
3.671999999999999886e+01,2.643717447111063740e-02
3.675999999999999801e+01,2.459718206267215435e-02
3.679999999999999716e+01,2.534759710055944568e-02
3.684000000000000341e+01,1.785516602261866953e-02
3.688000000000000256e+01,1.554370126034755779e-02
3.692000000000000171e+01,1.629365256970014691e-02
3.696000000000000085e+01,1.617992757765308529e-02
3.700000000000000000e+01,1.363248886202303618e-02
3.703999999999999915e+01,2.026960672533047528e-02
3.707999999999999829e+01,2.714207156609348831e-02
3.711999999999999744e+01,2.098307303962356971e-02
3.715999999999999659e+01,1.568743456758647098e-02
3.720000000000000284e+01,2.004736051149468359e-02
3.724000000000000199e+01,1.553641780311714252e-02
3.728000000000000114e+01,1.652044085428756859e-02
3.732000000000000028e+01,1.452123105369206371e-02
3.735999999999999943e+01,1.220784989065921110e-02
3.739999999999999858e+01,1.146434053757096165e-02
3.743999999999999773e+01,1.872785240509982838e-02
3.747999999999999687e+01,1.280289014739611347e-02
3.752000000000000313e+01,1.252989258288948402e-02
3.756000000000000227e+01,5.819576842311408038e-03
3.760000000000000142e+01,9.628337783419616339e-03
3.764000000000000057e+01,1.461445664625889325e-02
3.767999999999999972e+01,1.339876046324058913e-02
3.771999999999999886e+01,1.540146824943457518e-02
3.775999999999999801e+01,1.394992352250423208e-02
3.779999999999999716e+01,1.681580683193138054e-02
3.784000000000000341e+01,1.073230783302758264e-02
3.788000000000000256e+01,1.155679573982518193e-02
3.792000000000000171e+01,1.198859941643023487e-02
3.796000000000000085e+01,1.210621990624742399e-02
3.800000000000000000e+01,1.418620954013198598e-02
3.803999999999999915e+01,1.006437703354864412e-02
3.807999999999999829e+01,1.442056412510985507e-02
3.811999999999999744e+01,1.916908136197500306e-02
3.815999999999999659e+01,1.724476310333418472e-02
3.820000000000000284e+01,1.351472212596659811e-02
3.824000000000000199e+01,1.543663165257544261e-02
3.828000000000000114e+01,1.500330406201480851e-02
3.832000000000000028e+01,1.001668727854400018e-02
3.835999999999999943e+01,1.170254244621017625e-02
3.839999999999999858e+01,1.221068560725672297e-02
3.843999999999999773e+01,1.099160315153098304e-02
3.847999999999999687e+01,2.068408919358400919e-02
3.852000000000000313e+01,1.828710625858883179e-02
3.856000000000000227e+01,1.220034954958457846e-02
3.860000000000000142e+01,1.129452525977844325e-02
3.864000000000000057e+01,1.643315274952167684e-02
3.867999999999999972e+01,1.152335573311786578e-02
3.871999999999999886e+01,9.517935651896718835e-03
3.875999999999999801e+01,1.520550345094285466e-02
3.879999999999999716e+01,1.257168467625444618e-02
3.884000000000000341e+01,1.621781923474922144e-02
3.888000000000000256e+01,2.002076346595326600e-02
3.892000000000000171e+01,1.471730044160600263e-02
3.896000000000000085e+01,2.087490927741976129e-02
3.900000000000000000e+01,1.784760744940745367e-02
3.903999999999999915e+01,1.835269090381489582e-02
3.907999999999999829e+01,2.411719914963464384e-02
3.911999999999999744e+01,2.038278703997961627e-02
3.915999999999999659e+01,2.646090438344741655e-02
3.920000000000000284e+01,2.704369321128825138e-02
3.924000000000000199e+01,2.621324798333472469e-02
3.928000000000000114e+01,2.773765583264072021e-02
3.932000000000000028e+01,2.227519799925102573e-02
3.935999999999999943e+01,3.667350013445116325e-02
3.939999999999999858e+01,2.759955035449577695e-02
3.943999999999999773e+01,2.252898896422775299e-02
3.947999999999999687e+01,2.664293606720494201e-02
3.952000000000000313e+01,2.000192562469231897e-02
3.956000000000000227e+01,2.576399719832613705e-02
3.960000000000000142e+01,2.540271771987532429e-02
3.964000000000000057e+01,2.731778239237905859e-02
3.967999999999999972e+01,2.530754572366867433e-02
3.971999999999999886e+01,2.643717177797408682e-02
3.975999999999999801e+01,2.913662313311192117e-02
3.979999999999999716e+01,1.943257295914169180e-02
3.984000000000000341e+01,3.296485205715150857e-02
3.988000000000000256e+01,3.181707493032787104e-02
3.992000000000000171e+01,3.051207965389389834e-02
3.996000000000000085e+01,2.904986543955950448e-02
4.000000000000000000e+01,4.368031065983045413e-02
4.003999999999999915e+01,4.135414338296252573e-02
4.007999999999999829e+01,3.839974381315608420e-02
4.011999999999999744e+01,4.235328700480901071e-02
4.015999999999999659e+01,5.180173919912725577e-02
4.020000000000000284e+01,5.269327173447569540e-02
4.024000000000000199e+01,5.217155050677882433e-02
4.028000000000000114e+01,6.577993740329038386e-02
4.032000000000000028e+01,6.981087846393135843e-02
4.035999999999999943e+01,7.305657805021428808e-02
4.039999999999999858e+01,9.914608671394337103e-02
4.043999999999999773e+01,1.214672827223370194e-01
4.047999999999999687e+01,1.380576194947384927e-01
4.052000000000000313e+01,1.701910926321122119e-01
4.056000000000000227e+01,2.108810383253428289e-01
4.060000000000000142e+01,2.905861664836705271e-01
4.064000000000000057e+01,3.785337582944964807e-01
4.067999999999999972e+01,5.146812453021153422e-01
4.071999999999999886e+01,6.903934252318236764e-01
4.075999999999999801e+01,8.317215718389567858e-01
4.079999999999999716e+01,9.532670250304324799e-01
4.084000000000000341e+01,1.000000000000000000e+00
4.088000000000000256e+01,9.474279244706338421e-01
4.092000000000000171e+01,8.419453801855911745e-01
4.096000000000000085e+01,6.998807473490725739e-01
4.100000000000000000e+01,5.600924318616470332e-01
4.103999999999999915e+01,4.374957809570111933e-01
4.107999999999999829e+01,3.240836070140192815e-01
4.111999999999999744e+01,2.458400155353153149e-01
4.115999999999999659e+01,1.885561741958748094e-01
4.120000000000000284e+01,1.569421921090877747e-01
4.124000000000000199e+01,1.295670684340204104e-01
4.128000000000000114e+01,1.203256265923385165e-01
4.132000000000000028e+01,9.930866792008447019e-02
4.135999999999999943e+01,9.901594995055977566e-02
4.139999999999999858e+01,9.723145352588402623e-02
4.143999999999999773e+01,1.038464086512951162e-01
4.147999999999999687e+01,1.053584994870204461e-01
4.152000000000000313e+01,1.121299670284658934e-01
4.156000000000000227e+01,1.187441841004094473e-01
4.160000000000000142e+01,1.335223440741956646e-01
4.164000000000000057e+01,1.289888050684015741e-01
4.167999999999999972e+01,1.361517898141300087e-01
4.171999999999999886e+01,1.163883963293155244e-01
4.175999999999999801e+01,9.529022095812900162e-02
4.179999999999999716e+01,8.769410910257220693e-02
4.184000000000000341e+01,7.421010754577266055e-02
4.188000000000000256e+01,6.622098109516691422e-02
4.192000000000000171e+01,4.904688643556245897e-02
4.196000000000000085e+01,4.623837228706886848e-02
4.200000000000000000e+01,3.926900558145508813e-02
4.203999999999999915e+01,2.806028369873639003e-02
4.207999999999999829e+01,2.894058684311315993e-02
4.211999999999999744e+01,2.864310466989692175e-02
4.215999999999999659e+01,2.473427960826300037e-02
4.220000000000000284e+01,2.192422077160126673e-02
4.224000000000000199e+01,2.319599697601898783e-02
4.228000000000000114e+01,2.195545357087423308e-02
4.232000000000000028e+01,2.236318684769421014e-02
4.235999999999999943e+01,1.766803849244767341e-02
4.239999999999999858e+01,2.097981360985371954e-02
4.243999999999999773e+01,1.793267621149852165e-02
4.247999999999999687e+01,1.888886729278789478e-02
4.252000000000000313e+01,2.000179631239320382e-02
4.256000000000000227e+01,2.048644416507772181e-02
4.260000000000000142e+01,2.073531922102475958e-02
4.264000000000000057e+01,1.800085658263101199e-02
4.267999999999999972e+01,1.620814704633969164e-02
4.271999999999999886e+01,1.574969898233407814e-02
4.275999999999999801e+01,1.097337972030821424e-02
4.279999999999999716e+01,1.271244124583595370e-02
4.284000000000000341e+01,1.248868494760333944e-02
4.288000000000000256e+01,1.430570345374828321e-02
4.292000000000000171e+01,1.109833112346087988e-02
4.296000000000000085e+01,1.181577598164292552e-02
4.300000000000000000e+01,1.520200793288976546e-02
4.303999999999999915e+01,1.105178806860480055e-02
4.307999999999999829e+01,1.357394713723249734e-02
4.311999999999999744e+01,1.122871509136697324e-02
4.315999999999999659e+01,9.982230351512782346e-03
4.320000000000000284e+01,1.525111851631178080e-02
4.324000000000000199e+01,9.843477656342216470e-03
4.328000000000000114e+01,1.699584916493501394e-02
4.332000000000000028e+01,1.786779264708042089e-02
4.335999999999999943e+01,1.442185310685505963e-02
4.339999999999999858e+01,1.121113599425947217e-02
4.343999999999999773e+01,1.161121928387426165e-02
4.347999999999999687e+01,1.020547580047745546e-02
4.352000000000000313e+01,1.256753480610022303e-02
4.356000000000000227e+01,1.226024531349005284e-02
4.360000000000000142e+01,1.069663950486083107e-02
4.364000000000000057e+01,1.541289243461037121e-02
4.367999999999999972e+01,7.882571034507674171e-03
4.371999999999999886e+01,1.354026798533422386e-02
4.375999999999999801e+01,1.762763814020294403e-02
4.379999999999999716e+01,2.061569170099177700e-02
4.384000000000000341e+01,1.088615678860017227e-02
4.388000000000000256e+01,1.096905831110707788e-02
4.392000000000000171e+01,1.285720864736661709e-02
4.396000000000000085e+01,6.894881710644879154e-03
4.400000000000000000e+01,1.168701082428754735e-02
4.403999999999999915e+01,1.467330212885809351e-02
4.407999999999999829e+01,5.334509388981330084e-03
4.411999999999999744e+01,1.789743043524136962e-02
4.415999999999999659e+01,1.601571640471803962e-02
4.420000000000000284e+01,1.507572552127574295e-02
4.424000000000000199e+01,1.240839471900582677e-02
4.428000000000000114e+01,1.625641553755810542e-02
4.432000000000000028e+01,1.225395198851880231e-02
4.435999999999999943e+01,1.476683848372162960e-02
4.439999999999999858e+01,2.002698631353261663e-02
4.443999999999999773e+01,1.225552651903395913e-02
4.447999999999999687e+01,1.390398217660997367e-02
4.452000000000000313e+01,9.193484327342821283e-03
4.456000000000000227e+01,1.013481243222631376e-02
4.460000000000000142e+01,1.531493273246642937e-02
4.464000000000000057e+01,1.044651107134400222e-02
4.467999999999999972e+01,1.052339651425011381e-02
4.471999999999999886e+01,6.988888618176188582e-03
4.475999999999999801e+01,1.177526501242133136e-02
4.479999999999999716e+01,8.946653074678437637e-03
4.484000000000000341e+01,8.080275483406645920e-03
4.488000000000000256e+01,5.800552687445313833e-03
4.492000000000000171e+01,1.349024949423086733e-02
4.496000000000000085e+01,1.537049694484554467e-02
4.500000000000000000e+01,1.622990598437388729e-02
4.503999999999999915e+01,1.230038790318192105e-02
4.507999999999999829e+01,1.025459760702615228e-02
4.511999999999999744e+01,1.260459292184587000e-02
4.515999999999999659e+01,1.236371003852579364e-02
4.520000000000000284e+01,1.047397014911188168e-02
4.524000000000000199e+01,1.156698053529935620e-02
4.528000000000000114e+01,9.990608526782270363e-03
4.532000000000000028e+01,1.304552368287447035e-02
4.535999999999999943e+01,1.052648709497941253e-02
4.539999999999999858e+01,1.224622693664023827e-02
4.543999999999999773e+01,1.059006474518434104e-02
4.547999999999999687e+01,7.520545524688379557e-03
4.552000000000000313e+01,8.611298537183521493e-03
4.556000000000000227e+01,1.103625705337176431e-02
4.560000000000000142e+01,1.385339830462711808e-02
4.564000000000000057e+01,1.729822699774350922e-02
4.567999999999999972e+01,1.038048590717776873e-02
4.571999999999999886e+01,7.858518603236955280e-03
4.575999999999999801e+01,1.122385909982966459e-02
4.579999999999999716e+01,1.144879596377935439e-02
4.584000000000000341e+01,1.669751890304116068e-02
4.588000000000000256e+01,8.679100344468030845e-03
4.592000000000000171e+01,1.416266410765083285e-02
4.596000000000000085e+01,8.184626925395900934e-03
4.600000000000000000e+01,1.233299172544624449e-02
4.603999999999999915e+01,1.428297014344930699e-02
4.607999999999999829e+01,1.285703391569507047e-02
4.611999999999999744e+01,1.386431779929876359e-02
4.615999999999999659e+01,1.871785397647432458e-02
4.620000000000000284e+01,1.344431561728125918e-02
4.624000000000000199e+01,1.523560307456124120e-02
4.628000000000000114e+01,1.459299392496977467e-02
4.632000000000000028e+01,1.269401485563676629e-02
4.635999999999999943e+01,9.224657751493494859e-03
4.639999999999999858e+01,1.399765078608315727e-02
4.643999999999999773e+01,1.547322391199985013e-02
4.647999999999999687e+01,1.420088916281621663e-02
4.652000000000000313e+01,9.552631096684900333e-03
4.656000000000000227e+01,9.928144916645065265e-03
4.660000000000000142e+01,9.832301615780079593e-03
4.664000000000000057e+01,1.020712238613590700e-02
4.667999999999999972e+01,1.018908629078118556e-02
4.671999999999999886e+01,9.621188878036561129e-03
4.675999999999999801e+01,1.219301544926123561e-02
4.679999999999999716e+01,7.385319769080040536e-03
4.684000000000000341e+01,1.184048936847199168e-02
4.688000000000000256e+01,1.496077618036723532e-02
4.692000000000000171e+01,1.651067392139171641e-02
4.696000000000000085e+01,1.829572393223272489e-02
4.700000000000000000e+01,1.183772760157634531e-02
4.703999999999999915e+01,1.252304315328696231e-02
4.707999999999999829e+01,1.564155989739463709e-02
4.711999999999999744e+01,1.318609021275342699e-02
4.715999999999999659e+01,1.190779083681453403e-02
4.720000000000000284e+01,1.047212984247862869e-02
4.724000000000000199e+01,1.170517238246360399e-02
4.728000000000000114e+01,1.238834256899813170e-02
4.732000000000000028e+01,1.668223669360949582e-02
4.735999999999999943e+01,8.886487629074521846e-03
4.739999999999999858e+01,1.616272835345743467e-02
4.743999999999999773e+01,1.236984812414459491e-02
4.747999999999999687e+01,1.681929674973367539e-02
4.752000000000000313e+01,1.114164482538291916e-02
4.756000000000000227e+01,1.488384765477398890e-02
4.760000000000000142e+01,1.619212786372236854e-02
4.764000000000000057e+01,1.428146634699136233e-02
4.767999999999999972e+01,1.087890261357357669e-02
4.771999999999999886e+01,1.414862637142417015e-02
4.775999999999999801e+01,1.231536207805331365e-02
4.779999999999999716e+01,1.173775731243884880e-02
4.784000000000000341e+01,1.147378930595476659e-02
4.788000000000000256e+01,1.419251954792963288e-02
4.792000000000000171e+01,1.070923294179758518e-02
4.796000000000000085e+01,1.554676756278167843e-02
4.800000000000000000e+01,1.080670499620815621e-02
4.803999999999999915e+01,8.735330198154792405e-03
4.807999999999999829e+01,1.255121747981283002e-02
4.811999999999999744e+01,1.644523050748699158e-02
4.815999999999999659e+01,1.225317799664203330e-02
4.820000000000000284e+01,1.583242916131034558e-02
4.824000000000000199e+01,9.598572913596821118e-03
4.828000000000000114e+01,1.513961218124442766e-02
4.832000000000000028e+01,1.455712854957941400e-02
4.835999999999999943e+01,1.523029340961026649e-02
4.839999999999999858e+01,1.315551255661904367e-02
4.843999999999999773e+01,1.712499035211821619e-02
4.847999999999999687e+01,1.497094209514462405e-02
4.852000000000000313e+01,1.650609595924139653e-02
4.856000000000000227e+01,1.623532293749191391e-02
4.860000000000000142e+01,1.321660026127016718e-02
4.864000000000000057e+01,1.106101140024071984e-02
4.867999999999999972e+01,1.071057754644950955e-02
4.871999999999999886e+01,1.145878142635453970e-02
4.875999999999999801e+01,5.769446408977893341e-03
4.879999999999999716e+01,7.066384925817266807e-03
4.884000000000000341e+01,2.060921891212528015e-02
4.888000000000000256e+01,1.122912698040173275e-02
4.892000000000000171e+01,1.276039780275740887e-02
4.896000000000000085e+01,1.476228697551177152e-02
4.900000000000000000e+01,1.079764351141221206e-02
4.903999999999999915e+01,9.737173603665886384e-03
4.907999999999999829e+01,1.008934166178410662e-02
4.911999999999999744e+01,1.193264872917153621e-02
4.915999999999999659e+01,9.693463967216858074e-03
4.920000000000000284e+01,1.373402837132587512e-02
4.924000000000000199e+01,9.610004121390132437e-03
4.928000000000000114e+01,9.175167015014057403e-03
4.932000000000000028e+01,8.504424679174338308e-03
4.935999999999999943e+01,1.183687523709288369e-02
4.939999999999999858e+01,1.108682923592912116e-02
4.943999999999999773e+01,9.315857323484935323e-03
4.947999999999999687e+01,1.421713821754754491e-02
4.952000000000000313e+01,1.401539637562707573e-02
4.956000000000000227e+01,1.412725739636539433e-02
4.960000000000000142e+01,1.306118568927383712e-02
4.964000000000000057e+01,1.474227205079565832e-02
4.967999999999999972e+01,1.053531420622757370e-02
4.971999999999999886e+01,1.582667037943401994e-02
4.975999999999999801e+01,1.821305037436779517e-02
4.979999999999999716e+01,1.643842409562420309e-02
4.984000000000000341e+01,1.536990431998250077e-02
4.988000000000000256e+01,1.249543164492331743e-02
4.992000000000000171e+01,1.126908587672193970e-02
4.996000000000000085e+01,8.707796622691027499e-03
5.000000000000000000e+01,1.117021146180841550e-02
5.003999999999999915e+01,1.410322336749350938e-02
5.007999999999999829e+01,1.837035170009757371e-02
5.011999999999999744e+01,1.572890334339071064e-02
5.015999999999999659e+01,1.740463944142003547e-02
5.020000000000000284e+01,2.433958118623149453e-02
5.024000000000000199e+01,1.737928085603669334e-02
5.028000000000000114e+01,2.454889157754113621e-02
5.032000000000000028e+01,2.787149310437643177e-02
5.035999999999999943e+01,3.998587955109365877e-02
5.039999999999999858e+01,4.307213433471372005e-02
5.043999999999999773e+01,6.154432632398756237e-02
5.047999999999999687e+01,6.902583928121752699e-02
5.052000000000000313e+01,7.485839038977877558e-02
5.056000000000000227e+01,8.469411074339719403e-02
5.060000000000000142e+01,7.129286395573379564e-02
5.064000000000000057e+01,6.919545518415139151e-02
5.067999999999999972e+01,6.066046967736553330e-02
5.071999999999999886e+01,5.016251105368211421e-02
5.075999999999999801e+01,4.139116461446037953e-02
5.079999999999999716e+01,3.309040026429563297e-02
5.084000000000000341e+01,2.565272637337116801e-02
5.088000000000000256e+01,2.543679052066485577e-02
5.092000000000000171e+01,2.153083731232816392e-02
5.096000000000000085e+01,1.840947036666698566e-02
5.100000000000000000e+01,1.568017973691794575e-02
5.103999999999999915e+01,1.664004156596696204e-02
5.107999999999999829e+01,1.673594882723343155e-02
5.111999999999999744e+01,1.165029998922066483e-02
5.115999999999999659e+01,1.307986718614381760e-02
5.120000000000000284e+01,1.576502690617024097e-02
5.124000000000000199e+01,1.601619227136063736e-02
5.128000000000000114e+01,1.901448338527290602e-02
5.132000000000000028e+01,1.298462470541716061e-02
5.135999999999999943e+01,1.511851658463510446e-02
5.139999999999999858e+01,1.269886150010090392e-02
5.143999999999999773e+01,1.412535465485372996e-02
5.147999999999999687e+01,1.319635055672498981e-02
5.152000000000000313e+01,1.446495465571519951e-02
5.156000000000000227e+01,1.306405259846510868e-02
5.160000000000000142e+01,1.189821136938728000e-02
5.164000000000000057e+01,1.402900161628363278e-02
5.167999999999999972e+01,8.466166113610954641e-03
5.171999999999999886e+01,5.964455015248401951e-03
5.175999999999999801e+01,1.413854520728848214e-02
5.179999999999999716e+01,9.908897383209495230e-03
5.184000000000000341e+01,1.368598699533444575e-02
5.188000000000000256e+01,1.157498904541748655e-02
5.192000000000000171e+01,1.825574527207103961e-02
5.196000000000000085e+01,9.078679734880100438e-03
5.200000000000000000e+01,7.123330163786297659e-03
5.203999999999999915e+01,1.238969577049957131e-02
5.207999999999999829e+01,1.428002848795006767e-02
5.211999999999999744e+01,1.200930921090109967e-02
5.215999999999999659e+01,1.240719650849850079e-02
5.220000000000000284e+01,8.958037561795015313e-03
5.224000000000000199e+01,1.304459717822710647e-02
5.228000000000000114e+01,1.297010164699957668e-02
5.232000000000000028e+01,1.509319854709027450e-02
5.235999999999999943e+01,1.258422773277328294e-02
5.239999999999999858e+01,1.093831663438515726e-02
5.243999999999999773e+01,1.321703589972780292e-02
5.247999999999999687e+01,9.843161273761983146e-03
5.252000000000000313e+01,1.180694840545086846e-02
5.256000000000000227e+01,1.235723898076315254e-02
5.260000000000000142e+01,1.329957434038610449e-02
5.264000000000000057e+01,1.078736394299111175e-02
5.267999999999999972e+01,1.392681947686930967e-02
5.271999999999999886e+01,1.086416356783617351e-02
5.275999999999999801e+01,1.078410973587752390e-02
5.279999999999999716e+01,1.070358758830606931e-02
5.284000000000000341e+01,9.131061534633083676e-03
5.288000000000000256e+01,1.093364435163781019e-02
5.292000000000000171e+01,1.045920336901431241e-02
5.296000000000000085e+01,1.320286601709910225e-02
5.300000000000000000e+01,1.500403442778490935e-02
5.303999999999999915e+01,1.115259791110175154e-02
5.307999999999999829e+01,1.169679013567675660e-02
5.311999999999999744e+01,1.789263962033455987e-02
5.315999999999999659e+01,9.172665672782766982e-03
5.320000000000000284e+01,1.293400676616959094e-02
5.324000000000000199e+01,1.010071701040127397e-02
5.328000000000000114e+01,1.291908136155561423e-02
5.332000000000000028e+01,1.400992685204401240e-02
5.335999999999999943e+01,1.109669957443110838e-02
5.339999999999999858e+01,1.407062953395473402e-02
5.343999999999999773e+01,1.437501628760633199e-02
5.347999999999999687e+01,1.452191766132513405e-02
5.352000000000000313e+01,1.152826326242382092e-02
5.356000000000000227e+01,1.033966769937631064e-02
5.360000000000000142e+01,9.464595381693889295e-03
5.364000000000000057e+01,1.549719938343841960e-02
5.367999999999999972e+01,1.360063272602810187e-02
5.371999999999999886e+01,1.405863457317409540e-02
5.375999999999999801e+01,1.781322611692232050e-02
5.379999999999999716e+01,1.301062998308824548e-02
5.384000000000000341e+01,1.024859266216170822e-02
5.388000000000000256e+01,1.219617564347127286e-02
5.392000000000000171e+01,1.335824992010032145e-02
5.396000000000000085e+01,1.098725059444553842e-02
5.400000000000000000e+01,1.097081425531678395e-02
5.403999999999999915e+01,9.619354024774750059e-03
5.407999999999999829e+01,1.125046985773599760e-02
5.411999999999999744e+01,8.720494281695955266e-03
5.415999999999999659e+01,1.035062066799907754e-02
5.420000000000000284e+01,1.135223649498077851e-02
5.424000000000000199e+01,1.235335562790834847e-02
5.428000000000000114e+01,1.037090767409441262e-02
5.432000000000000028e+01,8.937474271508930729e-03
5.435999999999999943e+01,8.602567453724513022e-03
5.439999999999999858e+01,1.109322672973373121e-02
5.443999999999999773e+01,1.130683225109332078e-02
5.447999999999999687e+01,1.591603892355980890e-02
5.452000000000000313e+01,7.100930164154115737e-03
5.456000000000000227e+01,8.333552861291140118e-03
5.460000000000000142e+01,1.097870474026765852e-02
5.464000000000000057e+01,8.206725655357764368e-03
5.467999999999999972e+01,1.045835843366188685e-02
5.471999999999999886e+01,1.004042278081280701e-02
5.475999999999999801e+01,1.386107909765105055e-02
5.479999999999999716e+01,1.147958298049603192e-02
5.484000000000000341e+01,1.239465527611226768e-02
5.488000000000000256e+01,1.158217796775114043e-02
5.492000000000000171e+01,1.069068873271055570e-02
5.496000000000000085e+01,1.136872524828847798e-02
5.500000000000000000e+01,1.259576291416422168e-02
5.503999999999999915e+01,1.649135039780370501e-02
5.507999999999999829e+01,9.553171859434430799e-03
5.511999999999999744e+01,1.281971740493669833e-02
5.515999999999999659e+01,1.231766020437005324e-02
5.520000000000000284e+01,1.440564783671234063e-02
5.524000000000000199e+01,6.052375452359036977e-03
5.528000000000000114e+01,1.198591924683975810e-02
5.532000000000000028e+01,1.485737362734338221e-02
5.535999999999999943e+01,1.356771216185455667e-02
5.539999999999999858e+01,1.588861539985512994e-02
5.543999999999999773e+01,1.561843784917650753e-02
5.547999999999999687e+01,1.346369520678060601e-02
5.552000000000000313e+01,1.405599475436268390e-02
5.556000000000000227e+01,1.205721114839544174e-02
5.560000000000000142e+01,1.610254508700204035e-02
5.564000000000000057e+01,9.863614789402041713e-03
5.567999999999999972e+01,1.013981144996381131e-02
5.571999999999999886e+01,1.206402071532803634e-02
5.575999999999999801e+01,9.199091598242118556e-03
5.579999999999999716e+01,9.238202816493257599e-03
5.584000000000000341e+01,1.547843051296734357e-02
5.588000000000000256e+01,1.504547350144921740e-02
5.592000000000000171e+01,1.084389876635145217e-02
5.596000000000000085e+01,1.143040517410255988e-02
5.600000000000000000e+01,1.390042416370987181e-02
5.603999999999999915e+01,1.260182306486744806e-02
5.607999999999999829e+01,1.130268901062920009e-02
5.611999999999999744e+01,1.487013477777431557e-02
5.615999999999999659e+01,6.818774922133035397e-03
5.620000000000000284e+01,1.650829370922023490e-02
5.624000000000000199e+01,1.293046683135296027e-02
5.628000000000000114e+01,1.139315068070097768e-02
5.632000000000000028e+01,1.181784263727955232e-02
5.635999999999999943e+01,1.349802542754671535e-02
5.639999999999999858e+01,1.549167628287638661e-02
5.643999999999999773e+01,1.505123030566526444e-02
5.647999999999999687e+01,1.406073066829529802e-02
5.652000000000000313e+01,9.929616136552476408e-03
5.656000000000000227e+01,1.356964052770523108e-02
5.660000000000000142e+01,1.210650265553844286e-02
5.664000000000000057e+01,1.284087207936593193e-02
5.667999999999999972e+01,1.592975167428700364e-02
5.671999999999999886e+01,1.195292084865175186e-02
5.675999999999999801e+01,1.982932025258454800e-02
5.679999999999999716e+01,1.726442889651032264e-02
5.684000000000000341e+01,1.053839252771229980e-02
5.688000000000000256e+01,1.660760600394817904e-02
5.692000000000000171e+01,1.270653734547492857e-02
5.696000000000000085e+01,1.343652645921030071e-02
5.700000000000000000e+01,1.926858354703226209e-02
5.703999999999999915e+01,1.779941841289360560e-02
5.707999999999999829e+01,1.366063833848957243e-02
5.711999999999999744e+01,1.376040372466068133e-02
5.715999999999999659e+01,1.244658190110102015e-02
5.720000000000000284e+01,1.435078014950574160e-02
5.724000000000000199e+01,1.225082916567562900e-02
5.728000000000000114e+01,1.438942048926052965e-02
5.732000000000000028e+01,1.534992694503847267e-02
5.735999999999999943e+01,1.442583125946743719e-02
5.739999999999999858e+01,1.499271140712799509e-02
5.743999999999999773e+01,1.406749699533282882e-02
5.747999999999999687e+01,1.510426783035716779e-02
5.752000000000000313e+01,1.237238941020043365e-02
5.756000000000000227e+01,1.497807342315373921e-02
5.760000000000000142e+01,1.240207363384190041e-02
5.764000000000000057e+01,7.391953363288184843e-03
5.767999999999999972e+01,9.053924299783718335e-03
5.771999999999999886e+01,1.338439223861052733e-02
5.775999999999999801e+01,1.771429411385996855e-02
5.779999999999999716e+01,1.073936537321017702e-02
5.784000000000000341e+01,1.530363825151875336e-02
5.788000000000000256e+01,1.358719616580659172e-02
5.792000000000000171e+01,9.436628080822318312e-03
5.796000000000000085e+01,9.289083407238392376e-03
5.800000000000000000e+01,1.188853204965016272e-02
5.803999999999999915e+01,1.440890727875963548e-02
5.807999999999999829e+01,1.033455627561956358e-02
5.811999999999999744e+01,1.772089954171292628e-02
5.815999999999999659e+01,1.395940876068604841e-02
5.820000000000000284e+01,9.490826759639423363e-03
5.824000000000000199e+01,1.232233958313885651e-02
5.828000000000000114e+01,1.570278891715308489e-02
5.832000000000000028e+01,1.688460986407880685e-02
5.835999999999999943e+01,1.280623019953400395e-02
5.839999999999999858e+01,1.414389824570316118e-02
5.843999999999999773e+01,1.336143737160835551e-02
5.847999999999999687e+01,1.242139258132619363e-02
5.852000000000000313e+01,1.422833085926923126e-02
5.856000000000000227e+01,1.603468730783415980e-02
5.860000000000000142e+01,1.258083841518838411e-02
5.864000000000000057e+01,1.650557829588296735e-02
5.867999999999999972e+01,2.066523947741331566e-02
5.871999999999999886e+01,2.152723874522947944e-02
5.875999999999999801e+01,2.419419437119462932e-02
5.879999999999999716e+01,3.055014952769074393e-02
5.884000000000000341e+01,3.117488362306790328e-02
5.888000000000000256e+01,3.132801859257868665e-02
5.892000000000000171e+01,4.019426795620888865e-02
5.896000000000000085e+01,4.136674810148338599e-02
5.900000000000000000e+01,4.646372933092268037e-02
5.903999999999999915e+01,5.878228778741260291e-02
5.907999999999999829e+01,6.230804901695144449e-02
5.911999999999999744e+01,6.104460564767708042e-02
5.915999999999999659e+01,6.668872981380458143e-02
5.920000000000000284e+01,7.398079800350138013e-02
5.924000000000000199e+01,7.177354932783493180e-02
5.928000000000000114e+01,6.124451047393515007e-02
5.932000000000000028e+01,6.374617887446105968e-02
5.935999999999999943e+01,5.462897858899762316e-02
5.939999999999999858e+01,5.563791620867716142e-02
5.943999999999999773e+01,4.808955500187922505e-02
5.947999999999999687e+01,4.415167809298697899e-02
5.952000000000000313e+01,4.162623340625971197e-02
5.956000000000000227e+01,3.627412124189546144e-02
5.960000000000000142e+01,2.990088294058150520e-02
5.964000000000000057e+01,2.988568989332635040e-02
5.967999999999999972e+01,3.206794423202268679e-02
5.971999999999999886e+01,2.663491620654729469e-02
5.975999999999999801e+01,1.523514349419812994e-02
5.979999999999999716e+01,1.317648248714491273e-02
5.984000000000000341e+01,1.716185546592164171e-02
5.988000000000000256e+01,1.533748505634383030e-02
5.992000000000000171e+01,1.296299319366399534e-02
5.996000000000000085e+01,8.546844287393464551e-03
