2.003999999999999915e+01,6.500525825722371608e-03
2.007999999999999829e+01,2.418270786179882101e-02
2.012000000000000099e+01,2.201962606310233980e-02
2.016000000000000014e+01,7.453127787030520979e-03
2.019999999999999929e+01,1.149091052919523626e-02
2.023999999999999844e+01,2.793143472486552328e-02
2.028000000000000114e+01,1.857321693741514207e-02
2.032000000000000028e+01,1.963324785090457547e-02
2.035999999999999943e+01,1.970069471215479817e-02
2.039999999999999858e+01,2.138020406071620624e-02
2.044000000000000128e+01,2.628417611452987107e-02
2.048000000000000043e+01,1.456768438673896118e-02
2.051999999999999957e+01,9.796578960887362963e-03
2.055999999999999872e+01,1.928867640416878984e-02
2.060000000000000142e+01,2.456338892193901668e-02
2.064000000000000057e+01,1.793080746705328840e-02
2.067999999999999972e+01,2.047616631903269313e-02
2.071999999999999886e+01,2.612195670334723982e-02
2.076000000000000156e+01,2.159688401380075937e-02
2.080000000000000071e+01,1.186217980376542448e-02
2.083999999999999986e+01,2.941391105126727953e-02
2.087999999999999901e+01,2.848471611741036982e-02
2.092000000000000171e+01,3.369178598268202790e-03
2.096000000000000085e+01,1.856330934376253586e-02
2.100000000000000000e+01,1.440829821246884281e-02
2.103999999999999915e+01,1.248550264471258268e-02
2.107999999999999829e+01,2.048483157829119120e-02
2.112000000000000099e+01,1.893345089695112546e-02
2.116000000000000014e+01,2.494760959377666926e-02
2.119999999999999929e+01,9.876195077629575450e-03
2.123999999999999844e+01,1.650982991323133101e-02
2.128000000000000114e+01,1.929817126447207210e-02
2.132000000000000028e+01,1.216371035682223961e-02
2.135999999999999943e+01,2.561802152508973335e-02
2.139999999999999858e+01,1.265343522836678489e-02
2.144000000000000128e+01,1.606057403137477191e-02
2.148000000000000043e+01,2.740534414576219560e-02
2.151999999999999957e+01,2.262577221783316009e-02
2.155999999999999872e+01,1.983035356228106394e-02
2.160000000000000142e+01,2.199582708925980692e-02
2.164000000000000057e+01,1.212997448653873808e-02
2.167999999999999972e+01,1.417073820826502718e-02
2.171999999999999886e+01,2.939867788932817600e-03
2.176000000000000156e+01,3.077835663875124264e-02
2.180000000000000071e+01,1.830649897431399151e-02
2.183999999999999986e+01,2.791178221212325949e-02
2.187999999999999901e+01,2.188884607635739263e-02
2.192000000000000171e+01,1.760200114050267106e-02
2.196000000000000085e+01,1.381093944787419904e-02
2.200000000000000000e+01,1.783347756566569520e-02
2.203999999999999915e+01,1.714250562888783649e-02
2.207999999999999829e+01,2.724187235801004900e-02
2.212000000000000099e+01,1.427117197344607118e-02
2.216000000000000014e+01,1.333111804744609684e-02
2.219999999999999929e+01,1.239072387582555029e-02
2.223999999999999844e+01,2.645771501824905128e-02
2.228000000000000114e+01,2.005928542251558463e-02
2.232000000000000028e+01,1.242020751512883797e-02
2.235999999999999943e+01,1.420712919871361737e-02
2.239999999999999858e+01,1.859835695753319154e-02
2.244000000000000128e+01,2.075668991906920099e-02
2.248000000000000043e+01,2.266662067186627980e-02
2.251999999999999957e+01,2.395605679064739812e-02
2.255999999999999872e+01,2.239244399711795563e-02
2.260000000000000142e+01,2.120058278183422837e-02
2.264000000000000057e+01,1.616342622328350784e-02
2.267999999999999972e+01,1.397863693765396750e-02
2.271999999999999886e+01,2.332837018435198265e-02
2.276000000000000156e+01,1.704988285465304509e-02
2.280000000000000071e+01,6.926099962992361865e-03
2.283999999999999986e+01,1.391822499868962393e-02
2.287999999999999901e+01,1.421234618845130387e-02
2.292000000000000171e+01,3.095293449960232098e-03
2.296000000000000085e+01,2.112513512431703211e-02
2.300000000000000000e+01,7.402753168085814996e-03
2.303999999999999915e+01,1.612960284449329110e-02
2.307999999999999829e+01,1.518170943676909468e-02
2.312000000000000099e+01,1.869858297317020246e-02
2.316000000000000014e+01,1.167249778468418091e-02
2.319999999999999929e+01,1.233597997620588214e-02
2.323999999999999844e+01,1.858050605964178467e-02
2.328000000000000114e+01,1.738284300919826220e-02
2.332000000000000028e+01,1.072748341341978051e-02
2.335999999999999943e+01,2.019578471263185071e-02
2.339999999999999858e+01,2.147771197273642615e-02
2.344000000000000128e+01,1.432520355865743965e-02
2.348000000000000043e+01,1.945140137931237329e-02
2.351999999999999957e+01,1.738347131844784899e-02
2.355999999999999872e+01,2.015239997090111437e-02
2.360000000000000142e+01,1.560316984228641082e-02
2.364000000000000057e+01,2.196830703749809779e-02
2.367999999999999972e+01,8.860267902582147706e-03
2.371999999999999886e+01,1.770533631004726771e-02
2.376000000000000156e+01,1.637953754312298366e-02
2.380000000000000071e+01,1.567355029463544935e-02
2.383999999999999986e+01,1.248660475488226444e-02
2.387999999999999901e+01,1.078768615562631684e-02
2.392000000000000171e+01,1.218919471480873692e-02
2.396000000000000085e+01,1.817949986016968375e-02
2.400000000000000000e+01,1.771986120913335988e-02
2.403999999999999915e+01,2.284126535653728876e-02
2.407999999999999829e+01,1.828792505296682885e-02
2.412000000000000099e+01,1.199781081662173142e-02
2.416000000000000014e+01,2.220344875239636112e-02
2.419999999999999929e+01,1.430024833949761556e-02
2.423999999999999844e+01,1.867575312253242845e-02
2.428000000000000114e+01,1.486488266363803455e-02
2.432000000000000028e+01,1.390637723604268988e-02
2.435999999999999943e+01,1.964519128130815667e-02
2.439999999999999858e+01,1.769375308142787789e-02
2.444000000000000128e+01,1.623809473500380934e-02
2.448000000000000043e+01,1.453403144615526138e-02
2.451999999999999957e+01,1.692264081724873664e-02
2.455999999999999872e+01,5.667519794846695609e-03
2.460000000000000142e+01,9.791873231343289560e-03
2.464000000000000057e+01,1.007092859088745337e-02
2.467999999999999972e+01,8.737240042425971007e-03
2.471999999999999886e+01,1.062800834912993285e-02
2.476000000000000156e+01,6.192862610837441759e-03
2.480000000000000071e+01,1.887362212089103639e-02
2.483999999999999986e+01,2.398815957458937456e-02
2.487999999999999901e+01,2.104035175645392261e-02
2.492000000000000171e+01,8.169736758794012357e-03
2.496000000000000085e+01,1.750028918903236141e-02
2.500000000000000000e+01,1.951268092462285844e-02
2.503999999999999915e+01,9.865834253851608546e-03
2.507999999999999829e+01,1.411009190348082483e-02
2.512000000000000099e+01,1.240052738665356133e-02
2.516000000000000014e+01,1.118674173915572279e-02
2.519999999999999929e+01,1.443772019275009824e-02
2.523999999999999844e+01,6.525583127418920631e-03
2.528000000000000114e+01,7.419287710872610013e-03
2.532000000000000028e+01,1.947541890225935532e-02
2.535999999999999943e+01,1.416689490064204117e-02
2.539999999999999858e+01,1.840839712499536818e-02
2.544000000000000128e+01,1.198290671785916771e-02
2.548000000000000043e+01,2.332271036628174362e-03
2.551999999999999957e+01,1.599907912967397580e-02
2.555999999999999872e+01,1.143301622493912879e-02
2.560000000000000142e+01,1.505264058059381689e-02
2.564000000000000057e+01,7.881241241189126598e-03
2.567999999999999972e+01,1.559319172368850426e-02
2.571999999999999886e+01,1.015753338795929994e-02
2.576000000000000156e+01,2.580676427484389704e-02
2.580000000000000071e+01,1.280453745900942721e-02
2.583999999999999986e+01,1.505775261698760747e-02
2.587999999999999901e+01,8.132344024478981026e-03
2.592000000000000171e+01,1.261742280020006386e-02
2.596000000000000085e+01,7.675816135684752732e-03
2.600000000000000000e+01,1.265632724763786875e-02
2.603999999999999915e+01,1.081479940423119013e-02
2.607999999999999829e+01,1.926748159854906398e-02
2.612000000000000099e+01,1.531673916910819729e-02
2.616000000000000014e+01,7.396665794912654114e-03
2.619999999999999929e+01,1.498009548286865708e-02
2.623999999999999844e+01,2.132287150114782134e-02
2.628000000000000114e+01,6.083944202088679108e-03
2.632000000000000028e+01,1.379036721322860620e-02
2.635999999999999943e+01,1.157398107659039603e-02
2.639999999999999858e+01,2.027195849129271796e-02
2.644000000000000128e+01,1.172931002700200800e-02
2.648000000000000043e+01,6.287085222032305284e-03
2.651999999999999957e+01,1.126310064357743078e-02
2.655999999999999872e+01,4.951967951763365863e-03
2.660000000000000142e+01,5.710244041685657267e-03
2.664000000000000057e+01,1.403405201947547330e-02
2.667999999999999972e+01,1.007846539827576132e-02
2.671999999999999886e+01,1.393647213599818156e-02
2.676000000000000156e+01,1.283290078725126369e-02
2.680000000000000071e+01,1.160495211520593158e-02
2.683999999999999986e+01,3.678994184527770769e-03
2.687999999999999901e+01,5.923214407898700490e-03
2.692000000000000171e+01,1.858567431104745857e-02
2.696000000000000085e+01,1.648812342846774776e-02
2.700000000000000000e+01,7.444501488158132042e-03
2.703999999999999915e+01,1.105167328722569606e-02
2.707999999999999829e+01,7.960835499618132763e-03
2.712000000000000099e+01,1.355180605560373126e-02
2.716000000000000014e+01,1.120445901355545705e-02
2.719999999999999929e+01,8.484672521069174314e-03
2.723999999999999844e+01,6.756785215684080366e-03
2.728000000000000114e+01,1.222233655278354321e-02
2.732000000000000028e+01,1.012166244375760360e-02
2.735999999999999943e+01,8.516764197006986697e-03
2.739999999999999858e+01,5.051056744036341167e-03
2.744000000000000128e+01,1.460823485430915933e-02
2.748000000000000043e+01,1.535887939775039922e-02
2.751999999999999957e+01,6.186713207875914333e-03
2.755999999999999872e+01,9.293247676016927472e-03
2.760000000000000142e+01,1.438392716080486890e-02
2.764000000000000057e+01,1.613825175382655819e-03
2.767999999999999972e+01,1.650224166889679642e-02
2.771999999999999886e+01,8.692675765008905583e-03
2.776000000000000156e+01,1.192150234375653588e-02
2.780000000000000071e+01,1.242130363813888881e-02
2.783999999999999986e+01,4.114570873626214459e-03
2.787999999999999901e+01,1.031909255335999864e-02
2.792000000000000171e+01,1.131397298068456854e-02
2.796000000000000085e+01,1.764182926802346230e-02
2.800000000000000000e+01,1.938019814461139356e-02
2.803999999999999915e+01,1.367637138114832090e-02
2.807999999999999829e+01,1.082490450965555018e-02
2.812000000000000099e+01,5.368442706609070046e-03
2.816000000000000014e+01,1.690385076911590442e-02
2.819999999999999929e+01,9.586230274371696641e-03
2.823999999999999844e+01,1.181863212376461740e-02
2.828000000000000114e+01,1.764757833296623848e-02
2.832000000000000028e+01,5.367680562102537800e-03
2.835999999999999943e+01,1.603313031307861125e-02
2.839999999999999858e+01,5.985089380417735368e-03
2.844000000000000128e+01,1.082039449717484524e-02
2.848000000000000043e+01,1.354682735111934801e-02
2.851999999999999957e+01,1.143571050315247452e-02
2.855999999999999872e+01,1.552578422650226046e-02
2.860000000000000142e+01,1.552249287979996957e-02
2.864000000000000057e+01,3.239804255096481907e-03
2.867999999999999972e+01,5.468368981165177244e-03
2.871999999999999886e+01,1.166556983623519457e-02
2.876000000000000156e+01,9.180266165115972404e-03
2.880000000000000071e+01,2.715969361040285537e-02
2.883999999999999986e+01,1.685975156837218186e-02
2.887999999999999901e+01,1.561370783489495449e-02
2.892000000000000171e+01,9.406083062567915237e-03
2.896000000000000085e+01,9.399648314820562012e-03
2.900000000000000000e+01,1.150138746034127211e-02
2.903999999999999915e+01,1.447099254244496244e-02
2.907999999999999829e+01,1.198289320619956057e-02
2.912000000000000099e+01,7.758013102965590282e-03
2.916000000000000014e+01,5.393245093902609283e-03
2.919999999999999929e+01,4.392465963532347570e-03
2.923999999999999844e+01,1.666263151649103810e-02
2.928000000000000114e+01,5.118535427962566005e-03
2.932000000000000028e+01,1.230273868226590926e-02
2.935999999999999943e+01,7.207543674441213230e-03
2.939999999999999858e+01,2.608121740532680453e-03
2.944000000000000128e+01,2.058195348167034602e-02
2.948000000000000043e+01,9.284168539101949474e-03
2.951999999999999957e+01,4.931757596888076446e-03
2.955999999999999872e+01,7.648751390556226756e-03
2.960000000000000142e+01,1.359019536919712015e-02
2.964000000000000057e+01,8.244487024603173661e-03
2.967999999999999972e+01,1.220073747549065696e-02
2.971999999999999886e+01,1.442020633928395995e-02
2.976000000000000156e+01,1.217421617688426230e-02
2.980000000000000071e+01,1.741843227583469078e-03
2.983999999999999986e+01,1.202226155357460392e-02
2.987999999999999901e+01,1.771318989915042844e-02
2.992000000000000171e+01,5.667364448315832630e-03
2.996000000000000085e+01,5.156051633867368353e-03
3.000000000000000000e+01,6.132757394838561985e-03
3.003999999999999915e+01,1.256646696299228323e-02
3.007999999999999829e+01,5.852561753483229851e-03
3.012000000000000099e+01,8.316583947843620220e-03
3.016000000000000014e+01,9.043823953699061877e-03
3.019999999999999929e+01,1.522806754804221716e-02
3.023999999999999844e+01,1.136546590105634580e-02
3.028000000000000114e+01,1.878931487266458436e-02
3.032000000000000028e+01,1.021284056394134755e-02
3.035999999999999943e+01,7.961585156419044573e-03
3.039999999999999858e+01,7.446409357981579463e-03
3.044000000000000128e+01,1.152002128858158406e-02
3.048000000000000043e+01,5.174695279206786153e-03
3.051999999999999957e+01,7.015049805355271818e-03
3.055999999999999872e+01,6.622498435457116646e-03
3.060000000000000142e+01,1.367144275052791479e-02
3.064000000000000057e+01,6.828586781297037687e-03
3.067999999999999972e+01,7.303195597486577748e-03
3.071999999999999886e+01,1.745185415824453135e-02
3.076000000000000156e+01,1.048391172544994344e-02
3.080000000000000071e+01,6.120263886411087678e-03
3.083999999999999986e+01,1.167872720832184054e-02
3.087999999999999901e+01,1.041514495935389611e-02
3.092000000000000171e+01,7.538810273281714054e-03
3.096000000000000085e+01,1.446055579393680339e-02
3.100000000000000000e+01,7.928378673650511056e-04
3.103999999999999915e+01,1.131077170150595647e-02
3.107999999999999829e+01,7.564812279331023341e-03
3.112000000000000099e+01,1.547739469820568446e-02
3.116000000000000014e+01,1.235088429664681596e-02
3.119999999999999929e+01,2.137903878759474241e-02
3.123999999999999844e+01,1.676345375453764872e-02
3.128000000000000114e+01,1.227154685512892550e-02
3.132000000000000028e+01,1.050796462891885608e-02
3.135999999999999943e+01,1.879052364310129439e-02
3.139999999999999858e+01,1.690220504021593476e-02
3.144000000000000128e+01,1.662593383469781333e-02
3.148000000000000043e+01,9.775677818597653182e-03
3.151999999999999957e+01,1.247543966339060596e-02
3.155999999999999872e+01,1.083377081187472321e-02
3.160000000000000142e+01,1.378088810385872179e-02
3.164000000000000057e+01,8.169527723347521850e-03
3.167999999999999972e+01,2.029421713831016522e-02
3.171999999999999886e+01,1.381393476513744813e-02
3.176000000000000156e+01,2.023250126024650139e-02
3.180000000000000071e+01,1.598406643074606545e-02
3.183999999999999986e+01,3.033989670943258374e-02
3.187999999999999901e+01,1.641635334559967199e-02
3.192000000000000171e+01,1.774824364517540998e-02
3.196000000000000085e+01,2.974642831604370000e-02
3.200000000000000000e+01,1.420942392157831073e-02
3.203999999999999915e+01,1.814489989333934600e-02
3.207999999999999829e+01,1.004903546556237988e-02
3.211999999999999744e+01,1.522411178460715726e-02
3.215999999999999659e+01,1.072443260858823959e-02
3.220000000000000284e+01,1.031741559515898625e-02
3.224000000000000199e+01,9.289890662002147845e-03
3.228000000000000114e+01,1.570385911751849550e-02
3.232000000000000028e+01,1.790042662812660682e-02
3.235999999999999943e+01,1.451525444694026432e-02
3.239999999999999858e+01,2.254056077684260181e-02
3.243999999999999773e+01,2.250351150158009725e-02
3.247999999999999687e+01,1.142736760165163554e-02
3.252000000000000313e+01,1.349813311160673497e-02
3.256000000000000227e+01,1.569257500565141364e-02
3.260000000000000142e+01,1.143706134845139111e-02
3.264000000000000057e+01,1.177033241323478981e-02
3.267999999999999972e+01,1.470789550210954352e-02
3.271999999999999886e+01,1.107147208551729003e-02
3.275999999999999801e+01,1.500057219171484213e-02
3.279999999999999716e+01,2.376651838160323549e-02
3.284000000000000341e+01,1.665616863691764260e-02
3.288000000000000256e+01,9.049340887926237212e-03
3.292000000000000171e+01,8.635944072426350940e-03
3.296000000000000085e+01,5.493514919652666209e-03
3.300000000000000000e+01,1.140497844404022611e-02
3.303999999999999915e+01,1.099051660597339351e-02
3.307999999999999829e+01,1.553693125908257346e-02
3.311999999999999744e+01,1.226905095797621408e-02
3.315999999999999659e+01,1.098530807387101092e-02
3.320000000000000284e+01,1.230585650309896049e-02
3.324000000000000199e+01,6.308232974894798992e-03
3.328000000000000114e+01,1.097690201375079409e-02
3.332000000000000028e+01,8.203368195626115078e-03
3.335999999999999943e+01,1.572403446461076784e-02
3.339999999999999858e+01,1.704280566927873428e-02
3.343999999999999773e+01,1.054728148234142758e-02
3.347999999999999687e+01,4.795586373004180614e-03
3.352000000000000313e+01,1.541559985193748615e-02
3.356000000000000227e+01,1.524457881041694531e-02
3.360000000000000142e+01,1.333677087845241450e-02
3.364000000000000057e+01,2.023479316846748394e-02
3.367999999999999972e+01,1.993867368984077529e-02
3.371999999999999886e+01,8.479427101461906036e-03
3.375999999999999801e+01,9.298872696673603916e-03
3.379999999999999716e+01,3.296268729825795486e-03
3.384000000000000341e+01,7.091741033198221446e-03
3.388000000000000256e+01,1.311941134984730660e-02
3.392000000000000171e+01,1.232503194041579056e-02
3.396000000000000085e+01,1.301866569370666027e-02
3.400000000000000000e+01,1.507628176484501065e-02
3.403999999999999915e+01,7.459139771255344359e-03
3.407999999999999829e+01,1.770207508291802428e-02
3.411999999999999744e+01,1.355708219286174548e-02
3.415999999999999659e+01,1.958225750623936168e-02
3.420000000000000284e+01,7.994703963320873297e-03
3.424000000000000199e+01,9.926149849919801635e-03
3.428000000000000114e+01,1.681847058748352566e-02
3.432000000000000028e+01,1.701277184243066981e-02
3.435999999999999943e+01,1.770283939175392590e-02
3.439999999999999858e+01,1.578790342575102715e-02
3.443999999999999773e+01,1.449276443497791132e-02
3.447999999999999687e+01,1.555385342757700275e-02
3.452000000000000313e+01,3.715383154133710623e-03
3.456000000000000227e+01,1.903929879494416222e-02
3.460000000000000142e+01,2.369620928398546642e-02
3.464000000000000057e+01,1.421325244095181066e-02
3.467999999999999972e+01,2.333455682427176131e-02
3.471999999999999886e+01,1.657956270335332258e-02
3.475999999999999801e+01,1.180870381248762778e-02
3.479999999999999716e+01,7.657641404788403938e-03
3.484000000000000341e+01,1.429690022207585551e-02
3.488000000000000256e+01,1.076527666568269197e-02
3.492000000000000171e+01,1.442708130909560460e-02
3.496000000000000085e+01,1.188698875591710953e-02
3.500000000000000000e+01,6.245768706502237422e-03
3.503999999999999915e+01,1.437160857353290966e-02
3.507999999999999829e+01,6.373087863859506000e-03
3.511999999999999744e+01,1.797107410073807074e-02
3.515999999999999659e+01,8.979591204323877571e-03
3.520000000000000284e+01,1.214276773304560214e-02
3.524000000000000199e+01,1.927457147895384609e-02
3.528000000000000114e+01,1.611146151424331860e-02
3.532000000000000028e+01,7.242577021682650509e-03
3.535999999999999943e+01,1.561361413380987946e-02
3.539999999999999858e+01,1.319361421049263482e-02
3.543999999999999773e+01,1.623061071340712105e-02
3.547999999999999687e+01,1.976337197983385127e-02
3.552000000000000313e+01,8.908203130961767427e-03
3.556000000000000227e+01,1.479683245260447234e-02
3.560000000000000142e+01,8.530085773221538631e-03
3.564000000000000057e+01,2.111566058842543822e-02
3.567999999999999972e+01,1.621253531460704889e-02
3.571999999999999886e+01,1.738656003531019456e-02
3.575999999999999801e+01,1.942844150741304676e-02
3.579999999999999716e+01,3.027615024911516767e-02
3.584000000000000341e+01,2.623980527732421367e-02
3.588000000000000256e+01,2.939688719317019513e-02
3.592000000000000171e+01,2.498773190804323696e-02
3.596000000000000085e+01,2.231464863235545909e-02
3.600000000000000000e+01,2.633886891947894229e-02
3.603999999999999915e+01,2.378909816321749665e-02
3.607999999999999829e+01,2.644826137800614096e-02
3.611999999999999744e+01,2.439389529307961491e-02
3.615999999999999659e+01,2.581203200703973896e-02
3.620000000000000284e+01,2.673368617877621561e-02
3.624000000000000199e+01,2.281778009657518119e-02
3.628000000000000114e+01,3.180071670452672833e-02
3.632000000000000028e+01,2.205464444666515103e-02
3.635999999999999943e+01,3.116089269926364605e-02
3.639999999999999858e+01,2.711951753575312513e-02
3.643999999999999773e+01,2.568242925700529519e-02
3.647999999999999687e+01,2.350079647291553747e-02
3.652000000000000313e+01,2.888468207228683804e-02
3.656000000000000227e+01,3.141549962354930198e-02
3.660000000000000142e+01,3.245758776424184644e-02
3.664000000000000057e+01,2.556134534923119178e-02
3.667999999999999972e+01,3.032363717562452585e-02
3.671999999999999886e+01,2.367473621133521847e-02
3.675999999999999801e+01,3.538203204996429735e-02
3.679999999999999716e+01,3.208124207273008871e-02
3.684000000000000341e+01,2.766381472748713835e-02
3.688000000000000256e+01,2.833128946961897821e-02
3.692000000000000171e+01,2.552554172057282245e-02
3.696000000000000085e+01,3.375817387920904133e-02
3.700000000000000000e+01,3.578890605289469090e-02
3.703999999999999915e+01,3.360223083017437745e-02
3.707999999999999829e+01,3.476402635864430518e-02
3.711999999999999744e+01,4.014250811503869421e-02
3.715999999999999659e+01,3.076096514390871256e-02
3.720000000000000284e+01,4.258832654891264030e-02
3.724000000000000199e+01,3.977969390724595683e-02
3.728000000000000114e+01,3.907922384138944744e-02
3.732000000000000028e+01,4.395977842230148341e-02
3.735999999999999943e+01,4.747563334404422686e-02
3.739999999999999858e+01,5.024694250294973324e-02
3.743999999999999773e+01,5.090936715213167235e-02
3.747999999999999687e+01,6.000552440401363263e-02
3.752000000000000313e+01,7.406255207828985054e-02
3.756000000000000227e+01,6.951459998206911683e-02
3.760000000000000142e+01,8.208253563860742896e-02
3.764000000000000057e+01,1.037043576301566461e-01
3.767999999999999972e+01,1.157754473718713706e-01
3.771999999999999886e+01,1.299546990879854036e-01
3.775999999999999801e+01,1.745211328896862923e-01
3.779999999999999716e+01,1.919244620689688763e-01
3.784000000000000341e+01,2.328932797634277463e-01
3.788000000000000256e+01,2.995361093518087436e-01
3.792000000000000171e+01,3.933413202618518678e-01
3.796000000000000085e+01,5.038903260619871372e-01
3.800000000000000000e+01,6.837721817428263904e-01
3.803999999999999915e+01,8.658862297508765904e-01
3.807999999999999829e+01,1.000000000000000000e+00
3.811999999999999744e+01,9.974314774417049057e-01
3.815999999999999659e+01,9.254053503103375489e-01
3.820000000000000284e+01,7.592394913011967228e-01
3.824000000000000199e+01,5.981585325205246439e-01
3.828000000000000114e+01,4.591546921712042484e-01
3.832000000000000028e+01,3.449566475829871082e-01
3.835999999999999943e+01,2.731767709097621122e-01
3.839999999999999858e+01,2.286833056923157637e-01
3.843999999999999773e+01,1.967165878420382985e-01
3.847999999999999687e+01,1.684704311999745685e-01
3.852000000000000313e+01,1.296812948383192499e-01
3.856000000000000227e+01,1.231398013217936266e-01
3.860000000000000142e+01,1.091560977313576347e-01
3.864000000000000057e+01,9.343560036159020976e-02
3.867999999999999972e+01,7.920310970304741960e-02
3.871999999999999886e+01,7.303225758171622006e-02
3.875999999999999801e+01,7.244242813889999189e-02
3.879999999999999716e+01,6.081349543297167454e-02
3.884000000000000341e+01,5.352527739419944003e-02
3.888000000000000256e+01,6.682580748425959172e-02
3.892000000000000171e+01,5.494772406425602052e-02
3.896000000000000085e+01,5.249561754563434463e-02
3.900000000000000000e+01,3.974859223173887041e-02
3.903999999999999915e+01,3.617948212947559583e-02
3.907999999999999829e+01,3.794333268793535080e-02
3.911999999999999744e+01,3.362931115393910653e-02
3.915999999999999659e+01,2.646221801804286844e-02
3.920000000000000284e+01,3.368233306353213274e-02
3.924000000000000199e+01,3.804937639777402486e-02
3.928000000000000114e+01,3.782691690327879414e-02
3.932000000000000028e+01,4.033277114724026502e-02
3.935999999999999943e+01,1.976853471314664323e-02
3.939999999999999858e+01,3.070775523482792424e-02
3.943999999999999773e+01,2.552260922037077884e-02
3.947999999999999687e+01,2.604251569050297296e-02
3.952000000000000313e+01,2.333725769606838016e-02
3.956000000000000227e+01,3.043006815351352590e-02
3.960000000000000142e+01,2.338300449934374581e-02
3.964000000000000057e+01,2.067665441885586236e-02
3.967999999999999972e+01,1.387692412369835246e-02
3.971999999999999886e+01,1.154193808307646396e-02
3.975999999999999801e+01,2.756314474484480165e-02
3.979999999999999716e+01,2.411115304298038636e-02
3.984000000000000341e+01,2.326344357861330481e-02
3.988000000000000256e+01,1.757816888500117816e-02
3.992000000000000171e+01,1.995453108838938713e-02
3.996000000000000085e+01,1.761735874338621680e-02
4.000000000000000000e+01,2.123329975261652874e-02
4.003999999999999915e+01,2.484887613175153914e-02
4.007999999999999829e+01,1.804550144922148491e-02
4.011999999999999744e+01,2.500917973957580628e-02
4.015999999999999659e+01,1.361593628604432227e-02
4.020000000000000284e+01,1.623780727645212502e-02
4.024000000000000199e+01,1.799109783198814955e-02
4.028000000000000114e+01,1.552697656254772157e-02
4.032000000000000028e+01,1.827178346874417866e-02
4.035999999999999943e+01,1.469065500719735420e-02
4.039999999999999858e+01,2.065953226898000969e-02
4.043999999999999773e+01,2.092262800467769440e-02
4.047999999999999687e+01,2.118535850886930569e-02
4.052000000000000313e+01,1.313766078340447910e-02
4.056000000000000227e+01,1.612833804498803314e-02
4.060000000000000142e+01,2.023492702285476647e-02
4.064000000000000057e+01,1.975201131307823335e-02
4.067999999999999972e+01,1.840051456701903912e-02
4.071999999999999886e+01,2.064554517724480343e-02
4.075999999999999801e+01,1.358790090816267178e-02
4.079999999999999716e+01,8.142291242799656534e-03
4.084000000000000341e+01,1.100637879734395717e-02
4.088000000000000256e+01,1.746699348947831909e-02
4.092000000000000171e+01,1.425284071300649685e-02
4.096000000000000085e+01,8.557706244921213512e-03
4.100000000000000000e+01,6.087006379801390699e-03
4.103999999999999915e+01,9.817480027800877876e-03
4.107999999999999829e+01,1.553208026740697176e-02
4.111999999999999744e+01,1.702926753388870479e-02
4.115999999999999659e+01,1.517725730398042198e-02
4.120000000000000284e+01,2.126285143131260991e-02
4.124000000000000199e+01,2.127057056848212849e-02
4.128000000000000114e+01,1.706087651383253120e-02
4.132000000000000028e+01,1.644770899536214179e-02
4.135999999999999943e+01,1.670239057397210694e-02
4.139999999999999858e+01,1.087919694372462172e-02
4.143999999999999773e+01,5.427729140405448613e-03
4.147999999999999687e+01,1.448749719227145939e-02
4.152000000000000313e+01,1.399652774562680675e-02
4.156000000000000227e+01,9.040083144044707558e-03
4.160000000000000142e+01,1.474991973739115877e-02
4.164000000000000057e+01,1.190126498981498686e-02
4.167999999999999972e+01,1.835455263560735115e-02
4.171999999999999886e+01,1.835787226454911256e-02
4.175999999999999801e+01,1.116703908075970635e-02
4.179999999999999716e+01,1.563473314013945695e-02
4.184000000000000341e+01,1.824159825608979990e-02
4.188000000000000256e+01,1.328221802468446643e-02
4.192000000000000171e+01,1.948524171162258414e-02
4.196000000000000085e+01,1.601349650843805761e-02
4.200000000000000000e+01,1.489796900996826975e-02
4.203999999999999915e+01,1.266579703590744836e-02
4.207999999999999829e+01,1.626270478284599572e-02
4.211999999999999744e+01,1.675847530162778015e-02
4.215999999999999659e+01,1.291280063556763877e-02
4.220000000000000284e+01,1.253962051266394560e-02
4.224000000000000199e+01,2.022807411568544947e-02
4.228000000000000114e+01,1.030378781832137422e-02
4.232000000000000028e+01,1.104578173175903809e-02
4.235999999999999943e+01,2.208196343072132625e-02
4.239999999999999858e+01,1.748989770849523895e-02
4.243999999999999773e+01,1.376567960715932397e-02
4.247999999999999687e+01,2.256820335094755423e-02
4.252000000000000313e+01,7.680478146451786593e-03
4.256000000000000227e+01,1.772257369784722980e-02
4.260000000000000142e+01,1.436897577830637505e-02
4.264000000000000057e+01,2.081344210076955387e-02
4.267999999999999972e+01,1.646686143717305748e-02
4.271999999999999886e+01,1.385634354315880799e-02
4.275999999999999801e+01,1.781908918189769805e-02
4.279999999999999716e+01,1.930085061403249286e-02
4.284000000000000341e+01,1.507682723965970972e-02
4.288000000000000256e+01,2.015474461844410717e-02
4.292000000000000171e+01,1.754238443815522852e-02
4.296000000000000085e+01,2.261956462906125273e-02
4.300000000000000000e+01,1.889019003973622240e-02
4.303999999999999915e+01,1.466432355898317219e-02
4.307999999999999829e+01,2.023652071882335590e-02
4.311999999999999744e+01,2.010293268943997430e-02
4.315999999999999659e+01,2.381393026164748544e-02
4.320000000000000284e+01,2.802068204534127402e-02
4.324000000000000199e+01,2.168444765794570739e-02
4.328000000000000114e+01,2.998347745561948455e-02
4.332000000000000028e+01,3.046819835728174428e-02
4.335999999999999943e+01,2.747968796529874635e-02
4.339999999999999858e+01,2.858382442726669151e-02
4.343999999999999773e+01,4.184260905158627281e-02
4.347999999999999687e+01,3.227935894686091017e-02
4.352000000000000313e+01,4.020408087378894019e-02
4.356000000000000227e+01,3.646953908042767367e-02
4.360000000000000142e+01,4.997490762897016658e-02
4.364000000000000057e+01,4.512334967701403521e-02
4.367999999999999972e+01,5.379077825157990711e-02
4.371999999999999886e+01,5.501598975400055075e-02
4.375999999999999801e+01,5.152766151402742717e-02
4.379999999999999716e+01,5.672111881871048228e-02
4.384000000000000341e+01,6.910799213096224802e-02
4.388000000000000256e+01,7.020769365613847846e-02
4.392000000000000171e+01,8.780312034462185722e-02
4.396000000000000085e+01,9.349122118567657069e-02
4.400000000000000000e+01,1.009153830467547780e-01
4.403999999999999915e+01,1.198740382990732406e-01
4.407999999999999829e+01,1.303982296655739337e-01
4.411999999999999744e+01,1.518367603629616758e-01
4.415999999999999659e+01,1.622361804709602784e-01
4.420000000000000284e+01,1.741235997452114936e-01
4.424000000000000199e+01,1.922121881586852099e-01
4.428000000000000114e+01,2.076957595524263622e-01
4.432000000000000028e+01,2.038301571946067869e-01
4.435999999999999943e+01,2.008323998333393368e-01
4.439999999999999858e+01,1.769970991287498630e-01
4.443999999999999773e+01,1.639521065274567035e-01
4.447999999999999687e+01,1.351548328717411818e-01
4.452000000000000313e+01,1.232253759298305301e-01
4.456000000000000227e+01,1.161327489975401556e-01
4.460000000000000142e+01,9.911728798625998871e-02
4.464000000000000057e+01,9.041151900088467697e-02
4.467999999999999972e+01,7.190694661737334625e-02
4.471999999999999886e+01,6.617717459766069010e-02
4.475999999999999801e+01,5.362533803529202087e-02
4.479999999999999716e+01,5.620488674119632211e-02
4.484000000000000341e+01,4.538873891443658687e-02
4.488000000000000256e+01,4.362646752674630146e-02
4.492000000000000171e+01,3.938320903474525070e-02
4.496000000000000085e+01,4.307754976065595459e-02
4.500000000000000000e+01,3.647696349023639428e-02
4.503999999999999915e+01,3.706979158717422368e-02
4.507999999999999829e+01,3.046846233346302626e-02
4.511999999999999744e+01,3.081248575735952636e-02
4.515999999999999659e+01,2.904761411950647007e-02
4.520000000000000284e+01,2.269323156120725896e-02
4.524000000000000199e+01,2.241598598508665399e-02
4.528000000000000114e+01,1.978178360279307657e-02
4.532000000000000028e+01,2.334874888353177455e-02
4.535999999999999943e+01,1.835721773869284507e-02
4.539999999999999858e+01,2.279165469276860784e-02
4.543999999999999773e+01,1.978387222372957402e-02
4.547999999999999687e+01,1.503928662615475025e-02
4.552000000000000313e+01,1.872842264186430974e-02
4.556000000000000227e+01,1.299084642721964715e-02
4.560000000000000142e+01,1.407459144389709010e-02
4.564000000000000057e+01,1.825873393118850399e-02
4.567999999999999972e+01,2.405490435200650576e-02
4.571999999999999886e+01,1.583522308633307854e-02
4.575999999999999801e+01,1.431283204308575994e-02
4.579999999999999716e+01,9.193175580895787680e-03
4.584000000000000341e+01,1.101887081218674153e-02
4.588000000000000256e+01,1.011551604659569059e-02
4.592000000000000171e+01,1.057612730608662246e-02
4.596000000000000085e+01,1.798209009503738340e-02
4.600000000000000000e+01,1.521715531101626613e-02
4.603999999999999915e+01,8.730923989809092137e-03
4.607999999999999829e+01,1.030632114585091665e-02
4.611999999999999744e+01,1.547823827722681969e-02
4.615999999999999659e+01,1.506839685437835405e-02
4.620000000000000284e+01,1.118532025605128467e-02
4.624000000000000199e+01,1.027860951803145732e-02
4.628000000000000114e+01,1.892189646630578967e-02
4.632000000000000028e+01,5.859421915512134926e-03
4.635999999999999943e+01,1.127716183614761551e-02
4.639999999999999858e+01,1.111314287451654025e-02
4.643999999999999773e+01,5.739457346548544094e-03
4.647999999999999687e+01,1.388475451794281626e-02
4.652000000000000313e+01,5.657613895549769463e-03
4.656000000000000227e+01,1.280991771618870609e-02
4.660000000000000142e+01,1.165178499676735452e-02
4.664000000000000057e+01,5.159954647439368193e-03
4.667999999999999972e+01,1.144292198289826798e-02
4.671999999999999886e+01,1.784954634795350714e-02
4.675999999999999801e+01,9.868225234397487097e-03
4.679999999999999716e+01,1.664619428482548222e-02
4.684000000000000341e+01,1.015249485910509064e-02
4.688000000000000256e+01,1.196848439756180958e-02
4.692000000000000171e+01,1.068333014701657036e-02
4.696000000000000085e+01,1.249857156285289449e-02
4.700000000000000000e+01,1.071654591953529953e-02
4.703999999999999915e+01,7.569807386010643166e-03
4.707999999999999829e+01,9.880049368668221074e-03
4.711999999999999744e+01,1.057751677136902456e-02
4.715999999999999659e+01,1.437537956708287781e-02
4.720000000000000284e+01,1.395582107926850515e-02
4.724000000000000199e+01,1.093124152586710633e-02
4.728000000000000114e+01,6.914041124819792633e-03
4.732000000000000028e+01,1.505148358277429849e-02
4.735999999999999943e+01,1.004128764402330461e-02
4.739999999999999858e+01,1.780588840593238034e-02
4.743999999999999773e+01,1.217478908138628843e-02
4.747999999999999687e+01,1.485337790091161361e-02
4.752000000000000313e+01,1.219826788770874727e-02
4.756000000000000227e+01,1.140324481877036909e-02
4.760000000000000142e+01,1.742954024746857372e-02
4.764000000000000057e+01,1.030819689674534502e-02
4.767999999999999972e+01,2.203915858382228879e-02
4.771999999999999886e+01,1.528915740348116108e-02
4.775999999999999801e+01,1.436822818047257463e-02
4.779999999999999716e+01,1.195855423825534572e-02
4.784000000000000341e+01,9.796566584971758140e-03
4.788000000000000256e+01,1.048691176017211429e-02
4.792000000000000171e+01,1.105285074435529737e-02
4.796000000000000085e+01,1.583546113988760010e-02
4.800000000000000000e+01,1.168747913077399121e-02
4.803999999999999915e+01,7.167029186219756737e-03
4.807999999999999829e+01,1.628959054428055081e-02
4.811999999999999744e+01,8.667619551002163705e-03
4.815999999999999659e+01,1.034758209395131301e-02
4.820000000000000284e+01,1.289538438477644787e-02
4.824000000000000199e+01,6.140501572309963775e-03
4.828000000000000114e+01,4.470505265210976929e-03
4.832000000000000028e+01,7.017179877397729248e-03
4.835999999999999943e+01,4.974339249915263328e-03
4.839999999999999858e+01,9.256692865790595859e-03
4.843999999999999773e+01,1.527510143290767251e-02
4.847999999999999687e+01,1.434740958251259912e-02
4.852000000000000313e+01,6.101524889328294697e-03
4.856000000000000227e+01,4.800988171812688166e-03
4.860000000000000142e+01,8.585337522274832933e-03
4.864000000000000057e+01,1.050884863477701686e-02
4.867999999999999972e+01,9.207182762432845544e-03
4.871999999999999886e+01,9.145448297809864041e-03
4.875999999999999801e+01,8.339152543016065122e-03
4.879999999999999716e+01,1.013712677880858858e-02
4.884000000000000341e+01,7.469615909048552341e-03
4.888000000000000256e+01,1.063117546575716339e-02
4.892000000000000171e+01,1.342026588420356520e-02
4.896000000000000085e+01,7.898916536840747821e-03
4.900000000000000000e+01,1.291980747956899406e-02
4.903999999999999915e+01,6.777550372514267070e-03
4.907999999999999829e+01,1.105350265600203719e-02
4.911999999999999744e+01,1.086396945122124549e-02
4.915999999999999659e+01,1.303064416456115038e-02
4.920000000000000284e+01,1.296438750390564026e-02
4.924000000000000199e+01,6.820244918345576279e-03
4.928000000000000114e+01,1.431911199518919736e-02
4.932000000000000028e+01,7.678091674706445831e-03
4.935999999999999943e+01,6.245987173602128920e-03
4.939999999999999858e+01,7.790244213581947255e-03
4.943999999999999773e+01,1.243489353017336943e-02
4.947999999999999687e+01,1.124971817422021521e-02
4.952000000000000313e+01,1.428121209734154948e-02
4.956000000000000227e+01,6.769711210927406055e-03
4.960000000000000142e+01,2.034306696159599720e-02
4.964000000000000057e+01,8.613763759445461354e-03
4.967999999999999972e+01,9.287161770950078457e-03
4.971999999999999886e+01,1.020824350172403264e-02
4.975999999999999801e+01,1.385762470111641213e-02
4.979999999999999716e+01,1.676244318882149503e-02
4.984000000000000341e+01,1.123278991769460083e-02
4.988000000000000256e+01,1.426088309061884947e-02
4.992000000000000171e+01,1.356767442300720224e-02
4.996000000000000085e+01,5.804332524755050765e-03
5.000000000000000000e+01,5.606490584923720134e-03
5.003999999999999915e+01,8.881132472201777595e-03
5.007999999999999829e+01,1.017090336306511467e-02
5.011999999999999744e+01,1.257657295786866573e-02
5.015999999999999659e+01,8.532262999668856901e-03
5.020000000000000284e+01,9.696867712699600364e-03
5.024000000000000199e+01,1.532620230108035046e-02
5.028000000000000114e+01,8.304017662379340955e-03
5.032000000000000028e+01,1.492484126456563448e-02
5.035999999999999943e+01,1.360731555796630167e-02
5.039999999999999858e+01,7.328179452735075761e-03
5.043999999999999773e+01,1.159128166934140711e-02
5.047999999999999687e+01,1.101680416816957185e-02
5.052000000000000313e+01,1.465899457922947846e-02
5.056000000000000227e+01,9.990743037531755327e-03
5.060000000000000142e+01,6.190327963287413186e-03
5.064000000000000057e+01,1.330424330811549351e-02
5.067999999999999972e+01,1.855731762662434642e-02
5.071999999999999886e+01,1.277127238925557934e-02
5.075999999999999801e+01,1.306235658909344483e-02
5.079999999999999716e+01,1.025229169657949739e-02
5.084000000000000341e+01,0.000000000000000000e+00
5.088000000000000256e+01,7.483731855513600477e-03
5.092000000000000171e+01,9.013606280027959550e-03
5.096000000000000085e+01,7.070239022892257398e-03
5.100000000000000000e+01,3.141999511846492194e-03
5.103999999999999915e+01,1.112033619474524053e-02
5.107999999999999829e+01,1.264869206714530105e-02
5.111999999999999744e+01,8.223190235177535445e-03
5.115999999999999659e+01,1.223140230750110156e-02
5.120000000000000284e+01,1.140203367791971581e-02
5.124000000000000199e+01,1.280483933322496340e-02
5.128000000000000114e+01,1.309098788331224464e-02
5.132000000000000028e+01,1.002792504988717602e-02
5.135999999999999943e+01,1.118152898054594092e-02
5.139999999999999858e+01,9.606075369350689300e-03
5.143999999999999773e+01,9.518611028466648916e-03
5.147999999999999687e+01,1.426796723865105844e-02
5.152000000000000313e+01,1.604020416255801107e-02
5.156000000000000227e+01,1.074230566887603676e-02
5.160000000000000142e+01,1.065331993284481145e-02
5.164000000000000057e+01,1.093604608194592188e-02
5.167999999999999972e+01,1.444319223613200164e-02
5.171999999999999886e+01,1.546934199147673335e-02
5.175999999999999801e+01,1.165791027948454885e-02
5.179999999999999716e+01,7.225943912320758299e-03
5.184000000000000341e+01,1.308815237301237666e-02
5.188000000000000256e+01,1.336859446113911401e-02
5.192000000000000171e+01,1.228431698886621112e-02
5.196000000000000085e+01,1.529267467037034693e-02
5.200000000000000000e+01,8.254157368047273027e-03
5.203999999999999915e+01,1.647104622825685399e-02
5.207999999999999829e+01,1.402090604428608139e-02
5.211999999999999744e+01,1.194247708936317133e-02
5.215999999999999659e+01,9.863666938210917043e-03
5.220000000000000284e+01,8.528660277362527450e-03
5.224000000000000199e+01,1.550333525441415818e-02
5.228000000000000114e+01,1.218307328452031615e-02
5.232000000000000028e+01,1.109498412332291482e-02
5.235999999999999943e+01,1.496774510057346901e-02
5.239999999999999858e+01,6.933168694242558376e-03
5.243999999999999773e+01,7.084242862241926439e-03
5.247999999999999687e+01,9.839581990846332088e-03
5.252000000000000313e+01,1.098213915854319607e-02
5.256000000000000227e+01,1.038788352045762024e-02
5.260000000000000142e+01,1.574672401438688765e-02
5.264000000000000057e+01,1.415945840473822881e-02
5.267999999999999972e+01,1.071134903508483456e-02
5.271999999999999886e+01,8.999288766586233113e-03
5.275999999999999801e+01,1.423257073301681039e-02
5.279999999999999716e+01,1.177556163596778227e-02
5.284000000000000341e+01,9.566231993638615524e-03
5.288000000000000256e+01,8.968920443568272408e-03
5.292000000000000171e+01,1.134796562329561630e-02
5.296000000000000085e+01,1.137004349949769476e-02
5.300000000000000000e+01,1.250801614313286694e-02
5.303999999999999915e+01,1.550606824073434177e-02
5.307999999999999829e+01,1.044173652153670626e-02
5.311999999999999744e+01,9.097945999975112774e-03
5.315999999999999659e+01,8.994080817352919505e-03
5.320000000000000284e+01,1.099835645040440901e-02
5.324000000000000199e+01,1.337434178163986534e-02
5.328000000000000114e+01,1.054065119733407253e-02
5.332000000000000028e+01,1.849725657876101839e-02
5.335999999999999943e+01,1.628295432725344188e-02
5.339999999999999858e+01,1.084346863940181642e-02
5.343999999999999773e+01,1.681443270426750611e-02
5.347999999999999687e+01,1.323464292318328635e-02
5.352000000000000313e+01,9.158346926159058668e-03
5.356000000000000227e+01,1.115917653918181707e-02
5.360000000000000142e+01,1.080303797389992916e-02
5.364000000000000057e+01,1.590387095831184011e-02
5.367999999999999972e+01,1.132991903320420234e-02
5.371999999999999886e+01,1.580983146427614866e-02
5.375999999999999801e+01,8.010312282257079156e-03
5.379999999999999716e+01,1.124914999028845536e-02
5.384000000000000341e+01,1.610000447840962204e-02
5.388000000000000256e+01,1.412878195826899191e-02
5.392000000000000171e+01,7.444005808612324734e-03
5.396000000000000085e+01,1.465029450493765366e-02
5.400000000000000000e+01,1.180970548375026401e-02
5.403999999999999915e+01,1.442608746551959226e-02
5.407999999999999829e+01,9.600238214652855040e-03
5.411999999999999744e+01,1.159569854960802553e-02
5.415999999999999659e+01,1.607139075867125566e-02
5.420000000000000284e+01,1.843817554972654663e-02
5.424000000000000199e+01,1.398288284045667504e-02
5.428000000000000114e+01,1.411634527469322019e-02
5.432000000000000028e+01,1.015640748368235730e-02
5.435999999999999943e+01,1.711079502708889866e-02
5.439999999999999858e+01,1.190978087282618982e-02
5.443999999999999773e+01,1.353007586699568263e-02
5.447999999999999687e+01,1.180115515842978559e-02
5.452000000000000313e+01,1.131215792989717465e-02
5.456000000000000227e+01,6.233636987270290558e-03
5.460000000000000142e+01,1.864307293167925123e-02
5.464000000000000057e+01,1.232347496971604797e-02
5.467999999999999972e+01,1.245309345753931214e-02
5.471999999999999886e+01,1.407069673242961061e-02
5.475999999999999801e+01,1.506776130629376188e-02
5.479999999999999716e+01,1.532025633425686262e-02
5.484000000000000341e+01,1.296771990862804862e-02
5.488000000000000256e+01,1.197913726117028760e-02
5.492000000000000171e+01,1.347078544902012391e-02
5.496000000000000085e+01,1.272949438986037234e-02
5.500000000000000000e+01,1.570874195867226139e-02
5.503999999999999915e+01,1.186591093368481037e-02
5.507999999999999829e+01,9.883156574304365061e-03
5.511999999999999744e+01,1.422558727309849828e-02
5.515999999999999659e+01,1.435058580829618423e-02
5.520000000000000284e+01,1.224264476844201012e-02
5.524000000000000199e+01,1.360718044811491667e-02
5.528000000000000114e+01,1.385505355519887905e-02
5.532000000000000028e+01,1.149789455260641184e-02
5.535999999999999943e+01,1.856669003517484942e-02
5.539999999999999858e+01,8.890943215788935441e-03
5.543999999999999773e+01,1.174192052724517231e-02
5.547999999999999687e+01,1.446848131435302803e-02
5.552000000000000313e+01,1.297760944580101522e-02
5.556000000000000227e+01,1.334681358677159042e-02
5.560000000000000142e+01,1.222726234716005160e-02
5.564000000000000057e+01,1.396003332933277302e-02
5.567999999999999972e+01,1.321180249996688379e-02
5.571999999999999886e+01,7.129861629762239243e-03
5.575999999999999801e+01,1.382270603341235853e-02
5.579999999999999716e+01,1.356944001426144478e-02
5.584000000000000341e+01,1.430803409050912869e-02
5.588000000000000256e+01,1.529430346627475533e-02
5.592000000000000171e+01,1.938095626151095652e-02
5.596000000000000085e+01,1.230445154841245357e-02
5.600000000000000000e+01,1.949110126354011360e-02
5.603999999999999915e+01,1.092545412354323058e-02
5.607999999999999829e+01,1.959970026725265171e-02
5.611999999999999744e+01,1.152940312488091000e-02
5.615999999999999659e+01,1.995481441566115954e-02
5.620000000000000284e+01,1.820931419167358747e-02
5.624000000000000199e+01,1.708358114574399025e-02
5.628000000000000114e+01,1.211250677595748088e-02
5.632000000000000028e+01,1.532707767715140931e-02
5.635999999999999943e+01,1.506839951574449714e-02
5.639999999999999858e+01,1.084034907625835292e-02
5.643999999999999773e+01,1.479794374373153559e-02
5.647999999999999687e+01,1.887918210041593728e-02
5.652000000000000313e+01,1.961120196600571811e-02
5.656000000000000227e+01,1.166067930717797768e-02
5.660000000000000142e+01,1.077952442480443335e-02
5.664000000000000057e+01,1.535533699159644799e-02
5.667999999999999972e+01,1.670596163880019164e-02
5.671999999999999886e+01,1.582364463335109855e-02
5.675999999999999801e+01,1.407272461278808590e-02
5.679999999999999716e+01,1.467800206766715215e-02
5.684000000000000341e+01,1.156196822345853352e-02
5.688000000000000256e+01,1.874010231821790842e-02
5.692000000000000171e+01,1.884809366911122108e-02
5.696000000000000085e+01,1.337431170387854903e-02
5.700000000000000000e+01,1.348152748594922713e-02
5.703999999999999915e+01,1.768137147823577171e-02
5.707999999999999829e+01,1.518316487856487436e-02
5.711999999999999744e+01,1.603340163855558262e-02
5.715999999999999659e+01,1.279023429146552114e-02
5.720000000000000284e+01,1.029086360046552878e-02
5.724000000000000199e+01,1.895387588777816545e-02
5.728000000000000114e+01,1.446923621930529778e-02
5.732000000000000028e+01,1.494543990974032087e-02
5.735999999999999943e+01,1.554528608656492207e-02
5.739999999999999858e+01,1.949357524033520569e-02
5.743999999999999773e+01,1.624769014928002450e-02
5.747999999999999687e+01,1.238126263938642453e-02
5.752000000000000313e+01,1.521210927784826146e-02
5.756000000000000227e+01,1.915884445094026556e-02
5.760000000000000142e+01,1.677962069192003372e-02
5.764000000000000057e+01,1.179536165214822678e-02
5.767999999999999972e+01,1.127582231841639353e-02
5.771999999999999886e+01,1.472487947524621019e-02
5.775999999999999801e+01,1.184797748126895436e-02
5.779999999999999716e+01,1.467610293132202461e-02
5.784000000000000341e+01,1.316276176443889612e-02
5.788000000000000256e+01,1.611414003022718436e-02
5.792000000000000171e+01,1.856900606596741804e-02
5.796000000000000085e+01,1.581418978934228531e-02
5.800000000000000000e+01,1.888843147358004390e-02
5.803999999999999915e+01,1.749717547731195755e-02
5.807999999999999829e+01,1.585746861270323840e-02
5.811999999999999744e+01,1.458946477608589511e-02
5.815999999999999659e+01,1.592571813640680442e-02
5.820000000000000284e+01,1.366468912893506124e-02
5.824000000000000199e+01,1.772884091508847640e-02
5.828000000000000114e+01,1.670734074168806274e-02
5.832000000000000028e+01,1.903428228773797540e-02
5.835999999999999943e+01,1.280270963925454059e-02
5.839999999999999858e+01,1.723739522274154307e-02
5.843999999999999773e+01,1.708255178878442804e-02
5.847999999999999687e+01,1.655522614954846664e-02
5.852000000000000313e+01,1.317480244633698928e-02
5.856000000000000227e+01,1.463118961694729464e-02
5.860000000000000142e+01,1.385463256524045554e-02
5.864000000000000057e+01,1.332574704056557410e-02
5.867999999999999972e+01,1.527708721186959821e-02
5.871999999999999886e+01,1.549160615763990959e-02
5.875999999999999801e+01,1.582976567621991251e-02
5.879999999999999716e+01,1.666365808353936426e-02
5.884000000000000341e+01,1.439639040909137212e-02
5.888000000000000256e+01,1.411322499644916510e-02
5.892000000000000171e+01,1.283742282611151884e-02
5.896000000000000085e+01,1.677052335346199130e-02
5.900000000000000000e+01,1.474975540572386404e-02
5.903999999999999915e+01,1.917819794833786062e-02
5.907999999999999829e+01,1.107914002585510919e-02
5.911999999999999744e+01,1.476261646302636475e-02
5.915999999999999659e+01,2.018213319888511464e-02
5.920000000000000284e+01,1.468654957824086331e-02
5.924000000000000199e+01,1.117506772733904523e-02
5.928000000000000114e+01,1.113605707391958702e-02
5.932000000000000028e+01,2.002687233215919016e-02
5.935999999999999943e+01,1.663824832298843245e-02
5.939999999999999858e+01,1.523372586486521074e-02
5.943999999999999773e+01,1.544121253251237724e-02
5.947999999999999687e+01,1.552427720844018477e-02
5.952000000000000313e+01,1.473873509676812930e-02
5.956000000000000227e+01,1.568923273704645599e-02
5.960000000000000142e+01,1.750755454319348828e-02
5.964000000000000057e+01,1.039526803464505683e-02
5.967999999999999972e+01,1.754613092434151658e-02
5.971999999999999886e+01,1.725475487240882982e-02
5.975999999999999801e+01,1.398624827141451733e-02
5.979999999999999716e+01,1.357005820613867673e-02
5.984000000000000341e+01,1.191316854526980502e-02
5.988000000000000256e+01,1.980625798163379928e-02
5.992000000000000171e+01,1.182301446932226482e-02
5.996000000000000085e+01,1.847501234314306851e-02
