2.003999999999999915e+01,3.898461569990262221e-03
2.007999999999999829e+01,8.354045158860238379e-03
2.012000000000000099e+01,4.836711239168597735e-03
2.016000000000000014e+01,1.068059724391465411e-02
2.019999999999999929e+01,8.641147755188581872e-03
2.023999999999999844e+01,5.347438559140200651e-03
2.028000000000000114e+01,4.248380684905954385e-03
2.032000000000000028e+01,7.717899891645710678e-03
2.035999999999999943e+01,8.589427667478735651e-03
2.039999999999999858e+01,7.310874496190517685e-03
2.044000000000000128e+01,8.809256153135028647e-03
2.048000000000000043e+01,6.813825184745175671e-03
2.051999999999999957e+01,7.057836318857197214e-03
2.055999999999999872e+01,4.703855795205890561e-03
2.060000000000000142e+01,5.753884659121567130e-03
2.064000000000000057e+01,9.804803388991810073e-03
2.067999999999999972e+01,2.433892900595020000e-03
2.071999999999999886e+01,6.036679606401884092e-03
2.076000000000000156e+01,1.107266919000037854e-02
2.080000000000000071e+01,3.611844149241490165e-03
2.083999999999999986e+01,5.377865102860603617e-03
2.087999999999999901e+01,7.636476686928035836e-03
2.092000000000000171e+01,2.773199860406223329e-03
2.096000000000000085e+01,1.246690418911489129e-02
2.100000000000000000e+01,6.752375227090039178e-03
2.103999999999999915e+01,8.338676757212250962e-03
2.107999999999999829e+01,1.346336028919270338e-02
2.112000000000000099e+01,8.554736744207811980e-03
2.116000000000000014e+01,8.438644591977729342e-03
2.119999999999999929e+01,4.783947944813841079e-03
2.123999999999999844e+01,6.190528917156167682e-03
2.128000000000000114e+01,4.775162150473029332e-03
2.132000000000000028e+01,6.136729213853604585e-03
2.135999999999999943e+01,6.333617405346373373e-03
2.139999999999999858e+01,8.411618277846527950e-03
2.144000000000000128e+01,6.279148589449713887e-03
2.148000000000000043e+01,7.326732025872531411e-03
2.151999999999999957e+01,8.911696419718253409e-03
2.155999999999999872e+01,8.525742762337248232e-03
2.160000000000000142e+01,3.974109415489717259e-03
2.164000000000000057e+01,7.887873256027235977e-03
2.167999999999999972e+01,7.501584157608525566e-03
2.171999999999999886e+01,1.919421016548562365e-03
2.176000000000000156e+01,5.071401244253791359e-03
2.180000000000000071e+01,7.148284206818074360e-03
2.183999999999999986e+01,1.061357776923273731e-02
2.187999999999999901e+01,4.403891815952505270e-03
2.192000000000000171e+01,6.480438520795341571e-03
2.196000000000000085e+01,3.943394598672912699e-03
2.200000000000000000e+01,1.316656348698039226e-03
2.203999999999999915e+01,6.707404303238150012e-03
2.207999999999999829e+01,4.662725161010982701e-03
2.212000000000000099e+01,9.650128968411154223e-03
2.216000000000000014e+01,1.199474825027956049e-02
2.219999999999999929e+01,5.291462394302092094e-03
2.223999999999999844e+01,5.172348822681161265e-03
2.228000000000000114e+01,8.188496415537776033e-03
2.232000000000000028e+01,1.008475510051063881e-02
2.235999999999999943e+01,9.024691662685369736e-03
2.239999999999999858e+01,1.011448608907867391e-02
2.244000000000000128e+01,1.317497412265645346e-02
2.248000000000000043e+01,1.095000514570657751e-02
2.251999999999999957e+01,1.486129760635718396e-02
2.255999999999999872e+01,9.814266626651383871e-03
2.260000000000000142e+01,9.962884882574078033e-03
2.264000000000000057e+01,1.342592810629522279e-02
2.267999999999999972e+01,9.946245134751787245e-03
2.271999999999999886e+01,1.112471862773462862e-02
2.276000000000000156e+01,1.069060113167673298e-02
2.280000000000000071e+01,7.344952066651864661e-03
2.283999999999999986e+01,6.597070895917924067e-03
2.287999999999999901e+01,8.939659156176038221e-03
2.292000000000000171e+01,3.891610419784862027e-03
2.296000000000000085e+01,4.845449463162613234e-03
2.300000000000000000e+01,9.158504118912584244e-03
2.303999999999999915e+01,7.693399546863939620e-03
2.307999999999999829e+01,5.153196257792180476e-03
2.312000000000000099e+01,1.627476312157360386e-03
2.316000000000000014e+01,9.209823951822824345e-03
2.319999999999999929e+01,3.623488451116534115e-03
2.323999999999999844e+01,2.919264089687830487e-03
2.328000000000000114e+01,8.440882409635922651e-03
2.332000000000000028e+01,5.093758533003980675e-03
2.335999999999999943e+01,4.702730384161235393e-03
2.339999999999999858e+01,5.386573695277663103e-03
2.344000000000000128e+01,2.845347341076268598e-03
2.348000000000000043e+01,8.232023452191077756e-03
2.351999999999999957e+01,5.063494510279028214e-03
2.355999999999999872e+01,7.941643720481795718e-03
2.360000000000000142e+01,5.444752543928670953e-03
2.364000000000000057e+01,8.322673635012428975e-03
2.367999999999999972e+01,7.034912677321125338e-03
2.371999999999999886e+01,6.598067552040050819e-03
2.376000000000000156e+01,8.221496642521277515e-03
2.380000000000000071e+01,5.903198812691927769e-03
2.383999999999999986e+01,3.808741938339229704e-03
2.387999999999999901e+01,5.924529683587758007e-03
2.392000000000000171e+01,6.427725124027289759e-03
2.396000000000000085e+01,6.930806119251109280e-03
2.400000000000000000e+01,4.567145237284151414e-03
2.403999999999999915e+01,8.384535121723225501e-03
2.407999999999999829e+01,2.885271418370389130e-03
2.412000000000000099e+01,6.478476830200437415e-03
2.416000000000000014e+01,9.086164405813135572e-03
2.419999999999999929e+01,7.214631972413814397e-03
2.423999999999999844e+01,9.150224274032716862e-03
2.428000000000000114e+01,5.083700676763703262e-03
2.432000000000000028e+01,8.318003851193633835e-03
2.435999999999999943e+01,5.953310512234174200e-03
2.439999999999999858e+01,4.081203811047013665e-03
2.444000000000000128e+01,6.822460570503822812e-03
2.448000000000000043e+01,9.877139665327548321e-03
2.451999999999999957e+01,6.974493641951177124e-03
2.455999999999999872e+01,6.132120926910777751e-03
2.460000000000000142e+01,5.916707781533158718e-03
2.464000000000000057e+01,8.189546518178894780e-04
2.467999999999999972e+01,5.216789478328168195e-03
2.471999999999999886e+01,6.568717399301231795e-03
2.476000000000000156e+01,7.069499962234212370e-03
2.480000000000000071e+01,2.329613936018777587e-03
2.483999999999999986e+01,4.308270403771234658e-03
2.487999999999999901e+01,4.763915583634411276e-03
2.492000000000000171e+01,4.368415223972270910e-03
2.496000000000000085e+01,8.093576153054405850e-03
2.500000000000000000e+01,7.429098271529510980e-03
2.503999999999999915e+01,3.360384698171360682e-03
2.507999999999999829e+01,2.919630695371006751e-03
2.512000000000000099e+01,6.554746746913936266e-03
2.516000000000000014e+01,8.935597510462495174e-03
2.519999999999999929e+01,3.701853426618214888e-03
2.523999999999999844e+01,9.762924089543196507e-04
2.528000000000000114e+01,8.910886042754036229e-03
2.532000000000000028e+01,5.065316771888349508e-03
2.535999999999999943e+01,4.623751489402779316e-03
2.539999999999999858e+01,3.107084858357654893e-03
2.544000000000000128e+01,6.875646347408760628e-03
2.548000000000000043e+01,5.045210052673601217e-03
2.551999999999999957e+01,2.901120172831501368e-03
2.555999999999999872e+01,4.922481954079604635e-03
2.560000000000000142e+01,4.211473202031252271e-03
2.564000000000000057e+01,1.171213347556232217e-03
2.567999999999999972e+01,6.999465574204307219e-03
2.571999999999999886e+01,3.869390776161825245e-03
2.576000000000000156e+01,4.098528459870646491e-03
2.580000000000000071e+01,5.357743828343856062e-03
2.583999999999999986e+01,6.930379989559205811e-03
2.587999999999999901e+01,5.277943717806325881e-03
2.592000000000000171e+01,3.446226565980408524e-03
2.596000000000000085e+01,4.122691663651215088e-03
2.600000000000000000e+01,6.053189483808209259e-03
2.603999999999999915e+01,1.936778355823637592e-03
2.607999999999999829e+01,4.897236738621565076e-03
2.612000000000000099e+01,3.064935564174414619e-03
2.616000000000000014e+01,5.711622740657449834e-03
2.619999999999999929e+01,3.968669745393971562e-03
2.623999999999999844e+01,7.018242380727806977e-03
2.628000000000000114e+01,3.752159478198062014e-03
2.632000000000000028e+01,4.606736321787756328e-03
2.635999999999999943e+01,4.207046516243519163e-03
2.639999999999999858e+01,0.000000000000000000e+00
2.644000000000000128e+01,8.244748936079236354e-03
2.648000000000000043e+01,2.693736270519031615e-03
2.651999999999999957e+01,5.832070521621474275e-03
2.655999999999999872e+01,2.923495234755168343e-03
2.660000000000000142e+01,3.642877794336587920e-03
2.664000000000000057e+01,4.899635503812194495e-03
2.667999999999999972e+01,6.693768317810664184e-03
2.671999999999999886e+01,3.023275100258999201e-03
2.676000000000000156e+01,3.876560605983487597e-03
2.680000000000000071e+01,6.476579508840323712e-03
2.683999999999999986e+01,5.179659096082043016e-03
2.687999999999999901e+01,4.464904613905746993e-03
2.692000000000000171e+01,1.376106524504934698e-03
2.696000000000000085e+01,3.662116936921640947e-03
2.700000000000000000e+01,6.485502090890683628e-03
2.703999999999999915e+01,8.099410877329035405e-03
2.707999999999999829e+01,6.309081657996878575e-03
2.712000000000000099e+01,4.832171779524671931e-03
2.716000000000000014e+01,5.818651736493947631e-03
2.719999999999999929e+01,5.998774620688411378e-03
2.723999999999999844e+01,6.581898815460272313e-03
2.728000000000000114e+01,3.581620565942252032e-03
2.732000000000000028e+01,6.359269886141070971e-03
2.735999999999999943e+01,7.658696158344557511e-03
2.739999999999999858e+01,6.584078278867746756e-03
2.744000000000000128e+01,1.061552203925847891e-02
2.748000000000000043e+01,5.151144143632535415e-03
2.751999999999999957e+01,5.867813067107966254e-03
2.755999999999999872e+01,1.160096138850565291e-02
2.760000000000000142e+01,9.853885298978449364e-03
2.764000000000000057e+01,1.366078115161910474e-02
2.767999999999999972e+01,1.383948305334104303e-02
2.771999999999999886e+01,1.325661834537674409e-02
2.776000000000000156e+01,1.307675435816267953e-02
2.780000000000000071e+01,1.065721892430216040e-02
2.783999999999999986e+01,1.114898308372753652e-02
2.787999999999999901e+01,8.639627806197187551e-03
2.792000000000000171e+01,9.534273613282634105e-03
2.796000000000000085e+01,6.800725151850144090e-03
2.800000000000000000e+01,1.872296069830290928e-03
2.803999999999999915e+01,4.826973227880691775e-03
2.807999999999999829e+01,7.154456526650010938e-03
2.812000000000000099e+01,6.794357486645518154e-03
2.816000000000000014e+01,4.508123962062493204e-03
2.819999999999999929e+01,6.297756998231268319e-03
2.823999999999999844e+01,4.145658077873116791e-03
2.828000000000000114e+01,5.531932992535930002e-03
2.832000000000000028e+01,6.514969040268195691e-03
2.835999999999999943e+01,5.034377741577154321e-03
2.839999999999999858e+01,8.615055940926374944e-03
2.844000000000000128e+01,7.402971951494069676e-03
2.848000000000000043e+01,4.847036802416574038e-03
2.851999999999999957e+01,3.813877834926363529e-03
2.855999999999999872e+01,6.811793966930422897e-03
2.860000000000000142e+01,4.569037199510852902e-03
2.864000000000000057e+01,3.759474371733209815e-03
2.867999999999999972e+01,3.979985961985068980e-03
2.871999999999999886e+01,3.573302967014781607e-03
2.876000000000000156e+01,3.121709029354922428e-03
2.880000000000000071e+01,4.864756749418371572e-03
2.883999999999999986e+01,6.070191853977111203e-03
2.887999999999999901e+01,1.721416371103153767e-03
2.892000000000000171e+01,5.524492447624569993e-03
2.896000000000000085e+01,5.385835750935288185e-03
2.900000000000000000e+01,6.277253109304951374e-03
2.903999999999999915e+01,2.689444968733110258e-03
2.907999999999999829e+01,2.326472385346072327e-03
2.912000000000000099e+01,4.292514255458862275e-03
2.916000000000000014e+01,6.595541676240715455e-04
2.919999999999999929e+01,5.357609533248136775e-03
2.923999999999999844e+01,8.890977088834701308e-03
2.928000000000000114e+01,5.993861950796664341e-04
2.932000000000000028e+01,3.236691687779192413e-03
2.935999999999999943e+01,5.784294504303695746e-03
2.939999999999999858e+01,4.031835625207550768e-03
2.944000000000000128e+01,3.667778725411306555e-03
2.948000000000000043e+01,3.437974277904524804e-03
2.951999999999999957e+01,6.656960153076462924e-03
2.955999999999999872e+01,6.471705209456171497e-03
2.960000000000000142e+01,4.494687306636951755e-03
2.964000000000000057e+01,3.771697997513998122e-03
2.967999999999999972e+01,3.496498284233673717e-03
2.971999999999999886e+01,5.236774973473612080e-03
2.976000000000000156e+01,3.931139040390195689e-03
2.980000000000000071e+01,3.073292567035467663e-03
2.983999999999999986e+01,1.453877079314620964e-03
2.987999999999999901e+01,4.761356252148232424e-03
2.992000000000000171e+01,5.829161573655519159e-03
2.996000000000000085e+01,2.955232987669192003e-03
3.000000000000000000e+01,5.187363137786089352e-03
3.003999999999999915e+01,3.253804025088301993e-03
3.007999999999999829e+01,3.246138800737538316e-03
3.012000000000000099e+01,7.538293223893735746e-03
3.016000000000000014e+01,3.454399274047005499e-03
3.019999999999999929e+01,7.701519643376155723e-03
3.023999999999999844e+01,5.229860506840045865e-03
3.028000000000000114e+01,4.908050296372799305e-03
3.032000000000000028e+01,4.317372109156131926e-03
3.035999999999999943e+01,3.502616952734439147e-03
3.039999999999999858e+01,3.538770051712825538e-03
3.044000000000000128e+01,5.590398736527733663e-03
3.048000000000000043e+01,5.984636622721756748e-03
3.051999999999999957e+01,7.722484210274408074e-03
3.055999999999999872e+01,5.160268786438212268e-03
3.060000000000000142e+01,4.434364555290528503e-03
3.064000000000000057e+01,1.096448887425779950e-02
3.067999999999999972e+01,7.640459484177449488e-03
3.071999999999999886e+01,8.526666955202901604e-03
3.076000000000000156e+01,4.978438029235851547e-03
3.080000000000000071e+01,8.478032116537963236e-04
3.083999999999999986e+01,7.242943580175041640e-03
3.087999999999999901e+01,7.994288986866359900e-03
3.092000000000000171e+01,6.998660990020937923e-03
3.096000000000000085e+01,6.361239031304577289e-03
3.100000000000000000e+01,3.484141996236328736e-03
3.103999999999999915e+01,4.458953035977872466e-03
3.107999999999999829e+01,3.641999437781732237e-03
3.112000000000000099e+01,3.899908542880325003e-03
3.116000000000000014e+01,7.203486634192476576e-03
3.119999999999999929e+01,3.161209389908139957e-03
3.123999999999999844e+01,7.987437920133623817e-03
3.128000000000000114e+01,6.094885764839568822e-03
3.132000000000000028e+01,8.322987684250207283e-03
3.135999999999999943e+01,1.189636705373304680e-03
3.139999999999999858e+01,5.791418706124729435e-03
3.144000000000000128e+01,2.599434569894925381e-03
3.148000000000000043e+01,8.052000671368625753e-03
3.151999999999999957e+01,5.710800545118459304e-03
3.155999999999999872e+01,8.206911067996000217e-03
3.160000000000000142e+01,9.045629521855769878e-03
3.164000000000000057e+01,6.838433220940204164e-03
3.167999999999999972e+01,7.721696369326751588e-03
3.171999999999999886e+01,8.828791535040268063e-03
3.176000000000000156e+01,5.635822328225376099e-03
3.180000000000000071e+01,2.980222418404610257e-03
3.183999999999999986e+01,6.908783903824010364e-03
3.187999999999999901e+01,6.313325616022625979e-03
3.192000000000000171e+01,1.910504356280077858e-03
3.196000000000000085e+01,5.301202784387200675e-03
3.200000000000000000e+01,6.541807107690839063e-03
3.203999999999999915e+01,7.961452032435220247e-03
3.207999999999999829e+01,5.976853279994336597e-03
3.211999999999999744e+01,6.410847684035761961e-03
3.215999999999999659e+01,3.500156689670793383e-04
3.220000000000000284e+01,2.037912016604468465e-03
3.224000000000000199e+01,4.218386109235827165e-03
3.228000000000000114e+01,4.920631573199733301e-03
3.232000000000000028e+01,5.443588897679675458e-03
3.235999999999999943e+01,5.697675931472993491e-03
3.239999999999999858e+01,5.190191047135853629e-03
3.243999999999999773e+01,7.280463167973211767e-03
3.247999999999999687e+01,5.428998522923911621e-03
3.252000000000000313e+01,6.444037109800587575e-03
3.256000000000000227e+01,3.606920945879306308e-03
3.260000000000000142e+01,5.472741092684426691e-03
3.264000000000000057e+01,3.262451133370546791e-03
3.267999999999999972e+01,3.829082118666011624e-03
3.271999999999999886e+01,8.381992431922962242e-03
3.275999999999999801e+01,6.708821962994137786e-03
3.279999999999999716e+01,3.826168593064800411e-03
3.284000000000000341e+01,4.974585467898707744e-03
3.288000000000000256e+01,5.809340409303146574e-03
3.292000000000000171e+01,8.659568123522394870e-03
3.296000000000000085e+01,5.462879040361998811e-03
3.300000000000000000e+01,5.177483697587456635e-03
3.303999999999999915e+01,3.234694652427669813e-03
3.307999999999999829e+01,4.875065050646346099e-03
3.311999999999999744e+01,7.366340619015460285e-03
3.315999999999999659e+01,9.723118148018617540e-03
3.320000000000000284e+01,7.197545983222035544e-03
3.324000000000000199e+01,4.851013058726633305e-03
3.328000000000000114e+01,6.356385668247242250e-03
3.332000000000000028e+01,5.532498464048097100e-03
3.335999999999999943e+01,4.305366676132324315e-03
3.339999999999999858e+01,3.749975529105028030e-03
3.343999999999999773e+01,2.612175495955711829e-03
3.347999999999999687e+01,1.753096846621363233e-04
3.352000000000000313e+01,5.711126003399555340e-03
3.356000000000000227e+01,3.178000763780089249e-04
3.360000000000000142e+01,5.360664099007429219e-03
3.364000000000000057e+01,4.222237394197777931e-03
3.367999999999999972e+01,4.472207859328294899e-03
3.371999999999999886e+01,2.840828586182743941e-03
3.375999999999999801e+01,6.629041154646280604e-03
3.379999999999999716e+01,5.803649666234400248e-03
3.384000000000000341e+01,3.410445673842275177e-03
3.388000000000000256e+01,1.151489142894597095e-03
3.392000000000000171e+01,4.312124272070742316e-03
3.396000000000000085e+01,2.232080422066599987e-03
3.400000000000000000e+01,4.407060765635878452e-03
3.403999999999999915e+01,4.835064166705589465e-03
3.407999999999999829e+01,4.635866902796516135e-03
3.411999999999999744e+01,2.644901552729559020e-03
3.415999999999999659e+01,2.579825463135167803e-03
3.420000000000000284e+01,3.276071212834233502e-03
3.424000000000000199e+01,5.584668761853464093e-03
3.428000000000000114e+01,3.951527503276692707e-03
3.432000000000000028e+01,3.617200582867646612e-03
3.435999999999999943e+01,5.656673225231419536e-03
3.439999999999999858e+01,3.485660606391135456e-03
3.443999999999999773e+01,2.210342713363464776e-03
3.447999999999999687e+01,3.443197405741710033e-03
3.452000000000000313e+01,4.093641986972353097e-03
3.456000000000000227e+01,5.684572210817338128e-03
3.460000000000000142e+01,6.110808544868195392e-03
3.464000000000000057e+01,5.103604626259507226e-03
3.467999999999999972e+01,4.230647261668887653e-03
3.471999999999999886e+01,5.417951681099433640e-03
3.475999999999999801e+01,6.918666775468147560e-03
3.479999999999999716e+01,6.045329324462681876e-03
3.484000000000000341e+01,5.530193510568427034e-03
3.488000000000000256e+01,3.581617171786715542e-03
3.492000000000000171e+01,7.858870311328204974e-03
3.496000000000000085e+01,1.296561722945939335e-03
3.500000000000000000e+01,3.110053062097072486e-03
3.503999999999999915e+01,6.849432663551766401e-03
3.507999999999999829e+01,5.213758856682209307e-03
3.511999999999999744e+01,6.041465856361804589e-03
3.515999999999999659e+01,1.036274783427994749e-02
3.520000000000000284e+01,7.517334151132536689e-03
3.524000000000000199e+01,6.597808503432109513e-03
3.528000000000000114e+01,3.886513453805560264e-03
3.532000000000000028e+01,4.803166359679342072e-03
3.535999999999999943e+01,6.391557683247003213e-03
3.539999999999999858e+01,3.321552082170810705e-03
3.543999999999999773e+01,5.223225887951521949e-03
3.547999999999999687e+01,4.706055324129945761e-03
3.552000000000000313e+01,5.218951419842458861e-03
3.556000000000000227e+01,3.581749372704152220e-03
3.560000000000000142e+01,8.528704455902091919e-03
3.564000000000000057e+01,4.382948103575549405e-03
3.567999999999999972e+01,4.850542462552538160e-03
3.571999999999999886e+01,7.647143788761840040e-03
3.575999999999999801e+01,5.382228305744286845e-03
3.579999999999999716e+01,8.716066562061332984e-03
3.584000000000000341e+01,3.718641055563944899e-03
3.588000000000000256e+01,5.842864996791787696e-03
3.592000000000000171e+01,4.742005116850552329e-03
3.596000000000000085e+01,4.178509815286348371e-03
3.600000000000000000e+01,5.944021163355244983e-03
3.603999999999999915e+01,4.708403818719499208e-03
3.607999999999999829e+01,6.160121456299689179e-03
3.611999999999999744e+01,5.058620839589440289e-03
3.615999999999999659e+01,8.032977754738691856e-03
3.620000000000000284e+01,7.423922107794149808e-03
3.624000000000000199e+01,8.964708626592061275e-03
3.628000000000000114e+01,7.056455651300569572e-03
3.632000000000000028e+01,5.999104216454081116e-03
3.635999999999999943e+01,6.240564805838063472e-03
3.639999999999999858e+01,7.556882109502798331e-03
3.643999999999999773e+01,7.260592907135937288e-03
3.647999999999999687e+01,1.059225034450118896e-02
3.652000000000000313e+01,5.503061141908210073e-03
3.656000000000000227e+01,3.862654276641970703e-03
3.660000000000000142e+01,7.149134449548725199e-03
3.664000000000000057e+01,5.642843132553714350e-03
3.667999999999999972e+01,6.958259275951915457e-03
3.671999999999999886e+01,4.824635426176225247e-03
3.675999999999999801e+01,4.482524728990371424e-03
3.679999999999999716e+01,6.155882403601455749e-03
3.684000000000000341e+01,4.514573107671766491e-03
3.688000000000000256e+01,5.560597886531635017e-03
3.692000000000000171e+01,4.904433509072708176e-03
3.696000000000000085e+01,1.025014103142132468e-02
3.700000000000000000e+01,9.324971909308733820e-03
3.703999999999999915e+01,6.025747701028151895e-03
3.707999999999999829e+01,7.742992092296102809e-03
3.711999999999999744e+01,4.264344972965304452e-03
3.715999999999999659e+01,1.158021218856366066e-02
3.720000000000000284e+01,5.458634066334774014e-03
3.724000000000000199e+01,6.548285955037680059e-03
3.728000000000000114e+01,1.005652514732285376e-02
3.732000000000000028e+01,1.172820157082900272e-02
3.735999999999999943e+01,1.165289728601618009e-02
3.739999999999999858e+01,9.651448035850317478e-03
3.743999999999999773e+01,9.262346955299146506e-03
3.747999999999999687e+01,1.017205662858156057e-02
3.752000000000000313e+01,8.886874882902889156e-03
3.756000000000000227e+01,8.810921694483787522e-03
3.760000000000000142e+01,6.943196472602116733e-03
3.764000000000000057e+01,9.599237632998009959e-03
3.767999999999999972e+01,8.851028764224078485e-03
3.771999999999999886e+01,1.105889933493611754e-02
3.775999999999999801e+01,1.040001242072390551e-02
3.779999999999999716e+01,1.251804064359229862e-02
3.784000000000000341e+01,1.172452023787810653e-02
3.788000000000000256e+01,1.393187014308031740e-02
3.792000000000000171e+01,1.802031399093549646e-02
3.796000000000000085e+01,2.112322434946856467e-02
3.800000000000000000e+01,2.176249642709061557e-02
3.803999999999999915e+01,2.504431021081831091e-02
3.807999999999999829e+01,3.567172621142716826e-02
3.811999999999999744e+01,5.745198388137898876e-02
3.815999999999999659e+01,9.132569528653183832e-02
3.820000000000000284e+01,1.281106945337991687e-01
3.824000000000000199e+01,1.414250514104717915e-01
3.828000000000000114e+01,1.322541690353233879e-01
3.832000000000000028e+01,1.170363637830386938e-01
3.835999999999999943e+01,9.062066452294276209e-02
3.839999999999999858e+01,6.631001392562239916e-02
3.843999999999999773e+01,4.715020354397279900e-02
3.847999999999999687e+01,3.990468232289097472e-02
3.852000000000000313e+01,3.763083701507450446e-02
3.856000000000000227e+01,3.257981542073881687e-02
3.860000000000000142e+01,3.106715595562398527e-02
3.864000000000000057e+01,3.291369436269597076e-02
3.867999999999999972e+01,2.835498106096434948e-02
3.871999999999999886e+01,2.755858501691806767e-02
3.875999999999999801e+01,2.649331142277423085e-02
3.879999999999999716e+01,2.883202657224764529e-02
3.884000000000000341e+01,2.821440090593982722e-02
3.888000000000000256e+01,3.055285336334975788e-02
3.892000000000000171e+01,3.230889071876710122e-02
3.896000000000000085e+01,3.496061767303809686e-02
3.900000000000000000e+01,3.756742206956204672e-02
3.903999999999999915e+01,4.796773812321235980e-02
3.907999999999999829e+01,5.339611570764778159e-02
3.911999999999999744e+01,7.011170698589026806e-02
3.915999999999999659e+01,8.978337607025126121e-02
3.920000000000000284e+01,1.134413171324202274e-01
3.924000000000000199e+01,1.654070718602422552e-01
3.928000000000000114e+01,2.447848191500323067e-01
3.932000000000000028e+01,3.918865065805346992e-01
3.935999999999999943e+01,5.768812928645326021e-01
3.939999999999999858e+01,7.936775947601214520e-01
3.943999999999999773e+01,9.483037832048253346e-01
3.947999999999999687e+01,1.000000000000000000e+00
3.952000000000000313e+01,9.412861392633551372e-01
3.956000000000000227e+01,8.092044017107898890e-01
3.960000000000000142e+01,6.326002253746337844e-01
3.964000000000000057e+01,4.634760226446243414e-01
3.967999999999999972e+01,3.228835883457618627e-01
3.971999999999999886e+01,2.205873719682942269e-01
3.975999999999999801e+01,1.598571203296949572e-01
3.979999999999999716e+01,1.183868890325820711e-01
3.984000000000000341e+01,8.905490061799056778e-02
3.988000000000000256e+01,7.154761767013929907e-02
3.992000000000000171e+01,6.250571117498063267e-02
3.996000000000000085e+01,4.876061152993217684e-02
4.000000000000000000e+01,4.437670930514735906e-02
4.003999999999999915e+01,3.636459910970651910e-02
4.007999999999999829e+01,3.171168515308505492e-02
4.011999999999999744e+01,2.876069843203131471e-02
4.015999999999999659e+01,2.916890785905432160e-02
4.020000000000000284e+01,2.572495386935759812e-02
4.024000000000000199e+01,2.555061383116360649e-02
4.028000000000000114e+01,2.049391606844651673e-02
4.032000000000000028e+01,1.843808584899541206e-02
4.035999999999999943e+01,1.647170468791951323e-02
4.039999999999999858e+01,1.517705622775139540e-02
4.043999999999999773e+01,1.527079726977067717e-02
4.047999999999999687e+01,1.697688303318447070e-02
4.052000000000000313e+01,1.169543131281010340e-02
4.056000000000000227e+01,1.232626530299328095e-02
4.060000000000000142e+01,1.179239859768460921e-02
4.064000000000000057e+01,1.309483169686357328e-02
4.067999999999999972e+01,1.282944453356689614e-02
4.071999999999999886e+01,1.166810285615851525e-02
4.075999999999999801e+01,1.328367295835317791e-02
4.079999999999999716e+01,9.345018952462374670e-03
4.084000000000000341e+01,1.091553086328872317e-02
4.088000000000000256e+01,1.154529702560239297e-02
4.092000000000000171e+01,1.329470582815354789e-02
4.096000000000000085e+01,1.016175613486921918e-02
4.100000000000000000e+01,7.342210038597415250e-03
4.103999999999999915e+01,6.851664875172591013e-03
4.107999999999999829e+01,1.151195693291156424e-02
4.111999999999999744e+01,1.017011399043764482e-02
4.115999999999999659e+01,6.946912870622472952e-03
4.120000000000000284e+01,8.247474095037539768e-03
4.124000000000000199e+01,7.666677051368718521e-03
4.128000000000000114e+01,8.832596980415097915e-03
4.132000000000000028e+01,4.847411687789999687e-03
4.135999999999999943e+01,4.311003287933459945e-03
4.139999999999999858e+01,5.924431200919313273e-03
4.143999999999999773e+01,1.085226275718402175e-02
4.147999999999999687e+01,5.343644666241277250e-03
4.152000000000000313e+01,2.835892757424978219e-03
4.156000000000000227e+01,6.419589636545985911e-03
4.160000000000000142e+01,5.703210981794304066e-03
4.164000000000000057e+01,6.599175732668905239e-03
4.167999999999999972e+01,8.077289626737737746e-03
4.171999999999999886e+01,6.375104173712007813e-03
4.175999999999999801e+01,7.852948842247537559e-03
4.179999999999999716e+01,4.985926697138101486e-03
4.184000000000000341e+01,7.090576699474661695e-03
4.188000000000000256e+01,4.626404532845183534e-03
4.192000000000000171e+01,8.074516534148434149e-03
4.196000000000000085e+01,5.878821005766594020e-03
4.200000000000000000e+01,6.728782167971065868e-03
4.203999999999999915e+01,6.503623107147582516e-03
4.207999999999999829e+01,7.129359053299261749e-03
4.211999999999999744e+01,4.037302563654984223e-03
4.215999999999999659e+01,6.364828387643005694e-03
4.220000000000000284e+01,8.199517495021686753e-03
4.224000000000000199e+01,3.494577696802390540e-03
4.228000000000000114e+01,8.643534314754140746e-03
4.232000000000000028e+01,8.910130894245561761e-03
4.235999999999999943e+01,7.743278464413029007e-03
4.239999999999999858e+01,5.814842773620483400e-03
4.243999999999999773e+01,9.798690660933502897e-03
4.247999999999999687e+01,8.273103587481364304e-03
4.252000000000000313e+01,1.118169525517459344e-02
4.256000000000000227e+01,1.095477767589128626e-02
4.260000000000000142e+01,1.292248610122651020e-02
4.264000000000000057e+01,1.363590941130127070e-02
4.267999999999999972e+01,1.318462966657562262e-02
4.271999999999999886e+01,1.313633367372719213e-02
4.275999999999999801e+01,1.156500611201025444e-02
4.279999999999999716e+01,1.178518485181409732e-02
4.284000000000000341e+01,1.227397404863415920e-02
4.288000000000000256e+01,1.146368680505016960e-02
4.292000000000000171e+01,9.175158864028079217e-03
4.296000000000000085e+01,1.203746601171779528e-02
4.300000000000000000e+01,1.001741234963479318e-02
4.303999999999999915e+01,8.131595758964355047e-03
4.307999999999999829e+01,9.649763057180101369e-03
4.311999999999999744e+01,1.116779417731873780e-02
4.315999999999999659e+01,9.415942211163990869e-03
4.320000000000000284e+01,7.798327134936543573e-03
4.324000000000000199e+01,4.612888892469079426e-03
4.328000000000000114e+01,6.399121164080139035e-03
4.332000000000000028e+01,6.483157019961507950e-03
4.335999999999999943e+01,6.208728002212363269e-03
4.339999999999999858e+01,7.636222499582860992e-03
4.343999999999999773e+01,8.436505715086113980e-03
4.347999999999999687e+01,6.101278640072523539e-03
4.352000000000000313e+01,5.647139155727339682e-03
4.356000000000000227e+01,7.432415640004732746e-03
4.360000000000000142e+01,5.365524851000375191e-03
4.364000000000000057e+01,6.478662051105317510e-03
4.367999999999999972e+01,6.695841379621010961e-03
4.371999999999999886e+01,3.598345933729183571e-03
4.375999999999999801e+01,4.711072557893444292e-03
4.379999999999999716e+01,4.883050121438816359e-03
4.384000000000000341e+01,5.771547536874283880e-03
4.388000000000000256e+01,3.479743155164002726e-03
4.392000000000000171e+01,5.890862244097076067e-03
4.396000000000000085e+01,4.942515233479047483e-03
4.400000000000000000e+01,6.367956851146145889e-03
4.403999999999999915e+01,5.016215966423393652e-03
4.407999999999999829e+01,8.233025212111645674e-03
4.411999999999999744e+01,6.029979742642065446e-03
4.415999999999999659e+01,6.245513772888026428e-03
4.420000000000000284e+01,5.430716182970547062e-03
4.424000000000000199e+01,5.063691673735863479e-03
4.428000000000000114e+01,4.024663876920575589e-03
4.432000000000000028e+01,9.211454896168716489e-03
4.435999999999999943e+01,6.783629335162569794e-03
4.439999999999999858e+01,7.714995112873435090e-03
4.443999999999999773e+01,5.645222669902840752e-03
4.447999999999999687e+01,4.471133564543982274e-03
4.452000000000000313e+01,8.403086725499858689e-03
4.456000000000000227e+01,8.796408894672105849e-03
4.460000000000000142e+01,7.621906354979530486e-03
4.464000000000000057e+01,7.790997500570247605e-03
4.467999999999999972e+01,5.272487523661408687e-03
4.471999999999999886e+01,6.785034316234278898e-03
4.475999999999999801e+01,5.789144107227672462e-03
4.479999999999999716e+01,9.227430053201311419e-03
4.484000000000000341e+01,5.633382562368739396e-03
4.488000000000000256e+01,7.951615881991355370e-03
4.492000000000000171e+01,8.925979394356995528e-03
4.496000000000000085e+01,1.034811517072171082e-02
4.500000000000000000e+01,7.962873138724214928e-03
4.503999999999999915e+01,1.063888173029862994e-02
4.507999999999999829e+01,1.286684139144448659e-02
4.511999999999999744e+01,1.482591628845321072e-02
4.515999999999999659e+01,1.660568848178483464e-02
4.520000000000000284e+01,2.013217320144248396e-02
4.524000000000000199e+01,1.980648878759431325e-02
4.528000000000000114e+01,2.472121893675286938e-02
4.532000000000000028e+01,2.636606354956686979e-02
4.535999999999999943e+01,2.648787364437668601e-02
4.539999999999999858e+01,2.540018654622076821e-02
4.543999999999999773e+01,2.252071852182389519e-02
4.547999999999999687e+01,1.601303635627173913e-02
4.552000000000000313e+01,1.371557426443767262e-02
4.556000000000000227e+01,1.204504796769563513e-02
4.560000000000000142e+01,1.001605425652928733e-02
4.564000000000000057e+01,9.688981519688765268e-03
4.567999999999999972e+01,7.659709690210755526e-03
4.571999999999999886e+01,6.526119791833630279e-03
4.575999999999999801e+01,7.452779154993837731e-03
4.579999999999999716e+01,7.035567712728104349e-03
4.584000000000000341e+01,5.946351213400333756e-03
4.588000000000000256e+01,6.066353834097963464e-03
4.592000000000000171e+01,6.410172365304619459e-03
4.596000000000000085e+01,5.365328856684347530e-03
4.600000000000000000e+01,6.783853813614678513e-03
4.603999999999999915e+01,8.157448227445957337e-03
4.607999999999999829e+01,6.126783084130603754e-03
4.611999999999999744e+01,6.245948899842085691e-03
4.615999999999999659e+01,5.558736136773955762e-03
4.620000000000000284e+01,5.767204760350884418e-03
4.624000000000000199e+01,5.258876820236921788e-03
4.628000000000000114e+01,6.094140705182222138e-03
4.632000000000000028e+01,5.899070565284216319e-03
4.635999999999999943e+01,3.061188450206960097e-03
4.639999999999999858e+01,5.777256998149303373e-03
4.643999999999999773e+01,5.178647686434497549e-03
4.647999999999999687e+01,4.624689438367534516e-03
4.652000000000000313e+01,5.548695901878965796e-03
4.656000000000000227e+01,3.247606475450665921e-03
4.660000000000000142e+01,2.290108511111081744e-03
4.664000000000000057e+01,3.392858810139839660e-03
4.667999999999999972e+01,3.196528358489321257e-03
4.671999999999999886e+01,5.911476084862500417e-03
4.675999999999999801e+01,6.386730858584400809e-03
4.679999999999999716e+01,4.129591052211194734e-03
4.684000000000000341e+01,4.022281388181092251e-03
4.688000000000000256e+01,5.168980762809122394e-03
4.692000000000000171e+01,5.240554379108380671e-03
4.696000000000000085e+01,4.326584297538913285e-03
4.700000000000000000e+01,1.755204678994159084e-03
4.703999999999999915e+01,6.171088690829804740e-03
4.707999999999999829e+01,3.330681460487019876e-03
4.711999999999999744e+01,6.895254081878110161e-03
4.715999999999999659e+01,2.307714312034445797e-03
4.720000000000000284e+01,3.094960086121287084e-03
4.724000000000000199e+01,5.270587649271442354e-03
4.728000000000000114e+01,5.116939564111802445e-03
4.732000000000000028e+01,6.262091071441476878e-03
4.735999999999999943e+01,3.510279987669786064e-03
4.739999999999999858e+01,4.072865786850546690e-03
4.743999999999999773e+01,3.739489449538137104e-03
4.747999999999999687e+01,3.719509359084714403e-03
4.752000000000000313e+01,6.118104957156106187e-03
4.756000000000000227e+01,4.395782472691125813e-03
4.760000000000000142e+01,2.762900834392751064e-03
4.764000000000000057e+01,5.026699494722814722e-03
4.767999999999999972e+01,5.364341529271064377e-03
4.771999999999999886e+01,3.103961098930926518e-03
4.775999999999999801e+01,3.754857666960217423e-03
4.779999999999999716e+01,6.869120658830782725e-03
4.784000000000000341e+01,2.144807858563973699e-03
4.788000000000000256e+01,2.257787195927048272e-03
4.792000000000000171e+01,1.026893323184306433e-03
4.796000000000000085e+01,6.156187296462059359e-03
4.800000000000000000e+01,5.731248994817061612e-03
4.803999999999999915e+01,3.469735764879757888e-03
4.807999999999999829e+01,3.402842323690385366e-03
4.811999999999999744e+01,3.962881773828703935e-03
4.815999999999999659e+01,3.223838794548963653e-03
4.820000000000000284e+01,3.425265986264061126e-03
4.824000000000000199e+01,3.492178033626250084e-03
4.828000000000000114e+01,3.648530155842641832e-03
4.832000000000000028e+01,4.745352312939915725e-03
4.835999999999999943e+01,5.080584448750743130e-03
4.839999999999999858e+01,3.713614406674461098e-03
4.843999999999999773e+01,1.226725829243643495e-03
4.847999999999999687e+01,6.040636619235546789e-03
4.852000000000000313e+01,4.314911380332520953e-03
4.856000000000000227e+01,3.708820115745192336e-03
4.860000000000000142e+01,4.804646468006131335e-03
4.864000000000000057e+01,4.959718269718683265e-03
4.867999999999999972e+01,5.293811798403623425e-03
4.871999999999999886e+01,3.925702786230890820e-03
4.875999999999999801e+01,4.886585950240753852e-03
4.879999999999999716e+01,6.295237022603142850e-03
4.884000000000000341e+01,6.897506476307596092e-03
4.888000000000000256e+01,4.364259514367222967e-03
4.892000000000000171e+01,6.802676669149521939e-03
4.896000000000000085e+01,7.046189428773722702e-03
4.900000000000000000e+01,5.721872488688085900e-03
4.903999999999999915e+01,4.218248443907496661e-03
4.907999999999999829e+01,3.923839889446839244e-03
4.911999999999999744e+01,3.360542033717236251e-03
4.915999999999999659e+01,2.662727990094410253e-03
4.920000000000000284e+01,5.055353523136286303e-03
4.924000000000000199e+01,4.894745920095373848e-03
4.928000000000000114e+01,2.494442506010137364e-03
4.932000000000000028e+01,5.782459601585323433e-03
4.935999999999999943e+01,4.188108673348193457e-03
4.939999999999999858e+01,3.534226554966349038e-03
4.943999999999999773e+01,5.074962682707624510e-03
4.947999999999999687e+01,5.316614883777344598e-03
4.952000000000000313e+01,5.558123647359042990e-03
4.956000000000000227e+01,4.366175234779492639e-03
4.960000000000000142e+01,2.726172764812434101e-03
4.964000000000000057e+01,2.877668837870751405e-03
4.967999999999999972e+01,3.029021291955759278e-03
4.971999999999999886e+01,4.076051140009825588e-03
4.975999999999999801e+01,4.451071484612694612e-03
4.979999999999999716e+01,2.855141745838184458e-03
4.984000000000000341e+01,3.274665587810898868e-03
4.988000000000000256e+01,4.097165060194853277e-03
4.992000000000000171e+01,3.486206948075717699e-03
4.996000000000000085e+01,3.726134904782046030e-03
5.000000000000000000e+01,3.428426244556308407e-03
5.003999999999999915e+01,4.071185668244765681e-03
5.007999999999999829e+01,2.563830479293899289e-03
5.011999999999999744e+01,2.176107495177327135e-03
5.015999999999999659e+01,3.624673517174681250e-03
5.020000000000000284e+01,2.743960578756014616e-03
5.024000000000000199e+01,5.715133936914420891e-03
5.028000000000000114e+01,4.431012968539763813e-03
5.032000000000000028e+01,5.520673459781963617e-03
5.035999999999999943e+01,5.445622184930665188e-03
5.039999999999999858e+01,5.325635421506641660e-03
5.043999999999999773e+01,5.160713124138589965e-03
5.047999999999999687e+01,4.726899982876759700e-03
5.052000000000000313e+01,4.875225957747837159e-03
5.056000000000000227e+01,5.023407315476603741e-03
5.060000000000000142e+01,7.231832444813199832e-03
5.064000000000000057e+01,7.334933379227718750e-03
5.067999999999999972e+01,2.734829004239149649e-03
5.071999999999999886e+01,4.674073556312871580e-03
5.075999999999999801e+01,5.582979047326967065e-03
5.079999999999999716e+01,4.073022791523899303e-03
5.084000000000000341e+01,5.205593723004661028e-03
5.088000000000000256e+01,3.829720711094264200e-03
5.092000000000000171e+01,3.842225314085897375e-03
5.096000000000000085e+01,5.422271698270994186e-03
5.100000000000000000e+01,5.703232431674435700e-03
5.103999999999999915e+01,4.729898521840602589e-03
5.107999999999999829e+01,6.130345209568580957e-03
5.111999999999999744e+01,5.201511893340224520e-03
5.115999999999999659e+01,3.287130115254748540e-03
5.120000000000000284e+01,1.775722470327019496e-03
5.124000000000000199e+01,4.519319463934563449e-03
5.128000000000000114e+01,5.247173642510298379e-03
5.132000000000000028e+01,7.139449717696455186e-03
5.135999999999999943e+01,4.866012347155335149e-03
5.139999999999999858e+01,6.220504692844627120e-03
5.143999999999999773e+01,2.782208761244410380e-03
5.147999999999999687e+01,5.390559312578938056e-03
5.152000000000000313e+01,3.967569395447938935e-03
5.156000000000000227e+01,3.485045838121044771e-03
5.160000000000000142e+01,5.107555971034728054e-03
5.164000000000000057e+01,2.788307605200316796e-03
5.167999999999999972e+01,6.694869707106765495e-03
5.171999999999999886e+01,4.599284785401024957e-03
5.175999999999999801e+01,3.130628626233004138e-03
5.179999999999999716e+01,5.558648047076326579e-03
5.184000000000000341e+01,7.090700340581483282e-03
5.188000000000000256e+01,4.367456492700836322e-03
5.192000000000000171e+01,2.539887543366745049e-03
5.196000000000000085e+01,6.221471897523349164e-03
5.200000000000000000e+01,5.961297344590013592e-03
5.203999999999999915e+01,4.849946490377578766e-03
5.207999999999999829e+01,4.679061406142114715e-03
5.211999999999999744e+01,5.851761522753465110e-03
5.215999999999999659e+01,7.427434683610931003e-03
5.220000000000000284e+01,5.778005557172788062e-03
5.224000000000000199e+01,4.576340437153823479e-03
5.228000000000000114e+01,3.956812436929764594e-03
5.232000000000000028e+01,4.591287304864540182e-03
5.235999999999999943e+01,7.330795000984843476e-03
5.239999999999999858e+01,7.024364394615697713e-03
5.243999999999999773e+01,4.612607551615125444e-03
5.247999999999999687e+01,3.186107077794019145e-03
5.252000000000000313e+01,5.208370838143704107e-03
5.256000000000000227e+01,2.706591368301072310e-03
5.260000000000000142e+01,4.459814994368887890e-03
5.264000000000000057e+01,4.331667421527125687e-03
5.267999999999999972e+01,4.113790721031823638e-03
5.271999999999999886e+01,2.686408524619563441e-03
5.275999999999999801e+01,4.349461866824681257e-03
5.279999999999999716e+01,3.459278034899705614e-03
5.284000000000000341e+01,5.435574386271051044e-03
5.288000000000000256e+01,6.067991901493111073e-03
5.292000000000000171e+01,4.102381053555424414e-03
5.296000000000000085e+01,3.435563400751170948e-03
5.300000000000000000e+01,5.097733114769765865e-03
5.303999999999999915e+01,5.281650652406764609e-03
5.307999999999999829e+01,4.211271232869244659e-03
5.311999999999999744e+01,4.350102721148521763e-03
5.315999999999999659e+01,5.787727177704659470e-03
5.320000000000000284e+01,3.865875053935177025e-03
5.324000000000000199e+01,5.213622135990002467e-03
5.328000000000000114e+01,5.486236245676468989e-03
5.332000000000000028e+01,5.086836813864418529e-03
5.335999999999999943e+01,5.762274858894196605e-03
5.339999999999999858e+01,4.198012419633864213e-03
5.343999999999999773e+01,4.738781583533482021e-03
5.347999999999999687e+01,5.682522294425717928e-03
5.352000000000000313e+01,2.729293427033576726e-03
5.356000000000000227e+01,3.627947090399109495e-03
5.360000000000000142e+01,4.123333212160981351e-03
5.364000000000000057e+01,5.872720704828194617e-03
5.367999999999999972e+01,6.143855295172711943e-03
5.371999999999999886e+01,2.876348503701753410e-03
5.375999999999999801e+01,6.327351402735637530e-03
5.379999999999999716e+01,5.702220194223184442e-03
5.384000000000000341e+01,5.614433283108555099e-03
5.388000000000000256e+01,5.840035359441976548e-03
5.392000000000000171e+01,4.990503737465958392e-03
5.396000000000000085e+01,5.663719440918847658e-03
5.400000000000000000e+01,4.097233979511855778e-03
5.403999999999999915e+01,4.456615229032281564e-03
5.407999999999999829e+01,6.114788403289230477e-03
5.411999999999999744e+01,6.473872387801737210e-03
5.415999999999999659e+01,2.935986068088777910e-03
5.420000000000000284e+01,7.012429998109834077e-03
5.424000000000000199e+01,5.534634575282507477e-03
5.428000000000000114e+01,3.877526104117531933e-03
5.432000000000000028e+01,4.235866132112118577e-03
5.435999999999999943e+01,3.922191438953919439e-03
5.439999999999999858e+01,6.430204106694944674e-03
5.443999999999999773e+01,5.444365628852450636e-03
5.447999999999999687e+01,7.145841262419501926e-03
5.452000000000000313e+01,5.667003030070190579e-03
5.456000000000000227e+01,5.979657760074101082e-03
5.460000000000000142e+01,4.903640650046370807e-03
5.464000000000000057e+01,6.738892734521346323e-03
5.467999999999999972e+01,4.229263395786875962e-03
5.471999999999999886e+01,5.974634748282991493e-03
5.475999999999999801e+01,4.584483015550514309e-03
5.479999999999999716e+01,5.209779237521773403e-03
5.484000000000000341e+01,3.550582288919789612e-03
5.488000000000000256e+01,4.981818474255347504e-03
5.492000000000000171e+01,1.844217699575128938e-03
5.496000000000000085e+01,5.201169989681789056e-03
5.500000000000000000e+01,5.422598922331936348e-03
5.503999999999999915e+01,6.898027637891293758e-03
5.507999999999999829e+01,3.804619211949616681e-03
5.511999999999999744e+01,5.548494711429234269e-03
5.515999999999999659e+01,5.993279841510116591e-03
5.520000000000000284e+01,4.691064027664114053e-03
5.524000000000000199e+01,2.985578811990395078e-03
5.528000000000000114e+01,4.952809964444936965e-03
5.532000000000000028e+01,4.232427925629249008e-03
5.535999999999999943e+01,4.183761618848327000e-03
5.539999999999999858e+01,3.597452570007387759e-03
5.543999999999999773e+01,3.682859162458598356e-03
5.547999999999999687e+01,5.067056091650181705e-03
5.552000000000000313e+01,4.166759078956119335e-03
5.556000000000000227e+01,6.132939164308760620e-03
5.560000000000000142e+01,6.755237328262470031e-03
5.564000000000000057e+01,5.496160890457739596e-03
5.567999999999999972e+01,7.193143520417125125e-03
5.571999999999999886e+01,6.381676717055842843e-03
5.575999999999999801e+01,5.435686239533829740e-03
5.579999999999999716e+01,5.922858894528719789e-03
5.584000000000000341e+01,4.842194091318366249e-03
5.588000000000000256e+01,6.717588129015517051e-03
5.592000000000000171e+01,4.203308284076692075e-03
5.596000000000000085e+01,6.436729305930121922e-03
5.600000000000000000e+01,7.057521635177326294e-03
5.603999999999999915e+01,8.663566295556682575e-03
5.607999999999999829e+01,5.342444256826589521e-03
5.611999999999999744e+01,5.066962892607458809e-03
5.615999999999999659e+01,6.090271093816317961e-03
5.620000000000000284e+01,8.009249338840691151e-03
5.624000000000000199e+01,6.927075978644733380e-03
5.628000000000000114e+01,6.561408359858907774e-03
5.632000000000000028e+01,5.254977479231593730e-03
5.635999999999999943e+01,6.994187000887356828e-03
5.639999999999999858e+01,9.629066339502017138e-03
5.643999999999999773e+01,6.082629089026210002e-03
5.647999999999999687e+01,9.165116337974239802e-03
5.652000000000000313e+01,1.014227272241639832e-02
5.656000000000000227e+01,1.111927768401851577e-02
5.660000000000000142e+01,1.146905643658971061e-02
5.664000000000000057e+01,1.123639998767433229e-02
5.667999999999999972e+01,1.369105515474600653e-02
5.671999999999999886e+01,1.560806608250416179e-02
5.675999999999999801e+01,1.694264167266180260e-02
5.679999999999999716e+01,2.199472295975326078e-02
5.684000000000000341e+01,2.346336827315074341e-02
5.688000000000000256e+01,3.111302710310203529e-02
5.692000000000000171e+01,3.508966776278533289e-02
5.696000000000000085e+01,4.497857553078569992e-02
5.700000000000000000e+01,5.065697240278722868e-02
5.703999999999999915e+01,5.440920203211850603e-02
5.707999999999999829e+01,5.963938439500015426e-02
5.711999999999999744e+01,6.804957945685689846e-02
5.715999999999999659e+01,6.669517287968472485e-02
5.720000000000000284e+01,6.475833046582750441e-02
5.724000000000000199e+01,6.044741005328661126e-02
5.728000000000000114e+01,5.779360635910224531e-02
5.732000000000000028e+01,5.227302299341901604e-02
5.735999999999999943e+01,4.814080993785558454e-02
5.739999999999999858e+01,4.114181712005067493e-02
5.743999999999999773e+01,3.485932872788765485e-02
5.747999999999999687e+01,2.911418050433249582e-02
5.752000000000000313e+01,2.475740240941188067e-02
5.756000000000000227e+01,2.308793493230929320e-02
5.760000000000000142e+01,1.850689641319294004e-02
5.764000000000000057e+01,1.562776525700695918e-02
5.767999999999999972e+01,1.467449668295844195e-02
5.771999999999999886e+01,1.206380641242134517e-02
5.775999999999999801e+01,1.227479969159275819e-02
5.779999999999999716e+01,1.172419224184664995e-02
5.784000000000000341e+01,1.023281980614894511e-02
5.788000000000000256e+01,1.017460814365959455e-02
5.792000000000000171e+01,8.682929822403512299e-03
5.796000000000000085e+01,7.997337442793558959e-03
5.800000000000000000e+01,6.729308319072214647e-03
5.803999999999999915e+01,5.774663464181849400e-03
5.807999999999999829e+01,1.019479181222344988e-02
5.811999999999999744e+01,8.164855348085101050e-03
5.815999999999999659e+01,5.597273011265767664e-03
5.820000000000000284e+01,5.717000566323406432e-03
5.824000000000000199e+01,6.553231639596580199e-03
5.828000000000000114e+01,6.583070386580716117e-03
5.832000000000000028e+01,7.150248349375038989e-03
5.835999999999999943e+01,4.716272302269158140e-03
5.839999999999999858e+01,8.373725941775635173e-03
5.843999999999999773e+01,5.401950194468883686e-03
5.847999999999999687e+01,5.834140868090815189e-03
5.852000000000000313e+01,3.309968403242963264e-03
5.856000000000000227e+01,4.413717533159567871e-03
5.860000000000000142e+01,4.666282920900929193e-03
5.864000000000000057e+01,6.710336643121052845e-03
5.867999999999999972e+01,7.589669162013487104e-03
5.871999999999999886e+01,6.542832532640295747e-03
5.875999999999999801e+01,4.644811979606566429e-03
5.879999999999999716e+01,5.971593272868227012e-03
5.884000000000000341e+01,7.880504245028608495e-03
5.888000000000000256e+01,5.399737977075465614e-03
5.892000000000000171e+01,6.233355525135124940e-03
5.896000000000000085e+01,4.872057335207133702e-03
5.900000000000000000e+01,6.287650235561123221e-03
5.903999999999999915e+01,4.836461513449548735e-03
5.907999999999999829e+01,4.952805362153839264e-03
5.911999999999999744e+01,4.397129090518477751e-03
5.915999999999999659e+01,4.961074769799483919e-03
5.920000000000000284e+01,5.211328661323663680e-03
5.924000000000000199e+01,7.029114942178434598e-03
5.928000000000000114e+01,7.592597233304367553e-03
5.932000000000000028e+01,5.692417060606688901e-03
5.935999999999999943e+01,5.404560194041325635e-03
5.939999999999999858e+01,4.310309730790029201e-03
5.943999999999999773e+01,4.246098795024503061e-03
5.947999999999999687e+01,2.927583642673561165e-03
5.952000000000000313e+01,5.908854789910714805e-03
5.956000000000000227e+01,5.441060036951277275e-03
5.960000000000000142e+01,6.316842000402150131e-03
5.964000000000000057e+01,5.087289560384341408e-03
5.967999999999999972e+01,7.485657444734078285e-03
5.971999999999999886e+01,5.763093453666699208e-03
5.975999999999999801e+01,4.488284939210669677e-03
5.979999999999999716e+01,3.661231855994677518e-03
5.984000000000000341e+01,3.281934158647388435e-03
5.988000000000000256e+01,5.724317606328755033e-03
5.992000000000000171e+01,5.165545274628525335e-03
5.996000000000000085e+01,5.905558198081035069e-03
