2.003999999999999915e+01,1.789768334748733031e-03
2.007999999999999829e+01,3.317946931211106058e-03
2.012000000000000099e+01,4.326516325532612887e-03
2.016000000000000014e+01,6.958318447183962398e-03
2.019999999999999929e+01,4.135481900493317813e-03
2.023999999999999844e+01,6.052739124208699438e-03
2.028000000000000114e+01,2.710161683001101416e-03
2.032000000000000028e+01,2.614182392705332713e-03
2.035999999999999943e+01,2.258332906120038425e-03
2.039999999999999858e+01,5.408820174746856689e-03
2.044000000000000128e+01,7.260483833758904666e-03
2.048000000000000043e+01,3.917247930667143614e-03
2.051999999999999957e+01,3.755676079543860540e-03
2.055999999999999872e+01,3.529038336712813414e-03
2.060000000000000142e+01,4.925634425474756037e-03
2.064000000000000057e+01,6.192230222422819702e-03
2.067999999999999972e+01,6.224937612962879938e-03
2.071999999999999886e+01,4.893887495719970691e-03
2.076000000000000156e+01,4.731529405451450135e-03
2.080000000000000071e+01,3.789825416106620652e-03
2.083999999999999986e+01,5.445374873899428737e-03
2.087999999999999901e+01,4.373540606952800933e-03
2.092000000000000171e+01,4.015856562361961625e-03
2.096000000000000085e+01,5.086603450208550432e-03
2.100000000000000000e+01,2.910490107428216015e-03
2.103999999999999915e+01,3.786172919892381427e-03
2.107999999999999829e+01,3.752641334230769066e-03
2.112000000000000099e+01,3.394306858762434573e-03
2.116000000000000014e+01,4.139730813263061381e-03
2.119999999999999929e+01,4.690221280494696540e-03
2.123999999999999844e+01,4.915909159082351015e-03
2.128000000000000114e+01,4.232383141482136922e-03
2.132000000000000028e+01,3.938335345707177568e-03
2.135999999999999943e+01,2.085727845706728499e-03
2.139999999999999858e+01,2.181029189457336231e-03
2.144000000000000128e+01,4.613847082634241377e-03
2.148000000000000043e+01,2.760852335734806113e-03
2.151999999999999957e+01,4.933673961950023508e-03
2.155999999999999872e+01,5.353132583233854470e-03
2.160000000000000142e+01,3.694555295567493632e-03
2.164000000000000057e+01,5.542317875128328908e-03
2.167999999999999972e+01,4.467894935057537507e-03
2.171999999999999886e+01,4.432297229500600788e-03
2.176000000000000156e+01,4.916048051794873197e-03
2.180000000000000071e+01,4.945128489108782145e-03
2.183999999999999986e+01,4.649407843592484428e-03
2.187999999999999901e+01,5.976924242071855395e-03
2.192000000000000171e+01,4.382255723245096456e-03
2.196000000000000085e+01,4.410824449189181332e-03
2.200000000000000000e+01,6.257434322935506547e-03
2.203999999999999915e+01,4.467578970844422043e-03
2.207999999999999829e+01,3.716549756755424365e-03
2.212000000000000099e+01,4.264085184581224361e-03
2.216000000000000014e+01,6.110185354709379672e-03
2.219999999999999929e+01,2.891259481162358411e-03
2.223999999999999844e+01,5.061778406213317608e-03
2.228000000000000114e+01,5.089328528021728505e-03
2.232000000000000028e+01,5.116751776057297529e-03
2.235999999999999943e+01,4.819375246301221480e-03
2.239999999999999858e+01,6.340040868223233671e-03
2.244000000000000128e+01,6.172280294621964453e-03
2.248000000000000043e+01,4.965439634697769479e-03
2.251999999999999957e+01,2.200042181788015340e-03
2.255999999999999872e+01,5.018894133220722087e-03
2.260000000000000142e+01,4.201282264242175643e-03
2.264000000000000057e+01,3.318609723710190442e-03
2.267999999999999972e+01,3.864372432281697016e-03
2.271999999999999886e+01,4.474943871837480137e-03
2.276000000000000156e+01,4.825651138358743111e-03
2.280000000000000071e+01,4.267148323420292405e-03
2.283999999999999986e+01,4.422800549441633852e-03
2.287999999999999901e+01,3.279635289490761586e-03
2.292000000000000171e+01,6.162289916219977105e-03
2.296000000000000085e+01,5.927958433076392988e-03
2.300000000000000000e+01,4.849351971292295733e-03
2.303999999999999915e+01,3.770620442711863397e-03
2.307999999999999829e+01,7.107316807649494833e-03
2.312000000000000099e+01,2.651736200812744495e-03
2.316000000000000014e+01,1.507695473287529045e-03
2.319999999999999929e+01,2.636241111360979137e-03
2.323999999999999844e+01,2.790643171356868135e-03
2.328000000000000114e+01,1.126751942206171211e-03
2.332000000000000028e+01,3.943223809780312290e-03
2.335999999999999943e+01,6.954375216302615195e-03
2.339999999999999858e+01,2.887530963457658403e-03
2.344000000000000128e+01,2.976377104093918917e-03
2.348000000000000043e+01,4.558595102466617144e-03
2.351999999999999957e+01,5.556277830762485805e-03
2.355999999999999872e+01,6.813575200825702956e-03
2.360000000000000142e+01,6.772056891893227931e-03
2.364000000000000057e+01,4.133030986727086534e-03
2.367999999999999972e+01,2.727639037710199565e-03
2.371999999999999886e+01,3.205227154042922678e-03
2.376000000000000156e+01,6.799552852857073532e-03
2.380000000000000071e+01,4.874314317330454699e-03
2.383999999999999986e+01,4.377513942147251251e-03
2.387999999999999901e+01,6.023432437389086326e-03
2.392000000000000171e+01,5.851059249685675381e-03
2.396000000000000085e+01,2.626637062680348134e-03
2.400000000000000000e+01,2.843626064888328791e-03
2.403999999999999915e+01,5.592941944359338703e-03
2.407999999999999829e+01,3.082432695727786113e-03
2.412000000000000099e+01,5.376961555979102581e-03
2.416000000000000014e+01,4.294768914460028557e-03
2.419999999999999929e+01,6.264380358804526837e-03
2.423999999999999844e+01,4.013120690697227072e-03
2.428000000000000114e+01,2.995496484552905448e-03
2.432000000000000028e+01,4.055657652215768211e-03
2.435999999999999943e+01,3.557266644721905971e-03
2.439999999999999858e+01,2.539277176559320490e-03
2.444000000000000128e+01,4.508157795704527925e-03
2.448000000000000043e+01,5.178224944380867278e-03
2.451999999999999957e+01,4.030001915925711213e-03
2.455999999999999872e+01,4.115415052146639309e-03
2.460000000000000142e+01,6.148745063125263428e-03
2.464000000000000057e+01,4.805354776984505777e-03
2.467999999999999972e+01,5.929358373426825944e-03
2.471999999999999886e+01,5.429876097319399214e-03
2.476000000000000156e+01,3.761450255218734117e-03
2.480000000000000071e+01,7.352606434758795183e-03
2.483999999999999986e+01,2.177470945971416577e-03
2.487999999999999901e+01,2.067113876956108622e-03
2.492000000000000171e+01,4.489085893730673966e-03
2.496000000000000085e+01,2.820057806792459175e-03
2.500000000000000000e+01,5.891135436382687399e-03
2.503999999999999915e+01,5.585493772729362670e-03
2.507999999999999829e+01,4.240778547946012951e-03
2.512000000000000099e+01,8.220580748785330516e-03
2.516000000000000014e+01,4.862653303785970972e-03
2.519999999999999929e+01,4.946140059627429642e-03
2.523999999999999844e+01,5.029507269989626911e-03
2.528000000000000114e+01,4.333539824684824737e-03
2.532000000000000028e+01,5.390687258470408180e-03
2.535999999999999943e+01,2.356835592419045944e-03
2.539999999999999858e+01,2.894267830908979922e-03
2.544000000000000128e+01,3.756254030263947268e-03
2.548000000000000043e+01,3.838906075889837819e-03
2.551999999999999957e+01,4.246112283155936869e-03
2.555999999999999872e+01,6.146695568312820178e-03
2.560000000000000142e+01,4.865364768296115590e-03
2.564000000000000057e+01,5.142345847826633107e-03
2.567999999999999972e+01,2.756889850008966639e-03
2.571999999999999886e+01,3.682980156308140671e-03
2.576000000000000156e+01,1.557025980746630685e-03
2.580000000000000071e+01,1.638730095095447276e-03
2.583999999999999986e+01,4.447569406792377736e-03
2.587999999999999901e+01,3.230345524572214144e-03
2.592000000000000171e+01,6.168818259863414165e-03
2.596000000000000085e+01,4.172143589674835555e-03
2.600000000000000000e+01,3.993520106046826237e-03
2.603999999999999915e+01,3.619975282047380779e-03
2.607999999999999829e+01,4.804743441858572509e-03
2.612000000000000099e+01,3.651748632991370057e-03
2.616000000000000014e+01,3.797328605184859679e-03
2.619999999999999929e+01,3.228510831507042447e-03
2.623999999999999844e+01,4.412810245834029865e-03
2.628000000000000114e+01,3.324281693914229140e-03
2.632000000000000028e+01,2.430440109623738330e-03
2.635999999999999943e+01,2.315697001281656446e-03
2.639999999999999858e+01,4.473548289544900143e-03
2.644000000000000128e+01,3.709226004298940473e-03
2.648000000000000043e+01,6.775928737584123625e-03
2.651999999999999957e+01,2.829578242614829830e-03
2.655999999999999872e+01,3.428533576645884356e-03
2.660000000000000142e+01,5.066326392475938370e-03
2.664000000000000057e+01,4.171553742022366014e-03
2.667999999999999972e+01,6.198722199699972096e-03
2.671999999999999886e+01,4.329698773362295090e-03
2.676000000000000156e+01,4.018990037424174933e-03
2.680000000000000071e+01,1.565323842040404608e-03
2.683999999999999986e+01,3.332291173963676609e-03
2.687999999999999901e+01,2.177086036641173988e-03
2.692000000000000171e+01,2.969803596556189456e-03
2.696000000000000085e+01,5.061097945283572416e-03
2.700000000000000000e+01,2.282182099489606444e-03
2.703999999999999915e+01,4.178442489109543759e-03
2.707999999999999829e+01,4.516157529928407389e-03
2.712000000000000099e+01,3.165458120571237356e-03
2.716000000000000014e+01,5.840589238977953075e-03
2.719999999999999929e+01,5.333810287714431733e-03
2.723999999999999844e+01,2.359401976862306009e-03
2.728000000000000114e+01,4.190039705512128322e-03
2.732000000000000028e+01,5.371217100024261622e-03
2.735999999999999943e+01,3.305550225535203775e-03
2.739999999999999858e+01,2.603395845003212035e-03
2.744000000000000128e+01,4.758249879085188309e-03
2.748000000000000043e+01,1.913025721534279645e-03
2.751999999999999957e+01,1.080660367915931225e-03
2.755999999999999872e+01,4.663734151224955410e-03
2.760000000000000142e+01,0.000000000000000000e+00
2.764000000000000057e+01,2.219220019966108241e-03
2.767999999999999972e+01,2.814961596063616806e-03
2.771999999999999886e+01,2.761243841899264310e-03
2.776000000000000156e+01,3.551562678129981717e-03
2.780000000000000071e+01,4.731375998974433894e-03
2.783999999999999986e+01,1.430588838724454036e-03
2.787999999999999901e+01,4.428345044059530528e-03
2.792000000000000171e+01,1.971481955856200369e-03
2.796000000000000085e+01,2.631366990830549119e-03
2.800000000000000000e+01,3.031401003543768551e-03
2.803999999999999915e+01,2.587172686451955604e-03
2.807999999999999829e+01,1.883093547874195410e-03
2.812000000000000099e+01,1.438640495248268321e-03
2.816000000000000014e+01,3.591459260687731355e-03
2.819999999999999929e+01,1.783155255571215693e-03
2.823999999999999844e+01,4.390292093970999884e-03
2.828000000000000114e+01,2.841502559946128617e-03
2.832000000000000028e+01,5.773088671094009361e-03
2.835999999999999943e+01,4.873421614998801193e-03
2.839999999999999858e+01,4.622988952856179126e-03
2.844000000000000128e+01,3.723098767428188911e-03
2.848000000000000043e+01,2.368554961746234012e-03
2.851999999999999957e+01,1.013899842366861558e-03
2.855999999999999872e+01,3.035732755504012403e-03
2.860000000000000142e+01,4.213304744262309082e-03
2.864000000000000057e+01,3.053120088759952826e-03
2.867999999999999972e+01,3.256451139617304747e-03
2.871999999999999886e+01,3.459671378715148318e-03
2.876000000000000156e+01,1.195266072952534588e-03
2.880000000000000071e+01,4.904733437283033230e-03
2.883999999999999986e+01,3.614126023158456547e-03
2.887999999999999901e+01,1.024716181199152422e-03
2.892000000000000171e+01,2.461141284057414766e-03
2.896000000000000085e+01,4.351998383650589747e-03
2.900000000000000000e+01,1.697323312507955859e-03
2.903999999999999915e+01,3.717829496158397539e-03
2.907999999999999829e+01,3.335645538930338654e-03
2.912000000000000099e+01,3.732566984393905461e-03
2.916000000000000014e+01,1.207321682703918703e-03
2.919999999999999929e+01,4.396211651457764165e-03
2.923999999999999844e+01,3.883719863257911221e-03
2.928000000000000114e+01,3.500987870487253135e-03
2.932000000000000028e+01,1.949323755907835442e-03
2.935999999999999943e+01,2.085850058683443725e-03
2.939999999999999858e+01,3.456024673032692760e-03
2.944000000000000128e+01,3.657267466735945969e-03
2.948000000000000043e+01,3.923335956925048766e-03
2.951999999999999957e+01,3.085407428124577970e-03
2.955999999999999872e+01,3.416193011566830053e-03
2.960000000000000142e+01,3.032589382082352333e-03
2.964000000000000057e+01,3.298223258565529531e-03
2.967999999999999972e+01,3.563748732591196736e-03
2.971999999999999886e+01,1.231781869295850949e-03
2.976000000000000156e+01,4.159409475701571213e-03
2.980000000000000071e+01,3.125918327054642148e-03
2.983999999999999986e+01,3.326076594244776075e-03
2.987999999999999901e+01,3.136519355627649663e-03
2.992000000000000171e+01,4.635153939791697951e-03
2.996000000000000085e+01,2.757081578384917853e-03
3.000000000000000000e+01,2.891874244940864907e-03
3.003999999999999915e+01,4.000578425746692535e-03
3.007999999999999829e+01,2.966333378888697143e-03
3.012000000000000099e+01,1.412504226786378495e-03
3.016000000000000014e+01,2.780624916534997840e-03
3.019999999999999929e+01,3.434357899170639283e-03
3.023999999999999844e+01,2.464618862743001623e-03
3.028000000000000114e+01,4.871372175497988219e-03
3.032000000000000028e+01,2.083250621494643108e-03
3.035999999999999943e+01,2.736556218330360533e-03
3.039999999999999858e+01,4.558578035548034764e-03
3.044000000000000128e+01,3.133763313608435574e-03
3.048000000000000043e+01,4.046487828688943508e-03
3.051999999999999957e+01,1.972114408912453015e-03
3.055999999999999872e+01,1.715803619881016212e-03
3.060000000000000142e+01,4.121705373438832622e-03
3.064000000000000057e+01,5.098939914453020500e-03
3.067999999999999972e+01,1.076104294840975455e-03
3.071999999999999886e+01,4.780380387720496206e-03
3.076000000000000156e+01,3.549521121630214507e-03
3.080000000000000071e+01,4.656201895660712700e-03
3.083999999999999986e+01,2.710850937053587394e-03
3.087999999999999901e+01,2.778367214936026345e-03
3.092000000000000171e+01,1.741889987394312951e-03
3.096000000000000085e+01,2.198803390067118405e-03
3.100000000000000000e+01,2.720546303953920095e-03
3.103999999999999915e+01,1.618819206529111378e-03
3.107999999999999829e+01,1.685810036075186718e-03
3.112000000000000099e+01,3.830603305317586017e-03
3.116000000000000014e+01,5.585684281155381577e-03
3.119999999999999929e+01,4.483538230487652855e-03
3.123999999999999844e+01,3.186483889834311207e-03
3.128000000000000114e+01,3.772428587783814655e-03
3.132000000000000028e+01,3.708922990353937226e-03
3.135999999999999943e+01,2.671294193525882224e-03
3.139999999999999858e+01,1.698495911787672443e-03
3.144000000000000128e+01,2.478827868440062338e-03
3.148000000000000043e+01,3.388925141838735298e-03
3.151999999999999957e+01,2.545684406814254040e-03
3.155999999999999872e+01,2.741293601649084401e-03
3.160000000000000142e+01,9.887611861920983080e-04
3.164000000000000057e+01,4.430893357771295213e-03
3.167999999999999972e+01,3.522303887226598679e-03
3.171999999999999886e+01,3.327891743685173695e-03
3.176000000000000156e+01,3.328180220484386852e-03
3.180000000000000071e+01,2.549150404792667295e-03
3.183999999999999986e+01,1.250540800522710692e-03
3.187999999999999901e+01,2.938819955651040573e-03
3.192000000000000171e+01,3.977650321213740611e-03
3.196000000000000085e+01,3.068339979972870869e-03
3.200000000000000000e+01,2.613469264923251080e-03
3.203999999999999915e+01,1.963692267639680338e-03
3.207999999999999829e+01,1.898224299085073986e-03
3.211999999999999744e+01,4.884580293135528349e-03
3.215999999999999659e+01,1.312439419749683025e-03
3.220000000000000284e+01,3.779114350282788970e-03
3.224000000000000199e+01,2.998957259099876548e-03
3.228000000000000114e+01,3.712194110921705238e-03
3.232000000000000028e+01,2.282487356784388202e-03
3.235999999999999943e+01,2.346174746426987843e-03
3.239999999999999858e+01,3.968190981118361813e-03
3.243999999999999773e+01,3.317394709250785691e-03
3.247999999999999687e+01,4.030123680563314943e-03
3.252000000000000313e+01,3.573928561073765661e-03
3.256000000000000227e+01,2.533220859101187848e-03
3.260000000000000142e+01,1.492412082964674879e-03
3.264000000000000057e+01,3.698232377115628737e-03
3.267999999999999972e+01,6.033820999640354503e-03
3.271999999999999886e+01,5.122578805100063901e-03
3.275999999999999801e+01,2.328132512389134712e-03
3.279999999999999716e+01,2.650446489753455551e-03
3.284000000000000341e+01,2.518117789110401860e-03
3.288000000000000256e+01,1.801277309084985253e-03
3.292000000000000171e+01,4.850543409110342520e-03
3.296000000000000085e+01,2.834810469720424990e-03
3.300000000000000000e+01,4.195576705868789107e-03
3.303999999999999915e+01,2.958858936865549523e-03
3.307999999999999829e+01,3.215537118618733842e-03
3.311999999999999744e+01,2.887704123315060472e-03
3.315999999999999659e+01,2.884444463679991869e-03
3.320000000000000284e+01,3.400562042744945807e-03
3.324000000000000199e+01,2.682822737103031027e-03
3.328000000000000114e+01,3.198741480630343421e-03
3.332000000000000028e+01,3.584691755207653017e-03
3.335999999999999943e+01,5.290090162774334923e-04
3.339999999999999858e+01,5.330313917569416866e-03
3.343999999999999773e+01,4.482209576165638656e-03
3.347999999999999687e+01,2.530118154143042117e-03
3.352000000000000313e+01,2.331162190665385294e-03
3.356000000000000227e+01,1.872369158800669042e-03
3.360000000000000142e+01,2.971907983612237427e-03
3.364000000000000057e+01,1.668768111729790077e-03
3.367999999999999972e+01,4.131736727262190143e-03
3.371999999999999886e+01,3.607615438944244447e-03
3.375999999999999801e+01,6.524929834409938338e-03
3.379999999999999716e+01,5.805808517987687441e-03
3.384000000000000341e+01,2.878812809453176486e-03
3.388000000000000256e+01,2.808841677933547696e-03
3.392000000000000171e+01,4.167334004428316190e-03
3.396000000000000085e+01,3.382886840854834425e-03
3.400000000000000000e+01,2.858080520207929506e-03
3.403999999999999915e+01,4.930560774601144142e-03
3.407999999999999829e+01,3.171802217175677657e-03
3.411999999999999744e+01,1.088273395908038836e-03
3.415999999999999659e+01,5.238369100194765343e-03
3.420000000000000284e+01,1.920888644474055438e-03
3.424000000000000199e+01,3.213667893050967724e-03
3.428000000000000114e+01,5.155696292555195757e-03
3.432000000000000028e+01,3.850897890497716192e-03
3.435999999999999943e+01,2.740806633973789843e-03
3.439999999999999858e+01,2.604637833946319477e-03
3.443999999999999773e+01,4.416410604022035467e-03
3.447999999999999687e+01,3.241095377611487045e-03
3.452000000000000313e+01,3.429310514147795603e-03
3.456000000000000227e+01,3.357691091986638680e-03
3.460000000000000142e+01,5.948294251173048310e-03
3.464000000000000057e+01,4.642725403085649384e-03
3.467999999999999972e+01,4.181210512445237594e-03
3.471999999999999886e+01,3.005319258488744951e-03
3.475999999999999801e+01,3.063089768042061116e-03
3.479999999999999716e+01,4.289587540611496629e-03
3.484000000000000341e+01,3.243278829876958431e-03
3.488000000000000256e+01,4.274781995271575291e-03
3.492000000000000171e+01,3.877628689593991002e-03
3.496000000000000085e+01,3.090772627332214698e-03
3.500000000000000000e+01,2.368756115042763583e-03
3.503999999999999915e+01,1.581710051350664666e-03
3.507999999999999829e+01,4.495841387757563458e-03
3.511999999999999744e+01,3.189128917135272082e-03
3.515999999999999659e+01,6.232940056199899083e-03
3.520000000000000284e+01,4.146823176672637459e-03
3.524000000000000199e+01,2.774892458255966317e-03
3.528000000000000114e+01,3.350905418081730636e-03
3.532000000000000028e+01,3.861889529217932791e-03
3.535999999999999943e+01,3.203956677070456116e-03
3.539999999999999858e+01,5.338117615784761585e-03
3.543999999999999773e+01,4.095585362027140582e-03
3.547999999999999687e+01,3.956847476993270718e-03
3.552000000000000313e+01,1.350501012600524402e-03
3.556000000000000227e+01,5.367390192615213371e-03
3.560000000000000142e+01,5.423175173776820755e-03
3.564000000000000057e+01,4.504847697011662121e-03
3.567999999999999972e+01,3.002015467994973742e-03
3.571999999999999886e+01,4.551016236465844043e-03
3.575999999999999801e+01,3.632409027903331193e-03
3.579999999999999716e+01,3.233185583233742083e-03
3.584000000000000341e+01,1.340373375525093181e-03
3.588000000000000256e+01,4.642236395936453867e-03
3.592000000000000171e+01,5.606361042627325091e-03
3.596000000000000085e+01,3.388597604528682458e-03
3.600000000000000000e+01,2.923975849005142329e-03
3.603999999999999915e+01,5.381318692307266588e-03
3.607999999999999829e+01,6.410007975777101165e-03
3.611999999999999744e+01,4.841220983939249767e-03
3.615999999999999659e+01,5.220379878870664431e-03
3.620000000000000284e+01,5.729315936283179908e-03
3.624000000000000199e+01,6.043356252157992999e-03
3.628000000000000114e+01,3.175509286343959365e-03
3.632000000000000028e+01,5.047796446744427269e-03
3.635999999999999943e+01,6.205711359719727135e-03
3.639999999999999858e+01,6.779123327420002315e-03
3.643999999999999773e+01,5.794013437013681087e-03
3.647999999999999687e+01,6.562046433833461541e-03
3.652000000000000313e+01,4.083258150408622389e-03
3.656000000000000227e+01,5.500454784067177610e-03
3.660000000000000142e+01,6.073410570863517488e-03
3.664000000000000057e+01,6.321602418235436685e-03
3.667999999999999972e+01,5.335946014232643975e-03
3.671999999999999886e+01,5.973563898018897401e-03
3.675999999999999801e+01,3.364361103886032763e-03
3.679999999999999716e+01,5.365424438856100479e-03
3.684000000000000341e+01,5.678097717832860866e-03
3.688000000000000256e+01,5.276400054423036057e-03
3.692000000000000171e+01,7.601865395721879928e-03
3.696000000000000085e+01,5.381818543413980499e-03
3.700000000000000000e+01,7.252561515096731144e-03
3.703999999999999915e+01,7.499849533605352885e-03
3.707999999999999829e+01,7.097701712546589103e-03
3.711999999999999744e+01,8.059090779627594778e-03
3.715999999999999659e+01,8.825586414085314496e-03
3.720000000000000284e+01,8.617973505732014552e-03
3.724000000000000199e+01,9.189486378749748760e-03
3.728000000000000114e+01,8.851825510612899850e-03
3.732000000000000028e+01,7.864729405234163057e-03
3.735999999999999943e+01,9.604797408827506558e-03
3.739999999999999858e+01,1.127984178388561493e-02
3.743999999999999773e+01,1.204571281933947829e-02
3.747999999999999687e+01,1.086345700147625312e-02
3.752000000000000313e+01,1.312264630382948931e-02
3.756000000000000227e+01,1.590122378712931564e-02
3.760000000000000142e+01,1.549791730153054006e-02
3.764000000000000057e+01,1.645814900911012416e-02
3.767999999999999972e+01,1.761309619439266339e-02
3.771999999999999886e+01,2.253416200623595267e-02
3.775999999999999801e+01,2.628631687805056683e-02
3.779999999999999716e+01,2.776567269524236187e-02
3.784000000000000341e+01,3.463451246218959140e-02
3.788000000000000256e+01,3.942535717793300282e-02
3.792000000000000171e+01,5.083944346095126132e-02
3.796000000000000085e+01,6.692873338519365889e-02
3.800000000000000000e+01,8.606986202901584226e-02
3.803999999999999915e+01,1.250159565201747758e-01
3.807999999999999829e+01,1.944162915035874406e-01
3.811999999999999744e+01,3.281017941387866510e-01
3.815999999999999659e+01,5.549683619183277683e-01
3.820000000000000284e+01,8.294968397248237979e-01
3.824000000000000199e+01,1.000000000000000000e+00
3.828000000000000114e+01,9.999848115418163985e-01
3.832000000000000028e+01,8.941910715292936684e-01
3.835999999999999943e+01,6.806707420363808936e-01
3.839999999999999858e+01,4.609815389417825093e-01
3.843999999999999773e+01,2.918763035161218711e-01
3.847999999999999687e+01,1.766667005047315719e-01
3.852000000000000313e+01,1.201578904732138048e-01
3.856000000000000227e+01,8.124627116410798600e-02
3.860000000000000142e+01,6.402272253332212670e-02
3.864000000000000057e+01,5.277307126797484149e-02
3.867999999999999972e+01,4.243241859971412511e-02
3.871999999999999886e+01,3.540334486153482590e-02
3.875999999999999801e+01,3.298454217145001949e-02
3.879999999999999716e+01,2.757866232673796339e-02
3.884000000000000341e+01,2.451034270005090013e-02
3.888000000000000256e+01,2.235102217238833094e-02
3.892000000000000171e+01,1.986694342739359423e-02
3.896000000000000085e+01,1.647369515752276914e-02
3.900000000000000000e+01,1.626215731868387721e-02
3.903999999999999915e+01,1.644014217336960126e-02
3.907999999999999829e+01,1.265703156292198941e-02
3.911999999999999744e+01,1.348419290405713546e-02
3.915999999999999659e+01,1.216842780550987137e-02
3.920000000000000284e+01,1.039803599058095225e-02
3.924000000000000199e+01,9.796382581689886543e-03
3.928000000000000114e+01,1.062320608274936601e-02
3.932000000000000028e+01,1.060579556330228969e-02
3.935999999999999943e+01,9.094805114923469255e-03
3.939999999999999858e+01,7.518796057388575996e-03
3.943999999999999773e+01,7.760871916642222978e-03
3.947999999999999687e+01,9.496359788665606136e-03
3.952000000000000313e+01,8.244772313038214312e-03
3.956000000000000227e+01,7.187905033330195016e-03
3.960000000000000142e+01,7.559515466673378918e-03
3.964000000000000057e+01,6.762219678204293809e-03
3.967999999999999972e+01,7.588205606205412901e-03
3.971999999999999886e+01,9.647865745776659438e-03
3.975999999999999801e+01,7.226955319753273523e-03
3.979999999999999716e+01,4.676092687568369176e-03
3.984000000000000341e+01,7.644588226280598330e-03
3.988000000000000256e+01,7.236401715542658056e-03
3.992000000000000171e+01,6.893067102449771007e-03
3.996000000000000085e+01,6.354846083864431824e-03
4.000000000000000000e+01,7.569776786612513256e-03
4.003999999999999915e+01,7.420998468780323418e-03
4.007999999999999829e+01,5.064361419298847242e-03
4.011999999999999744e+01,4.655680194957374611e-03
4.015999999999999659e+01,6.714431703193706261e-03
4.020000000000000284e+01,6.630259381824777851e-03
4.024000000000000199e+01,5.312247743576040994e-03
4.028000000000000114e+01,5.292846323204879883e-03
4.032000000000000028e+01,6.961662826386531659e-03
4.035999999999999943e+01,5.188863883887719249e-03
4.039999999999999858e+01,3.675721846328806365e-03
4.043999999999999773e+01,4.824817046704602333e-03
4.047999999999999687e+01,4.675138931644822610e-03
4.052000000000000313e+01,6.798090650007258644e-03
4.056000000000000227e+01,5.479427424627151405e-03
4.060000000000000142e+01,4.160683202599751301e-03
4.064000000000000057e+01,3.491204093125398374e-03
4.067999999999999972e+01,4.704747613335938904e-03
4.071999999999999886e+01,5.203929828367891142e-03
4.075999999999999801e+01,4.339404829796071096e-03
4.079999999999999716e+01,5.033229757665503429e-03
4.084000000000000341e+01,3.454263260368461118e-03
4.088000000000000256e+01,4.082992899100609634e-03
4.092000000000000171e+01,4.971380747811229676e-03
4.096000000000000085e+01,4.820734889262376539e-03
4.100000000000000000e+01,5.319355046754827877e-03
4.103999999999999915e+01,4.389334092475309472e-03
4.107999999999999829e+01,5.017663767350131684e-03
4.111999999999999744e+01,3.503071921534110702e-03
4.115999999999999659e+01,4.326046116222919367e-03
4.120000000000000284e+01,4.434660210384135451e-03
4.124000000000000199e+01,3.828914304405339145e-03
4.128000000000000114e+01,6.534753753313275390e-03
4.132000000000000028e+01,3.980811341166999931e-03
4.135999999999999943e+01,4.154043076751127647e-03
4.139999999999999858e+01,3.223307608457923277e-03
4.143999999999999773e+01,3.266512264875817955e-03
4.147999999999999687e+01,4.348591747273674105e-03
4.152000000000000313e+01,4.781246533125879661e-03
4.156000000000000227e+01,5.019018928988955297e-03
4.160000000000000142e+01,5.841124245825804646e-03
4.164000000000000057e+01,3.546290333791243463e-03
4.167999999999999972e+01,3.199416162012427411e-03
4.171999999999999886e+01,3.696613615895246330e-03
4.175999999999999801e+01,3.933994580845573581e-03
4.179999999999999716e+01,4.041428359013549479e-03
4.184000000000000341e+01,3.239699840211430776e-03
4.188000000000000256e+01,4.905408370653194759e-03
4.192000000000000171e+01,4.168458984630672021e-03
4.196000000000000085e+01,5.184666238933152010e-03
4.200000000000000000e+01,4.577430988121830406e-03
4.203999999999999915e+01,4.684398964310252517e-03
4.207999999999999829e+01,2.843251631753653929e-03
4.211999999999999744e+01,4.443560963985586712e-03
4.215999999999999659e+01,3.900951385603840249e-03
4.220000000000000284e+01,5.760845058685362674e-03
4.224000000000000199e+01,5.218081618403259438e-03
4.228000000000000114e+01,3.636287783651933909e-03
4.232000000000000028e+01,2.379090273325766471e-03
4.235999999999999943e+01,5.212696038926403069e-03
4.239999999999999858e+01,2.981326456581401881e-03
4.243999999999999773e+01,4.645956548294535339e-03
4.247999999999999687e+01,3.128714918394227308e-03
4.252000000000000313e+01,5.637342365089768360e-03
4.256000000000000227e+01,4.314752282134266294e-03
4.260000000000000142e+01,6.044012463330641731e-03
4.264000000000000057e+01,2.578428697144319066e-03
4.267999999999999972e+01,5.930902246999085296e-03
4.271999999999999886e+01,5.971635475803351890e-03
4.275999999999999801e+01,4.713601111264283799e-03
4.279999999999999716e+01,4.104837280207764179e-03
4.284000000000000341e+01,3.301194271564775358e-03
4.288000000000000256e+01,5.224729225380359346e-03
4.292000000000000171e+01,3.641720557439529632e-03
4.296000000000000085e+01,6.344320473883078258e-03
4.300000000000000000e+01,5.800115372870484273e-03
4.303999999999999915e+01,4.671423990921682451e-03
4.307999999999999829e+01,3.737461638999574256e-03
4.311999999999999744e+01,5.920285457149191723e-03
4.315999999999999659e+01,4.596566255867901366e-03
4.320000000000000284e+01,5.480549013095635177e-03
4.324000000000000199e+01,5.520307587799959219e-03
4.328000000000000114e+01,4.196365273318256560e-03
4.332000000000000028e+01,5.209994420270879639e-03
4.335999999999999943e+01,6.548222501725831264e-03
4.339999999999999858e+01,4.834450372244302775e-03
4.343999999999999773e+01,6.756942022985386320e-03
4.347999999999999687e+01,6.991060282071972880e-03
4.352000000000000313e+01,8.588731491311641167e-03
4.356000000000000227e+01,6.679860684996239556e-03
4.360000000000000142e+01,8.407254060453776823e-03
4.364000000000000057e+01,8.900816651976081392e-03
4.367999999999999972e+01,9.199502174051167602e-03
4.371999999999999886e+01,9.563049130591728952e-03
4.375999999999999801e+01,8.303157999072148174e-03
4.379999999999999716e+01,9.315904932756618323e-03
4.384000000000000341e+01,8.900017781799942143e-03
4.388000000000000256e+01,1.309441452854843632e-02
4.392000000000000171e+01,1.202903593943563561e-02
4.396000000000000085e+01,1.492459543999040926e-02
4.400000000000000000e+01,1.515776384071011208e-02
4.403999999999999915e+01,1.805317851424702302e-02
4.407999999999999829e+01,2.029917491604360177e-02
4.411999999999999744e+01,2.299964136146915097e-02
4.415999999999999659e+01,2.868702738528103660e-02
4.420000000000000284e+01,3.203669581560216612e-02
4.424000000000000199e+01,3.869795702949117150e-02
4.428000000000000114e+01,5.042404535113011177e-02
4.432000000000000028e+01,6.435783844213041616e-02
4.435999999999999943e+01,8.212270142491155667e-02
4.439999999999999858e+01,1.061861492333496526e-01
4.443999999999999773e+01,1.431715112577225113e-01
4.447999999999999687e+01,1.818451016459568248e-01
4.452000000000000313e+01,2.145446375944495554e-01
4.456000000000000227e+01,2.218546735400865610e-01
4.460000000000000142e+01,2.107881464784332748e-01
4.464000000000000057e+01,1.911501812429500513e-01
4.467999999999999972e+01,1.567719908503032722e-01
4.471999999999999886e+01,1.203807571736106724e-01
4.475999999999999801e+01,9.282055866043305292e-02
4.479999999999999716e+01,6.896156194153711672e-02
4.484000000000000341e+01,4.932324392436074345e-02
4.488000000000000256e+01,4.078867240270676181e-02
4.492000000000000171e+01,2.868262767779425695e-02
4.496000000000000085e+01,2.592709542538487386e-02
4.500000000000000000e+01,2.239227800838702181e-02
4.503999999999999915e+01,1.729896031661298100e-02
4.507999999999999829e+01,1.454321850332692019e-02
4.511999999999999744e+01,1.276142605040961851e-02
4.515999999999999659e+01,1.162891005384227364e-02
4.520000000000000284e+01,1.257423183340055511e-02
4.524000000000000199e+01,8.909127598700560674e-03
4.528000000000000114e+01,1.011404917879624513e-02
4.532000000000000028e+01,1.066955559916669266e-02
4.535999999999999943e+01,9.926300951386714949e-03
4.539999999999999858e+01,8.014154537606451439e-03
4.543999999999999773e+01,8.244781103158587213e-03
4.547999999999999687e+01,6.397431691147732226e-03
4.552000000000000313e+01,7.017528463650828108e-03
4.556000000000000227e+01,6.403799270822688010e-03
4.560000000000000142e+01,6.764020643014310129e-03
4.564000000000000057e+01,6.280023855937524879e-03
4.567999999999999972e+01,5.601155018792680976e-03
4.571999999999999886e+01,5.311825639898857046e-03
4.575999999999999801e+01,5.217232016999802206e-03
4.579999999999999716e+01,5.122570447839271644e-03
4.584000000000000341e+01,6.326533050430372188e-03
4.588000000000000256e+01,6.686278096078578613e-03
4.592000000000000171e+01,4.578440663139542004e-03
4.596000000000000085e+01,3.769227703114890089e-03
4.600000000000000000e+01,4.453443119036047150e-03
4.603999999999999915e+01,3.644095370751853236e-03
4.607999999999999829e+01,4.198306997426087643e-03
4.611999999999999744e+01,3.843367068601629896e-03
4.615999999999999659e+01,3.293556294360116578e-03
4.620000000000000284e+01,3.782632191833384862e-03
4.624000000000000199e+01,4.726183453477529085e-03
4.628000000000000114e+01,3.137218539141407511e-03
4.632000000000000028e+01,4.210505619714735061e-03
4.635999999999999943e+01,4.374641747114875467e-03
4.639999999999999858e+01,3.629627021729417598e-03
4.643999999999999773e+01,5.936472197703810717e-03
4.647999999999999687e+01,4.671848085535433917e-03
4.652000000000000313e+01,4.446111448182502382e-03
4.656000000000000227e+01,2.402139947256423224e-03
4.660000000000000142e+01,2.306140534258838484e-03
4.664000000000000057e+01,4.028244107814771269e-03
4.667999999999999972e+01,2.763290303097327896e-03
4.671999999999999886e+01,4.355393299809002215e-03
4.675999999999999801e+01,3.544850526953955295e-03
4.679999999999999716e+01,2.864111519289568291e-03
4.684000000000000341e+01,4.585887408048106018e-03
4.688000000000000256e+01,3.840083227521399502e-03
4.692000000000000171e+01,3.678625319517037865e-03
4.696000000000000085e+01,3.387233174728557922e-03
4.700000000000000000e+01,2.836037691780994487e-03
4.703999999999999915e+01,2.739319580755968098e-03
4.707999999999999829e+01,3.551621148210003763e-03
4.711999999999999744e+01,3.454773669854940572e-03
4.715999999999999659e+01,2.318908044315798594e-03
4.720000000000000284e+01,3.195950613400171721e-03
4.724000000000000199e+01,2.384629227262870937e-03
4.728000000000000114e+01,2.936870227711478858e-03
4.732000000000000028e+01,3.359177894864226206e-03
4.735999999999999943e+01,3.391813925583578998e-03
4.739999999999999858e+01,5.372424051983087749e-03
4.743999999999999773e+01,2.417940681035002631e-03
4.747999999999999687e+01,1.671170010067341309e-03
4.752000000000000313e+01,3.326915942111521775e-03
4.756000000000000227e+01,3.294298722034693511e-03
4.760000000000000142e+01,2.417468261681046497e-03
4.764000000000000057e+01,1.670443674657296797e-03
4.767999999999999972e+01,2.611655482501674085e-03
4.771999999999999886e+01,2.254112145063040095e-03
4.775999999999999801e+01,4.104282210317907950e-03
4.779999999999999716e+01,3.486874515201952331e-03
4.784000000000000341e+01,2.544730989184888336e-03
4.788000000000000256e+01,2.122001544110880145e-03
4.792000000000000171e+01,2.348555482130076314e-03
4.796000000000000085e+01,3.094523701867503418e-03
4.800000000000000000e+01,3.061214286085215449e-03
4.803999999999999915e+01,3.417450151033766051e-03
4.807999999999999829e+01,2.215193370662448501e-03
4.811999999999999744e+01,3.220650896472887059e-03
4.815999999999999659e+01,3.057223583026278703e-03
4.820000000000000284e+01,2.439192140404248307e-03
4.824000000000000199e+01,4.093809906008006802e-03
4.828000000000000114e+01,3.670458721179592747e-03
4.832000000000000028e+01,2.792503708338513278e-03
4.835999999999999943e+01,2.044356375803831408e-03
4.839999999999999858e+01,2.854578043351230568e-03
4.843999999999999773e+01,2.820588578761045340e-03
4.847999999999999687e+01,2.786537893877460721e-03
4.852000000000000313e+01,2.297883882919123360e-03
4.856000000000000227e+01,4.666291291218723977e-03
4.860000000000000142e+01,1.580131306360435962e-03
4.864000000000000057e+01,2.454921156516958348e-03
4.867999999999999972e+01,4.823146108587352161e-03
4.871999999999999886e+01,3.230299788931978618e-03
4.875999999999999801e+01,3.195823372846929092e-03
4.879999999999999716e+01,1.992463723706157375e-03
4.884000000000000341e+01,2.672147183317265164e-03
4.888000000000000256e+01,3.156966623866966967e-03
4.892000000000000171e+01,2.278099329879879932e-03
4.896000000000000085e+01,2.762798638757204151e-03
4.900000000000000000e+01,2.208484418279276808e-03
4.903999999999999915e+01,2.238521790865611542e-03
4.907999999999999829e+01,4.281472076291865762e-03
4.911999999999999744e+01,2.688025098274563537e-03
4.915999999999999659e+01,3.172425834753626016e-03
4.920000000000000284e+01,2.812617346459191526e-03
4.924000000000000199e+01,2.452749545235438557e-03
4.928000000000000114e+01,3.001906943807821759e-03
4.932000000000000028e+01,3.680874431988611761e-03
4.935999999999999943e+01,3.970175303115167781e-03
4.939999999999999858e+01,2.441248438186990628e-03
4.943999999999999773e+01,3.639515999281034073e-03
4.947999999999999687e+01,1.461125603944866307e-03
4.952000000000000313e+01,3.438491054794180161e-03
4.956000000000000227e+01,4.961255789645896766e-03
4.960000000000000142e+01,3.432035873636542396e-03
4.964000000000000057e+01,1.837823047692427195e-03
4.967999999999999972e+01,2.776001447452193082e-03
4.971999999999999886e+01,3.129710331002160100e-03
4.975999999999999801e+01,3.223622803136276874e-03
4.979999999999999716e+01,2.992804363360855677e-03
4.984000000000000341e+01,3.151535721757527456e-03
4.988000000000000256e+01,2.271255759325777404e-03
4.992000000000000171e+01,2.819479409941720496e-03
4.996000000000000085e+01,3.042972550198461568e-03
5.000000000000000000e+01,2.876800679602293815e-03
5.003999999999999915e+01,3.359917512641250222e-03
5.007999999999999829e+01,1.765069912689276556e-03
5.011999999999999744e+01,2.832483844467156148e-03
5.015999999999999659e+01,2.211541149316945121e-03
5.020000000000000284e+01,4.577533191078135902e-03
5.024000000000000199e+01,4.086345990823421481e-03
5.028000000000000114e+01,3.854840491241653695e-03
5.032000000000000028e+01,3.038866981263823978e-03
5.035999999999999943e+01,2.287771570090287119e-03
5.039999999999999858e+01,2.185965766040106999e-03
5.043999999999999773e+01,3.058122673907261516e-03
5.047999999999999687e+01,1.657512350015490207e-03
5.052000000000000313e+01,2.269818552916639393e-03
5.056000000000000227e+01,2.947003356559996495e-03
5.060000000000000142e+01,3.494263058689306509e-03
5.064000000000000057e+01,4.431074566742378845e-03
5.067999999999999972e+01,1.471754322942523015e-03
5.071999999999999886e+01,2.148716129905429029e-03
5.075999999999999801e+01,3.215230043954832740e-03
5.079999999999999716e+01,2.138846731108531591e-03
5.084000000000000341e+01,2.036427134055402138e-03
5.088000000000000256e+01,2.972905954064282950e-03
5.092000000000000171e+01,5.013217892404049462e-03
5.096000000000000085e+01,2.832725777197592221e-03
5.100000000000000000e+01,2.470347590791224443e-03
5.103999999999999915e+01,1.913110806252953273e-03
5.107999999999999829e+01,3.693464958340153363e-03
5.111999999999999744e+01,1.707557664600399625e-03
5.115999999999999659e+01,3.487802727649373831e-03
5.120000000000000284e+01,3.514759172966128945e-03
5.124000000000000199e+01,3.931268930020396547e-03
5.128000000000000114e+01,2.724359471880169470e-03
5.132000000000000028e+01,3.855041552690910856e-03
5.135999999999999943e+01,3.297370018201055235e-03
5.139999999999999858e+01,2.674709990830096296e-03
5.143999999999999773e+01,4.454576404454131666e-03
5.147999999999999687e+01,3.377266688077341927e-03
5.152000000000000313e+01,2.949249389676237600e-03
5.156000000000000227e+01,2.586113201706923860e-03
5.160000000000000142e+01,2.093054421913150259e-03
5.164000000000000057e+01,2.898634370070580276e-03
5.167999999999999972e+01,3.119749721009780312e-03
5.171999999999999886e+01,3.016138978643445167e-03
5.175999999999999801e+01,2.847540646884252728e-03
5.179999999999999716e+01,3.068497032288730175e-03
5.184000000000000341e+01,2.899793024669144233e-03
5.188000000000000256e+01,2.990774733225833645e-03
5.192000000000000171e+01,2.172619442483405584e-03
5.196000000000000085e+01,2.977776687199237739e-03
5.200000000000000000e+01,4.367292953660489169e-03
5.203999999999999915e+01,3.094438298190903096e-03
5.207999999999999829e+01,3.639700281986149328e-03
5.211999999999999744e+01,2.301806755201054894e-03
5.215999999999999659e+01,2.392422463168297070e-03
5.220000000000000284e+01,2.547920887768659760e-03
5.224000000000000199e+01,3.287778936439938928e-03
5.228000000000000114e+01,4.547062108688440345e-03
5.232000000000000028e+01,2.689432855550245079e-03
5.235999999999999943e+01,2.844724747033801869e-03
5.239999999999999858e+01,5.012937883526698279e-03
5.243999999999999773e+01,3.090219882576500116e-03
5.247999999999999687e+01,3.634965533579735935e-03
5.252000000000000313e+01,1.906949072590800789e-03
5.256000000000000227e+01,4.074957683718551105e-03
5.260000000000000142e+01,3.061119971291418988e-03
5.264000000000000057e+01,1.982296877998271020e-03
5.267999999999999972e+01,3.111199535071365076e-03
5.271999999999999886e+01,3.655640205003387894e-03
5.275999999999999801e+01,4.070161194350868823e-03
5.279999999999999716e+01,2.341789976181813705e-03
5.284000000000000341e+01,1.976995098472733494e-03
5.288000000000000256e+01,2.910842060729945235e-03
5.292000000000000171e+01,3.455031340427839031e-03
5.296000000000000085e+01,2.700478625616115416e-03
5.300000000000000000e+01,3.244568051933433440e-03
5.303999999999999915e+01,2.230177280991202382e-03
5.307999999999999829e+01,2.968971058122110793e-03
5.311999999999999744e+01,2.863565448462673888e-03
5.315999999999999659e+01,4.186671583245170358e-03
5.320000000000000284e+01,3.431821115268229687e-03
5.324000000000000199e+01,3.910678789864549532e-03
5.328000000000000114e+01,3.220664474814482689e-03
5.332000000000000028e+01,4.218900709281779397e-03
5.335999999999999943e+01,3.723592150471465544e-03
5.339999999999999858e+01,3.487973122565593640e-03
5.343999999999999773e+01,4.356193537408350851e-03
5.347999999999999687e+01,4.185411666305182028e-03
5.352000000000000313e+01,3.300300614050056397e-03
5.356000000000000227e+01,3.194356301299929209e-03
5.360000000000000142e+01,2.633821411698110664e-03
5.364000000000000057e+01,4.735556887933473416e-03
5.367999999999999972e+01,3.330775746672318821e-03
5.371999999999999886e+01,4.328526768498408214e-03
5.375999999999999801e+01,3.313257193872507465e-03
5.379999999999999716e+01,2.817416557551982552e-03
5.384000000000000341e+01,3.490350968737200403e-03
5.388000000000000256e+01,3.448957102258705300e-03
5.392000000000000171e+01,3.926992475248344827e-03
5.396000000000000085e+01,4.924457188093706549e-03
5.400000000000000000e+01,4.882920920031718140e-03
5.403999999999999915e+01,3.932252973212528591e-03
5.407999999999999829e+01,3.695818470055633326e-03
5.411999999999999744e+01,2.745056291560539225e-03
5.415999999999999659e+01,2.183854753096519871e-03
5.420000000000000284e+01,4.090121183252013772e-03
5.424000000000000199e+01,3.463891414556310045e-03
5.428000000000000114e+01,2.642811179122939690e-03
5.432000000000000028e+01,2.925572594965022109e-03
5.435999999999999943e+01,4.182306560707599492e-03
5.439999999999999858e+01,3.880563742368449334e-03
5.443999999999999773e+01,3.838513065010904640e-03
5.447999999999999687e+01,2.757462611397018537e-03
5.452000000000000313e+01,3.819207925096939835e-03
5.456000000000000227e+01,2.608196246571422693e-03
5.460000000000000142e+01,2.630896123796994980e-03
5.464000000000000057e+01,3.302896249229759270e-03
5.467999999999999972e+01,3.844981512681967546e-03
5.471999999999999886e+01,3.348067602203332049e-03
5.475999999999999801e+01,4.409538653432511397e-03
5.479999999999999716e+01,4.367076130624730768e-03
5.484000000000000341e+01,3.090810932405025410e-03
5.488000000000000256e+01,4.346950010275039966e-03
5.492000000000000171e+01,3.265398398526584214e-03
5.496000000000000085e+01,3.352624645136192526e-03
5.500000000000000000e+01,3.634609837272298818e-03
5.503999999999999915e+01,3.267204263865896262e-03
5.507999999999999829e+01,3.678969244692637929e-03
5.511999999999999744e+01,3.441343660752033736e-03
5.515999999999999659e+01,2.943935217719328631e-03
5.520000000000000284e+01,3.550370634488904734e-03
5.524000000000000199e+01,2.987938980603665421e-03
5.528000000000000114e+01,3.789089790820990115e-03
5.532000000000000028e+01,3.226569928514833041e-03
5.535999999999999943e+01,3.443221323154914502e-03
5.539999999999999858e+01,3.789698066316047470e-03
5.543999999999999773e+01,4.266000258385822981e-03
5.547999999999999687e+01,4.872127999751812120e-03
5.552000000000000313e+01,3.724977965244577385e-03
5.556000000000000227e+01,3.162195886977675358e-03
5.560000000000000142e+01,3.703258672388882056e-03
5.564000000000000057e+01,4.179343606002813329e-03
5.567999999999999972e+01,2.317739757362376890e-03
5.571999999999999886e+01,4.027495907051311524e-03
5.575999999999999801e+01,3.334628874379757905e-03
5.579999999999999716e+01,4.330018615255729758e-03
5.584000000000000341e+01,4.416281194815754006e-03
5.588000000000000256e+01,3.268743709041007067e-03
5.592000000000000171e+01,4.264005504145471429e-03
5.596000000000000085e+01,4.350140439096742209e-03
5.600000000000000000e+01,3.267410210757269815e-03
5.603999999999999915e+01,3.872937358290817061e-03
5.607999999999999829e+01,3.958945552121576061e-03
5.611999999999999744e+01,3.070892686468174385e-03
5.615999999999999659e+01,3.091882287275233773e-03
5.620000000000000284e+01,4.995933468149481131e-03
5.624000000000000199e+01,2.679193846638490070e-03
5.628000000000000114e+01,3.739011826239215051e-03
5.632000000000000028e+01,4.539049857987741479e-03
5.635999999999999943e+01,4.235158230815075538e-03
5.639999999999999858e+01,2.372794838939840893e-03
5.643999999999999773e+01,3.822054848845379046e-03
5.647999999999999687e+01,4.167385500992464541e-03
5.652000000000000313e+01,3.863329101937609811e-03
5.656000000000000227e+01,3.039754953830958208e-03
5.660000000000000142e+01,4.229112591429880913e-03
5.664000000000000057e+01,3.015849255195144230e-03
5.667999999999999972e+01,3.685648703678595130e-03
5.671999999999999886e+01,2.796977190560148360e-03
5.675999999999999801e+01,3.986172465578894514e-03
5.679999999999999716e+01,4.071439185939840395e-03
5.684000000000000341e+01,5.130684680231433620e-03
5.688000000000000256e+01,3.917179004777426518e-03
5.692000000000000171e+01,4.976344321654762454e-03
5.696000000000000085e+01,3.762758669561660184e-03
5.700000000000000000e+01,4.497171206168690087e-03
5.703999999999999915e+01,3.932851987799595821e-03
5.707999999999999829e+01,4.017839141280258805e-03
5.711999999999999744e+01,4.102786758185503722e-03
5.715999999999999659e+01,4.382498741546747914e-03
5.720000000000000284e+01,5.181648196157945425e-03
5.724000000000000199e+01,4.357393393324549349e-03
5.728000000000000114e+01,3.662968657228630846e-03
5.732000000000000028e+01,4.072393101476900340e-03
5.735999999999999943e+01,4.806451615881631063e-03
5.739999999999999858e+01,4.436583081442323391e-03
5.743999999999999773e+01,3.742002809121875318e-03
5.747999999999999687e+01,3.242187706358080641e-03
5.752000000000000313e+01,3.911156886757687079e-03
5.756000000000000227e+01,4.385283832201448614e-03
5.760000000000000142e+01,4.729503243958235043e-03
5.764000000000000057e+01,4.943815222415634363e-03
5.767999999999999972e+01,3.599658648573139576e-03
5.771999999999999886e+01,4.528175074813645465e-03
5.775999999999999801e+01,4.352765355698360282e-03
5.779999999999999716e+01,2.813691188089767394e-03
5.784000000000000341e+01,5.235589944640119293e-03
5.788000000000000256e+01,4.345786427034021779e-03
5.792000000000000171e+01,4.300095192060773841e-03
5.796000000000000085e+01,4.384235730413889309e-03
5.800000000000000000e+01,4.078731335430763397e-03
5.803999999999999915e+01,3.773189712786626307e-03
5.807999999999999829e+01,3.987087769919290918e-03
5.811999999999999744e+01,4.850294808978870657e-03
5.815999999999999659e+01,4.609576706558492915e-03
5.820000000000000284e+01,5.212971589484045182e-03
5.824000000000000199e+01,4.777376132586068705e-03
5.828000000000000114e+01,5.056024660046626838e-03
5.832000000000000028e+01,5.139832859915439631e-03
5.835999999999999943e+01,4.184651021123478136e-03
5.839999999999999858e+01,4.138517270496631581e-03
5.843999999999999773e+01,2.858589879340353492e-03
5.847999999999999687e+01,3.331860588580962037e-03
5.852000000000000313e+01,3.480422270405171287e-03
5.856000000000000227e+01,2.719863617269081650e-03
5.860000000000000142e+01,3.582634163930077317e-03
5.864000000000000057e+01,4.055761383456145917e-03
5.867999999999999972e+01,4.983395187691474180e-03
5.871999999999999886e+01,4.222693847941523873e-03
5.875999999999999801e+01,4.630779903370037427e-03
5.879999999999999716e+01,4.454419230570137896e-03
5.884000000000000341e+01,3.239069723760464991e-03
5.888000000000000256e+01,4.945742137086491831e-03
5.892000000000000171e+01,3.210845684570673517e-03
5.896000000000000085e+01,3.683690743271672390e-03
5.900000000000000000e+01,4.026631781851111765e-03
5.903999999999999915e+01,5.278622514796991669e-03
5.907999999999999829e+01,4.127998397551790877e-03
5.911999999999999744e+01,4.081227978092046363e-03
5.915999999999999659e+01,4.359096146229998400e-03
5.920000000000000284e+01,3.727845585608980175e-03
5.924000000000000199e+01,4.590056629223828767e-03
5.928000000000000114e+01,5.192495153667627331e-03
5.932000000000000028e+01,4.496207645227558343e-03
5.935999999999999943e+01,5.293382042186087211e-03
5.939999999999999858e+01,4.337288400866980143e-03
5.943999999999999773e+01,4.809722264840354290e-03
5.947999999999999687e+01,5.476926317749549779e-03
5.952000000000000313e+01,3.741516624731086593e-03
5.956000000000000227e+01,5.772280369893824196e-03
5.960000000000000142e+01,4.426411556684910729e-03
5.964000000000000057e+01,4.184397746300032479e-03
5.967999999999999972e+01,5.435846644414410109e-03
5.971999999999999886e+01,5.128832109995640036e-03
5.975999999999999801e+01,4.691915462819390079e-03
5.979999999999999716e+01,4.774442812086012421e-03
5.984000000000000341e+01,5.181610455539251842e-03
5.988000000000000256e+01,3.705642063603296118e-03
5.992000000000000171e+01,4.502352193067430362e-03
5.996000000000000085e+01,4.974356909068158514e-03
