2.003999999999999915e+01,1.725116972978740608e-03
2.007999999999999829e+01,1.648018600606982560e-03
2.012000000000000099e+01,1.457409438950249200e-03
2.016000000000000014e+01,1.621352261523625838e-03
2.019999999999999929e+01,2.154030788279331053e-03
2.023999999999999844e+01,2.090952029925587270e-03
2.028000000000000114e+01,1.233543900057280148e-03
2.032000000000000028e+01,3.312124869669315786e-03
2.035999999999999943e+01,2.100041672230206803e-03
2.039999999999999858e+01,2.632515057726916765e-03
2.044000000000000128e+01,3.604642746695832685e-03
2.048000000000000043e+01,1.782536482032930861e-03
2.051999999999999957e+01,2.485091422201691613e-03
2.055999999999999872e+01,2.903930922812885448e-03
2.060000000000000142e+01,2.542624768561043205e-03
2.064000000000000057e+01,2.323114786523340202e-03
2.067999999999999972e+01,2.628361427671596553e-03
2.071999999999999886e+01,2.578974025256979170e-03
2.076000000000000156e+01,1.834543288636120975e-03
2.080000000000000071e+01,1.870176141415475987e-03
2.083999999999999986e+01,2.430565615494609255e-03
2.087999999999999901e+01,2.849076850482123394e-03
2.092000000000000171e+01,2.189584297933917182e-03
2.096000000000000085e+01,3.813629697825397531e-03
2.100000000000000000e+01,1.721499310406305510e-03
2.103999999999999915e+01,1.416476659649874284e-03
2.107999999999999829e+01,2.799275702117790497e-03
2.112000000000000099e+01,9.055942889991351868e-04
2.116000000000000014e+01,3.196069362755265229e-03
2.119999999999999929e+01,2.309350022948532342e-03
2.123999999999999844e+01,2.259429149050378675e-03
2.128000000000000114e+01,2.280385837702617133e-03
2.132000000000000028e+01,3.620387485730474156e-03
2.135999999999999943e+01,1.471152868985126354e-03
2.139999999999999858e+01,2.229539898140902362e-03
2.144000000000000128e+01,2.746762638636736191e-03
2.148000000000000043e+01,1.604449047618400088e-03
2.151999999999999957e+01,2.731489682014372634e-03
2.155999999999999872e+01,1.007561468351651649e-03
2.160000000000000142e+01,2.021050253146446877e-03
2.164000000000000057e+01,3.275621241333701548e-03
2.167999999999999972e+01,1.891979186405048094e-03
2.171999999999999886e+01,2.252893698851421347e-03
2.176000000000000156e+01,2.585399725222932432e-03
2.180000000000000071e+01,1.925004276227804210e-03
2.183999999999999986e+01,1.661711952929551851e-03
2.187999999999999901e+01,2.036646002061673344e-03
2.192000000000000171e+01,1.872557627975019161e-03
2.196000000000000085e+01,1.935367733084676634e-03
2.200000000000000000e+01,1.132929844284460454e-03
2.203999999999999915e+01,1.096371809842908293e-03
2.207999999999999829e+01,2.875288940651661313e-03
2.212000000000000099e+01,3.689672033169127344e-03
2.216000000000000014e+01,1.823290915640737040e-03
2.219999999999999929e+01,1.119933822451998689e-03
2.223999999999999844e+01,1.749805398217290416e-03
2.228000000000000114e+01,2.067594073301187458e-03
2.232000000000000028e+01,2.257688212741873479e-03
2.235999999999999943e+01,2.249169213948692611e-03
2.239999999999999858e+01,2.822141699760574371e-03
2.244000000000000128e+01,3.309970809786115954e-03
2.248000000000000043e+01,2.776530995581215702e-03
2.251999999999999957e+01,2.299785008885171615e-03
2.255999999999999872e+01,1.950651451345571889e-03
2.260000000000000142e+01,2.253927978172462921e-03
2.264000000000000057e+01,3.479105276947042254e-03
2.267999999999999972e+01,2.534132294803501193e-03
2.271999999999999886e+01,1.560750815268159694e-03
2.276000000000000156e+01,2.275191009152512708e-03
2.280000000000000071e+01,2.010913436305594975e-03
2.283999999999999986e+01,2.172106418214703356e-03
2.287999999999999901e+01,2.843872276951276475e-03
2.292000000000000171e+01,2.395083163303684051e-03
2.296000000000000085e+01,2.641255291050215951e-03
2.300000000000000000e+01,3.298714251242799468e-03
2.303999999999999915e+01,2.622862431279214708e-03
2.307999999999999829e+01,2.769625335109569819e-03
2.312000000000000099e+01,5.476658669013097658e-04
2.316000000000000014e+01,2.637516345805311375e-03
2.319999999999999929e+01,2.358644451727623641e-03
2.323999999999999844e+01,2.193201258366384802e-03
2.328000000000000114e+01,2.566698377964856965e-03
2.332000000000000028e+01,3.053624197336722058e-03
2.335999999999999943e+01,1.937748544727379294e-03
2.339999999999999858e+01,1.871427138920900117e-03
2.344000000000000128e+01,1.634860022996641182e-03
2.348000000000000043e+01,2.093254142336497311e-03
2.351999999999999957e+01,2.296300228072541572e-03
2.355999999999999872e+01,2.243998279733224518e-03
2.360000000000000142e+01,3.113597092024645348e-03
2.364000000000000057e+01,1.600289805723610626e-03
2.367999999999999972e+01,2.441439041916729745e-03
2.371999999999999886e+01,2.530810027314405602e-03
2.376000000000000156e+01,1.981872524835690073e-03
2.380000000000000071e+01,1.163403265028571058e-03
2.383999999999999986e+01,2.089490547604903534e-03
2.387999999999999901e+01,2.590025147247623956e-03
2.392000000000000171e+01,3.984093062901121127e-03
2.396000000000000085e+01,1.123003780244723887e-03
2.400000000000000000e+01,3.226175574294277461e-03
2.403999999999999915e+01,2.336541286811450163e-03
2.407999999999999829e+01,2.737584485320375405e-03
2.412000000000000099e+01,2.783993600185609776e-03
2.416000000000000014e+01,2.348115147121169859e-03
2.419999999999999929e+01,1.841277017946487717e-03
2.423999999999999844e+01,3.093179146863697573e-03
2.428000000000000114e+01,2.189114696425045921e-03
2.432000000000000028e+01,7.460277944752646741e-04
2.435999999999999943e+01,2.721176438790488383e-03
2.439999999999999858e+01,1.590049233938837332e-03
2.444000000000000128e+01,3.182155273641593639e-03
2.448000000000000043e+01,1.299208732214926759e-03
2.451999999999999957e+01,1.784902423803906134e-03
2.455999999999999872e+01,3.008108499196926206e-03
2.460000000000000142e+01,2.699431690110165160e-03
2.464000000000000057e+01,1.752446382773162076e-03
2.467999999999999972e+01,9.614409204486916959e-04
2.471999999999999886e+01,3.021322183192281987e-03
2.476000000000000156e+01,1.379211334724447574e-03
2.480000000000000071e+01,8.859407595223797683e-04
2.483999999999999986e+01,1.569877897962204715e-03
2.487999999999999901e+01,1.487853051508124507e-03
2.492000000000000171e+01,1.646910369780298306e-03
2.496000000000000085e+01,2.387459142479012725e-03
2.500000000000000000e+01,1.298266897082194079e-03
2.503999999999999915e+01,2.194754427127700112e-03
2.507999999999999829e+01,3.119568313655901679e-03
2.512000000000000099e+01,8.530040199865693458e-04
2.516000000000000014e+01,2.345084553323288981e-03
2.519999999999999929e+01,2.362017076802451227e-03
2.523999999999999844e+01,2.818603847169115495e-03
2.528000000000000114e+01,2.183003058178460080e-03
2.532000000000000028e+01,2.185628601065822772e-03
2.535999999999999943e+01,7.131061322094539145e-04
2.539999999999999858e+01,1.736877369809319621e-03
2.544000000000000128e+01,1.526623841927445034e-03
2.548000000000000043e+01,1.954596644037415263e-03
2.551999999999999957e+01,1.375484206503792533e-03
2.555999999999999872e+01,2.299805043872377771e-03
2.560000000000000142e+01,1.536222060310598377e-03
2.564000000000000057e+01,1.425049125278339632e-03
2.567999999999999972e+01,1.668428109403697268e-03
2.571999999999999886e+01,2.620952022810808107e-03
2.576000000000000156e+01,2.225981403573247443e-03
2.580000000000000071e+01,1.972806895721275922e-03
2.583999999999999986e+01,1.889795939631025217e-03
2.587999999999999901e+01,1.991132255254777009e-03
2.592000000000000171e+01,1.752018186439392288e-03
2.596000000000000085e+01,2.789397861029602101e-03
2.600000000000000000e+01,2.692038806503295034e-03
2.603999999999999915e+01,1.701064269594006586e-03
2.607999999999999829e+01,2.624850893747885348e-03
2.612000000000000099e+01,2.725940636694827550e-03
2.616000000000000014e+01,2.316375347287482483e-03
2.619999999999999929e+01,2.488301497688979059e-03
2.623999999999999844e+01,2.092837733097806154e-03
2.628000000000000114e+01,2.392335170762995965e-03
2.632000000000000028e+01,1.968421767830351964e-03
2.635999999999999943e+01,1.969978878158292444e-03
2.639999999999999858e+01,2.680680909751814636e-03
2.644000000000000128e+01,2.355930250008686933e-03
2.648000000000000043e+01,3.080733800759902826e-03
2.651999999999999957e+01,1.096405649219831706e-03
2.655999999999999872e+01,5.587758790981734499e-04
2.660000000000000142e+01,2.687644446372497008e-03
2.664000000000000057e+01,2.050646428245614036e-03
2.667999999999999972e+01,2.973816553513140490e-03
2.671999999999999886e+01,1.925408436170679199e-03
2.676000000000000156e+01,1.898187085174138323e-03
2.680000000000000071e+01,1.984394392927047671e-03
2.683999999999999986e+01,1.474844337766559842e-03
2.687999999999999901e+01,2.000664767961192990e-03
2.692000000000000171e+01,1.405930178617746575e-03
2.696000000000000085e+01,3.066366030135446279e-03
2.700000000000000000e+01,2.102772496246356655e-03
2.703999999999999915e+01,1.919242478197353717e-03
2.707999999999999829e+01,2.515775975516887798e-03
2.712000000000000099e+01,1.140731225511049584e-03
2.716000000000000014e+01,1.425140656207943540e-03
2.719999999999999929e+01,1.851346181786559355e-03
2.723999999999999844e+01,7.740362326114666285e-04
2.728000000000000114e+01,9.874037317049823900e-04
2.732000000000000028e+01,2.065937065880769485e-03
2.735999999999999943e+01,2.094833977450686301e-03
2.739999999999999858e+01,1.442871196962676721e-03
2.744000000000000128e+01,1.514237045904055388e-03
2.748000000000000043e+01,1.940154792783798602e-03
2.751999999999999957e+01,1.656845405343334091e-03
2.755999999999999872e+01,1.926660000831725058e-03
2.760000000000000142e+01,1.983677675890785277e-03
2.764000000000000057e+01,2.818729038518503669e-04
2.767999999999999972e+01,2.367080369959652028e-03
2.771999999999999886e+01,1.558767754120241912e-03
2.776000000000000156e+01,1.360314000547302058e-03
2.780000000000000071e+01,1.176002850968551261e-03
2.783999999999999986e+01,1.062569186607765885e-03
2.787999999999999901e+01,1.672464146489437142e-03
2.792000000000000171e+01,2.097929623017120646e-03
2.796000000000000085e+01,2.069474927666565059e-03
2.800000000000000000e+01,1.771488425475967708e-03
2.803999999999999915e+01,9.061119870734365761e-04
2.807999999999999829e+01,1.629271116409104639e-03
2.812000000000000099e+01,2.224735641728383360e-03
2.816000000000000014e+01,2.352096272387899263e-03
2.819999999999999929e+01,2.521966943173872822e-03
2.823999999999999844e+01,1.869140707761341542e-03
2.828000000000000114e+01,8.900477805126907590e-04
2.832000000000000028e+01,1.967553192159278430e-03
2.835999999999999943e+01,1.016745460167472158e-03
2.839999999999999858e+01,2.165087227399299045e-03
2.844000000000000128e+01,1.554606538102358071e-03
2.848000000000000043e+01,1.936945154027490444e-03
2.851999999999999957e+01,1.468219419605687861e-03
2.855999999999999872e+01,2.049047871158188143e-03
2.860000000000000142e+01,1.523505003791790751e-03
2.864000000000000057e+01,1.650372149589468844e-03
2.867999999999999972e+01,2.075056297484020526e-03
2.871999999999999886e+01,1.549390049707146267e-03
2.876000000000000156e+01,1.278989641812586057e-03
2.880000000000000071e+01,2.072327137486921263e-03
2.883999999999999986e+01,2.057151440313489347e-03
2.887999999999999901e+01,1.871729968892943885e-03
2.892000000000000171e+01,2.764230120050504159e-03
2.896000000000000085e+01,1.897907808549286661e-03
2.900000000000000000e+01,2.605937333517033012e-03
2.903999999999999915e+01,7.183048898771330400e-04
2.907999999999999829e+01,2.291459098132088423e-03
2.912000000000000099e+01,1.935586196756176663e-03
2.916000000000000014e+01,1.962632614361621217e-03
2.919999999999999929e+01,2.046372780728875941e-03
2.923999999999999844e+01,1.505988115042712757e-03
2.928000000000000114e+01,1.476176250737736180e-03
2.932000000000000028e+01,1.403772090813159906e-03
2.935999999999999943e+01,1.813573290479032936e-03
2.939999999999999858e+01,1.329758968152625238e-03
2.944000000000000128e+01,1.597640692526302577e-03
2.948000000000000043e+01,1.340683624984111404e-03
2.951999999999999957e+01,2.190015613794592426e-03
2.955999999999999872e+01,1.507464659654430715e-03
2.960000000000000142e+01,2.271612051095709371e-03
2.964000000000000057e+01,1.574795100762393582e-03
2.967999999999999972e+01,1.090692818194512453e-03
2.971999999999999886e+01,1.159714493092361921e-03
2.976000000000000156e+01,1.710941522865272240e-03
2.980000000000000071e+01,8.153879294012676346e-04
2.983999999999999986e+01,4.729582919883723309e-04
2.987999999999999901e+01,1.265185147531954803e-03
2.992000000000000171e+01,5.255290558810373760e-04
2.996000000000000085e+01,1.672266638706337762e-03
3.000000000000000000e+01,1.003446864917528075e-03
3.003999999999999915e+01,1.242344055417803203e-03
3.007999999999999829e+01,1.367730339220103774e-03
3.012000000000000099e+01,1.422156877124362232e-03
3.016000000000000014e+01,1.533277152473493023e-03
3.019999999999999929e+01,4.812912083468438027e-04
3.023999999999999844e+01,1.315698935395635642e-03
3.028000000000000114e+01,1.171388807535325705e-03
3.032000000000000028e+01,1.934795640663323829e-03
3.035999999999999943e+01,1.265605564376685735e-03
3.039999999999999858e+01,2.057297544664527054e-03
3.044000000000000128e+01,2.508539087229305110e-03
3.048000000000000043e+01,1.853409288712846038e-03
3.051999999999999957e+01,1.013849976192339247e-03
3.055999999999999872e+01,2.188337814889405354e-03
3.060000000000000142e+01,1.958596182190243309e-03
3.064000000000000057e+01,1.629527356615382378e-03
3.067999999999999972e+01,1.853582477189316810e-03
3.071999999999999886e+01,1.822289479282378482e-03
3.076000000000000156e+01,8.122786208078630610e-04
3.080000000000000071e+01,1.490089340973664014e-03
3.083999999999999986e+01,2.238777510991991730e-03
3.087999999999999901e+01,1.100989711903210344e-03
3.092000000000000171e+01,1.409900242835073619e-03
3.096000000000000085e+01,9.670324376228926159e-04
3.100000000000000000e+01,1.190758338177804430e-03
3.103999999999999915e+01,6.201547403741119926e-04
3.107999999999999829e+01,1.198391341804548463e-03
3.112000000000000099e+01,2.017710034872653192e-03
3.116000000000000014e+01,7.661643900231290870e-04
3.119999999999999929e+01,1.812340297323079743e-03
3.123999999999999844e+01,1.553572768648970020e-03
3.128000000000000114e+01,5.146594592108483766e-04
3.132000000000000028e+01,2.000407227288814992e-03
3.135999999999999943e+01,9.614116015289942731e-04
3.139999999999999858e+01,1.284011977588388328e-03
3.144000000000000128e+01,1.294529344983894308e-03
3.148000000000000043e+01,1.617047401892359381e-03
3.151999999999999957e+01,1.797687094279779799e-03
3.155999999999999872e+01,7.584856694637834946e-04
3.160000000000000142e+01,1.350370932162016889e-03
3.164000000000000057e+01,1.133742969004727453e-03
3.167999999999999972e+01,1.186564531731216544e-03
3.171999999999999886e+01,1.849244910041785957e-03
3.176000000000000156e+01,1.660860899810739271e-03
3.180000000000000071e+01,2.252540349306616542e-03
3.183999999999999986e+01,1.964787968470146483e-03
3.187999999999999901e+01,1.251482810392248691e-03
3.192000000000000171e+01,1.545180637407882066e-03
3.196000000000000085e+01,1.909755901072942349e-03
3.200000000000000000e+01,2.160820235406145894e-03
3.203999999999999915e+01,2.099801554002374022e-03
3.207999999999999829e+01,2.407518436733774997e-03
3.211999999999999744e+01,2.034375571765633262e-03
3.215999999999999659e+01,1.703742700241562495e-03
3.220000000000000284e+01,5.362291554127786124e-04
3.224000000000000199e+01,1.623885989201968643e-03
3.228000000000000114e+01,1.747008664928918547e-03
3.232000000000000028e+01,7.070250961885134406e-04
3.235999999999999943e+01,9.151677545597645394e-04
3.239999999999999858e+01,2.257966876180523674e-03
3.243999999999999773e+01,2.678782999124366786e-03
3.247999999999999687e+01,1.610267305966681323e-03
3.252000000000000313e+01,8.783138717528706332e-05
3.256000000000000227e+01,1.685772789082984812e-03
3.260000000000000142e+01,1.978770738984292517e-03
3.264000000000000057e+01,1.378153128698638569e-03
3.267999999999999972e+01,2.309336150228862711e-03
3.271999999999999886e+01,1.893024557066593687e-03
3.275999999999999801e+01,2.341878734857271317e-03
3.279999999999999716e+01,1.599259221674467855e-03
3.284000000000000341e+01,1.523233392567955712e-03
3.288000000000000256e+01,3.120845397157893508e-03
3.292000000000000171e+01,1.059016355613882606e-03
3.296000000000000085e+01,2.259401834291837295e-03
3.300000000000000000e+01,2.069741533705046245e-03
3.303999999999999915e+01,1.057384270335040783e-03
3.307999999999999829e+01,2.243462493985375929e-03
3.311999999999999744e+01,1.245206593222051130e-03
3.315999999999999659e+01,1.253953662934540305e-03
3.320000000000000284e+01,1.092454907473691108e-03
3.324000000000000199e+01,1.540814949678431323e-03
3.328000000000000114e+01,1.123926864999238821e-03
3.332000000000000028e+01,8.913859643277579096e-04
3.335999999999999943e+01,1.580745709231434369e-03
3.339999999999999858e+01,2.028941024484944705e-03
3.343999999999999773e+01,9.168859102008501162e-04
3.347999999999999687e+01,1.889796514831096818e-03
3.352000000000000313e+01,1.997458989748174610e-03
3.356000000000000227e+01,1.920691914824231971e-03
3.360000000000000142e+01,0.000000000000000000e+00
3.364000000000000057e+01,1.681931887553407947e-03
3.367999999999999972e+01,1.732694740620852308e-03
3.371999999999999886e+01,1.769232687047035506e-03
3.375999999999999801e+01,2.784406156028298041e-03
3.379999999999999716e+01,2.182594309532794735e-03
3.384000000000000341e+01,1.410536630319325592e-03
3.388000000000000256e+01,2.212830730047042182e-03
3.392000000000000171e+01,1.568344157969299478e-03
3.396000000000000085e+01,1.221674525745254907e-03
3.400000000000000000e+01,1.555782284346689769e-03
3.403999999999999915e+01,1.748011648720113487e-03
3.407999999999999829e+01,9.047882316929003370e-04
3.411999999999999744e+01,9.692817308577737203e-04
3.415999999999999659e+01,1.799654941504931884e-03
3.420000000000000284e+01,2.232842788409041684e-03
3.424000000000000199e+01,2.439049916184480703e-03
3.428000000000000114e+01,2.446643765207365869e-03
3.432000000000000028e+01,1.461335991271863009e-03
3.435999999999999943e+01,2.943954377320152915e-03
3.439999999999999858e+01,2.313157225984663421e-03
3.443999999999999773e+01,2.405688621559200387e-03
3.447999999999999687e+01,1.831543962037205254e-03
3.452000000000000313e+01,2.292769697806347918e-03
3.456000000000000227e+01,1.179561270410963781e-03
3.460000000000000142e+01,2.761218526951374208e-03
3.464000000000000057e+01,1.250783534034716942e-03
3.467999999999999972e+01,8.324538162183523805e-04
3.471999999999999886e+01,6.835735884487838775e-04
3.475999999999999801e+01,1.697717236955556151e-03
3.479999999999999716e+01,1.421101127945107769e-03
3.484000000000000341e+01,2.435162378082368628e-03
3.488000000000000256e+01,1.633666214077732085e-03
3.492000000000000171e+01,1.470396268781695368e-03
3.496000000000000085e+01,3.037499014357378062e-03
3.500000000000000000e+01,1.313937420298564229e-03
3.503999999999999915e+01,2.356160107107751426e-03
3.507999999999999829e+01,1.866499785893875347e-03
3.511999999999999744e+01,1.830677315521159719e-03
3.515999999999999659e+01,2.347978738484846756e-03
3.520000000000000284e+01,2.113501775321329976e-03
3.524000000000000199e+01,2.049188253107817222e-03
3.528000000000000114e+01,2.807489310868792765e-03
3.532000000000000028e+01,3.012584067021531128e-03
3.535999999999999943e+01,2.352430671770298649e-03
3.539999999999999858e+01,1.805705833887597976e-03
3.543999999999999773e+01,2.393637423417426663e-03
3.547999999999999687e+01,1.520604602327941699e-03
3.552000000000000313e+01,2.193556099998879988e-03
3.556000000000000227e+01,2.001259443908152448e-03
3.560000000000000142e+01,1.979126224523571065e-03
3.564000000000000057e+01,1.715828549082627427e-03
3.567999999999999972e+01,2.984331470092116498e-03
3.571999999999999886e+01,1.061456085946196242e-03
3.575999999999999801e+01,1.535588243161069679e-03
3.579999999999999716e+01,3.045090780577825330e-03
3.584000000000000341e+01,1.689440581172567922e-03
3.588000000000000256e+01,2.177632825184243077e-03
3.592000000000000171e+01,2.453028050686426736e-03
3.596000000000000085e+01,2.345421612121666166e-03
3.600000000000000000e+01,3.117164626738996164e-03
3.603999999999999915e+01,2.271922299473373621e-03
3.607999999999999829e+01,1.809599209612828457e-03
3.611999999999999744e+01,3.106016237797019561e-03
3.615999999999999659e+01,3.934329277013606796e-03
3.620000000000000284e+01,2.479022112541225901e-03
3.624000000000000199e+01,3.335620161228206211e-03
3.628000000000000114e+01,3.270235165970501040e-03
3.632000000000000028e+01,3.545218244017168605e-03
3.635999999999999943e+01,3.493934534976797859e-03
3.639999999999999858e+01,3.868121220840673412e-03
3.643999999999999773e+01,3.986959720793571520e-03
3.647999999999999687e+01,4.588003496402942409e-03
3.652000000000000313e+01,2.976345666670165719e-03
3.656000000000000227e+01,3.449653519543204906e-03
3.660000000000000142e+01,2.688936475375065978e-03
3.664000000000000057e+01,3.573489779731039723e-03
3.667999999999999972e+01,3.450957712883982471e-03
3.671999999999999886e+01,2.945423973010732714e-03
3.675999999999999801e+01,2.993014107612313596e-03
3.679999999999999716e+01,3.707197879607803011e-03
3.684000000000000341e+01,4.591545073691727027e-03
3.688000000000000256e+01,3.830539475142721601e-03
3.692000000000000171e+01,4.175822845711630975e-03
3.696000000000000085e+01,3.769327809405622221e-03
3.700000000000000000e+01,4.454938020850628816e-03
3.703999999999999915e+01,5.183058168211925228e-03
3.707999999999999829e+01,4.350927843125560780e-03
3.711999999999999744e+01,4.809474850309165307e-03
3.715999999999999659e+01,4.658080652498414014e-03
3.720000000000000284e+01,4.761952195075210177e-03
3.724000000000000199e+01,5.333845283925404274e-03
3.728000000000000114e+01,5.962432026286487892e-03
3.732000000000000028e+01,5.938526400495581538e-03
3.735999999999999943e+01,5.701823739219775630e-03
3.739999999999999858e+01,5.947326342755040671e-03
3.743999999999999773e+01,6.476462124696271208e-03
3.747999999999999687e+01,7.728926417710542916e-03
3.752000000000000313e+01,8.130326254281559570e-03
3.756000000000000227e+01,8.659338343181822301e-03
3.760000000000000142e+01,1.002514870513112645e-02
3.764000000000000057e+01,1.017111787820306271e-02
3.767999999999999972e+01,1.033122953879901315e-02
3.771999999999999886e+01,1.304436964231242731e-02
3.775999999999999801e+01,1.394195229773312686e-02
3.779999999999999716e+01,1.510898440689210746e-02
3.784000000000000341e+01,1.891414728009689628e-02
3.788000000000000256e+01,2.118742711227088529e-02
3.792000000000000171e+01,2.533291680466096332e-02
3.796000000000000085e+01,3.186123029205335105e-02
3.800000000000000000e+01,4.142481871347254013e-02
3.803999999999999915e+01,5.846318656110476714e-02
3.807999999999999829e+01,8.506134073678103813e-02
3.811999999999999744e+01,1.347647342447843566e-01
3.815999999999999659e+01,2.501528957969711975e-01
3.820000000000000284e+01,5.389369982914102852e-01
3.824000000000000199e+01,9.217733096767434242e-01
3.828000000000000114e+01,1.000000000000000000e+00
3.832000000000000028e+01,8.470320061744358586e-01
3.835999999999999943e+01,7.093398380044170226e-01
3.839999999999999858e+01,4.898926640700735358e-01
3.843999999999999773e+01,2.780337393206181451e-01
3.847999999999999687e+01,1.638722396081508659e-01
3.852000000000000313e+01,1.086298732934579125e-01
3.856000000000000227e+01,7.784019974616858406e-02
3.860000000000000142e+01,5.675214972503155736e-02
3.864000000000000057e+01,4.529480462745615055e-02
3.867999999999999972e+01,3.684436701504372608e-02
3.871999999999999886e+01,2.900378813569602296e-02
3.875999999999999801e+01,2.378715628912489444e-02
3.879999999999999716e+01,2.120865519528263715e-02
3.884000000000000341e+01,1.748123150053596669e-02
3.888000000000000256e+01,1.539907812790721267e-02
3.892000000000000171e+01,1.406862069022374664e-02
3.896000000000000085e+01,1.253954991861764602e-02
3.900000000000000000e+01,1.123737742533216857e-02
3.903999999999999915e+01,1.004863344650515355e-02
3.907999999999999829e+01,8.774745895731498116e-03
3.911999999999999744e+01,8.763168212803205612e-03
3.915999999999999659e+01,8.297670225965688914e-03
3.920000000000000284e+01,7.846314708733703736e-03
3.924000000000000199e+01,6.799201682411148799e-03
3.928000000000000114e+01,6.262661339584980023e-03
3.932000000000000028e+01,5.924651830459467215e-03
3.935999999999999943e+01,5.643335950324802550e-03
3.939999999999999858e+01,5.305243935318833953e-03
3.943999999999999773e+01,4.399761849712261787e-03
3.947999999999999687e+01,5.111182638302858190e-03
3.952000000000000313e+01,4.248169205258072248e-03
3.956000000000000227e+01,3.626237764356189056e-03
3.960000000000000142e+01,4.252432465217366800e-03
3.964000000000000057e+01,4.453074297358508918e-03
3.967999999999999972e+01,4.894798120227937532e-03
3.971999999999999886e+01,3.606066794442183698e-03
3.975999999999999801e+01,3.451991845142724207e-03
3.979999999999999716e+01,4.517675594400976866e-03
3.984000000000000341e+01,3.583413505536727200e-03
3.988000000000000256e+01,3.273193856486390687e-03
3.992000000000000171e+01,3.388444560844848432e-03
3.996000000000000085e+01,3.631307489240199419e-03
4.000000000000000000e+01,3.207494297466606439e-03
4.003999999999999915e+01,3.265886339382503833e-03
4.007999999999999829e+01,2.671785980610201852e-03
4.011999999999999744e+01,3.311628037047129307e-03
4.015999999999999659e+01,2.575607950237616180e-03
4.020000000000000284e+01,2.662202385403273763e-03
4.024000000000000199e+01,3.500492739953429272e-03
4.028000000000000114e+01,3.587004648490907648e-03
4.032000000000000028e+01,3.177045078173052536e-03
4.035999999999999943e+01,3.589700027944207200e-03
4.039999999999999858e+01,3.335678852831029662e-03
4.043999999999999773e+01,2.953962928467394628e-03
4.047999999999999687e+01,2.203429007176707383e-03
4.052000000000000313e+01,2.956328184432562792e-03
4.056000000000000227e+01,2.375916374998064771e-03
4.060000000000000142e+01,3.213835340624076643e-03
4.064000000000000057e+01,2.647524716497521961e-03
4.067999999999999972e+01,2.705256522754094419e-03
4.071999999999999886e+01,1.883556393996617872e-03
4.075999999999999801e+01,2.338349834175215865e-03
4.079999999999999716e+01,2.438508994078280017e-03
4.084000000000000341e+01,2.028012948572170508e-03
4.088000000000000256e+01,1.872782600071998737e-03
4.092000000000000171e+01,1.731694700901161531e-03
4.096000000000000085e+01,1.746586454826392753e-03
4.100000000000000000e+01,2.186948549428865008e-03
4.103999999999999915e+01,3.832885607547503477e-03
4.107999999999999829e+01,2.585302426224843006e-03
4.111999999999999744e+01,2.444008164508487679e-03
4.115999999999999659e+01,2.600530757768766341e-03
4.120000000000000284e+01,2.203846980104544589e-03
4.124000000000000199e+01,1.707835884606732912e-03
4.128000000000000114e+01,1.098313750379968515e-03
4.132000000000000028e+01,1.708550296792427960e-03
4.135999999999999943e+01,1.737213029546571825e-03
4.139999999999999858e+01,3.269308850473391214e-03
4.143999999999999773e+01,2.631254169330224726e-03
4.147999999999999687e+01,2.220097737272252233e-03
4.152000000000000313e+01,2.319513962304463155e-03
4.156000000000000227e+01,1.879907532592144537e-03
4.160000000000000142e+01,1.681383070974227416e-03
4.164000000000000057e+01,2.333840555203724361e-03
4.167999999999999972e+01,1.582068437420638832e-03
4.171999999999999886e+01,2.362096844885574858e-03
4.175999999999999801e+01,2.645653756519761746e-03
4.179999999999999716e+01,2.588760096513760805e-03
4.184000000000000341e+01,1.468046122780855556e-03
4.188000000000000256e+01,2.134439640038704889e-03
4.192000000000000171e+01,1.680277960931268137e-03
4.196000000000000085e+01,1.566484288641167757e-03
4.200000000000000000e+01,2.303672557954630079e-03
4.203999999999999915e+01,2.189796317540901923e-03
4.207999999999999829e+01,1.778020663457682404e-03
4.211999999999999744e+01,2.699473443973524588e-03
4.215999999999999659e+01,2.202512896394480130e-03
4.220000000000000284e+01,1.719694783055525280e-03
4.224000000000000199e+01,1.761633038742879643e-03
4.228000000000000114e+01,1.945367211541681454e-03
4.232000000000000028e+01,3.306308891919747250e-03
4.235999999999999943e+01,2.241793091753537664e-03
4.239999999999999858e+01,1.503461572793907131e-03
4.243999999999999773e+01,1.531009667707944116e-03
4.247999999999999687e+01,2.111681569666708138e-03
4.252000000000000313e+01,1.557614547763276711e-03
4.256000000000000227e+01,1.797794579166554470e-03
4.260000000000000142e+01,1.286196137207874486e-03
4.264000000000000057e+01,2.292214489227986998e-03
4.267999999999999972e+01,2.603189248638380394e-03
4.271999999999999886e+01,1.836159963524183585e-03
4.275999999999999801e+01,2.246338180802318497e-03
4.279999999999999716e+01,1.691982116003406394e-03
4.284000000000000341e+01,1.634014972310062798e-03
4.288000000000000256e+01,3.022746017647140026e-03
4.292000000000000171e+01,1.447038199732978304e-03
4.296000000000000085e+01,1.927928548130712454e-03
4.300000000000000000e+01,1.883979945232325823e-03
4.303999999999999915e+01,1.868357487095533356e-03
4.307999999999999829e+01,1.710856528162863887e-03
4.311999999999999744e+01,1.950458444068204050e-03
4.315999999999999659e+01,1.977263256115463410e-03
4.320000000000000284e+01,2.684845350534180615e-03
4.324000000000000199e+01,2.484628039384225925e-03
4.328000000000000114e+01,2.582227558219336513e-03
4.332000000000000028e+01,1.772027670542694307e-03
4.335999999999999943e+01,2.295056202847386637e-03
4.339999999999999858e+01,2.676206230583897446e-03
4.343999999999999773e+01,2.929661473704508415e-03
4.347999999999999687e+01,2.672461480294361248e-03
4.352000000000000313e+01,3.592468980317303166e-03
4.356000000000000227e+01,3.150798017436799627e-03
4.360000000000000142e+01,2.950208999073737105e-03
4.364000000000000057e+01,4.054480956543585722e-03
4.367999999999999972e+01,4.222586062410172911e-03
4.371999999999999886e+01,3.057380144334816401e-03
4.375999999999999801e+01,2.984279394320349214e-03
4.379999999999999716e+01,3.620323360451909150e-03
4.384000000000000341e+01,4.511632988695508939e-03
4.388000000000000256e+01,5.204329225017139196e-03
4.392000000000000171e+01,4.620449316734435985e-03
4.396000000000000085e+01,5.298879219240847961e-03
4.400000000000000000e+01,5.239714352305263438e-03
4.403999999999999915e+01,5.606019790209938562e-03
4.407999999999999829e+01,7.050246671979363243e-03
4.411999999999999744e+01,7.969634589249574227e-03
4.415999999999999659e+01,8.449285864091994960e-03
4.420000000000000284e+01,1.034726787155638983e-02
4.424000000000000199e+01,1.318133411676110887e-02
4.428000000000000114e+01,1.604372649210970142e-02
4.432000000000000028e+01,2.018261239442738567e-02
4.435999999999999943e+01,2.649156620994370936e-02
4.439999999999999858e+01,3.664426694819868102e-02
4.443999999999999773e+01,5.052724484533016591e-02
4.447999999999999687e+01,6.721855807331787724e-02
4.452000000000000313e+01,7.341387687414074881e-02
4.456000000000000227e+01,7.121239187005361237e-02
4.460000000000000142e+01,6.606065170333444425e-02
4.464000000000000057e+01,5.717855175020120778e-02
4.467999999999999972e+01,4.479303153696357481e-02
4.471999999999999886e+01,3.457757923268072603e-02
4.475999999999999801e+01,2.481596466559808298e-02
4.479999999999999716e+01,1.942289467222029983e-02
4.484000000000000341e+01,1.451202985594729142e-02
4.488000000000000256e+01,1.276409337641078862e-02
4.492000000000000171e+01,1.219336437380349678e-02
4.496000000000000085e+01,1.028932433263654751e-02
4.500000000000000000e+01,8.073201122953916481e-03
4.503999999999999915e+01,7.658369087434267232e-03
4.507999999999999829e+01,6.449207388045753719e-03
4.511999999999999744e+01,5.764802023732724413e-03
4.515999999999999659e+01,5.817908800381044535e-03
4.520000000000000284e+01,5.502197524460690492e-03
4.524000000000000199e+01,3.682970561593976004e-03
4.528000000000000114e+01,3.040951071412623715e-03
4.532000000000000028e+01,3.576139053445095885e-03
4.535999999999999943e+01,3.302813647884105669e-03
4.539999999999999858e+01,3.355672488164251292e-03
4.543999999999999773e+01,2.940427230079694244e-03
4.547999999999999687e+01,2.879733657740852007e-03
4.552000000000000313e+01,2.251649943127446898e-03
4.556000000000000227e+01,2.275976042217036591e-03
4.560000000000000142e+01,2.569751503094765393e-03
4.564000000000000057e+01,2.622362390031321520e-03
4.567999999999999972e+01,2.745850551879359253e-03
4.571999999999999886e+01,1.975722999347124652e-03
4.575999999999999801e+01,2.283516870874987333e-03
4.579999999999999716e+01,2.704739177171198994e-03
4.584000000000000341e+01,2.232345767672515129e-03
4.588000000000000256e+01,2.497464490647476228e-03
4.592000000000000171e+01,1.613660529255583637e-03
4.596000000000000085e+01,2.261657043128551328e-03
4.600000000000000000e+01,2.413182011187620969e-03
4.603999999999999915e+01,2.734870292881102539e-03
4.607999999999999829e+01,2.262228898917246437e-03
4.611999999999999744e+01,2.668936838836061601e-03
4.615999999999999659e+01,1.940905811982615841e-03
4.620000000000000284e+01,1.482324139844218812e-03
4.624000000000000199e+01,1.747070875511784038e-03
4.628000000000000114e+01,1.884122793084169528e-03
4.632000000000000028e+01,1.680724085732434583e-03
4.635999999999999943e+01,1.151058473408863702e-03
4.639999999999999858e+01,1.869518922686690858e-03
4.643999999999999773e+01,1.467424122315308431e-03
4.647999999999999687e+01,1.561718200139426650e-03
4.652000000000000313e+01,1.287194209834073913e-03
4.656000000000000227e+01,1.509059096781141139e-03
4.660000000000000142e+01,1.844352409065771548e-03
4.664000000000000057e+01,1.668990447568044662e-03
4.667999999999999972e+01,1.933282480212814534e-03
4.671999999999999886e+01,1.672735517708327443e-03
4.675999999999999801e+01,1.894393709674735068e-03
4.679999999999999716e+01,7.401896801191999286e-04
4.684000000000000341e+01,1.968809340884271515e-03
4.688000000000000256e+01,1.310952843926558404e-03
4.692000000000000171e+01,1.433159628453947124e-03
4.696000000000000085e+01,2.009204124246885895e-03
4.700000000000000000e+01,1.464693363789066564e-03
4.703999999999999915e+01,1.402387754501373219e-03
4.707999999999999829e+01,2.446370994560640236e-03
4.711999999999999744e+01,1.547143192372581579e-03
4.715999999999999659e+01,1.186855421635334617e-03
4.720000000000000284e+01,1.507344886115631480e-03
4.724000000000000199e+01,1.444832553554925049e-03
4.728000000000000114e+01,1.240441670686730441e-03
4.732000000000000028e+01,1.277132688482834596e-03
4.735999999999999943e+01,9.591893486709679060e-04
4.739999999999999858e+01,1.648248811466966699e-03
4.743999999999999773e+01,6.494041958722017232e-04
4.747999999999999687e+01,1.366748403133558748e-03
4.752000000000000313e+01,1.587621046662526488e-03
4.756000000000000227e+01,9.857965562395456811e-04
4.760000000000000142e+01,1.419342306914388304e-03
4.764000000000000057e+01,1.569172298799620651e-03
4.767999999999999972e+01,1.903349305409989109e-03
4.771999999999999886e+01,1.386461735334601443e-03
4.775999999999999801e+01,1.734739759384953039e-03
4.779999999999999716e+01,1.260320646654125966e-03
4.784000000000000341e+01,1.736169449648924078e-03
4.788000000000000256e+01,1.701362964243648785e-03
4.792000000000000171e+01,8.013081793710937492e-04
4.796000000000000085e+01,1.092644556014600718e-03
4.800000000000000000e+01,1.866186072511292473e-03
4.803999999999999915e+01,2.185807180417065950e-03
4.807999999999999829e+01,1.796200911631492267e-03
4.811999999999999744e+01,2.044820705946583019e-03
4.815999999999999659e+01,1.683499165594037807e-03
4.820000000000000284e+01,1.123564182393299539e-03
4.824000000000000199e+01,1.939408722917595031e-03
4.828000000000000114e+01,1.776535196340145407e-03
4.832000000000000028e+01,2.493010977710714837e-03
4.835999999999999943e+01,2.273319852307938409e-03
4.839999999999999858e+01,1.571340873222736370e-03
4.843999999999999773e+01,1.677792598551802739e-03
4.847999999999999687e+01,1.670733200274856795e-03
4.852000000000000313e+01,1.876388247668380480e-03
4.856000000000000227e+01,1.954348450088988932e-03
4.860000000000000142e+01,1.734409161979220742e-03
4.864000000000000057e+01,1.897388963211222223e-03
4.867999999999999972e+01,1.563897187036194115e-03
4.871999999999999886e+01,9.466896393400013121e-04
4.875999999999999801e+01,1.478322082457606077e-03
4.879999999999999716e+01,8.468480868337048117e-04
4.884000000000000341e+01,1.775541973371501511e-03
4.888000000000000256e+01,1.512761979377056504e-03
4.892000000000000171e+01,1.377594103794730403e-03
4.896000000000000085e+01,1.540242991238899815e-03
4.900000000000000000e+01,1.929790039118891524e-03
4.903999999999999915e+01,1.610109698990599535e-03
4.907999999999999829e+01,1.020897303521115570e-03
4.911999999999999744e+01,1.069910959363813956e-03
4.915999999999999659e+01,1.303271612484696151e-03
4.920000000000000284e+01,1.862816466650491030e-03
4.924000000000000199e+01,1.386908360702295354e-03
4.928000000000000114e+01,1.279735616127413572e-03
4.932000000000000028e+01,7.328261682961820104e-04
4.935999999999999943e+01,1.575879951410714616e-03
4.939999999999999858e+01,1.227459847863003736e-03
4.943999999999999773e+01,1.233591383378624447e-03
4.947999999999999687e+01,1.182946665195061618e-03
4.952000000000000313e+01,1.330832660469658457e-03
4.956000000000000227e+01,7.836749820297903230e-04
4.960000000000000142e+01,1.739950295097062978e-03
4.964000000000000057e+01,1.986998213082968173e-03
4.967999999999999972e+01,1.836860584840149455e-03
4.971999999999999886e+01,1.828518786002490855e-03
4.975999999999999801e+01,1.593196085078952195e-03
4.979999999999999716e+01,2.081201749994386011e-03
4.984000000000000341e+01,1.391917243484472495e-03
4.988000000000000256e+01,1.241572736360705732e-03
4.992000000000000171e+01,1.445779862641801425e-03
4.996000000000000085e+01,2.047089783127701342e-03
5.000000000000000000e+01,1.981723465559857063e-03
5.003999999999999915e+01,1.292232070738212309e-03
5.007999999999999829e+01,1.269334156759458062e-03
5.011999999999999744e+01,1.799559959761448755e-03
5.015999999999999659e+01,1.265965350956386754e-03
5.020000000000000284e+01,6.330433186929538799e-04
5.024000000000000199e+01,1.404268227425254593e-03
5.028000000000000114e+01,1.664837819465128958e-03
5.032000000000000028e+01,1.556589298579308779e-03
5.035999999999999943e+01,1.717790083368458693e-03
5.039999999999999858e+01,1.694561119798581672e-03
5.043999999999999773e+01,1.912414020112946766e-03
5.047999999999999687e+01,1.761448805615455949e-03
5.052000000000000313e+01,1.908300335754433297e-03
5.056000000000000227e+01,1.941640717767363893e-03
5.060000000000000142e+01,1.379223456772593658e-03
5.064000000000000057e+01,9.869694551852326893e-04
5.067999999999999972e+01,1.927943787287536266e-03
5.071999999999999886e+01,1.464688410809401268e-03
5.075999999999999801e+01,1.923333474786873389e-03
5.079999999999999716e+01,1.630199968736855852e-03
5.084000000000000341e+01,1.478862278888898579e-03
5.088000000000000256e+01,1.469320404771461011e-03
5.092000000000000171e+01,1.246981335317333232e-03
5.096000000000000085e+01,1.563582252517800499e-03
5.100000000000000000e+01,1.426262726233440111e-03
5.103999999999999915e+01,1.232166927859870784e-03
5.107999999999999829e+01,1.577011114726275262e-03
5.111999999999999744e+01,1.709058103898293893e-03
5.115999999999999659e+01,1.628307894904389586e-03
5.120000000000000284e+01,1.703537218292517936e-03
5.124000000000000199e+01,1.551785622147815657e-03
5.128000000000000114e+01,1.541829837018243114e-03
5.132000000000000028e+01,1.375811733531894735e-03
5.135999999999999943e+01,1.819652214103882355e-03
5.139999999999999858e+01,1.781204805627997030e-03
5.143999999999999773e+01,1.501592754837761902e-03
5.147999999999999687e+01,1.236123028890519964e-03
5.152000000000000313e+01,2.006023497830255759e-03
5.156000000000000227e+01,1.683736097611413440e-03
5.160000000000000142e+01,2.793963063203624194e-03
5.164000000000000057e+01,2.116999857926668560e-03
5.167999999999999972e+01,2.007344071664250371e-03
5.171999999999999886e+01,1.656523639786709095e-03
5.175999999999999801e+01,2.099950152761853681e-03
5.179999999999999716e+01,1.734863202225723263e-03
5.184000000000000341e+01,1.979634830089457755e-03
5.188000000000000256e+01,1.827220885789810050e-03
5.192000000000000171e+01,2.057725992165718339e-03
5.196000000000000085e+01,1.805943202892209935e-03
5.200000000000000000e+01,2.334223635218331781e-03
5.203999999999999915e+01,1.997255719508633093e-03
5.207999999999999829e+01,1.858818487078585727e-03
5.211999999999999744e+01,1.564318926860981066e-03
5.215999999999999659e+01,7.024291460933038697e-04
5.220000000000000284e+01,1.003563036010879025e-03
5.224000000000000199e+01,1.715983413679349808e-03
5.228000000000000114e+01,1.974483332773745593e-03
5.232000000000000028e+01,1.438653502650679133e-03
5.235999999999999943e+01,1.980745018783750065e-03
5.239999999999999858e+01,1.884527709418382102e-03
5.243999999999999773e+01,1.235103896625988282e-03
5.247999999999999687e+01,1.847989794184862590e-03
5.252000000000000313e+01,1.737464542287720133e-03
5.256000000000000227e+01,1.839653688435580149e-03
5.260000000000000142e+01,1.374452608846437425e-03
5.264000000000000057e+01,1.930437990517350341e-03
5.267999999999999972e+01,1.323316887707453714e-03
5.271999999999999886e+01,1.538810159280958479e-03
5.275999999999999801e+01,1.839364342727332425e-03
5.279999999999999716e+01,1.714365502317281766e-03
5.284000000000000341e+01,1.135446196731598485e-03
5.288000000000000256e+01,1.549345908729081282e-03
5.292000000000000171e+01,1.608611197574649375e-03
5.296000000000000085e+01,2.206816449497845962e-03
5.300000000000000000e+01,2.393652395630740861e-03
5.303999999999999915e+01,9.918702403241767395e-04
5.307999999999999829e+01,1.448114046096511719e-03
5.311999999999999744e+01,1.067476931949123920e-03
5.315999999999999659e+01,1.920782079289182643e-03
5.320000000000000284e+01,1.639348176866078748e-03
5.324000000000000199e+01,1.542261223624160488e-03
5.328000000000000114e+01,1.558602616972756816e-03
5.332000000000000028e+01,2.099700248731310205e-03
5.335999999999999943e+01,2.257796011303355235e-03
5.339999999999999858e+01,1.352071323873675970e-03
5.343999999999999773e+01,1.666105174206844669e-03
5.347999999999999687e+01,1.185809261647916783e-03
5.352000000000000313e+01,1.982006767604059874e-03
5.356000000000000227e+01,1.700200101248499837e-03
5.360000000000000142e+01,1.560189218558789359e-03
5.364000000000000057e+01,1.491055516944261947e-03
5.367999999999999972e+01,1.450247834661892547e-03
5.371999999999999886e+01,1.281745246578056734e-03
5.375999999999999801e+01,1.794019816379331320e-03
5.379999999999999716e+01,1.611250662482984755e-03
5.384000000000000341e+01,1.981605181714236105e-03
5.388000000000000256e+01,1.429976449523556953e-03
5.392000000000000171e+01,1.403103948669739715e-03
5.396000000000000085e+01,1.546394668085581195e-03
5.400000000000000000e+01,1.618725360094479086e-03
5.403999999999999915e+01,1.776116948886994045e-03
5.407999999999999829e+01,1.550506660005300302e-03
5.411999999999999744e+01,1.792917718407470657e-03
5.415999999999999659e+01,2.092022231330981519e-03
5.420000000000000284e+01,2.164145789827761918e-03
5.424000000000000199e+01,1.512858178592343559e-03
5.428000000000000114e+01,2.506840707932243839e-03
5.432000000000000028e+01,1.685265593962199547e-03
5.435999999999999943e+01,1.941611802671333034e-03
5.439999999999999858e+01,1.375260796795313867e-03
5.443999999999999773e+01,1.929382273926871956e-03
5.447999999999999687e+01,2.426727438416845847e-03
5.452000000000000313e+01,1.505659129106332733e-03
5.456000000000000227e+01,2.073840032408270050e-03
5.460000000000000142e+01,1.166872579271333813e-03
5.464000000000000057e+01,1.252724122969839371e-03
5.467999999999999972e+01,1.707310964383865594e-03
5.471999999999999886e+01,1.793079641002885477e-03
5.475999999999999801e+01,1.836255722103376188e-03
5.479999999999999716e+01,2.148881056537981817e-03
5.484000000000000341e+01,2.106871945186791426e-03
5.488000000000000256e+01,1.696044667154439399e-03
5.492000000000000171e+01,1.795789888246641279e-03
5.496000000000000085e+01,1.583451823409906057e-03
5.500000000000000000e+01,1.853318815906995027e-03
5.503999999999999915e+01,1.215386263731349633e-03
5.507999999999999829e+01,1.896498272952228678e-03
5.511999999999999744e+01,2.322261876053317940e-03
5.515999999999999659e+01,1.854409653490884892e-03
5.520000000000000284e+01,1.230495066832373472e-03
5.524000000000000199e+01,1.868890157988922730e-03
5.528000000000000114e+01,1.386729895286098252e-03
5.532000000000000028e+01,1.457693288263916132e-03
5.535999999999999943e+01,1.585350121616900488e-03
5.539999999999999858e+01,2.294498050555106392e-03
5.543999999999999773e+01,2.549725483667642043e-03
5.547999999999999687e+01,1.911337087344333304e-03
5.552000000000000313e+01,1.896990946463105463e-03
5.556000000000000227e+01,2.081175447837622233e-03
5.560000000000000142e+01,1.939092935314743523e-03
5.564000000000000057e+01,1.839520139442434032e-03
5.567999999999999972e+01,2.108682629497174183e-03
5.571999999999999886e+01,2.150864147206687973e-03
5.575999999999999801e+01,1.937697251251791018e-03
5.579999999999999716e+01,2.164184241928452952e-03
5.584000000000000341e+01,2.050220495454667478e-03
5.588000000000000256e+01,2.503564118483799818e-03
5.592000000000000171e+01,1.510126810360915180e-03
5.596000000000000085e+01,2.544920074452036544e-03
5.600000000000000000e+01,1.735788234580906827e-03
5.603999999999999915e+01,1.550698644021850266e-03
5.607999999999999829e+01,1.805262936793584081e-03
5.611999999999999744e+01,2.357643908186290906e-03
5.615999999999999659e+01,2.200797407636740331e-03
5.620000000000000284e+01,2.355951305188919501e-03
5.624000000000000199e+01,2.199021901722903599e-03
5.628000000000000114e+01,1.800927798886292532e-03
5.632000000000000028e+01,2.069427103332459762e-03
5.635999999999999943e+01,2.082577987041131940e-03
5.639999999999999858e+01,2.436096707341484438e-03
5.643999999999999773e+01,1.867632146041399389e-03
5.647999999999999687e+01,2.277802839462129362e-03
5.652000000000000313e+01,1.950378615849086145e-03
5.656000000000000227e+01,1.708015259312691990e-03
5.660000000000000142e+01,2.089694145486823990e-03
5.664000000000000057e+01,2.031636242112929824e-03
5.667999999999999972e+01,2.186292688215507856e-03
5.671999999999999886e+01,1.773558860012539647e-03
5.675999999999999801e+01,2.268541681110479435e-03
5.679999999999999716e+01,2.167766786112140451e-03
5.684000000000000341e+01,2.364808561247075652e-03
5.688000000000000256e+01,2.193032146123890472e-03
5.692000000000000171e+01,1.723356142390170941e-03
5.696000000000000085e+01,2.742929322976556811e-03
5.700000000000000000e+01,1.918577387812217972e-03
5.703999999999999915e+01,1.902656055681216764e-03
5.707999999999999829e+01,2.071081627463642466e-03
5.711999999999999744e+01,2.069261092092281908e-03
5.715999999999999659e+01,1.783724685704987352e-03
5.720000000000000284e+01,2.108046794531298531e-03
5.724000000000000199e+01,1.680590257412309168e-03
5.728000000000000114e+01,1.763706191597066856e-03
5.732000000000000028e+01,2.144638790256623521e-03
5.735999999999999943e+01,2.029099709185144991e-03
5.739999999999999858e+01,1.913519162745031454e-03
5.743999999999999773e+01,2.336878526570155667e-03
5.747999999999999687e+01,2.703461542388255288e-03
5.752000000000000313e+01,2.403368231503244870e-03
5.756000000000000227e+01,1.550068356834193636e-03
5.760000000000000142e+01,2.242752540635927286e-03
5.764000000000000057e+01,2.041820869538701639e-03
5.767999999999999972e+01,2.209624460791560600e-03
5.771999999999999886e+01,2.079528454003103533e-03
5.775999999999999801e+01,1.949390977602154240e-03
5.779999999999999716e+01,1.649007386031259119e-03
5.784000000000000341e+01,2.383993914844145367e-03
5.788000000000000256e+01,1.842404134485514699e-03
5.792000000000000171e+01,1.981591462971924681e-03
5.796000000000000085e+01,1.907981513130742324e-03
5.800000000000000000e+01,1.522288241523645381e-03
5.803999999999999915e+01,2.285434851333251541e-03
5.807999999999999829e+01,2.325170246142892628e-03
5.811999999999999744e+01,2.223026962857919606e-03
5.815999999999999659e+01,2.361965452450117894e-03
5.820000000000000284e+01,2.486678746819071840e-03
5.824000000000000199e+01,2.256757555321390295e-03
5.828000000000000114e+01,2.083529769776515297e-03
5.832000000000000028e+01,1.853525626322299327e-03
5.835999999999999943e+01,2.375217188645318330e-03
5.839999999999999858e+01,1.776353360328906950e-03
5.843999999999999773e+01,2.269594527018497197e-03
5.847999999999999687e+01,1.940138431025943341e-03
5.852000000000000313e+01,2.149622232567065770e-03
5.856000000000000227e+01,1.635694813449750954e-03
5.860000000000000142e+01,1.887646817704272768e-03
5.864000000000000057e+01,1.501289922900232200e-03
5.867999999999999972e+01,2.433977547054187035e-03
5.871999999999999886e+01,2.770907432477988722e-03
5.875999999999999801e+01,2.611365621666882075e-03
5.879999999999999716e+01,2.012086995844634355e-03
5.884000000000000341e+01,2.292157553955596633e-03
5.888000000000000256e+01,1.933919210178769877e-03
5.892000000000000171e+01,2.001150995829614233e-03
5.896000000000000085e+01,2.621506394251037642e-03
5.900000000000000000e+01,2.234776158350557877e-03
5.903999999999999915e+01,2.188413727920170485e-03
5.907999999999999829e+01,2.666807467998092308e-03
5.911999999999999744e+01,1.811890002591476975e-03
5.915999999999999659e+01,1.949791480736369096e-03
5.920000000000000284e+01,1.889079386359781947e-03
5.924000000000000199e+01,2.580062987386580638e-03
5.928000000000000114e+01,2.249777230366863286e-03
5.932000000000000028e+01,2.160573232549683337e-03
5.935999999999999943e+01,2.312450993463499582e-03
5.939999999999999858e+01,2.123877975259880809e-03
5.943999999999999773e+01,2.318223919082441561e-03
5.947999999999999687e+01,2.313956287082753228e-03
5.952000000000000313e+01,2.281279723875196536e-03
5.956000000000000227e+01,1.823050057121084443e-03
5.960000000000000142e+01,1.946311436440570147e-03
5.964000000000000057e+01,2.069531323985229158e-03
5.967999999999999972e+01,1.979953912926108416e-03
5.971999999999999886e+01,2.273295460592401722e-03
5.975999999999999801e+01,2.070165300235305480e-03
5.979999999999999716e+01,2.150668054693758314e-03
5.984000000000000341e+01,2.146026992476718527e-03
5.988000000000000256e+01,2.198079317350921935e-03
5.992000000000000171e+01,2.037334340792114167e-03
5.996000000000000085e+01,2.486447846910708366e-03
