2.003999999999999915e+01,5.166373018767476261e-02
2.007999999999999829e+01,6.707888922518577546e-02
2.012000000000000099e+01,6.414120693565325548e-02
2.016000000000000014e+01,5.808581479293933869e-02
2.019999999999999929e+01,5.539064098998172647e-02
2.023999999999999844e+01,5.809503123485486309e-02
2.028000000000000114e+01,5.612220066885719588e-02
2.032000000000000028e+01,5.331092033176337147e-02
2.035999999999999943e+01,5.337999957456825151e-02
2.039999999999999858e+01,3.773537363519216536e-02
2.044000000000000128e+01,6.683773065755574394e-02
2.048000000000000043e+01,5.527434522913587944e-02
2.051999999999999957e+01,5.666808923339503035e-02
2.055999999999999872e+01,5.110531933167389296e-02
2.060000000000000142e+01,5.106204815590502377e-02
2.064000000000000057e+01,5.353923048540484841e-02
2.067999999999999972e+01,4.750038795123203567e-02
2.071999999999999886e+01,4.902038384871802018e-02
2.076000000000000156e+01,6.337752948299725519e-02
2.080000000000000071e+01,4.438657167259711656e-02
2.083999999999999986e+01,5.142854336241840796e-02
2.087999999999999901e+01,5.427309597872435887e-02
2.092000000000000171e+01,4.380313817305296620e-02
2.096000000000000085e+01,4.940928069531266148e-02
2.100000000000000000e+01,4.613948927808533135e-02
2.103999999999999915e+01,4.563004473184387871e-02
2.107999999999999829e+01,4.680128885638414060e-02
2.112000000000000099e+01,3.861674328276469559e-02
2.116000000000000014e+01,3.571173104095758805e-02
2.119999999999999929e+01,4.192502317073753398e-02
2.123999999999999844e+01,4.130171206318421911e-02
2.128000000000000114e+01,4.607788697267030387e-02
2.132000000000000028e+01,5.301457930095239413e-02
2.135999999999999943e+01,5.047550223518900564e-02
2.139999999999999858e+01,5.285605542779228672e-02
2.144000000000000128e+01,4.132225073912263597e-02
2.148000000000000043e+01,4.958331971516744680e-02
2.151999999999999957e+01,4.177071440953132597e-02
2.155999999999999872e+01,3.911765073508459423e-02
2.160000000000000142e+01,4.834198026232141426e-02
2.164000000000000057e+01,4.713082587698300824e-02
2.167999999999999972e+01,4.963966385392161451e-02
2.171999999999999886e+01,4.819094311003479375e-02
2.176000000000000156e+01,4.434416259827787116e-02
2.180000000000000071e+01,4.553694402182473927e-02
2.183999999999999986e+01,4.169250252197361645e-02
2.187999999999999901e+01,4.060834486823821504e-02
2.192000000000000171e+01,3.748600050823554936e-02
2.196000000000000085e+01,4.768056260461742135e-02
2.200000000000000000e+01,3.652310009878822344e-02
2.203999999999999915e+01,4.803954977181269792e-02
2.207999999999999829e+01,4.396212990169604679e-02
2.212000000000000099e+01,4.684363497788845282e-02
2.216000000000000014e+01,3.713030672807035582e-02
2.219999999999999929e+01,3.917436497339154416e-02
2.223999999999999844e+01,4.949691773804851952e-02
2.228000000000000114e+01,2.275244366202838070e-02
2.232000000000000028e+01,3.019818287944891003e-02
2.235999999999999943e+01,4.484275241363270409e-02
2.239999999999999858e+01,2.985791080794461191e-02
2.244000000000000128e+01,4.282526567558599118e-02
2.248000000000000043e+01,3.995879761068345942e-02
2.251999999999999957e+01,4.860976865388592916e-02
2.255999999999999872e+01,3.518890294561746040e-02
2.260000000000000142e+01,4.264248206792307927e-02
2.264000000000000057e+01,4.457893148802506006e-02
2.267999999999999972e+01,4.627656251105786295e-02
2.271999999999999886e+01,3.633901170173985812e-02
2.276000000000000156e+01,3.851869043732104175e-02
2.280000000000000071e+01,3.398161057816178471e-02
2.283999999999999986e+01,4.168171595031300303e-02
2.287999999999999901e+01,4.386467361315488783e-02
2.292000000000000171e+01,3.057366039676561245e-02
2.296000000000000085e+01,3.827702668907177058e-02
2.300000000000000000e+01,3.638453884999678922e-02
2.303999999999999915e+01,4.229063875145192691e-02
2.307999999999999829e+01,4.387919282547599054e-02
2.312000000000000099e+01,3.839107922894541280e-02
2.316000000000000014e+01,3.710269370599298538e-02
2.319999999999999929e+01,3.161671504083663625e-02
2.323999999999999844e+01,4.232662732488688684e-02
2.328000000000000114e+01,5.051840410728421216e-02
2.332000000000000028e+01,4.167667804446783392e-02
2.335999999999999943e+01,3.475539296248884857e-02
2.339999999999999858e+01,4.103094460548008249e-02
2.344000000000000128e+01,4.418854029818142237e-02
2.348000000000000043e+01,4.974641472328701630e-02
2.351999999999999957e+01,4.882739990989498624e-02
2.355999999999999872e+01,4.994877276019878132e-02
2.360000000000000142e+01,3.931493606331758206e-02
2.364000000000000057e+01,4.019845444138140517e-02
2.367999999999999972e+01,3.640449690790981824e-02
2.371999999999999886e+01,4.688700728895395936e-02
2.376000000000000156e+01,3.265843372983919662e-02
2.380000000000000071e+01,3.630517274627062529e-02
2.383999999999999986e+01,3.203545824937051312e-02
2.387999999999999901e+01,4.684066721344759543e-02
2.392000000000000171e+01,4.293286467162723413e-02
2.396000000000000085e+01,3.770649249582069124e-02
2.400000000000000000e+01,3.020185417460388710e-02
2.403999999999999915e+01,3.877308509012805660e-02
2.407999999999999829e+01,3.810826590863524571e-02
2.412000000000000099e+01,2.652792998602141600e-02
2.416000000000000014e+01,3.282287962829527617e-02
2.419999999999999929e+01,2.400364741978062641e-02
2.423999999999999844e+01,2.586199344698684316e-02
2.428000000000000114e+01,2.772132440731230399e-02
2.432000000000000028e+01,2.286378272789429261e-02
2.435999999999999943e+01,2.232584077530589198e-02
2.439999999999999858e+01,2.682726568104255166e-02
2.444000000000000128e+01,2.197265179032368079e-02
2.448000000000000043e+01,3.079464034771911204e-02
2.451999999999999957e+01,2.582200162143150415e-02
2.455999999999999872e+01,3.152691712139038538e-02
2.460000000000000142e+01,3.015505390697599888e-02
2.464000000000000057e+01,1.762771155848504370e-02
2.467999999999999972e+01,2.693435148922494402e-02
2.471999999999999886e+01,2.544539134985958004e-02
2.476000000000000156e+01,2.695642234890125236e-02
2.480000000000000071e+01,2.235035313788789543e-02
2.483999999999999986e+01,2.686231519069144646e-02
2.487999999999999901e+01,3.197502560274978478e-02
2.492000000000000171e+01,3.360978395435960941e-02
2.496000000000000085e+01,2.864758333605738408e-02
2.500000000000000000e+01,2.344639025199724003e-02
2.503999999999999915e+01,3.959930568138957802e-02
2.507999999999999829e+01,2.744218746814242743e-02
2.512000000000000099e+01,2.068426715824306372e-02
2.516000000000000014e+01,2.004531188318715851e-02
2.519999999999999929e+01,2.684489721836990153e-02
2.523999999999999844e+01,3.148608506020949410e-02
2.528000000000000114e+01,2.557155419292383297e-02
2.532000000000000028e+01,1.665888800846659912e-02
2.535999999999999943e+01,2.418187708800871236e-02
2.539999999999999858e+01,3.326526902164958499e-02
2.544000000000000128e+01,3.755109130286662933e-02
2.548000000000000043e+01,3.452014546609599027e-02
2.551999999999999957e+01,2.813116423989255391e-02
2.555999999999999872e+01,2.462215243963037509e-02
2.560000000000000142e+01,2.567257070704483460e-02
2.564000000000000057e+01,2.732368031121253787e-02
2.567999999999999972e+01,2.069831328123143688e-02
2.571999999999999886e+01,2.151144784609340666e-02
2.576000000000000156e+01,1.968629914709656495e-02
2.580000000000000071e+01,2.457987590789438223e-02
2.583999999999999986e+01,2.431596793808545737e-02
2.587999999999999901e+01,2.237346121110469002e-02
2.592000000000000171e+01,2.283105014428674778e-02
2.596000000000000085e+01,3.276647137446555419e-02
2.600000000000000000e+01,2.566818868008347715e-02
2.603999999999999915e+01,2.288937966279095890e-02
2.607999999999999829e+01,2.095115234678437965e-02
2.612000000000000099e+01,2.225273750647912413e-02
2.616000000000000014e+01,1.995631588023235453e-02
2.619999999999999929e+01,1.910027539561867313e-02
2.623999999999999844e+01,1.980457474023374770e-02
2.628000000000000114e+01,1.679089660657466510e-02
2.632000000000000028e+01,2.805349131045243097e-02
2.635999999999999943e+01,1.652419401767225154e-02
2.639999999999999858e+01,2.682874995319853989e-02
2.644000000000000128e+01,1.722048842041755054e-02
2.648000000000000043e+01,2.188848772043637883e-02
2.651999999999999957e+01,2.475787855555476591e-02
2.655999999999999872e+01,1.563191437829097863e-02
2.660000000000000142e+01,2.702020984683261087e-02
2.664000000000000057e+01,1.909548128504533204e-02
2.667999999999999972e+01,2.076849268771760806e-02
2.671999999999999886e+01,1.836360853274863342e-02
2.676000000000000156e+01,2.327718625305114780e-02
2.680000000000000071e+01,1.235661691290674061e-02
2.683999999999999986e+01,3.046756911483994995e-02
2.687999999999999901e+01,2.842574745787863899e-02
2.692000000000000171e+01,2.770429123245330902e-02
2.696000000000000085e+01,2.506423184032040979e-02
2.700000000000000000e+01,3.346142866853244607e-02
2.703999999999999915e+01,2.782388576089131829e-02
2.707999999999999829e+01,2.050765406054974593e-02
2.712000000000000099e+01,2.038989553604115407e-02
2.716000000000000014e+01,2.219229287986257057e-02
2.719999999999999929e+01,3.455208468298762853e-02
2.723999999999999844e+01,3.551627889749747746e-02
2.728000000000000114e+01,3.312230567046574314e-02
2.732000000000000028e+01,3.516767177140635997e-02
2.735999999999999943e+01,2.701704816797854264e-02
2.739999999999999858e+01,4.261958978372969165e-02
2.744000000000000128e+01,3.051172913086816485e-02
2.748000000000000043e+01,3.795836858751801962e-02
2.751999999999999957e+01,4.168693752918072037e-02
2.755999999999999872e+01,4.205731802101191769e-02
2.760000000000000142e+01,4.134877914864671516e-02
2.764000000000000057e+01,4.579932572745933073e-02
2.767999999999999972e+01,5.768822684308483328e-02
2.771999999999999886e+01,5.386287355980474284e-02
2.776000000000000156e+01,6.167452791826799618e-02
2.780000000000000071e+01,7.368556221293212638e-02
2.783999999999999986e+01,7.849961300851565627e-02
2.787999999999999901e+01,9.363108386570993813e-02
2.792000000000000171e+01,1.036049139307146649e-01
2.796000000000000085e+01,1.085410618911252650e-01
2.800000000000000000e+01,1.229548890881340673e-01
2.803999999999999915e+01,1.385690359947388262e-01
2.807999999999999829e+01,1.607817756048537938e-01
2.812000000000000099e+01,1.862341776314555830e-01
2.816000000000000014e+01,2.256028293747772140e-01
2.819999999999999929e+01,2.469779186181624009e-01
2.823999999999999844e+01,2.597164540852643921e-01
2.828000000000000114e+01,2.794134523162952743e-01
2.832000000000000028e+01,2.616830854614815571e-01
2.835999999999999943e+01,2.608679955369655468e-01
2.839999999999999858e+01,2.258645001212957470e-01
2.844000000000000128e+01,2.068165821233152180e-01
2.848000000000000043e+01,1.942472651282221019e-01
2.851999999999999957e+01,1.668033655319975106e-01
2.855999999999999872e+01,1.325223134817150317e-01
2.860000000000000142e+01,1.163561372424242041e-01
2.864000000000000057e+01,1.004305421847251495e-01
2.867999999999999972e+01,8.498544868499369187e-02
2.871999999999999886e+01,7.793832520152341181e-02
2.876000000000000156e+01,6.873254012049259676e-02
2.880000000000000071e+01,6.240648136947588714e-02
2.883999999999999986e+01,5.656091217168949387e-02
2.887999999999999901e+01,5.035609770448933042e-02
2.892000000000000171e+01,4.355211158913120661e-02
2.896000000000000085e+01,4.346661384000899409e-02
2.900000000000000000e+01,4.362167026181999752e-02
2.903999999999999915e+01,3.705949990414164619e-02
2.907999999999999829e+01,3.433672837842718234e-02
2.912000000000000099e+01,3.113473188741318343e-02
2.916000000000000014e+01,3.129228147087452505e-02
2.919999999999999929e+01,2.929113644374826270e-02
2.923999999999999844e+01,2.789041264678938925e-02
2.928000000000000114e+01,2.661026032369379762e-02
2.932000000000000028e+01,2.005240047817850174e-02
2.935999999999999943e+01,1.889342041047655310e-02
2.939999999999999858e+01,2.169377685404413544e-02
2.944000000000000128e+01,1.849664663895926597e-02
2.948000000000000043e+01,1.230106898353700538e-02
2.951999999999999957e+01,1.678267340750964898e-02
2.955999999999999872e+01,2.318425362875510196e-02
2.960000000000000142e+01,1.219197475251389794e-02
2.964000000000000057e+01,1.367629428381420507e-02
2.967999999999999972e+01,9.283070838136477793e-03
2.971999999999999886e+01,8.129389761574007736e-03
2.976000000000000156e+01,1.789279613486065637e-02
2.980000000000000071e+01,9.782481649619293243e-03
2.983999999999999986e+01,1.306909536697836369e-02
2.987999999999999901e+01,1.671615891799632658e-02
2.992000000000000171e+01,2.432251996488797932e-02
2.996000000000000085e+01,1.585457348021405630e-02
3.000000000000000000e+01,1.302538213196486293e-02
3.003999999999999915e+01,0.000000000000000000e+00
3.007999999999999829e+01,9.647926808847014785e-03
3.012000000000000099e+01,1.701712829108785463e-02
3.016000000000000014e+01,1.455001505240015140e-02
3.019999999999999929e+01,1.184351919399715715e-02
3.023999999999999844e+01,1.489572215369307402e-02
3.028000000000000114e+01,1.806842155764511182e-02
3.032000000000000028e+01,2.520038844562795186e-02
3.035999999999999943e+01,1.289909050436311225e-02
3.039999999999999858e+01,1.439391252471811967e-02
3.044000000000000128e+01,1.768868262751169609e-02
3.048000000000000043e+01,1.882466208182037581e-02
3.051999999999999957e+01,1.336326540160109010e-02
3.055999999999999872e+01,1.030161624416733694e-02
3.060000000000000142e+01,1.011955836345463343e-02
3.064000000000000057e+01,1.449655240119828055e-02
3.067999999999999972e+01,1.419554532015635667e-02
3.071999999999999886e+01,2.193247312982136293e-02
3.076000000000000156e+01,1.599426715983445768e-02
3.080000000000000071e+01,1.977345372110541830e-02
3.083999999999999986e+01,2.103393755689311403e-02
3.087999999999999901e+01,2.373445139575228527e-02
3.092000000000000171e+01,2.895464743551831935e-02
3.096000000000000085e+01,2.349873690921018554e-02
3.100000000000000000e+01,1.744349867316112232e-02
3.103999999999999915e+01,2.686379602270284883e-02
3.107999999999999829e+01,4.036326552255398159e-02
3.112000000000000099e+01,3.251002615017643121e-02
3.116000000000000014e+01,3.821292633935729349e-02
3.119999999999999929e+01,4.475602407823543044e-02
3.123999999999999844e+01,3.642433513545044466e-02
3.128000000000000114e+01,4.056912155165131456e-02
3.132000000000000028e+01,4.819325366715591918e-02
3.135999999999999943e+01,5.377849079690137646e-02
3.139999999999999858e+01,6.020391047042268629e-02
3.144000000000000128e+01,5.907219147193763092e-02
3.148000000000000043e+01,8.145340819427415724e-02
3.151999999999999957e+01,7.828322692524029847e-02
3.155999999999999872e+01,9.670658835418000088e-02
3.160000000000000142e+01,1.060132971522364936e-01
3.164000000000000057e+01,1.101620860479646524e-01
3.167999999999999972e+01,1.197095806528174211e-01
3.171999999999999886e+01,1.362152799197503261e-01
3.176000000000000156e+01,1.498423223676213500e-01
3.180000000000000071e+01,1.399572945250914247e-01
3.183999999999999986e+01,1.465074357547063444e-01
3.187999999999999901e+01,1.493391793402467083e-01
3.192000000000000171e+01,1.420945527751899529e-01
3.196000000000000085e+01,1.259731699461514032e-01
3.200000000000000000e+01,1.338445305776586602e-01
3.203999999999999915e+01,1.213228068199384002e-01
3.207999999999999829e+01,9.992431779468356756e-02
3.211999999999999744e+01,8.932277746062486368e-02
3.215999999999999659e+01,8.076097953564026488e-02
3.220000000000000284e+01,7.363911257464569871e-02
3.224000000000000199e+01,6.699748006621689123e-02
3.228000000000000114e+01,5.795699847845051100e-02
3.232000000000000028e+01,5.515490640231995173e-02
3.235999999999999943e+01,6.027066447956060113e-02
3.239999999999999858e+01,5.423036119297290625e-02
3.243999999999999773e+01,5.070962606228909125e-02
3.247999999999999687e+01,5.522669377020365117e-02
3.252000000000000313e+01,4.774795928927720590e-02
3.256000000000000227e+01,4.470817098118132216e-02
3.260000000000000142e+01,4.046912647207315944e-02
3.264000000000000057e+01,3.599051627100824380e-02
3.267999999999999972e+01,3.199210750948207338e-02
3.271999999999999886e+01,2.787408874241046122e-02
3.275999999999999801e+01,4.007120833146508160e-02
3.279999999999999716e+01,2.779648909027174208e-02
3.284000000000000341e+01,3.123709375893623033e-02
3.288000000000000256e+01,2.927976211099946394e-02
3.292000000000000171e+01,2.600318856379616600e-02
3.296000000000000085e+01,2.488625909076120843e-02
3.300000000000000000e+01,2.688866420094998544e-02
3.303999999999999915e+01,3.704879182193704379e-02
3.307999999999999829e+01,2.825529728826475448e-02
3.311999999999999744e+01,2.606001730888252849e-02
3.315999999999999659e+01,2.170574560166827274e-02
3.320000000000000284e+01,2.442952920149533969e-02
3.324000000000000199e+01,2.607397027014152560e-02
3.328000000000000114e+01,3.107764829128137687e-02
3.332000000000000028e+01,2.696454463061376955e-02
3.335999999999999943e+01,3.448802844588927385e-02
3.339999999999999858e+01,3.301468626576865156e-02
3.343999999999999773e+01,3.334106707926499241e-02
3.347999999999999687e+01,3.270804904325468748e-02
3.352000000000000313e+01,3.255516942191306190e-02
3.356000000000000227e+01,3.552158236721521256e-02
3.360000000000000142e+01,3.716870239311794583e-02
3.364000000000000057e+01,3.893606676379657988e-02
3.367999999999999972e+01,4.022386403416698675e-02
3.371999999999999886e+01,4.223170809084462324e-02
3.375999999999999801e+01,4.304020891216561034e-02
3.379999999999999716e+01,5.620503432908238728e-02
3.384000000000000341e+01,4.177893897668053663e-02
3.388000000000000256e+01,5.170533109550282114e-02
3.392000000000000171e+01,5.827305757619191673e-02
3.396000000000000085e+01,5.572395435612490650e-02
3.400000000000000000e+01,6.085265486331339901e-02
3.403999999999999915e+01,7.257950089755332845e-02
3.407999999999999829e+01,7.818855044698350132e-02
3.411999999999999744e+01,8.523738690355787961e-02
3.415999999999999659e+01,7.501198381641684121e-02
3.420000000000000284e+01,8.398069157348682368e-02
3.424000000000000199e+01,9.390933047902828845e-02
3.428000000000000114e+01,8.896295461290082418e-02
3.432000000000000028e+01,8.533638895921608070e-02
3.435999999999999943e+01,1.124202442678824548e-01
3.439999999999999858e+01,9.127972632049535795e-02
3.443999999999999773e+01,9.377188369507256926e-02
3.447999999999999687e+01,1.035819237163538992e-01
3.452000000000000313e+01,1.049948621529789294e-01
3.456000000000000227e+01,9.429188365158437668e-02
3.460000000000000142e+01,9.438566776796014635e-02
3.464000000000000057e+01,8.776180493904636726e-02
3.467999999999999972e+01,8.713623117433556831e-02
3.471999999999999886e+01,8.567112721218518578e-02
3.475999999999999801e+01,8.324652836263092548e-02
3.479999999999999716e+01,7.470407900694985004e-02
3.484000000000000341e+01,8.259657363459194102e-02
3.488000000000000256e+01,7.417446820744122427e-02
3.492000000000000171e+01,6.899151499544844968e-02
3.496000000000000085e+01,5.337207847651272846e-02
3.500000000000000000e+01,5.610696095664262362e-02
3.503999999999999915e+01,6.184106327081764776e-02
3.507999999999999829e+01,7.357342463735280780e-02
3.511999999999999744e+01,6.119365817129127083e-02
3.515999999999999659e+01,5.481214475522127455e-02
3.520000000000000284e+01,5.778780867379772895e-02
3.524000000000000199e+01,5.836440142539919829e-02
3.528000000000000114e+01,5.774153689664115324e-02
3.532000000000000028e+01,6.155741145899794320e-02
3.535999999999999943e+01,6.081489545278738473e-02
3.539999999999999858e+01,5.371456054512577932e-02
3.543999999999999773e+01,6.040996744986370376e-02
3.547999999999999687e+01,6.566597869076075400e-02
3.552000000000000313e+01,6.300466007251420697e-02
3.556000000000000227e+01,6.994041515581547741e-02
3.560000000000000142e+01,7.687630583708254806e-02
3.564000000000000057e+01,7.697451285467298010e-02
3.567999999999999972e+01,7.431373062592136480e-02
3.571999999999999886e+01,8.053023996130051487e-02
3.575999999999999801e+01,1.088198236254229317e-01
3.579999999999999716e+01,9.284366472178078034e-02
3.584000000000000341e+01,1.098570878234905457e-01
3.588000000000000256e+01,1.135548780602995134e-01
3.592000000000000171e+01,1.230109409470386272e-01
3.596000000000000085e+01,1.269488747372064241e-01
3.600000000000000000e+01,1.380846154402953774e-01
3.603999999999999915e+01,1.519795775702623697e-01
3.607999999999999829e+01,1.537585087172068099e-01
3.611999999999999744e+01,1.828888014885545754e-01
3.615999999999999659e+01,1.749510260082773883e-01
3.620000000000000284e+01,1.978434951246541285e-01
3.624000000000000199e+01,1.960239439313743171e-01
3.628000000000000114e+01,2.018820253978455270e-01
3.632000000000000028e+01,1.957440195629684410e-01
3.635999999999999943e+01,1.868469734616164390e-01
3.639999999999999858e+01,1.961841796291000362e-01
3.643999999999999773e+01,1.688131816030086496e-01
3.647999999999999687e+01,1.710727902774814013e-01
3.652000000000000313e+01,1.636155687315038187e-01
3.656000000000000227e+01,1.508800964487505558e-01
3.660000000000000142e+01,1.440228074845744943e-01
3.664000000000000057e+01,1.296079896944346832e-01
3.667999999999999972e+01,1.304283609453412152e-01
3.671999999999999886e+01,1.192526148830565652e-01
3.675999999999999801e+01,1.054377602312341344e-01
3.679999999999999716e+01,9.330241478476850037e-02
3.684000000000000341e+01,9.424293597657262822e-02
3.688000000000000256e+01,7.562974145731021780e-02
3.692000000000000171e+01,8.748685244704464126e-02
3.696000000000000085e+01,7.607142937116496972e-02
3.700000000000000000e+01,7.425297195419867935e-02
3.703999999999999915e+01,7.483377586816337967e-02
3.707999999999999829e+01,7.445491082603551691e-02
3.711999999999999744e+01,7.755495631148975888e-02
3.715999999999999659e+01,5.030471308739024178e-02
3.720000000000000284e+01,6.060249400201568604e-02
3.724000000000000199e+01,5.854423352171431172e-02
3.728000000000000114e+01,6.092456507449766495e-02
3.732000000000000028e+01,5.862639731190370102e-02
3.735999999999999943e+01,5.057007203372836796e-02
3.739999999999999858e+01,4.707229147386483847e-02
3.743999999999999773e+01,5.041232471794829945e-02
3.747999999999999687e+01,4.859399988679735660e-02
3.752000000000000313e+01,4.689562828554645624e-02
3.756000000000000227e+01,4.891605757641045993e-02
3.760000000000000142e+01,4.829731525286660998e-02
3.764000000000000057e+01,4.575916844641042536e-02
3.767999999999999972e+01,4.526034988559670541e-02
3.771999999999999886e+01,4.920009034484049137e-02
3.775999999999999801e+01,4.690179652154016776e-02
3.779999999999999716e+01,4.616297518520955101e-02
3.784000000000000341e+01,4.158534733956562729e-02
3.788000000000000256e+01,4.672458081556079418e-02
3.792000000000000171e+01,4.370638098379520109e-02
3.796000000000000085e+01,4.308737345572192373e-02
3.800000000000000000e+01,5.098560135793513137e-02
3.803999999999999915e+01,4.616784277519588725e-02
3.807999999999999829e+01,4.758804153355513517e-02
3.811999999999999744e+01,4.780856992747039430e-02
3.815999999999999659e+01,5.402712628255566807e-02
3.820000000000000284e+01,4.441068023967207484e-02
3.824000000000000199e+01,5.194869321212711860e-02
3.828000000000000114e+01,6.188587447880019438e-02
3.832000000000000028e+01,5.622796772151146538e-02
3.835999999999999943e+01,4.481182841903418729e-02
3.839999999999999858e+01,6.002710954077606492e-02
3.843999999999999773e+01,5.089009035406545645e-02
3.847999999999999687e+01,7.030387260968488927e-02
3.852000000000000313e+01,5.900737904914490212e-02
3.856000000000000227e+01,6.066666138717029949e-02
3.860000000000000142e+01,6.184600747922007480e-02
3.864000000000000057e+01,6.098591236997045334e-02
3.867999999999999972e+01,6.072553021139638629e-02
3.871999999999999886e+01,7.078175479349119170e-02
3.875999999999999801e+01,6.344343300689751775e-02
3.879999999999999716e+01,6.822113729030371276e-02
3.884000000000000341e+01,7.359854251964829952e-02
3.888000000000000256e+01,6.062169886651182227e-02
3.892000000000000171e+01,6.923784569343997830e-02
3.896000000000000085e+01,7.593448899837429433e-02
3.900000000000000000e+01,6.967515041237330731e-02
3.903999999999999915e+01,7.793105366486587082e-02
3.907999999999999829e+01,8.054863203963268103e-02
3.911999999999999744e+01,7.884746111206915320e-02
3.915999999999999659e+01,8.290431973850850844e-02
3.920000000000000284e+01,8.156276786122917954e-02
3.924000000000000199e+01,9.449651943896200668e-02
3.928000000000000114e+01,9.411438305112959646e-02
3.932000000000000028e+01,8.989332911016528760e-02
3.935999999999999943e+01,9.874795273286060548e-02
3.939999999999999858e+01,1.088020437288141351e-01
3.943999999999999773e+01,1.127379360812634790e-01
3.947999999999999687e+01,1.189529450036222319e-01
3.952000000000000313e+01,1.248079103415468544e-01
3.956000000000000227e+01,1.401396875738104564e-01
3.960000000000000142e+01,1.389165872339753194e-01
3.964000000000000057e+01,1.534083006026691898e-01
3.967999999999999972e+01,1.603422570553934001e-01
3.971999999999999886e+01,1.846704848571975865e-01
3.975999999999999801e+01,1.994016010314041409e-01
3.979999999999999716e+01,2.126929974138667689e-01
3.984000000000000341e+01,2.408594606774770719e-01
3.988000000000000256e+01,2.768232481830325553e-01
3.992000000000000171e+01,2.901140879792364902e-01
3.996000000000000085e+01,3.435919019856090162e-01
4.000000000000000000e+01,3.885522415562978060e-01
4.003999999999999915e+01,4.545056791299914023e-01
4.007999999999999829e+01,5.193792609699909857e-01
4.011999999999999744e+01,5.987680036165082820e-01
4.015999999999999659e+01,6.830749689659614265e-01
4.020000000000000284e+01,7.700208819303467900e-01
4.024000000000000199e+01,8.538475784470416219e-01
4.028000000000000114e+01,9.367143659129008038e-01
4.032000000000000028e+01,9.898304360195473439e-01
4.035999999999999943e+01,1.000000000000000000e+00
4.039999999999999858e+01,9.731011776032935101e-01
4.043999999999999773e+01,9.321666100739977034e-01
4.047999999999999687e+01,8.547634586090736564e-01
4.052000000000000313e+01,7.515683105087547222e-01
4.056000000000000227e+01,6.662472174877654973e-01
4.060000000000000142e+01,5.781667660747668025e-01
4.064000000000000057e+01,4.821686006510359501e-01
4.067999999999999972e+01,4.124417995176797858e-01
4.071999999999999886e+01,3.399556309887613592e-01
4.075999999999999801e+01,3.042974493604865271e-01
4.079999999999999716e+01,2.676793196659805196e-01
4.084000000000000341e+01,2.444966415576553531e-01
4.088000000000000256e+01,2.025996794412948110e-01
4.092000000000000171e+01,1.891333740062428326e-01
4.096000000000000085e+01,1.630708246885652912e-01
4.100000000000000000e+01,1.542824889932905286e-01
4.103999999999999915e+01,1.368566391427606943e-01
4.107999999999999829e+01,1.469017404585625797e-01
4.111999999999999744e+01,1.307949150548651240e-01
4.115999999999999659e+01,1.158874249723172989e-01
4.120000000000000284e+01,1.206533672818501796e-01
4.124000000000000199e+01,1.158220869199668851e-01
4.128000000000000114e+01,1.084713205235011968e-01
4.132000000000000028e+01,1.031596092649077756e-01
4.135999999999999943e+01,9.712783130106304730e-02
4.139999999999999858e+01,8.377809074788432342e-02
4.143999999999999773e+01,8.194436974264263096e-02
4.147999999999999687e+01,7.447214378861798101e-02
4.152000000000000313e+01,7.011861316556387835e-02
4.156000000000000227e+01,7.032331513765568975e-02
4.160000000000000142e+01,6.333000120327204885e-02
4.164000000000000057e+01,6.773273012212403799e-02
4.167999999999999972e+01,6.193839491263278263e-02
4.171999999999999886e+01,5.266484714529223732e-02
4.175999999999999801e+01,6.186507286565272323e-02
4.179999999999999716e+01,5.031159684147972627e-02
4.184000000000000341e+01,5.111384217486062559e-02
4.188000000000000256e+01,4.819693956809525948e-02
4.192000000000000171e+01,4.647931525997803931e-02
4.196000000000000085e+01,4.092257532056592373e-02
4.200000000000000000e+01,4.508238758081128256e-02
4.203999999999999915e+01,5.164108602395166281e-02
4.207999999999999829e+01,4.536353317374652167e-02
4.211999999999999744e+01,4.328428583576737765e-02
4.215999999999999659e+01,4.204441372299075330e-02
4.220000000000000284e+01,4.032433525765267285e-02
4.224000000000000199e+01,3.752423899466904994e-02
4.228000000000000114e+01,4.132167001477363849e-02
4.232000000000000028e+01,4.391911554608413787e-02
4.235999999999999943e+01,3.380025046453909165e-02
4.239999999999999858e+01,2.620020624401041623e-02
4.243999999999999773e+01,4.163242866468869902e-02
4.247999999999999687e+01,3.271204765730152675e-02
4.252000000000000313e+01,3.446787334441584610e-02
4.256000000000000227e+01,2.890564940785185499e-02
4.260000000000000142e+01,3.653882162780010268e-02
4.264000000000000057e+01,3.613416808902168015e-02
4.267999999999999972e+01,3.177038320885123418e-02
4.271999999999999886e+01,3.928240690506054622e-02
4.275999999999999801e+01,3.131897113463209814e-02
4.279999999999999716e+01,3.523133793821484755e-02
4.284000000000000341e+01,3.002620877812973640e-02
4.288000000000000256e+01,2.662009433216975737e-02
4.292000000000000171e+01,2.789207212986982709e-02
4.296000000000000085e+01,3.420202423638566552e-02
4.300000000000000000e+01,3.259408526229616576e-02
4.303999999999999915e+01,2.750683469127594358e-02
4.307999999999999829e+01,2.409862213967942784e-02
4.311999999999999744e+01,2.524852513704164275e-02
4.315999999999999659e+01,1.944021855930109025e-02
4.320000000000000284e+01,3.402496444710673834e-02
4.324000000000000199e+01,2.293747130776576174e-02
4.328000000000000114e+01,2.744455708040361222e-02
4.332000000000000028e+01,3.279093104389958074e-02
4.335999999999999943e+01,2.638061287517266817e-02
4.339999999999999858e+01,2.608789120125399458e-02
4.343999999999999773e+01,2.831391235756028357e-02
4.347999999999999687e+01,2.070261939857025515e-02
4.352000000000000313e+01,2.376745810447453838e-02
4.356000000000000227e+01,2.671187348389151076e-02
4.360000000000000142e+01,3.157521124489639369e-02
4.364000000000000057e+01,3.199949888096646766e-02
4.367999999999999972e+01,2.414595934995843185e-02
4.371999999999999886e+01,2.264991568184434451e-02
4.375999999999999801e+01,2.979063696225933700e-02
4.379999999999999716e+01,2.733394349546368687e-02
4.384000000000000341e+01,2.535661413779055628e-02
4.388000000000000256e+01,2.481833939829546781e-02
4.392000000000000171e+01,2.919800525041321704e-02
4.396000000000000085e+01,2.446009110570306760e-02
4.400000000000000000e+01,2.404030310633732334e-02
4.403999999999999915e+01,2.577932785309228897e-02
4.407999999999999829e+01,2.727792856918422396e-02
4.411999999999999744e+01,2.901594900854877895e-02
4.415999999999999659e+01,2.247610626662375002e-02
4.420000000000000284e+01,2.997127145529930245e-02
4.424000000000000199e+01,2.906860577153674852e-02
4.428000000000000114e+01,2.420668869901065889e-02
4.432000000000000028e+01,2.066383154285549376e-02
4.435999999999999943e+01,2.311853716430571290e-02
4.439999999999999858e+01,2.125409732709967331e-02
4.443999999999999773e+01,2.226821035685125696e-02
4.447999999999999687e+01,2.496125636457649857e-02
4.452000000000000313e+01,2.933323234909109359e-02
4.456000000000000227e+01,2.902616580387232248e-02
4.460000000000000142e+01,2.679917256967528569e-02
4.464000000000000057e+01,2.217240289019573388e-02
4.467999999999999972e+01,3.158060512710529621e-02
4.471999999999999886e+01,2.863220474762629211e-02
4.475999999999999801e+01,2.976195011343028829e-02
4.479999999999999716e+01,2.417328623313577327e-02
4.484000000000000341e+01,2.626161275915482249e-02
4.488000000000000256e+01,2.762960847570522169e-02
4.492000000000000171e+01,2.239914763138415449e-02
4.496000000000000085e+01,2.184662597032459644e-02
4.500000000000000000e+01,2.657184893524195887e-02
4.503999999999999915e+01,3.357577130545286170e-02
4.507999999999999829e+01,2.378448156375768605e-02
4.511999999999999744e+01,2.143023784252610572e-02
4.515999999999999659e+01,3.095161962543277120e-02
4.520000000000000284e+01,2.439755042556030970e-02
4.524000000000000199e+01,1.808281691580043010e-02
4.528000000000000114e+01,2.520320186076547078e-02
4.532000000000000028e+01,3.328268662615432166e-02
4.535999999999999943e+01,3.116483115424546757e-02
4.539999999999999858e+01,2.628725714821271778e-02
4.543999999999999773e+01,3.100601555120878830e-02
4.547999999999999687e+01,2.420784613677455857e-02
4.552000000000000313e+01,3.000504534849982030e-02
4.556000000000000227e+01,2.404538736286630785e-02
4.560000000000000142e+01,3.020124524590381276e-02
4.564000000000000057e+01,2.759928214871319035e-02
4.567999999999999972e+01,2.907539576956700428e-02
4.571999999999999886e+01,2.443283956098349363e-02
4.575999999999999801e+01,2.530789433343549541e-02
4.579999999999999716e+01,3.529940774913780527e-02
4.584000000000000341e+01,2.849565203043255904e-02
4.588000000000000256e+01,2.792926842188979755e-02
4.592000000000000171e+01,2.700236103942680807e-02
4.596000000000000085e+01,2.823412234623872558e-02
4.600000000000000000e+01,2.382703957044321821e-02
4.603999999999999915e+01,2.901624418591214685e-02
4.607999999999999829e+01,2.772686689494528040e-02
4.611999999999999744e+01,3.039557162021570141e-02
4.615999999999999659e+01,2.322676115084253839e-02
4.620000000000000284e+01,3.081257868553541335e-02
4.624000000000000199e+01,2.700137306907653828e-02
4.628000000000000114e+01,3.074708812751695414e-02
4.632000000000000028e+01,3.461209615531416622e-02
4.635999999999999943e+01,3.463765842154486324e-02
4.639999999999999858e+01,2.578538099626606628e-02
4.643999999999999773e+01,3.192763694550749404e-02
4.647999999999999687e+01,2.991181733355065958e-02
4.652000000000000313e+01,3.761221078742679746e-02
4.656000000000000227e+01,3.079655317239766987e-02
4.660000000000000142e+01,2.769901818183446301e-02
4.664000000000000057e+01,2.963918139113255398e-02
4.667999999999999972e+01,3.145868718156892563e-02
4.671999999999999886e+01,3.099822215391980981e-02
4.675999999999999801e+01,3.893437360841831008e-02
4.679999999999999716e+01,3.535349820640505680e-02
4.684000000000000341e+01,3.549072742175197331e-02
4.688000000000000256e+01,4.330479398301381039e-02
4.692000000000000171e+01,3.696266753105170028e-02
4.696000000000000085e+01,3.517836851435671847e-02
4.700000000000000000e+01,2.703538025276725279e-02
4.703999999999999915e+01,3.256730177135407772e-02
4.707999999999999829e+01,3.665895728265661235e-02
4.711999999999999744e+01,3.187271908113248342e-02
4.715999999999999659e+01,3.644276086015278693e-02
4.720000000000000284e+01,3.369440487811745794e-02
4.724000000000000199e+01,4.018236118547807018e-02
4.728000000000000114e+01,4.019164555087422624e-02
4.732000000000000028e+01,4.787773424915813675e-02
4.735999999999999943e+01,4.488648589581010345e-02
4.739999999999999858e+01,4.573326183202213596e-02
4.743999999999999773e+01,3.830192848983306891e-02
4.747999999999999687e+01,4.814432257819217797e-02
4.752000000000000313e+01,4.562990396726261666e-02
4.756000000000000227e+01,4.443430217677666466e-02
4.760000000000000142e+01,4.239820380751053303e-02
4.764000000000000057e+01,5.355712344553645310e-02
4.767999999999999972e+01,4.192255145567918423e-02
4.771999999999999886e+01,4.060391094002611251e-02
4.775999999999999801e+01,4.072403392767515173e-02
4.779999999999999716e+01,4.564184470328125354e-02
4.784000000000000341e+01,3.856270383646420025e-02
4.788000000000000256e+01,3.604132137767566274e-02
4.792000000000000171e+01,4.347597032083001106e-02
4.796000000000000085e+01,3.987335212824818370e-02
4.800000000000000000e+01,3.902905800844238410e-02
4.803999999999999915e+01,3.974346807242871982e-02
4.807999999999999829e+01,3.829776696684376869e-02
4.811999999999999744e+01,3.733110884366263454e-02
4.815999999999999659e+01,3.360452510464179837e-02
4.820000000000000284e+01,4.007387513683376840e-02
4.824000000000000199e+01,3.778520911181893621e-02
4.828000000000000114e+01,3.825484615129021160e-02
4.832000000000000028e+01,4.040312805504350097e-02
4.835999999999999943e+01,3.223388294389755576e-02
4.839999999999999858e+01,3.701967543998228166e-02
4.843999999999999773e+01,3.460693882707841645e-02
4.847999999999999687e+01,3.867130262491826065e-02
4.852000000000000313e+01,2.881927673972263862e-02
4.856000000000000227e+01,3.528120374285964589e-02
4.860000000000000142e+01,3.898317211712982316e-02
4.864000000000000057e+01,3.752594508574944726e-02
4.867999999999999972e+01,3.870702941823232074e-02
4.871999999999999886e+01,3.676826105195554750e-02
4.875999999999999801e+01,3.746779804717343537e-02
4.879999999999999716e+01,2.796973670324489486e-02
4.884000000000000341e+01,3.646507088227859267e-02
4.888000000000000256e+01,3.080406499005827400e-02
4.892000000000000171e+01,3.269978169457422174e-02
4.896000000000000085e+01,3.195547444834471312e-02
4.900000000000000000e+01,3.240991429114449540e-02
4.903999999999999915e+01,3.310340471154950281e-02
4.907999999999999829e+01,3.919429532591417464e-02
4.911999999999999744e+01,3.268832981605872268e-02
4.915999999999999659e+01,3.589837929387326015e-02
4.920000000000000284e+01,3.934746734455590172e-02
4.924000000000000199e+01,3.859700848206346763e-02
4.928000000000000114e+01,3.568634841447112377e-02
4.932000000000000028e+01,3.805310884495275575e-02
4.935999999999999943e+01,3.514065815968669959e-02
4.939999999999999858e+01,3.654592845988629407e-02
4.943999999999999773e+01,3.711056412682851857e-02
4.947999999999999687e+01,3.275586474081008947e-02
4.952000000000000313e+01,4.303558257178185381e-02
4.956000000000000227e+01,3.316082487236824555e-02
4.960000000000000142e+01,4.379860113779476122e-02
4.964000000000000057e+01,4.579821799334441584e-02
4.967999999999999972e+01,5.127580300460991836e-02
4.971999999999999886e+01,5.063441806800938333e-02
4.975999999999999801e+01,5.539038230523558870e-02
4.979999999999999716e+01,6.566365440388424735e-02
4.984000000000000341e+01,7.065767937257379228e-02
4.988000000000000256e+01,6.629375679160093293e-02
4.992000000000000171e+01,7.344521750749616329e-02
4.996000000000000085e+01,7.315811169183997209e-02
5.000000000000000000e+01,7.826833704290478422e-02
5.003999999999999915e+01,7.078163724251090860e-02
5.007999999999999829e+01,6.893218598402939268e-02
5.011999999999999744e+01,5.844453930145961790e-02
5.015999999999999659e+01,5.227455658185399534e-02
5.020000000000000284e+01,4.718326922696904763e-02
5.024000000000000199e+01,5.240772427167823821e-02
5.028000000000000114e+01,4.659473811196254006e-02
5.032000000000000028e+01,4.449959546657402537e-02
5.035999999999999943e+01,4.264340435970926518e-02
5.039999999999999858e+01,3.238892019802613181e-02
5.043999999999999773e+01,3.496935889439502926e-02
5.047999999999999687e+01,3.275034919697607239e-02
5.052000000000000313e+01,3.724821022746210852e-02
5.056000000000000227e+01,3.634680841789186129e-02
5.060000000000000142e+01,3.568434013973967311e-02
5.064000000000000057e+01,3.466099394792134664e-02
5.067999999999999972e+01,3.015776293297339414e-02
5.071999999999999886e+01,3.117177075220931362e-02
5.075999999999999801e+01,3.602355076152519847e-02
5.079999999999999716e+01,3.247700770417983468e-02
5.084000000000000341e+01,3.288819252332585846e-02
5.088000000000000256e+01,3.485786844217955704e-02
5.092000000000000171e+01,3.382748828591778528e-02
5.096000000000000085e+01,3.135655100749588226e-02
5.100000000000000000e+01,3.536252506520758815e-02
5.103999999999999915e+01,3.156996649305215258e-02
5.107999999999999829e+01,3.197504116784231909e-02
5.111999999999999744e+01,3.573801426693398731e-02
5.115999999999999659e+01,3.410167950820509886e-02
5.120000000000000284e+01,3.726277743676875698e-02
5.124000000000000199e+01,3.034605564272442602e-02
5.128000000000000114e+01,2.798683715604417810e-02
5.132000000000000028e+01,3.258435275114308916e-02
5.135999999999999943e+01,3.454166432443930151e-02
5.139999999999999858e+01,3.649792602790784962e-02
5.143999999999999773e+01,2.957596989064664728e-02
5.147999999999999687e+01,3.272973973870670766e-02
5.152000000000000313e+01,2.808494094268821142e-02
5.156000000000000227e+01,2.439877378234464947e-02
5.160000000000000142e+01,2.958870671596977586e-02
5.164000000000000057e+01,2.985914253268273644e-02
5.167999999999999972e+01,2.616977174153902602e-02
5.171999999999999886e+01,3.183633879593100041e-02
5.175999999999999801e+01,3.390297830643765331e-02
5.179999999999999716e+01,2.937064505237543116e-02
5.184000000000000341e+01,3.095527504323683163e-02
5.188000000000000256e+01,2.786031328764030854e-02
5.192000000000000171e+01,3.184200228483860529e-02
5.196000000000000085e+01,2.874485975761098891e-02
5.200000000000000000e+01,3.644317433298870090e-02
5.203999999999999915e+01,3.094460525379345850e-02
5.207999999999999829e+01,2.928370932559671777e-02
5.211999999999999744e+01,2.870136470527485592e-02
5.215999999999999659e+01,3.327626581016260299e-02
5.220000000000000284e+01,3.221185764887833647e-02
5.224000000000000199e+01,2.850717943973704246e-02
5.228000000000000114e+01,3.067950808493231929e-02
5.232000000000000028e+01,2.757240352674261014e-02
5.235999999999999943e+01,2.710333422346170723e-02
5.239999999999999858e+01,3.179149263828465882e-02
5.243999999999999773e+01,2.796124324911060041e-02
5.247999999999999687e+01,3.408668312687062468e-02
5.252000000000000313e+01,2.761501177974612017e-02
5.256000000000000227e+01,3.001936849816737654e-02
5.260000000000000142e+01,2.882373464783326289e-02
5.264000000000000057e+01,2.378818384999952656e-02
5.267999999999999972e+01,2.594918847123914990e-02
5.271999999999999886e+01,3.014839289282912269e-02
5.275999999999999801e+01,3.098751811848647966e-02
5.279999999999999716e+01,2.462778710606793389e-02
5.284000000000000341e+01,3.254233914600382360e-02
5.288000000000000256e+01,2.881944646063631932e-02
5.292000000000000171e+01,2.905412559017722315e-02
5.296000000000000085e+01,2.424924687494452516e-02
5.300000000000000000e+01,3.251902231952941841e-02
5.303999999999999915e+01,2.915134103407375499e-02
5.307999999999999829e+01,2.566252214027040651e-02
5.311999999999999744e+01,2.985007240763311309e-02
5.315999999999999659e+01,2.971781995698059842e-02
5.320000000000000284e+01,2.718514880760808730e-02
5.324000000000000199e+01,3.616761185680780061e-02
5.328000000000000114e+01,3.531202550056083272e-02
5.332000000000000028e+01,3.661455561567986822e-02
5.335999999999999943e+01,2.639956668006401830e-02
5.339999999999999858e+01,2.841947007096309180e-02
5.343999999999999773e+01,3.103797897553568774e-02
5.347999999999999687e+01,3.065623972919841872e-02
5.352000000000000313e+01,3.051321492782621547e-02
5.356000000000000227e+01,3.144863339169456928e-02
5.360000000000000142e+01,3.214291354303949050e-02
5.364000000000000057e+01,3.067666536019721807e-02
5.367999999999999972e+01,3.040881312782259260e-02
5.371999999999999886e+01,2.870019669157199832e-02
5.375999999999999801e+01,2.962951046878014097e-02
5.379999999999999716e+01,3.427640665728242525e-02
5.384000000000000341e+01,2.860536466863810093e-02
5.388000000000000256e+01,2.881120948695883172e-02
5.392000000000000171e+01,3.021543224864149668e-02
5.396000000000000085e+01,2.825948577886294721e-02
5.400000000000000000e+01,2.894145151543738026e-02
5.403999999999999915e+01,3.118167125816080978e-02
5.407999999999999829e+01,2.874213418929048858e-02
5.411999999999999744e+01,2.894050032322031257e-02
5.415999999999999659e+01,2.709826079634712614e-02
5.420000000000000284e+01,3.569142824060359681e-02
5.424000000000000199e+01,2.844838981199192957e-02
5.428000000000000114e+01,2.756205493362232431e-02
5.432000000000000028e+01,3.051322513993111676e-02
5.435999999999999943e+01,3.214354481219532794e-02
5.439999999999999858e+01,3.401251290337023447e-02
5.443999999999999773e+01,3.372089263667218950e-02
5.447999999999999687e+01,2.838960048019759444e-02
5.452000000000000313e+01,3.193418933123873260e-02
5.456000000000000227e+01,2.851971326965521691e-02
5.460000000000000142e+01,2.906268297324007127e-02
5.464000000000000057e+01,2.840474282327027852e-02
5.467999999999999972e+01,2.666585150734153073e-02
5.471999999999999886e+01,3.140359241740767193e-02
5.475999999999999801e+01,1.994520337287004896e-02
5.479999999999999716e+01,3.199800035871443876e-02
5.484000000000000341e+01,3.061378022952580477e-02
5.488000000000000256e+01,2.910828743869656177e-02
5.492000000000000171e+01,3.335964173526091703e-02
5.496000000000000085e+01,3.664998554635625488e-02
5.500000000000000000e+01,3.430081000837948563e-02
5.503999999999999915e+01,2.919119265086558834e-02
5.507999999999999829e+01,2.863879348820844509e-02
5.511999999999999744e+01,3.324341796312364067e-02
5.515999999999999659e+01,2.872962210961040735e-02
5.520000000000000284e+01,3.069242246788063053e-02
5.524000000000000199e+01,3.769227577139034474e-02
5.528000000000000114e+01,3.281458090097943980e-02
5.532000000000000028e+01,2.553630826908132728e-02
5.535999999999999943e+01,3.001293415054816921e-02
5.539999999999999858e+01,3.124924444669941251e-02
5.543999999999999773e+01,3.452355046266946531e-02
5.547999999999999687e+01,3.263814787047582960e-02
5.552000000000000313e+01,3.267077330695243587e-02
5.556000000000000227e+01,3.270203675043550223e-02
5.560000000000000142e+01,4.280871705725822901e-02
5.564000000000000057e+01,3.707908644976276591e-02
5.567999999999999972e+01,3.266766342230055520e-02
5.571999999999999886e+01,3.173375537172679756e-02
5.575999999999999801e+01,3.559693787343682497e-02
5.579999999999999716e+01,3.478023451262874516e-02
5.584000000000000341e+01,3.552165010467671358e-02
5.588000000000000256e+01,3.446225436255729441e-02
5.592000000000000171e+01,3.460108650458543905e-02
5.596000000000000085e+01,4.193622796857534446e-02
5.600000000000000000e+01,4.291200492120612886e-02
5.603999999999999915e+01,3.968772475933295824e-02
5.607999999999999829e+01,3.910120074222986353e-02
5.611999999999999744e+01,4.643074417503120083e-02
5.615999999999999659e+01,4.764083446929618521e-02
5.620000000000000284e+01,4.297139200140052961e-02
5.624000000000000199e+01,4.717770149009618830e-02
5.628000000000000114e+01,4.742385923474211340e-02
5.632000000000000028e+01,4.694882783121319403e-02
5.635999999999999943e+01,4.383321725784564832e-02
5.639999999999999858e+01,6.146955382554934733e-02
5.643999999999999773e+01,5.883093697039021297e-02
5.647999999999999687e+01,5.751046767157858008e-02
5.652000000000000313e+01,6.626534620886800897e-02
5.656000000000000227e+01,6.650150782017881512e-02
5.660000000000000142e+01,6.733603785160442723e-02
5.664000000000000057e+01,6.972862681220036440e-02
5.667999999999999972e+01,7.691823729784150188e-02
5.671999999999999886e+01,7.103057467912803069e-02
5.675999999999999801e+01,6.838042562895155219e-02
5.679999999999999716e+01,7.040732741148743312e-02
5.684000000000000341e+01,6.547499321389434190e-02
5.688000000000000256e+01,5.898169603008657225e-02
5.692000000000000171e+01,5.692551729787839743e-02
5.696000000000000085e+01,5.894656894974555084e-02
5.700000000000000000e+01,5.760722328014566268e-02
5.703999999999999915e+01,5.086812857863495102e-02
5.707999999999999829e+01,5.252487605372565399e-02
5.711999999999999744e+01,4.734232822917729816e-02
5.715999999999999659e+01,4.623699578278290395e-02
5.720000000000000284e+01,4.513017829483913224e-02
5.724000000000000199e+01,4.294221756514203514e-02
5.728000000000000114e+01,3.883337877104749841e-02
5.732000000000000028e+01,4.348024921278856314e-02
5.735999999999999943e+01,4.032811283754510895e-02
5.739999999999999858e+01,4.113321214456986535e-02
5.743999999999999773e+01,4.409611880097907138e-02
5.747999999999999687e+01,4.645771096364905567e-02
5.752000000000000313e+01,4.605867523335607089e-02
5.756000000000000227e+01,4.169939172111616910e-02
5.760000000000000142e+01,4.405644772716239138e-02
5.764000000000000057e+01,4.773156425521180718e-02
5.767999999999999972e+01,3.628998694122417129e-02
5.771999999999999886e+01,4.835937657116560345e-02
5.775999999999999801e+01,4.651168324450113967e-02
5.779999999999999716e+01,4.538222999120287288e-02
5.784000000000000341e+01,4.497101381008646731e-02
5.788000000000000256e+01,4.671757196532731748e-02
5.792000000000000171e+01,4.066508128700358632e-02
5.796000000000000085e+01,4.444790702458661230e-02
5.800000000000000000e+01,5.254780849301348561e-02
5.803999999999999915e+01,5.488800083358240378e-02
5.807999999999999829e+01,5.122855766754918355e-02
5.811999999999999744e+01,5.596487864732591772e-02
5.815999999999999659e+01,5.902017891421083157e-02
5.820000000000000284e+01,5.835510675776014317e-02
5.824000000000000199e+01,6.296678583528733664e-02
5.828000000000000114e+01,6.133889102273099025e-02
5.832000000000000028e+01,6.558754988568379907e-02
5.835999999999999943e+01,5.903808468254561487e-02
5.839999999999999858e+01,6.568283016812619113e-02
5.843999999999999773e+01,6.860718522326544888e-02
5.847999999999999687e+01,6.649156827019946092e-02
5.852000000000000313e+01,6.605383087942216791e-02
5.856000000000000227e+01,6.237554080977059101e-02
5.860000000000000142e+01,6.661313211659768141e-02
5.864000000000000057e+01,7.228867060460071603e-02
5.867999999999999972e+01,5.469004538392157472e-02
5.871999999999999886e+01,6.084223545512424530e-02
5.875999999999999801e+01,5.943523704545227576e-02
5.879999999999999716e+01,6.174544589903851327e-02
5.884000000000000341e+01,5.757611546840128020e-02
5.888000000000000256e+01,5.328521225769464881e-02
5.892000000000000171e+01,4.983242677597413822e-02
5.896000000000000085e+01,4.601813913425571029e-02
5.900000000000000000e+01,4.808035414791352741e-02
5.903999999999999915e+01,4.930121424408501901e-02
5.907999999999999829e+01,4.068358976308812658e-02
5.911999999999999744e+01,3.854226737781449308e-02
5.915999999999999659e+01,3.771889146954111177e-02
5.920000000000000284e+01,3.437468499612461592e-02
5.924000000000000199e+01,3.390792095147945884e-02
5.928000000000000114e+01,3.152012878322247441e-02
5.932000000000000028e+01,3.680824059256698755e-02
5.935999999999999943e+01,3.105822992865342816e-02
5.939999999999999858e+01,3.310407892875275732e-02
5.943999999999999773e+01,3.322888780050312768e-02
5.947999999999999687e+01,3.023303665492058437e-02
5.952000000000000313e+01,3.035453030737922386e-02
5.956000000000000227e+01,2.543597091965683898e-02
5.960000000000000142e+01,2.663379254710637398e-02
5.964000000000000057e+01,2.315144019834617511e-02
5.967999999999999972e+01,1.870772322437109364e-02
5.971999999999999886e+01,2.649842438979346446e-02
5.975999999999999801e+01,2.181143280475526108e-02
5.979999999999999716e+01,2.204119034116779410e-02
5.984000000000000341e+01,2.406869008956755498e-02
5.988000000000000256e+01,1.853691732393259947e-02
5.992000000000000171e+01,1.792188467619558467e-02
5.996000000000000085e+01,1.430611768569412835e-02
