2.003999999999999915e+01,2.566378496875552917e-02
2.007999999999999829e+01,1.369022519912775973e-02
2.012000000000000099e+01,3.081188990054100837e-02
2.016000000000000014e+01,4.079048249236323642e-02
2.019999999999999929e+01,2.972816038638873004e-02
2.023999999999999844e+01,2.918730714177416793e-02
2.028000000000000114e+01,3.838860257283727151e-02
2.032000000000000028e+01,2.784784084084510405e-02
2.035999999999999943e+01,2.406183744853419154e-02
2.039999999999999858e+01,3.066740846453750238e-02
2.044000000000000128e+01,3.051955229012143569e-02
2.048000000000000043e+01,4.336099368612793964e-02
2.051999999999999957e+01,3.944775409298241498e-02
2.055999999999999872e+01,3.891221735279012245e-02
2.060000000000000142e+01,3.331176801502717943e-02
2.064000000000000057e+01,4.070060815506234414e-02
2.067999999999999972e+01,3.497157730510979529e-02
2.071999999999999886e+01,2.911330948411769426e-02
2.076000000000000156e+01,2.845114344619258800e-02
2.080000000000000071e+01,2.843905455344171787e-02
2.083999999999999986e+01,2.518044997007775135e-02
2.087999999999999901e+01,3.348237276094329778e-02
2.092000000000000171e+01,1.827550358920075266e-02
2.096000000000000085e+01,3.333279364600540140e-02
2.100000000000000000e+01,4.202628726946724957e-02
2.103999999999999915e+01,3.695245989243064327e-02
2.107999999999999829e+01,3.278846821931722527e-02
2.112000000000000099e+01,3.537919644591765167e-02
2.116000000000000014e+01,4.199702898023389280e-02
2.119999999999999929e+01,3.718548690900578407e-02
2.123999999999999844e+01,3.159524976360256893e-02
2.128000000000000114e+01,1.340665672255325971e-02
2.132000000000000028e+01,2.509254562038240252e-02
2.135999999999999943e+01,2.807666538888436286e-02
2.139999999999999858e+01,3.352924100111251415e-02
2.144000000000000128e+01,2.794208895012243940e-02
2.148000000000000043e+01,3.781202473865032804e-02
2.151999999999999957e+01,2.261450189217519002e-02
2.155999999999999872e+01,4.521451683132487326e-02
2.160000000000000142e+01,2.482275135105532424e-02
2.164000000000000057e+01,2.586283819704700976e-02
2.167999999999999972e+01,2.378625322656701194e-02
2.171999999999999886e+01,3.677708487540477106e-02
2.176000000000000156e+01,2.521999119198649331e-02
2.180000000000000071e+01,3.093837820873146863e-02
2.183999999999999986e+01,3.522860800185354663e-02
2.187999999999999901e+01,1.536056547451407350e-02
2.192000000000000171e+01,2.004163376144767889e-02
2.196000000000000085e+01,2.186578879065831718e-02
2.200000000000000000e+01,2.472961935162112240e-02
2.203999999999999915e+01,2.967221430454815290e-02
2.207999999999999829e+01,2.967970816354706734e-02
2.212000000000000099e+01,2.514175798672478937e-02
2.216000000000000014e+01,2.683892966587155329e-02
2.219999999999999929e+01,1.372963078962241741e-02
2.223999999999999844e+01,2.659817650702850714e-02
2.228000000000000114e+01,2.310161129767382068e-02
2.232000000000000028e+01,2.661947801418964449e-02
2.235999999999999943e+01,1.662972968689549816e-02
2.239999999999999858e+01,3.638452231284186600e-02
2.244000000000000128e+01,2.353840086677251933e-02
2.248000000000000043e+01,2.809761208763253415e-02
2.251999999999999957e+01,2.317567734510997401e-02
2.255999999999999872e+01,2.695668507499450819e-02
2.260000000000000142e+01,1.684040654086869232e-02
2.264000000000000057e+01,1.412820282862720794e-02
2.267999999999999972e+01,2.687302626121853069e-02
2.271999999999999886e+01,3.754021615864575057e-02
2.276000000000000156e+01,3.223192993270120738e-02
2.280000000000000071e+01,2.900236965875364545e-02
2.283999999999999986e+01,3.382630589301469787e-02
2.287999999999999901e+01,3.072771428054014639e-02
2.292000000000000171e+01,2.295375180869974399e-02
2.296000000000000085e+01,2.803907511117814319e-02
2.300000000000000000e+01,2.195470548692618831e-02
2.303999999999999915e+01,2.522268585931250820e-02
2.307999999999999829e+01,3.355676431128634674e-02
2.312000000000000099e+01,3.591659818390320613e-02
2.316000000000000014e+01,3.918616255632203366e-02
2.319999999999999929e+01,2.648022855065111300e-02
2.323999999999999844e+01,2.676345251762674363e-02
2.328000000000000114e+01,3.484037801725096278e-02
2.332000000000000028e+01,5.343861659520953572e-02
2.335999999999999943e+01,6.047748495676919661e-02
2.339999999999999858e+01,7.310198065435120907e-02
2.344000000000000128e+01,7.182914760164314794e-02
2.348000000000000043e+01,6.562114264454071977e-02
2.351999999999999957e+01,6.162171358304507213e-02
2.355999999999999872e+01,7.204017627357799103e-02
2.360000000000000142e+01,5.193584798730271207e-02
2.364000000000000057e+01,4.417122564000702106e-02
2.367999999999999972e+01,2.692539865779958186e-02
2.371999999999999886e+01,3.124120515815330401e-02
2.376000000000000156e+01,2.854364382528272459e-02
2.380000000000000071e+01,3.363975772403050152e-02
2.383999999999999986e+01,2.211090907208457246e-02
2.387999999999999901e+01,1.266073174691877655e-02
2.392000000000000171e+01,1.334217807148147666e-02
2.396000000000000085e+01,2.883115499777414228e-02
2.400000000000000000e+01,2.652618403695893370e-02
2.403999999999999915e+01,1.837680832461567257e-02
2.407999999999999829e+01,2.230734357569192153e-02
2.412000000000000099e+01,3.000506070008470902e-02
2.416000000000000014e+01,3.809291230369087761e-02
2.419999999999999929e+01,2.474998781261919870e-02
2.423999999999999844e+01,2.010992082139521561e-02
2.428000000000000114e+01,2.040600485465250344e-02
2.432000000000000028e+01,1.966346530986694263e-02
2.435999999999999943e+01,2.022025465146115933e-02
2.439999999999999858e+01,2.818102979606798911e-02
2.444000000000000128e+01,2.458238009905898760e-02
2.448000000000000043e+01,4.267521180506488043e-02
2.451999999999999957e+01,5.401440995872121981e-02
2.455999999999999872e+01,5.704133621181934483e-02
2.460000000000000142e+01,6.123769285193905038e-02
2.464000000000000057e+01,6.283677340371413012e-02
2.467999999999999972e+01,6.664437117956674428e-02
2.471999999999999886e+01,5.109934832644788538e-02
2.476000000000000156e+01,4.594567935762002703e-02
2.480000000000000071e+01,3.533722627855973714e-02
2.483999999999999986e+01,4.382250918568783571e-02
2.487999999999999901e+01,2.373323178132577885e-02
2.492000000000000171e+01,2.676416348989200250e-02
2.496000000000000085e+01,2.213223486844345320e-02
2.500000000000000000e+01,2.568357986519113206e-02
2.503999999999999915e+01,9.492628966454710882e-03
2.507999999999999829e+01,1.785062905265335370e-02
2.512000000000000099e+01,1.672735167031797268e-02
2.516000000000000014e+01,2.586552158029068599e-02
2.519999999999999929e+01,2.188559188362771205e-02
2.523999999999999844e+01,1.465892394917225373e-02
2.528000000000000114e+01,2.210983349187175748e-02
2.532000000000000028e+01,2.020934181067730179e-02
2.535999999999999943e+01,1.285403769506407445e-02
2.539999999999999858e+01,1.822800958082163025e-02
2.544000000000000128e+01,1.658852866079553803e-02
2.548000000000000043e+01,1.481957001414479190e-02
2.551999999999999957e+01,3.097533571623797832e-02
2.555999999999999872e+01,2.128412028202790116e-02
2.560000000000000142e+01,2.042557992077652373e-02
2.564000000000000057e+01,2.489278087795959715e-02
2.567999999999999972e+01,2.169708508831664356e-02
2.571999999999999886e+01,2.122939936237481021e-02
2.576000000000000156e+01,1.699540365592604185e-02
2.580000000000000071e+01,1.315145947928728770e-02
2.583999999999999986e+01,1.203551929688123807e-02
2.587999999999999901e+01,3.646331333131451729e-03
2.592000000000000171e+01,1.279218840530075771e-02
2.596000000000000085e+01,2.375683887928698584e-02
2.600000000000000000e+01,1.368028129783045548e-02
2.603999999999999915e+01,4.123649467667964315e-03
2.607999999999999829e+01,1.625841811427327852e-02
2.612000000000000099e+01,1.462560881954565878e-02
2.616000000000000014e+01,2.234499171527440375e-02
2.619999999999999929e+01,1.824508802967359997e-02
2.623999999999999844e+01,1.219725913158611549e-02
2.628000000000000114e+01,2.173616165469659592e-02
2.632000000000000028e+01,2.179372601458760828e-02
2.635999999999999943e+01,1.055154114220849086e-02
2.639999999999999858e+01,8.012104519243536116e-03
2.644000000000000128e+01,5.602914334747719632e-03
2.648000000000000043e+01,1.098726383040638140e-02
2.651999999999999957e+01,2.676287819148420039e-02
2.655999999999999872e+01,1.214543822261779198e-02
2.660000000000000142e+01,4.022668260226935563e-03
2.664000000000000057e+01,2.291661122768002753e-02
2.667999999999999972e+01,1.453476644582536899e-02
2.671999999999999886e+01,1.810281273866146470e-02
2.676000000000000156e+01,1.257915769482343543e-02
2.680000000000000071e+01,2.407095773578444078e-02
2.683999999999999986e+01,1.698934808302271851e-02
2.687999999999999901e+01,2.588409858537943364e-02
2.692000000000000171e+01,1.243873089549084494e-02
2.696000000000000085e+01,1.146278758304017029e-02
2.700000000000000000e+01,8.668766978556601693e-03
2.703999999999999915e+01,1.405791681130414382e-02
2.707999999999999829e+01,1.100478092423325810e-02
2.712000000000000099e+01,2.509697029713305397e-02
2.716000000000000014e+01,2.269391555779740749e-02
2.719999999999999929e+01,1.756356888770071317e-02
2.723999999999999844e+01,2.789001872263257437e-02
2.728000000000000114e+01,1.327860494849280107e-02
2.732000000000000028e+01,1.087682462254323593e-02
2.735999999999999943e+01,1.185240321299685720e-02
2.739999999999999858e+01,5.814429863014029462e-03
2.744000000000000128e+01,4.322788626911436977e-03
2.748000000000000043e+01,4.649863912690994569e-03
2.751999999999999957e+01,1.861531249551126935e-02
2.755999999999999872e+01,1.959242846590255466e-02
2.760000000000000142e+01,1.628359594891835502e-02
2.764000000000000057e+01,3.012006239087465856e-02
2.767999999999999972e+01,2.044739495682893621e-02
2.771999999999999886e+01,2.389354526235897003e-02
2.776000000000000156e+01,1.954680725652073459e-02
2.780000000000000071e+01,3.637183729005051547e-02
2.783999999999999986e+01,1.929681652127021238e-02
2.787999999999999901e+01,2.001651437459849026e-02
2.792000000000000171e+01,2.645149730772217850e-02
2.796000000000000085e+01,3.483505884527491464e-02
2.800000000000000000e+01,3.204867456157524386e-02
2.803999999999999915e+01,4.523859176146485112e-02
2.807999999999999829e+01,4.998617266263154224e-02
2.812000000000000099e+01,5.668232407560259284e-02
2.816000000000000014e+01,6.883397570858994230e-02
2.819999999999999929e+01,8.384339833001656916e-02
2.823999999999999844e+01,1.040485444043049990e-01
2.828000000000000114e+01,1.260723665373520153e-01
2.832000000000000028e+01,1.630333851085266628e-01
2.835999999999999943e+01,1.897336441729907119e-01
2.839999999999999858e+01,2.191617777496920327e-01
2.844000000000000128e+01,2.458625566777907501e-01
2.848000000000000043e+01,2.365850706663440162e-01
2.851999999999999957e+01,2.344515893519815153e-01
2.855999999999999872e+01,2.021847252707080211e-01
2.860000000000000142e+01,1.771917482006274414e-01
2.864000000000000057e+01,1.477828836806898694e-01
2.867999999999999972e+01,1.188938113837386540e-01
2.871999999999999886e+01,9.792805183061699392e-02
2.876000000000000156e+01,8.878219381080011685e-02
2.880000000000000071e+01,7.223305395881751689e-02
2.883999999999999986e+01,5.919108452688053718e-02
2.887999999999999901e+01,5.550116971077999339e-02
2.892000000000000171e+01,4.596660331809765410e-02
2.896000000000000085e+01,3.266556509241408390e-02
2.900000000000000000e+01,3.728907520088705491e-02
2.903999999999999915e+01,2.567701882962650922e-02
2.907999999999999829e+01,1.666291621652725083e-02
2.912000000000000099e+01,2.622278767022118845e-02
2.916000000000000014e+01,1.500106395997659152e-02
2.919999999999999929e+01,1.066353783231912232e-02
2.923999999999999844e+01,1.541827539125026521e-02
2.928000000000000114e+01,2.432959291761440865e-02
2.932000000000000028e+01,1.388805715204668480e-02
2.935999999999999943e+01,1.072036995770450987e-02
2.939999999999999858e+01,6.254029523642921050e-03
2.944000000000000128e+01,8.022442731126228424e-03
2.948000000000000043e+01,1.070026677973547752e-02
2.951999999999999957e+01,0.000000000000000000e+00
2.955999999999999872e+01,1.423811669297082513e-02
2.960000000000000142e+01,3.278479712969679331e-03
2.964000000000000057e+01,1.089279049873153118e-02
2.967999999999999972e+01,1.045434314078655912e-02
2.971999999999999886e+01,7.158590032820287552e-03
2.976000000000000156e+01,8.019392614412770848e-03
2.980000000000000071e+01,6.542430841355803724e-03
2.983999999999999986e+01,5.065657178071987163e-03
2.987999999999999901e+01,6.186796809825829274e-03
2.992000000000000171e+01,8.138024839882871363e-04
2.996000000000000085e+01,7.650308078033313947e-03
3.000000000000000000e+01,6.304152982701077997e-03
3.003999999999999915e+01,1.625828923799164244e-02
3.007999999999999829e+01,9.327374609382823104e-03
3.012000000000000099e+01,1.227656684664450932e-03
3.016000000000000014e+01,1.378004199141545823e-02
3.019999999999999929e+01,2.823165963325364666e-03
3.023999999999999844e+01,1.368736636418164086e-02
3.028000000000000114e+01,7.926278486199653597e-03
3.032000000000000028e+01,1.112751330916854180e-02
3.035999999999999943e+01,1.043231912824891389e-02
3.039999999999999858e+01,1.571205731228392244e-02
3.044000000000000128e+01,7.873430856224066313e-03
3.048000000000000043e+01,5.545055811226499510e-04
3.051999999999999957e+01,5.574938262138323837e-03
3.055999999999999872e+01,1.059552263611586269e-02
3.060000000000000142e+01,9.901256821373261713e-03
3.064000000000000057e+01,1.570145667433233902e-02
3.067999999999999972e+01,1.305918872341705998e-02
3.071999999999999886e+01,2.548388218167980598e-02
3.076000000000000156e+01,2.839399903442328590e-03
3.080000000000000071e+01,7.730965588490566406e-03
3.083999999999999986e+01,1.379164604819675330e-02
3.087999999999999901e+01,8.552348658984866223e-03
3.092000000000000171e+01,5.521252881486975357e-03
3.096000000000000085e+01,7.296083900967764019e-03
3.100000000000000000e+01,2.452752124879649387e-02
3.103999999999999915e+01,1.747033661297816426e-02
3.107999999999999829e+01,1.651793630888040432e-02
3.112000000000000099e+01,1.426679576934766942e-02
3.116000000000000014e+01,3.071941247606416181e-02
3.119999999999999929e+01,2.716964900040334113e-02
3.123999999999999844e+01,2.037284381352330587e-02
3.128000000000000114e+01,2.396706273647739374e-02
3.132000000000000028e+01,2.899014487705746726e-02
3.135999999999999943e+01,3.596163365379147908e-02
3.139999999999999858e+01,2.617789114289330657e-02
3.144000000000000128e+01,3.678641440162472992e-02
3.148000000000000043e+01,4.518697469356829782e-02
3.151999999999999957e+01,4.397604745156838413e-02
3.155999999999999872e+01,4.770090301962551238e-02
3.160000000000000142e+01,6.973983449795084777e-02
3.164000000000000057e+01,7.801090883939093557e-02
3.167999999999999972e+01,9.953048698836619579e-02
3.171999999999999886e+01,1.131270901730906664e-01
3.176000000000000156e+01,1.278927615998811385e-01
3.180000000000000071e+01,1.522701126729491261e-01
3.183999999999999986e+01,1.678152781893504364e-01
3.187999999999999901e+01,1.905042784577171411e-01
3.192000000000000171e+01,1.839689305370013073e-01
3.196000000000000085e+01,1.639254820149928238e-01
3.200000000000000000e+01,1.625857482529539377e-01
3.203999999999999915e+01,1.418930236243630960e-01
3.207999999999999829e+01,1.356177598155351161e-01
3.211999999999999744e+01,9.985836498100160441e-02
3.215999999999999659e+01,8.994642663697027807e-02
3.220000000000000284e+01,6.756546643607752589e-02
3.224000000000000199e+01,6.921354963348005929e-02
3.228000000000000114e+01,7.229044749276029858e-02
3.232000000000000028e+01,5.419593127750083755e-02
3.235999999999999943e+01,5.701317974096301033e-02
3.239999999999999858e+01,3.904866916483631240e-02
3.243999999999999773e+01,4.108671469817164190e-02
3.247999999999999687e+01,4.260526937128817498e-02
3.252000000000000313e+01,3.879853582545120944e-02
3.256000000000000227e+01,3.525162553560938494e-02
3.260000000000000142e+01,2.897715018892257910e-02
3.264000000000000057e+01,3.322351652518084481e-02
3.267999999999999972e+01,2.642958669133504621e-02
3.271999999999999886e+01,2.561047187938556707e-02
3.275999999999999801e+01,1.427060229270381460e-02
3.279999999999999716e+01,2.890804318644648457e-02
3.284000000000000341e+01,1.315211211472511882e-02
3.288000000000000256e+01,2.623098740637869880e-02
3.292000000000000171e+01,3.151671339951724049e-02
3.296000000000000085e+01,2.316440185203764296e-02
3.300000000000000000e+01,3.741234529825444161e-02
3.303999999999999915e+01,9.166531401143106217e-02
3.307999999999999829e+01,8.227399035241994563e-02
3.311999999999999744e+01,2.170746289848481808e-02
3.315999999999999659e+01,1.452424976540834384e-02
3.320000000000000284e+01,1.552389550351173340e-02
3.324000000000000199e+01,1.964083003321817622e-02
3.328000000000000114e+01,1.986118786863518004e-02
3.332000000000000028e+01,2.345860317018500646e-02
3.335999999999999943e+01,2.614682402081706242e-02
3.339999999999999858e+01,1.727516684284968393e-02
3.343999999999999773e+01,3.386124233312368115e-02
3.347999999999999687e+01,2.109300437080318183e-02
3.352000000000000313e+01,2.144329079041273206e-02
3.356000000000000227e+01,1.763721363279757010e-02
3.360000000000000142e+01,1.629897525627463720e-02
3.364000000000000057e+01,3.483334593410737645e-02
3.367999999999999972e+01,2.765021113535395120e-02
3.371999999999999886e+01,2.475331809411880635e-02
3.375999999999999801e+01,3.081857376240330557e-02
3.379999999999999716e+01,2.428484028715827484e-02
3.384000000000000341e+01,2.372586518543655376e-02
3.388000000000000256e+01,3.134971456123968742e-02
3.392000000000000171e+01,3.105047769920233833e-02
3.396000000000000085e+01,3.308917504943052756e-02
3.400000000000000000e+01,4.214171356392568124e-02
3.403999999999999915e+01,3.625729630837556255e-02
3.407999999999999829e+01,4.660864776067394355e-02
3.411999999999999744e+01,5.631053904292931955e-02
3.415999999999999659e+01,7.094808163009022617e-02
3.420000000000000284e+01,7.298661484215981932e-02
3.424000000000000199e+01,7.463545453555997522e-02
3.428000000000000114e+01,8.979243925218588496e-02
3.432000000000000028e+01,9.118143128046260482e-02
3.435999999999999943e+01,9.984401898544281728e-02
3.439999999999999858e+01,1.031812233831291697e-01
3.443999999999999773e+01,1.097655422381542539e-01
3.447999999999999687e+01,9.725651953494279800e-02
3.452000000000000313e+01,1.141017656873871411e-01
3.456000000000000227e+01,1.089961663060196595e-01
3.460000000000000142e+01,1.041502869996822345e-01
3.464000000000000057e+01,9.657673945553479911e-02
3.467999999999999972e+01,9.173074878810487387e-02
3.471999999999999886e+01,9.208015382223616596e-02
3.475999999999999801e+01,9.957324794108807220e-02
3.479999999999999716e+01,8.134877993498075555e-02
3.484000000000000341e+01,7.468413322159719869e-02
3.488000000000000256e+01,5.684919270409877212e-02
3.492000000000000171e+01,6.693975084606301751e-02
3.496000000000000085e+01,5.092307968918020900e-02
3.500000000000000000e+01,5.841576689113226611e-02
3.503999999999999915e+01,5.343928859213437077e-02
3.507999999999999829e+01,3.794193817534596835e-02
3.511999999999999744e+01,3.958950838729282523e-02
3.515999999999999659e+01,3.669097501450476612e-02
3.520000000000000284e+01,3.483144953193038212e-02
3.524000000000000199e+01,4.518115691262317157e-02
3.528000000000000114e+01,4.955600467448101343e-02
3.532000000000000028e+01,4.522837722550587802e-02
3.535999999999999943e+01,3.765349968022536908e-02
3.539999999999999858e+01,3.761193793042973132e-02
3.543999999999999773e+01,3.536221292138470862e-02
3.547999999999999687e+01,3.869750425519666998e-02
3.552000000000000313e+01,4.047406008555198831e-02
3.556000000000000227e+01,3.913324206424214496e-02
3.560000000000000142e+01,4.428663883926794997e-02
3.564000000000000057e+01,5.619402110831538122e-02
3.567999999999999972e+01,5.277470557665107920e-02
3.571999999999999886e+01,5.260243976132791127e-02
3.575999999999999801e+01,6.074278969561031777e-02
3.579999999999999716e+01,6.732438996434290945e-02
3.584000000000000341e+01,6.286553423363348825e-02
3.588000000000000256e+01,8.737121949000677124e-02
3.592000000000000171e+01,9.083519494820542495e-02
3.596000000000000085e+01,8.351848105833561964e-02
3.600000000000000000e+01,1.130893700717635342e-01
3.603999999999999915e+01,1.139552479527068396e-01
3.607999999999999829e+01,1.331349751504265488e-01
3.611999999999999744e+01,1.475087774868209800e-01
3.615999999999999659e+01,1.690261980974698264e-01
3.620000000000000284e+01,1.898940533339543713e-01
3.624000000000000199e+01,2.108916593356447711e-01
3.628000000000000114e+01,2.186407189560174713e-01
3.632000000000000028e+01,2.335333887580198775e-01
3.635999999999999943e+01,2.520627349871276679e-01
3.639999999999999858e+01,2.339639838896617197e-01
3.643999999999999773e+01,2.311916776108826066e-01
3.647999999999999687e+01,2.201064965310044752e-01
3.652000000000000313e+01,1.933049160828718138e-01
3.656000000000000227e+01,1.770239790483789377e-01
3.660000000000000142e+01,1.736016378919483516e-01
3.664000000000000057e+01,1.504364141247423459e-01
3.667999999999999972e+01,1.305181915181292118e-01
3.671999999999999886e+01,1.261861722889517645e-01
3.675999999999999801e+01,1.083458096797403902e-01
3.679999999999999716e+01,9.725937389302152791e-02
3.684000000000000341e+01,8.383481767616601799e-02
3.688000000000000256e+01,6.885145716854390585e-02
3.692000000000000171e+01,7.205201713099745886e-02
3.696000000000000085e+01,7.291445059384579763e-02
3.700000000000000000e+01,4.948796062277667496e-02
3.703999999999999915e+01,5.801333925694511506e-02
3.707999999999999829e+01,5.744649458014568222e-02
3.711999999999999744e+01,4.181265198985423953e-02
3.715999999999999659e+01,5.098692211217448894e-02
3.720000000000000284e+01,4.756203112269018901e-02
3.724000000000000199e+01,3.257706788161348482e-02
3.728000000000000114e+01,4.214043856283788969e-02
3.732000000000000028e+01,3.222066496047396728e-02
3.735999999999999943e+01,3.762728964420480882e-02
3.739999999999999858e+01,2.952553857740290721e-02
3.743999999999999773e+01,2.207302302280565731e-02
3.747999999999999687e+01,3.540212682251839271e-02
3.752000000000000313e+01,2.652046265402006192e-02
3.756000000000000227e+01,3.465370934130917319e-02
3.760000000000000142e+01,3.226595645196862067e-02
3.764000000000000057e+01,2.805958811105202164e-02
3.767999999999999972e+01,3.060710208319202333e-02
3.771999999999999886e+01,2.211406496754966464e-02
3.775999999999999801e+01,2.141399700201983627e-02
3.779999999999999716e+01,2.435053262997304013e-02
3.784000000000000341e+01,1.845457922783310528e-02
3.788000000000000256e+01,2.281942975433695620e-02
3.792000000000000171e+01,1.744258268148801347e-02
3.796000000000000085e+01,2.297596729307573721e-02
3.800000000000000000e+01,2.578151372173453568e-02
3.803999999999999915e+01,2.832706079230803975e-02
3.807999999999999829e+01,2.476772026269320748e-02
3.811999999999999744e+01,2.419553533920679525e-02
3.815999999999999659e+01,3.037720845090282479e-02
3.820000000000000284e+01,2.227114718641632490e-02
3.824000000000000199e+01,1.987984902743158283e-02
3.828000000000000114e+01,2.658035732173950200e-02
3.832000000000000028e+01,2.743573859776410676e-02
3.835999999999999943e+01,2.790121797003291756e-02
3.839999999999999858e+01,3.317224783223154255e-02
3.843999999999999773e+01,4.363848524246685678e-02
3.847999999999999687e+01,4.059629227695263354e-02
3.852000000000000313e+01,3.573543935042650804e-02
3.856000000000000227e+01,2.983524260225853958e-02
3.860000000000000142e+01,2.536354085729235902e-02
3.864000000000000057e+01,2.556749110289784077e-02
3.867999999999999972e+01,2.668038686370857032e-02
3.871999999999999886e+01,2.974131699993668929e-02
3.875999999999999801e+01,3.189277955916314938e-02
3.879999999999999716e+01,2.599102269507443108e-02
3.884000000000000341e+01,2.580399858914480399e-02
3.888000000000000256e+01,2.509715991800809745e-02
3.892000000000000171e+01,2.542914098356062469e-02
3.896000000000000085e+01,2.550107615843580713e-02
3.900000000000000000e+01,2.206580440895139147e-02
3.903999999999999915e+01,3.109934604373937664e-02
3.907999999999999829e+01,2.935204052427706559e-02
3.911999999999999744e+01,2.435729473182873805e-02
3.915999999999999659e+01,2.390828826850069713e-02
3.920000000000000284e+01,2.410842829850553051e-02
3.924000000000000199e+01,3.184168990100231383e-02
3.928000000000000114e+01,3.710682130041455251e-02
3.932000000000000028e+01,2.951291163990281755e-02
3.935999999999999943e+01,3.412802645757195830e-02
3.939999999999999858e+01,2.380591440226804620e-02
3.943999999999999773e+01,3.166759535820062865e-02
3.947999999999999687e+01,3.550249967021531367e-02
3.952000000000000313e+01,4.349346602168157466e-02
3.956000000000000227e+01,3.719662920965531583e-02
3.960000000000000142e+01,3.596505491371557173e-02
3.964000000000000057e+01,4.278612740039016565e-02
3.967999999999999972e+01,4.025507235010326867e-02
3.971999999999999886e+01,4.889393268622331534e-02
3.975999999999999801e+01,4.311509338264888497e-02
3.979999999999999716e+01,5.526025616106326060e-02
3.984000000000000341e+01,5.753373786820732000e-02
3.988000000000000256e+01,5.954712715208187318e-02
3.992000000000000171e+01,6.493724008132005510e-02
3.996000000000000085e+01,6.837873385550288785e-02
4.000000000000000000e+01,7.805444715799983446e-02
4.003999999999999915e+01,9.617244609281246082e-02
4.007999999999999829e+01,1.032497745736283001e-01
4.011999999999999744e+01,1.244843844989732690e-01
4.015999999999999659e+01,1.364967289699037245e-01
4.020000000000000284e+01,1.657836234891559568e-01
4.024000000000000199e+01,2.024737026415746877e-01
4.028000000000000114e+01,2.507233279374769253e-01
4.032000000000000028e+01,3.085842019473910569e-01
4.035999999999999943e+01,3.796931407399500302e-01
4.039999999999999858e+01,4.819744600301013593e-01
4.043999999999999773e+01,6.012705445087952461e-01
4.047999999999999687e+01,7.283594605629817309e-01
4.052000000000000313e+01,8.563572290671894738e-01
4.056000000000000227e+01,9.440898717447916422e-01
4.060000000000000142e+01,1.000000000000000000e+00
4.064000000000000057e+01,9.868102263688196540e-01
4.067999999999999972e+01,9.508899794984058129e-01
4.071999999999999886e+01,8.649631216771839215e-01
4.075999999999999801e+01,7.660472636019943771e-01
4.079999999999999716e+01,6.623252439562069549e-01
4.084000000000000341e+01,5.553556970417179439e-01
4.088000000000000256e+01,4.647514612589483951e-01
4.092000000000000171e+01,3.855768528887425495e-01
4.096000000000000085e+01,3.519919826986783740e-01
4.100000000000000000e+01,3.261999177830763319e-01
4.103999999999999915e+01,3.148248605002534894e-01
4.107999999999999829e+01,3.237116950460006137e-01
4.111999999999999744e+01,3.254543973483214891e-01
4.115999999999999659e+01,3.466796692703736915e-01
4.120000000000000284e+01,3.288087602391110975e-01
4.124000000000000199e+01,3.006764402448488527e-01
4.128000000000000114e+01,2.839737294547446389e-01
4.132000000000000028e+01,2.389553995568036160e-01
4.135999999999999943e+01,2.219921289506017470e-01
4.139999999999999858e+01,1.798305078403556745e-01
4.143999999999999773e+01,1.555928058626951382e-01
4.147999999999999687e+01,1.477203846694114253e-01
4.152000000000000313e+01,1.185461977152462848e-01
4.156000000000000227e+01,1.050878556970404054e-01
4.160000000000000142e+01,8.760262980763927620e-02
4.164000000000000057e+01,7.245494968451773876e-02
4.167999999999999972e+01,5.600799521273051168e-02
4.171999999999999886e+01,4.943199136533093369e-02
4.175999999999999801e+01,5.155795887537351768e-02
4.179999999999999716e+01,4.666964610875602021e-02
4.184000000000000341e+01,4.671659620105804434e-02
4.188000000000000256e+01,4.143778465586118315e-02
4.192000000000000171e+01,3.589877750642984228e-02
4.196000000000000085e+01,3.594445894855476803e-02
4.200000000000000000e+01,3.365175897339616612e-02
4.203999999999999915e+01,3.473567541632379546e-02
4.207999999999999829e+01,3.867666081249723081e-02
4.211999999999999744e+01,2.742050904023548771e-02
4.215999999999999659e+01,3.668596719216898894e-02
4.220000000000000284e+01,3.452098858156511102e-02
4.224000000000000199e+01,3.313488906484576835e-02
4.228000000000000114e+01,3.200812117717048016e-02
4.232000000000000028e+01,3.230966013917249691e-02
4.235999999999999943e+01,2.871416315043296905e-02
4.239999999999999858e+01,2.784583256926881009e-02
4.243999999999999773e+01,3.230239358094470770e-02
4.247999999999999687e+01,2.740668543472670610e-02
4.252000000000000313e+01,2.679677395166807710e-02
4.256000000000000227e+01,1.995186191450821003e-02
4.260000000000000142e+01,2.609512864240517635e-02
4.264000000000000057e+01,2.977009522209873513e-02
4.267999999999999972e+01,2.240425984264401288e-02
4.271999999999999886e+01,2.088284733562023252e-02
4.275999999999999801e+01,2.507596931745023280e-02
4.279999999999999716e+01,1.822828327066342360e-02
4.284000000000000341e+01,2.164115028115444830e-02
4.288000000000000256e+01,2.557309129418901261e-02
4.292000000000000171e+01,2.015274089461173423e-02
4.296000000000000085e+01,2.421361932031756634e-02
4.300000000000000000e+01,1.593481599741525603e-02
4.303999999999999915e+01,2.233269187032536560e-02
4.307999999999999829e+01,2.639213170073518092e-02
4.311999999999999744e+01,1.538427014422645220e-02
4.315999999999999659e+01,2.320944524753492527e-02
4.320000000000000284e+01,1.609720127803353912e-02
4.324000000000000199e+01,2.015469465719556610e-02
4.328000000000000114e+01,1.745760562376096753e-02
4.332000000000000028e+01,1.112320480467867724e-02
4.335999999999999943e+01,1.725739886900163125e-02
4.339999999999999858e+01,1.481859540536489481e-02
4.343999999999999773e+01,1.276895125966416404e-02
4.347999999999999687e+01,2.046028235905830717e-02
4.352000000000000313e+01,1.230497367744590002e-02
4.356000000000000227e+01,2.194359054072059917e-02
4.360000000000000142e+01,2.586669968951762349e-02
4.364000000000000057e+01,1.550179931289201105e-02
4.367999999999999972e+01,2.124229572621149503e-02
4.371999999999999886e+01,1.217523312611180214e-02
4.375999999999999801e+01,1.947333599048691952e-02
4.379999999999999716e+01,1.728921657239327475e-02
4.384000000000000341e+01,2.004025885541031032e-02
4.388000000000000256e+01,1.941373374943522814e-02
4.392000000000000171e+01,1.463032106878556574e-02
4.396000000000000085e+01,1.673035942609372301e-02
4.400000000000000000e+01,1.610225612704642775e-02
4.403999999999999915e+01,1.404487275269788657e-02
4.407999999999999829e+01,1.055820727989196899e-02
4.411999999999999744e+01,1.772168920462938516e-02
4.415999999999999659e+01,1.085690802375592623e-02
4.420000000000000284e+01,1.399283839200828918e-02
4.424000000000000199e+01,1.673856945254686285e-02
4.428000000000000114e+01,1.584694017168942343e-02
4.432000000000000028e+01,1.183749396796400857e-02
4.435999999999999943e+01,1.185397864137170340e-02
4.439999999999999858e+01,2.070218750433489019e-02
4.443999999999999773e+01,2.201643712064610750e-02
4.447999999999999687e+01,1.125070285241271811e-02
4.452000000000000313e+01,1.581100472531841647e-02
4.456000000000000227e+01,1.933165930315569256e-02
4.460000000000000142e+01,1.687698286676881515e-02
4.464000000000000057e+01,9.875723357633045887e-03
4.467999999999999972e+01,9.238333027959743510e-03
4.471999999999999886e+01,1.379583261080334460e-02
4.475999999999999801e+01,1.393662941185056479e-02
4.479999999999999716e+01,1.537572126647110751e-02
4.484000000000000341e+01,5.514129190667665242e-03
4.488000000000000256e+01,1.877173667286023695e-02
4.492000000000000171e+01,1.722172444694835755e-02
4.496000000000000085e+01,1.761943098409030420e-02
4.500000000000000000e+01,1.710735433186691412e-02
4.503999999999999915e+01,1.568549246712207940e-02
4.507999999999999829e+01,1.400327516880475222e-02
4.511999999999999744e+01,2.725740458302073829e-02
4.515999999999999659e+01,1.869003868745893956e-02
4.520000000000000284e+01,1.116117489306660791e-02
4.524000000000000199e+01,1.337319732489734674e-02
4.528000000000000114e+01,1.766280869495348571e-02
4.532000000000000028e+01,1.156091637965887473e-02
4.535999999999999943e+01,1.948615411501317465e-02
4.539999999999999858e+01,2.182567945428289316e-02
4.543999999999999773e+01,2.728187652252164058e-02
4.547999999999999687e+01,1.870974372099574318e-02
4.552000000000000313e+01,1.624166489181051026e-02
4.556000000000000227e+01,1.844888804717831343e-02
4.560000000000000142e+01,1.260254784268084217e-02
4.564000000000000057e+01,2.182241441010736305e-02
4.567999999999999972e+01,2.402780445472462931e-02
4.571999999999999886e+01,1.778996598874497612e-02
4.575999999999999801e+01,1.804582843743203491e-02
4.579999999999999716e+01,2.115857168584047571e-02
4.584000000000000341e+01,2.167296657313036792e-02
4.588000000000000256e+01,2.426492005130301277e-02
4.592000000000000171e+01,1.503658953215072577e-02
4.596000000000000085e+01,2.477104041230433762e-02
4.600000000000000000e+01,2.216565780713652956e-02
4.603999999999999915e+01,2.189759842106886803e-02
4.607999999999999829e+01,2.110936030168223537e-02
4.611999999999999744e+01,1.759287329866276658e-02
4.615999999999999659e+01,1.368608987643302362e-02
4.620000000000000284e+01,1.705230327667830309e-02
4.624000000000000199e+01,1.639139811961179069e-02
4.628000000000000114e+01,1.585973591555063858e-02
4.632000000000000028e+01,2.338038262702225867e-02
4.635999999999999943e+01,2.102901849276663307e-02
4.639999999999999858e+01,2.958745915699435500e-02
4.643999999999999773e+01,1.840252153718328898e-02
4.647999999999999687e+01,1.267215753185944871e-02
4.652000000000000313e+01,2.356659211407621454e-02
4.656000000000000227e+01,2.614764205983740458e-02
4.660000000000000142e+01,2.158428258977619293e-02
4.664000000000000057e+01,1.637082970178849184e-02
4.667999999999999972e+01,2.349591741482235166e-02
4.671999999999999886e+01,2.529499868845986807e-02
4.675999999999999801e+01,2.098875333701859594e-02
4.679999999999999716e+01,2.187729269397303833e-02
4.684000000000000341e+01,2.276516031932532963e-02
4.688000000000000256e+01,2.456155871286658243e-02
4.692000000000000171e+01,2.648716768891437937e-02
4.696000000000000085e+01,2.776266706178624755e-02
4.700000000000000000e+01,1.799714597464269900e-02
4.703999999999999915e+01,2.823344254495660510e-02
4.707999999999999829e+01,2.911723729441624553e-02
4.711999999999999744e+01,3.181875519607509778e-02
4.715999999999999659e+01,3.425981246004027037e-02
4.720000000000000284e+01,3.423233893599793992e-02
4.724000000000000199e+01,3.108690079868665218e-02
4.728000000000000114e+01,3.235690492937069729e-02
4.732000000000000028e+01,3.544462209647306072e-02
4.735999999999999943e+01,4.073970935810069388e-02
4.739999999999999858e+01,3.668227861362463593e-02
4.743999999999999773e+01,4.093687285715049556e-02
4.747999999999999687e+01,4.129417218594406275e-02
4.752000000000000313e+01,4.619678800421696957e-02
4.756000000000000227e+01,4.992971843028713719e-02
4.760000000000000142e+01,5.275273416184051573e-02
4.764000000000000057e+01,4.661287882961630963e-02
4.767999999999999972e+01,3.917344567529981725e-02
4.771999999999999886e+01,4.485181868247049147e-02
4.775999999999999801e+01,4.715242805449984531e-02
4.779999999999999716e+01,5.010174894128403139e-02
4.784000000000000341e+01,5.188137027377227178e-02
4.788000000000000256e+01,3.898310854501998990e-02
4.792000000000000171e+01,5.037286985818359430e-02
4.796000000000000085e+01,5.331928936400440883e-02
4.800000000000000000e+01,4.886145592269452304e-02
4.803999999999999915e+01,4.687073090309699236e-02
4.807999999999999829e+01,4.474938507363475371e-02
4.811999999999999744e+01,5.132968891978251236e-02
4.815999999999999659e+01,4.297232282175443563e-02
4.820000000000000284e+01,4.903160221154986842e-02
4.824000000000000199e+01,4.366013934222526260e-02
4.828000000000000114e+01,3.906725007020237644e-02
4.832000000000000028e+01,3.914952318495628497e-02
4.835999999999999943e+01,3.585400231722623426e-02
4.839999999999999858e+01,3.827273067332895989e-02
4.843999999999999773e+01,3.484582015263557042e-02
4.847999999999999687e+01,3.180781403219989922e-02
4.852000000000000313e+01,2.760007396381327499e-02
4.856000000000000227e+01,3.014566591000304718e-02
4.860000000000000142e+01,2.502720184087740829e-02
4.864000000000000057e+01,3.224717923812062820e-02
4.867999999999999972e+01,3.206286929457815432e-02
4.871999999999999886e+01,2.265586094119926425e-02
4.875999999999999801e+01,1.935274268451067300e-02
4.879999999999999716e+01,2.241328522219828909e-02
4.884000000000000341e+01,2.443396398710658696e-02
4.888000000000000256e+01,2.892170868744746784e-02
4.892000000000000171e+01,2.769367659353917308e-02
4.896000000000000085e+01,2.984191091169842436e-02
4.900000000000000000e+01,2.484561442466467693e-02
4.903999999999999915e+01,2.751183019728050544e-02
4.907999999999999829e+01,2.576112468723282603e-02
4.911999999999999744e+01,2.219122307978631942e-02
4.915999999999999659e+01,3.031030483557316246e-02
4.920000000000000284e+01,1.738700510533461308e-02
4.924000000000000199e+01,2.147802546927980380e-02
4.928000000000000114e+01,1.959347810972808870e-02
4.932000000000000028e+01,2.472199704562752856e-02
4.935999999999999943e+01,2.751176230350689880e-02
4.939999999999999858e+01,2.289720380378938019e-02
4.943999999999999773e+01,1.919104659026549600e-02
4.947999999999999687e+01,2.249794757956804711e-02
4.952000000000000313e+01,2.086835958980500991e-02
4.956000000000000227e+01,2.222534858350373038e-02
4.960000000000000142e+01,2.539993529371866940e-02
4.964000000000000057e+01,2.935302681392530991e-02
4.967999999999999972e+01,1.901780331212660907e-02
4.971999999999999886e+01,1.920255760558541719e-02
4.975999999999999801e+01,2.406240145219866455e-02
4.979999999999999716e+01,2.385585579723201177e-02
4.984000000000000341e+01,2.741519112616014678e-02
4.988000000000000256e+01,2.473915566340664438e-02
4.992000000000000171e+01,2.530945169655141047e-02
4.996000000000000085e+01,3.406175889843787719e-02
5.000000000000000000e+01,3.956607552885813700e-02
5.003999999999999915e+01,4.286149044802437663e-02
5.007999999999999829e+01,6.044356940625273539e-02
5.011999999999999744e+01,5.698322034586363050e-02
5.015999999999999659e+01,6.430259954685614565e-02
5.020000000000000284e+01,7.006250074607515976e-02
5.024000000000000199e+01,7.660087640794320529e-02
5.028000000000000114e+01,7.144863390888413213e-02
5.032000000000000028e+01,6.746452090742481589e-02
5.035999999999999943e+01,6.451864901998814739e-02
5.039999999999999858e+01,6.352022074636518023e-02
5.043999999999999773e+01,4.628514360445390441e-02
5.047999999999999687e+01,5.009080101193714302e-02
5.052000000000000313e+01,4.363457808418760853e-02
5.056000000000000227e+01,4.250283604857422320e-02
5.060000000000000142e+01,2.942068694594216632e-02
5.064000000000000057e+01,3.244358260408034683e-02
5.067999999999999972e+01,2.702299888025561786e-02
5.071999999999999886e+01,3.264188781446815402e-02
5.075999999999999801e+01,3.059661148293172164e-02
5.079999999999999716e+01,2.673205408143700113e-02
5.084000000000000341e+01,2.364594079524869052e-02
5.088000000000000256e+01,2.458542861173662955e-02
5.092000000000000171e+01,1.721131126774567977e-02
5.096000000000000085e+01,2.373415437211784038e-02
5.100000000000000000e+01,2.493077455938268877e-02
5.103999999999999915e+01,1.729423807501595869e-02
5.107999999999999829e+01,2.836045130512236320e-02
5.111999999999999744e+01,1.500714056675977320e-02
5.115999999999999659e+01,1.295305295255855943e-02
5.120000000000000284e+01,2.375682276441504204e-02
5.124000000000000199e+01,1.728481236149131961e-02
5.128000000000000114e+01,1.925451908399754969e-02
5.132000000000000028e+01,1.940491843551517270e-02
5.135999999999999943e+01,2.150271284509828670e-02
5.139999999999999858e+01,2.204096855822253523e-02
5.143999999999999773e+01,2.088979719131076052e-02
5.147999999999999687e+01,1.337328774604923387e-02
5.152000000000000313e+01,1.702609685612243087e-02
5.156000000000000227e+01,1.911935917711207397e-02
5.160000000000000142e+01,2.134159537133557480e-02
5.164000000000000057e+01,2.447212157816291977e-02
5.167999999999999972e+01,1.967866326580717043e-02
5.171999999999999886e+01,2.410621798668964935e-02
5.175999999999999801e+01,1.957069325870829796e-02
5.179999999999999716e+01,2.113890486754780793e-02
5.184000000000000341e+01,1.803028287510552788e-02
5.188000000000000256e+01,1.388164335001444705e-02
5.192000000000000171e+01,1.999309762574905461e-02
5.196000000000000085e+01,1.999896226610184749e-02
5.200000000000000000e+01,2.610855312749463600e-02
5.203999999999999915e+01,2.091709589035161548e-02
5.207999999999999829e+01,1.689367913193661266e-02
5.211999999999999744e+01,2.001307340846141328e-02
5.215999999999999659e+01,2.027402694434957131e-02
5.220000000000000284e+01,2.754790110844412485e-02
5.224000000000000199e+01,2.235173981443262792e-02
5.228000000000000114e+01,2.351906330020994002e-02
5.232000000000000028e+01,2.351646063819945454e-02
5.235999999999999943e+01,2.598074789703417112e-02
5.239999999999999858e+01,2.675555952008459165e-02
5.243999999999999773e+01,2.012589362566870321e-02
5.247999999999999687e+01,1.869072515147134073e-02
5.252000000000000313e+01,2.387880203896785083e-02
5.256000000000000227e+01,1.672671364352989673e-02
5.260000000000000142e+01,1.983468465526260285e-02
5.264000000000000057e+01,1.826578160259000744e-02
5.267999999999999972e+01,1.630625235625025177e-02
5.271999999999999886e+01,2.006075383287616795e-02
5.275999999999999801e+01,2.277519326741739639e-02
5.279999999999999716e+01,1.496786432598171124e-02
5.284000000000000341e+01,1.183546915467482627e-02
5.288000000000000256e+01,1.571596021791928782e-02
5.292000000000000171e+01,9.594222277402510157e-03
5.296000000000000085e+01,1.503138913986117389e-02
5.300000000000000000e+01,1.929859546087705699e-02
5.303999999999999915e+01,1.914868020676793736e-02
5.307999999999999829e+01,1.588050495858801467e-02
5.311999999999999744e+01,2.040452196854866673e-02
5.315999999999999659e+01,1.583550235875828480e-02
5.320000000000000284e+01,1.360344382311231767e-02
5.324000000000000199e+01,1.370834433845464009e-02
5.328000000000000114e+01,2.004679269426034097e-02
5.332000000000000028e+01,2.222787803368985252e-02
5.335999999999999943e+01,2.051137105442907629e-02
5.339999999999999858e+01,1.996283778974250120e-02
5.343999999999999773e+01,1.837420808931624835e-02
5.347999999999999687e+01,1.392707088409948953e-02
5.352000000000000313e+01,2.194801468061906291e-02
5.356000000000000227e+01,2.217476523003623218e-02
5.360000000000000142e+01,1.499697959045791056e-02
5.364000000000000057e+01,2.262522337072614409e-02
5.367999999999999972e+01,2.193972239273924221e-02
5.371999999999999886e+01,1.956467901481421384e-02
5.375999999999999801e+01,2.134497743274175671e-02
5.379999999999999716e+01,1.909777491684002196e-02
5.384000000000000341e+01,2.204500103384683662e-02
5.388000000000000256e+01,2.057506308944890422e-02
5.392000000000000171e+01,1.806500443143715592e-02
5.396000000000000085e+01,1.685277752423416237e-02
5.400000000000000000e+01,2.096485751773604148e-02
5.403999999999999915e+01,2.520578797194492418e-02
5.407999999999999829e+01,1.840533986749506509e-02
5.411999999999999744e+01,1.407169266501861679e-02
5.415999999999999659e+01,1.363359430599088776e-02
5.420000000000000284e+01,1.332433831504547042e-02
5.424000000000000199e+01,1.704051348165746757e-02
5.428000000000000114e+01,1.413143622814521522e-02
5.432000000000000028e+01,2.018346778187758359e-02
5.435999999999999943e+01,1.883092470664716675e-02
5.439999999999999858e+01,1.799687296498127601e-02
5.443999999999999773e+01,1.573301512740812869e-02
5.447999999999999687e+01,1.710491722719220328e-02
5.452000000000000313e+01,2.471030444959813888e-02
5.456000000000000227e+01,2.244326607926056677e-02
5.460000000000000142e+01,1.264175458060206626e-02
5.464000000000000057e+01,1.647724467909629162e-02
5.467999999999999972e+01,1.732428021769368692e-02
5.471999999999999886e+01,1.985876814839562451e-02
5.475999999999999801e+01,2.135309287920403309e-02
5.479999999999999716e+01,1.946929789938392150e-02
5.484000000000000341e+01,1.745454019630521963e-02
5.488000000000000256e+01,1.959506764070613125e-02
5.492000000000000171e+01,1.757815114248377497e-02
5.496000000000000085e+01,1.724867489742886242e-02
5.500000000000000000e+01,1.380084154680669487e-02
5.503999999999999915e+01,2.619805768893319550e-02
5.507999999999999829e+01,2.079975395160231846e-02
5.511999999999999744e+01,2.176479134997169607e-02
5.515999999999999659e+01,1.597464545835992206e-02
5.520000000000000284e+01,1.966510930624108117e-02
5.524000000000000199e+01,1.893834030540744034e-02
5.528000000000000114e+01,2.067831353501811686e-02
5.532000000000000028e+01,2.137809524054875773e-02
5.535999999999999943e+01,2.142734248010633169e-02
5.539999999999999858e+01,1.446162156990357661e-02
5.543999999999999773e+01,2.165240723541421441e-02
5.547999999999999687e+01,1.987992529853654586e-02
5.552000000000000313e+01,1.628792355927171157e-02
5.556000000000000227e+01,1.256492267993711276e-02
5.560000000000000142e+01,2.676512473590135152e-02
5.564000000000000057e+01,2.420886947159008387e-02
5.567999999999999972e+01,1.580660913921467028e-02
5.571999999999999886e+01,2.065163669751204564e-02
5.575999999999999801e+01,2.601508680206397403e-02
5.579999999999999716e+01,2.033707135224152585e-02
5.584000000000000341e+01,2.647758775899191827e-02
5.588000000000000256e+01,1.858924827537158930e-02
5.592000000000000171e+01,2.563670925211675167e-02
5.596000000000000085e+01,2.346110562775743230e-02
5.600000000000000000e+01,2.115448060861034943e-02
5.603999999999999915e+01,2.157433210078229385e-02
5.607999999999999829e+01,2.251258995395938323e-02
5.611999999999999744e+01,2.708652479509039354e-02
5.615999999999999659e+01,2.464545304649371632e-02
5.620000000000000284e+01,2.596994059995971424e-02
5.624000000000000199e+01,3.093009907191111851e-02
5.628000000000000114e+01,3.485001746403422473e-02
5.632000000000000028e+01,3.279401205717329820e-02
5.635999999999999943e+01,4.034844407869721261e-02
5.639999999999999858e+01,4.608331178839805004e-02
5.643999999999999773e+01,4.337440878164653540e-02
5.647999999999999687e+01,4.404139183360129134e-02
5.652000000000000313e+01,4.717505439815884022e-02
5.656000000000000227e+01,5.290528081258403376e-02
5.660000000000000142e+01,5.265956926593196030e-02
5.664000000000000057e+01,5.565984932494040527e-02
5.667999999999999972e+01,7.294645960224180326e-02
5.671999999999999886e+01,6.789144443594606615e-02
5.675999999999999801e+01,7.400548279152587006e-02
5.679999999999999716e+01,7.817005024329981566e-02
5.684000000000000341e+01,7.103332681779674085e-02
5.688000000000000256e+01,6.948053734659583036e-02
5.692000000000000171e+01,5.922418016022636122e-02
5.696000000000000085e+01,6.052652546121466831e-02
5.700000000000000000e+01,5.871041249882685831e-02
5.703999999999999915e+01,4.598265762464422146e-02
5.707999999999999829e+01,4.948950814350833866e-02
5.711999999999999744e+01,4.247437178552840309e-02
5.715999999999999659e+01,4.260179154481000263e-02
5.720000000000000284e+01,4.337744737714473858e-02
5.724000000000000199e+01,3.363111026316692453e-02
5.728000000000000114e+01,3.427448220750810293e-02
5.732000000000000028e+01,3.192926606364478170e-02
5.735999999999999943e+01,2.841386885431534601e-02
5.739999999999999858e+01,3.256056106499453234e-02
5.743999999999999773e+01,2.215877304052793137e-02
5.747999999999999687e+01,2.604327477123068169e-02
5.752000000000000313e+01,2.161383752068534933e-02
5.756000000000000227e+01,2.263841347036616228e-02
5.760000000000000142e+01,2.612961430743300506e-02
5.764000000000000057e+01,1.909880196662549351e-02
5.767999999999999972e+01,2.206801937131208993e-02
5.771999999999999886e+01,2.010033304991677705e-02
5.775999999999999801e+01,1.878085447738817720e-02
5.779999999999999716e+01,1.771992254930702948e-02
5.784000000000000341e+01,2.717855771577939658e-02
5.788000000000000256e+01,1.871164502144099032e-02
5.792000000000000171e+01,2.180338625871211522e-02
5.796000000000000085e+01,2.320537064149033255e-02
5.800000000000000000e+01,2.564520971546132080e-02
5.803999999999999915e+01,2.327801523852202764e-02
5.807999999999999829e+01,2.571537585867340880e-02
5.811999999999999744e+01,2.867103965886488859e-02
5.815999999999999659e+01,2.746909564078274871e-02
5.820000000000000284e+01,2.574635987306001308e-02
5.824000000000000199e+01,2.960748927232946873e-02
5.828000000000000114e+01,3.151907291101451597e-02
5.832000000000000028e+01,3.083167696385376300e-02
5.835999999999999943e+01,3.339018562663788325e-02
5.839999999999999858e+01,4.127277864294744136e-02
5.843999999999999773e+01,4.330922699341661908e-02
5.847999999999999687e+01,4.469498307173092738e-02
5.852000000000000313e+01,4.659902209852350569e-02
5.856000000000000227e+01,4.694316028390158047e-02
5.860000000000000142e+01,6.105398613439191186e-02
5.864000000000000057e+01,6.490252094894553847e-02
5.867999999999999972e+01,6.887967153808965959e-02
5.871999999999999886e+01,7.155668591403660517e-02
5.875999999999999801e+01,8.267503908520838773e-02
5.879999999999999716e+01,7.989427503602954117e-02
5.884000000000000341e+01,8.282723216692135237e-02
5.888000000000000256e+01,7.627720428546562459e-02
5.892000000000000171e+01,8.245475700050437784e-02
5.896000000000000085e+01,7.642170708804142676e-02
5.900000000000000000e+01,7.181612036912991825e-02
5.903999999999999915e+01,6.331265404335099933e-02
5.907999999999999829e+01,7.039426015070483766e-02
5.911999999999999744e+01,5.877093751688011042e-02
5.915999999999999659e+01,5.636825160924466283e-02
5.920000000000000284e+01,4.500210994569647793e-02
5.924000000000000199e+01,4.662330541423546221e-02
5.928000000000000114e+01,4.083967740560182080e-02
5.932000000000000028e+01,2.959951930295504421e-02
5.935999999999999943e+01,3.381453311092667141e-02
5.939999999999999858e+01,3.153392189520446559e-02
5.943999999999999773e+01,2.600484264315830810e-02
5.947999999999999687e+01,3.034581573415722627e-02
5.952000000000000313e+01,2.273593059431001581e-02
5.956000000000000227e+01,2.382711650740615417e-02
5.960000000000000142e+01,2.244914445407987513e-02
5.964000000000000057e+01,2.029053509664854871e-02
5.967999999999999972e+01,2.046855906206097864e-02
5.971999999999999886e+01,2.116480528126641128e-02
5.975999999999999801e+01,1.536540826837241164e-02
5.979999999999999716e+01,1.320150211306408798e-02
5.984000000000000341e+01,1.623172111723773098e-02
5.988000000000000256e+01,1.601344983036945974e-02
5.992000000000000171e+01,1.644327704193436490e-02
5.996000000000000085e+01,1.089699634730313151e-02
