2.003999999999999915e+01,1.097222506105838130e-01
2.007999999999999829e+01,1.403485155313818067e-01
2.012000000000000099e+01,5.361274510825642103e-02
2.016000000000000014e+01,2.847134468967860710e-01
2.019999999999999929e+01,9.854003074729231204e-02
2.023999999999999844e+01,2.856216216244145123e-01
2.028000000000000114e+01,2.428741431864542277e-01
2.032000000000000028e+01,2.147911385996583433e-01
2.035999999999999943e+01,1.964827360596688166e-01
2.039999999999999858e+01,1.683894511167972063e-01
2.044000000000000128e+01,1.207315410849078979e-01
2.048000000000000043e+01,1.724958631646496821e-01
2.051999999999999957e+01,1.883959887042889192e-01
2.055999999999999872e+01,2.042909699142676505e-01
2.060000000000000142e+01,2.185508489114162956e-01
2.064000000000000057e+01,2.491051513396631001e-01
2.067999999999999972e+01,2.160859852074100418e-01
2.071999999999999886e+01,1.178633926314824748e-01
2.076000000000000156e+01,2.266401851081953911e-01
2.080000000000000071e+01,2.620637644931090304e-01
2.083999999999999986e+01,1.214468413463282437e-01
2.087999999999999901e+01,3.491950395830722420e-01
2.092000000000000171e+01,2.656163057138055117e-01
2.096000000000000085e+01,2.553804815157092456e-01
2.100000000000000000e+01,1.326724725586873599e-01
2.103999999999999915e+01,3.180211737529486937e-01
2.107999999999999829e+01,1.089151341606678647e-01
2.112000000000000099e+01,2.763239952193782822e-01
2.116000000000000014e+01,3.100712273411375119e-01
2.119999999999999929e+01,1.645180347067788096e-01
2.123999999999999844e+01,3.688920862537720113e-02
2.128000000000000114e+01,6.247117590350680788e-02
2.132000000000000028e+01,1.010876370076535524e-01
2.135999999999999943e+01,3.026946313897191376e-01
2.139999999999999858e+01,1.375561459346517634e-01
2.144000000000000128e+01,2.380954804296475658e-01
2.148000000000000043e+01,3.027705962425660813e-01
2.151999999999999957e+01,4.959893826837256936e-02
2.155999999999999872e+01,2.430303201022295245e-01
2.160000000000000142e+01,2.131524300181579512e-01
2.164000000000000057e+01,1.800094567735242013e-01
2.167999999999999972e+01,6.699342229791141468e-02
2.171999999999999886e+01,1.707564924965201958e-01
2.176000000000000156e+01,3.772016792053133338e-01
2.180000000000000071e+01,2.462406021418108437e-01
2.183999999999999986e+01,2.473008650339890424e-01
2.187999999999999901e+01,2.027171582547127593e-01
2.192000000000000171e+01,3.425154677297453931e-02
2.196000000000000085e+01,1.803624520654984464e-01
2.200000000000000000e+01,1.977015799286175879e-01
2.203999999999999915e+01,1.971060027600220199e-01
2.207999999999999829e+01,2.095449018883820680e-01
2.212000000000000099e+01,1.421107296373590456e-01
2.216000000000000014e+01,2.278873304490549312e-01
2.219999999999999929e+01,2.419406428391655262e-01
2.223999999999999844e+01,1.777508380427365031e-01
2.228000000000000114e+01,2.162431377629246421e-01
2.232000000000000028e+01,1.161839109094976036e-01
2.235999999999999943e+01,1.171768297669282810e-01
2.239999999999999858e+01,2.632307313486268452e-01
2.244000000000000128e+01,1.778255568352077598e-01
2.248000000000000043e+01,2.700805024127341247e-01
2.251999999999999957e+01,4.063390963900636033e-01
2.255999999999999872e+01,3.372179228740035950e-01
2.260000000000000142e+01,1.817038390652050417e-01
2.264000000000000057e+01,1.891802590116945237e-01
2.267999999999999972e+01,3.107484729731197493e-01
2.271999999999999886e+01,1.894479056572088704e-01
2.276000000000000156e+01,2.739321925481162656e-02
2.280000000000000071e+01,1.782850732918561942e-01
2.283999999999999986e+01,2.558236671854040578e-01
2.287999999999999901e+01,1.671014532591209856e-01
2.292000000000000171e+01,3.848059491621629302e-01
2.296000000000000085e+01,2.683640684592097370e-01
2.300000000000000000e+01,3.654413489866617515e-01
2.303999999999999915e+01,3.581961825064559624e-01
2.307999999999999829e+01,2.629281377019322408e-01
2.312000000000000099e+01,2.736020919609807867e-01
2.316000000000000014e+01,2.190725634988374693e-01
2.319999999999999929e+01,1.091192931564739788e-01
2.323999999999999844e+01,3.300420796716613814e-01
2.328000000000000114e+01,1.809594290671663608e-01
2.332000000000000028e+01,1.834575678099167051e-01
2.335999999999999943e+01,2.103998520511338732e-01
2.339999999999999858e+01,2.291871416563938668e-01
2.344000000000000128e+01,8.986339532863110713e-02
2.348000000000000043e+01,1.754684978844318621e-01
2.351999999999999957e+01,2.447688182335666096e-01
2.355999999999999872e+01,2.064867656602909218e-01
2.360000000000000142e+01,3.246753668579596686e-01
2.364000000000000057e+01,1.543563706623168330e-01
2.367999999999999972e+01,8.481512584484016820e-03
2.371999999999999886e+01,2.179320547020995591e-01
2.376000000000000156e+01,1.173835373246400436e-02
2.380000000000000071e+01,1.168612131771223084e-01
2.383999999999999986e+01,2.610978196945926699e-01
2.387999999999999901e+01,9.563738279555847321e-02
2.392000000000000171e+01,1.371762580651699759e-01
2.396000000000000085e+01,2.928068978270885192e-01
2.400000000000000000e+01,2.675070912915410437e-01
2.403999999999999915e+01,2.307923614375350929e-01
2.407999999999999829e+01,3.016495654657216363e-01
2.412000000000000099e+01,2.095058469952101321e-01
2.416000000000000014e+01,0.000000000000000000e+00
2.419999999999999929e+01,1.344098434051044511e-01
2.423999999999999844e+01,1.449377285979775720e-01
2.428000000000000114e+01,1.636101684640057785e-01
2.432000000000000028e+01,1.904271620806072263e-01
2.435999999999999943e+01,2.253887085251999600e-01
2.439999999999999858e+01,1.853670018849982448e-01
2.444000000000000128e+01,2.219480385724951488e-01
2.448000000000000043e+01,9.878805837923794464e-02
2.451999999999999957e+01,2.298961283730673322e-01
2.455999999999999872e+01,1.132455037689989036e-01
2.460000000000000142e+01,1.775148642802023558e-01
2.464000000000000057e+01,3.640257584027760673e-01
2.467999999999999972e+01,2.473594184995691059e-01
2.471999999999999886e+01,2.578244812443446499e-01
2.476000000000000156e+01,2.242754648523385963e-01
2.480000000000000071e+01,1.923511632975488106e-01
2.483999999999999986e+01,2.386595528052289916e-01
2.487999999999999901e+01,2.409538604083788782e-01
2.492000000000000171e+01,1.976041282238267249e-01
2.496000000000000085e+01,3.253946310877511849e-01
2.500000000000000000e+01,3.749419531069647094e-01
2.503999999999999915e+01,2.370389769992055085e-01
2.507999999999999829e+01,1.871484281819755235e-01
2.512000000000000099e+01,3.817461739495431883e-01
2.516000000000000014e+01,2.291578366843557424e-01
2.519999999999999929e+01,6.841446326700957592e-02
2.523999999999999844e+01,1.407496829425703422e-01
2.528000000000000114e+01,1.967800798178468979e-01
2.532000000000000028e+01,1.305584505317643473e-01
2.535999999999999943e+01,1.246399737480665126e-01
2.539999999999999858e+01,2.719321952979289470e-01
2.544000000000000128e+01,3.002323018398684318e-01
2.548000000000000043e+01,2.437693886237407570e-01
2.551999999999999957e+01,2.655391507861832312e-01
2.555999999999999872e+01,2.400349014390158187e-01
2.560000000000000142e+01,2.275650472015654235e-01
2.564000000000000057e+01,1.384819543186789625e-01
2.567999999999999972e+01,1.814201128235778115e-01
2.571999999999999886e+01,2.439124915128175197e-01
2.576000000000000156e+01,1.564435655622237464e-01
2.580000000000000071e+01,2.140355439164072782e-01
2.583999999999999986e+01,1.216662157855942367e-01
2.587999999999999901e+01,1.417586509025474673e-01
2.592000000000000171e+01,1.259867649307955806e-01
2.596000000000000085e+01,2.764652200611890098e-01
2.600000000000000000e+01,6.345800317867732188e-02
2.603999999999999915e+01,7.374961917387473642e-02
2.607999999999999829e+01,7.914609264128945332e-02
2.612000000000000099e+01,2.296034630328210313e-01
2.616000000000000014e+01,1.160025323172439032e-01
2.619999999999999929e+01,2.843788813703657659e-01
2.623999999999999844e+01,2.587850767766811666e-01
2.628000000000000114e+01,3.538028110079001753e-01
2.632000000000000028e+01,1.896521113234582445e-01
2.635999999999999943e+01,1.526327764611271065e-01
2.639999999999999858e+01,2.433057277896858925e-02
2.644000000000000128e+01,1.372567193152087472e-01
2.648000000000000043e+01,1.214109850928373063e-01
2.651999999999999957e+01,4.036169065236600711e-02
2.655999999999999872e+01,1.206728525935293200e-01
2.660000000000000142e+01,2.091285156980790816e-01
2.664000000000000057e+01,1.753321221960547904e-01
2.667999999999999972e+01,1.610899267363973542e-01
2.671999999999999886e+01,2.022609815295517144e-01
2.676000000000000156e+01,2.499465768351720740e-01
2.680000000000000071e+01,2.552480029129075567e-01
2.683999999999999986e+01,2.181652588401762904e-01
2.687999999999999901e+01,2.250860626057841762e-01
2.692000000000000171e+01,2.450412310358963397e-01
2.696000000000000085e+01,2.258721404689792989e-01
2.700000000000000000e+01,1.822484026277823577e-01
2.703999999999999915e+01,2.559762721612434122e-01
2.707999999999999829e+01,1.830027205308423777e-01
2.712000000000000099e+01,2.469402579570434964e-01
2.716000000000000014e+01,1.299472762017823690e-01
2.719999999999999929e+01,1.400856398944044789e-01
2.723999999999999844e+01,7.361072803830071010e-02
2.728000000000000114e+01,2.891130710411775606e-01
2.732000000000000028e+01,2.633764836303498225e-01
2.735999999999999943e+01,3.142425721987181508e-01
2.739999999999999858e+01,2.966451663309945808e-01
2.744000000000000128e+01,1.225665892326157219e-01
2.748000000000000043e+01,2.549146167891876980e-01
2.751999999999999957e+01,1.541734941221063471e-01
2.755999999999999872e+01,9.091607576709619110e-02
2.760000000000000142e+01,3.096359048904083755e-01
2.764000000000000057e+01,1.110814444753994573e-01
2.767999999999999972e+01,1.749447461664417613e-01
2.771999999999999886e+01,2.176132978979071209e-01
2.776000000000000156e+01,2.309373139442520706e-01
2.780000000000000071e+01,1.383088162350596673e-01
2.783999999999999986e+01,1.288028112764469935e-01
2.787999999999999901e+01,9.484213874674277123e-02
2.792000000000000171e+01,2.173520203491023928e-01
2.796000000000000085e+01,2.339093845055955911e-01
2.800000000000000000e+01,2.455715618503587494e-01
2.803999999999999915e+01,1.415014781405394551e-01
2.807999999999999829e+01,1.567023522572948743e-03
2.812000000000000099e+01,1.941384701677168756e-01
2.816000000000000014e+01,4.604359242880638053e-02
2.819999999999999929e+01,3.152123760586368340e-01
2.823999999999999844e+01,1.556971575872680980e-01
2.828000000000000114e+01,1.298330874964316595e-01
2.832000000000000028e+01,1.838315851640020537e-01
2.835999999999999943e+01,1.351374700810690777e-01
2.839999999999999858e+01,1.826054905173001564e-01
2.844000000000000128e+01,2.072487874268819363e-01
2.848000000000000043e+01,1.846180054783491120e-01
2.851999999999999957e+01,2.581493562812334774e-01
2.855999999999999872e+01,2.355079175630733768e-01
2.860000000000000142e+01,2.438303313274762518e-01
2.864000000000000057e+01,9.283827272371269340e-03
2.867999999999999972e+01,9.094364195830334507e-02
2.871999999999999886e+01,2.084571772408302104e-01
2.876000000000000156e+01,1.222207589903140240e-01
2.880000000000000071e+01,1.565958214420231642e-01
2.883999999999999986e+01,1.762959359442214657e-01
2.887999999999999901e+01,3.280172280276261731e-01
2.892000000000000171e+01,9.017346938014675350e-02
2.896000000000000085e+01,2.500338710452398305e-01
2.900000000000000000e+01,1.702852605087678273e-01
2.903999999999999915e+01,2.453772213114644996e-01
2.907999999999999829e+01,6.293064150091734477e-02
2.912000000000000099e+01,1.461617045046437469e-01
2.916000000000000014e+01,1.169203945426692953e-01
2.919999999999999929e+01,1.170129662639337875e-01
2.923999999999999844e+01,8.776096816453524130e-02
2.928000000000000114e+01,2.394288472382874455e-01
2.932000000000000028e+01,1.661573193751460509e-01
2.935999999999999943e+01,1.303694543078760815e-01
2.939999999999999858e+01,1.760740890498851963e-01
2.944000000000000128e+01,1.337556987769994155e-01
2.948000000000000043e+01,1.808389521196843847e-02
2.951999999999999957e+01,1.045214037722927564e-01
2.955999999999999872e+01,1.420548516041895970e-01
2.960000000000000142e+01,1.143846681791548664e-01
2.964000000000000057e+01,2.741541814663992493e-01
2.967999999999999972e+01,2.138741503952870104e-01
2.971999999999999886e+01,9.654027010245729012e-02
2.976000000000000156e+01,1.373068584635003253e-01
2.980000000000000071e+01,8.027067174285579254e-02
2.983999999999999986e+01,1.976345214368415704e-01
2.987999999999999901e+01,1.813365410709468772e-01
2.992000000000000171e+01,1.193944055945696803e-01
2.996000000000000085e+01,1.079755747600670140e-01
3.000000000000000000e+01,2.024985843049929568e-01
3.003999999999999915e+01,1.763994157844473443e-01
3.007999999999999829e+01,1.910438073744768761e-01
3.012000000000000099e+01,1.127752873839381192e-01
3.016000000000000014e+01,1.225190775159839401e-01
3.019999999999999929e+01,2.104954350844795152e-01
3.023999999999999844e+01,1.387306429203790381e-01
3.028000000000000114e+01,1.240089758598651171e-01
3.032000000000000028e+01,1.907797873892378149e-01
3.035999999999999943e+01,7.824996289116177561e-02
3.039999999999999858e+01,1.336003340491959956e-01
3.044000000000000128e+01,1.367867102608084640e-01
3.048000000000000043e+01,2.687343132291535319e-01
3.051999999999999957e+01,1.561829980560321685e-01
3.055999999999999872e+01,2.718202823906040178e-01
3.060000000000000142e+01,2.684653327041447990e-01
3.064000000000000057e+01,1.705675024829556019e-01
3.067999999999999972e+01,2.421798184203938220e-01
3.071999999999999886e+01,2.110994671749758800e-01
3.076000000000000156e+01,1.588242958537316452e-01
3.080000000000000071e+01,1.179534427459223572e-01
3.083999999999999986e+01,1.830244106433144835e-01
3.087999999999999901e+01,1.274731811010079152e-01
3.092000000000000171e+01,1.028857505314963589e-01
3.096000000000000085e+01,1.549009129087795533e-01
3.100000000000000000e+01,5.695464978795804212e-02
3.103999999999999915e+01,2.817344788181904147e-01
3.107999999999999829e+01,2.277862806183688638e-01
3.112000000000000099e+01,1.493833401182953213e-01
3.116000000000000014e+01,1.671424714792123789e-01
3.119999999999999929e+01,7.894901066510293108e-02
3.123999999999999844e+01,1.814551235811671936e-01
3.128000000000000114e+01,2.301672652159915955e-01
3.132000000000000028e+01,1.403276726961987519e-01
3.135999999999999943e+01,9.938139556731000190e-02
3.139999999999999858e+01,2.621743441630042804e-01
3.144000000000000128e+01,1.983978799643549285e-01
3.148000000000000043e+01,2.536028776943285434e-01
3.151999999999999957e+01,2.762033390952679524e-01
3.155999999999999872e+01,2.401199518751139794e-01
3.160000000000000142e+01,1.909915100078680983e-01
3.164000000000000057e+01,1.858665061916742745e-01
3.167999999999999972e+01,2.377845951886882747e-01
3.171999999999999886e+01,2.359087027560576866e-01
3.176000000000000156e+01,3.171552126609461508e-01
3.180000000000000071e+01,2.549601064584535171e-01
3.183999999999999986e+01,1.357111021373853532e-01
3.187999999999999901e+01,3.424480845143283436e-01
3.192000000000000171e+01,2.068886988238940461e-01
3.196000000000000085e+01,2.440993436906389591e-01
3.200000000000000000e+01,1.134190134282090784e-01
3.203999999999999915e+01,1.147597878629883356e-01
3.207999999999999829e+01,2.090026990181820254e-01
3.211999999999999744e+01,2.250022651090256287e-01
3.215999999999999659e+01,2.393664623607700270e-01
3.220000000000000284e+01,1.934168392695146677e-01
3.224000000000000199e+01,1.262723619668893182e-01
3.228000000000000114e+01,1.976688116683490148e-01
3.232000000000000028e+01,2.217910939437994222e-01
3.235999999999999943e+01,1.367008433681538571e-01
3.239999999999999858e+01,1.689620765411478653e-01
3.243999999999999773e+01,2.550064710771030030e-01
3.247999999999999687e+01,8.514220354091647791e-02
3.252000000000000313e+01,1.907352421630675587e-01
3.256000000000000227e+01,2.115650977300949920e-01
3.260000000000000142e+01,2.829181970485692976e-01
3.264000000000000057e+01,1.603009951070779593e-01
3.267999999999999972e+01,2.381630754463529565e-01
3.271999999999999886e+01,2.394117538431367875e-01
3.275999999999999801e+01,1.787166420201761474e-01
3.279999999999999716e+01,1.212760174785780798e-01
3.284000000000000341e+01,2.284556183943888541e-01
3.288000000000000256e+01,2.965108237710000760e-01
3.292000000000000171e+01,1.396265391783167442e-01
3.296000000000000085e+01,2.174506265807618632e-01
3.300000000000000000e+01,6.544535128697104298e-02
3.303999999999999915e+01,1.514083600643278127e-01
3.307999999999999829e+01,1.591280016353608662e-01
3.311999999999999744e+01,1.456527686982151959e-01
3.315999999999999659e+01,1.892205944387336802e-01
3.320000000000000284e+01,1.920340602988037382e-01
3.324000000000000199e+01,2.192914437795298599e-01
3.328000000000000114e+01,1.194067466232536928e-01
3.332000000000000028e+01,2.705299827647879574e-01
3.335999999999999943e+01,1.315154403649344272e-01
3.339999999999999858e+01,2.011299484423288153e-01
3.343999999999999773e+01,4.417499759626769551e-02
3.347999999999999687e+01,7.465965489459101823e-02
3.352000000000000313e+01,2.257556840304351942e-01
3.356000000000000227e+01,1.861413046081064060e-01
3.360000000000000142e+01,1.791206193061547769e-01
3.364000000000000057e+01,2.454425512168035006e-01
3.367999999999999972e+01,2.367810160035793976e-01
3.371999999999999886e+01,6.511833687192034037e-02
3.375999999999999801e+01,6.622564678124036319e-02
3.379999999999999716e+01,9.829668923743371811e-02
3.384000000000000341e+01,2.020803873327247091e-01
3.388000000000000256e+01,1.689422491887270228e-01
3.392000000000000171e+01,1.635079269026724624e-01
3.396000000000000085e+01,1.857774195519787952e-01
3.400000000000000000e+01,1.998916730810346154e-01
3.403999999999999915e+01,5.426468923218200069e-02
3.407999999999999829e+01,2.509232109452404491e-01
3.411999999999999744e+01,1.460342378637034810e-01
3.415999999999999659e+01,1.682764497007411542e-01
3.420000000000000284e+01,2.475616962283058720e-01
3.424000000000000199e+01,2.355638931099240663e-01
3.428000000000000114e+01,1.665121355954497784e-01
3.432000000000000028e+01,1.186443568707273161e-01
3.435999999999999943e+01,2.549562520723957504e-01
3.439999999999999858e+01,2.331568585535076232e-01
3.443999999999999773e+01,2.097220436083334916e-01
3.447999999999999687e+01,2.808192669892322635e-01
3.452000000000000313e+01,2.280342950542638691e-01
3.456000000000000227e+01,1.980632533341463719e-01
3.460000000000000142e+01,2.854436446206451983e-01
3.464000000000000057e+01,1.837435593998426042e-01
3.467999999999999972e+01,2.857826242518792248e-01
3.471999999999999886e+01,7.812439566762605092e-02
3.475999999999999801e+01,2.372010113702685274e-01
3.479999999999999716e+01,1.077697722791563645e-01
3.484000000000000341e+01,1.853375934917383394e-01
3.488000000000000256e+01,1.488029528487670450e-01
3.492000000000000171e+01,6.315634230621810369e-03
3.496000000000000085e+01,1.213560389267830525e-01
3.500000000000000000e+01,9.458471066957671591e-02
3.503999999999999915e+01,1.900546761523587425e-01
3.507999999999999829e+01,1.567525625213463669e-01
3.511999999999999744e+01,1.218150117801506532e-01
3.515999999999999659e+01,1.748896558387594280e-01
3.520000000000000284e+01,1.872098938878072050e-01
3.524000000000000199e+01,1.881149502953708141e-01
3.528000000000000114e+01,2.118339203113046021e-01
3.532000000000000028e+01,1.573094714563090801e-01
3.535999999999999943e+01,1.223390204433351530e-01
3.539999999999999858e+01,1.248520929163146886e-01
3.543999999999999773e+01,1.925579562827328672e-01
3.547999999999999687e+01,2.504785894327655749e-01
3.552000000000000313e+01,2.578650674290257072e-01
3.556000000000000227e+01,1.886380779794555873e-01
3.560000000000000142e+01,5.257736192502589917e-02
3.564000000000000057e+01,1.789342243827821699e-01
3.567999999999999972e+01,1.374000268337966513e-01
3.571999999999999886e+01,2.229969782226783048e-01
3.575999999999999801e+01,2.254606297104501667e-01
3.579999999999999716e+01,1.545707221380821506e-01
3.584000000000000341e+01,2.173317885782036496e-01
3.588000000000000256e+01,1.480608435317017635e-01
3.592000000000000171e+01,3.200180300516105580e-01
3.596000000000000085e+01,2.132470767864325378e-01
3.600000000000000000e+01,2.221975672769003762e-01
3.603999999999999915e+01,2.148429867924626924e-01
3.607999999999999829e+01,2.351921723465271175e-01
3.611999999999999744e+01,1.821877914597948844e-01
3.615999999999999659e+01,2.123057114265351208e-01
3.620000000000000284e+01,1.755898909496822480e-01
3.624000000000000199e+01,4.290009034763489493e-01
3.628000000000000114e+01,2.798070398322623498e-01
3.632000000000000028e+01,2.691540100114554468e-01
3.635999999999999943e+01,2.324161600715314302e-01
3.639999999999999858e+01,2.836904763313637945e-01
3.643999999999999773e+01,2.469416061244111005e-01
3.647999999999999687e+01,3.422137382080394086e-01
3.652000000000000313e+01,2.516652643441860127e-01
3.656000000000000227e+01,2.915078339651570594e-01
3.660000000000000142e+01,2.042082463748008114e-01
3.664000000000000057e+01,2.375199586605514501e-01
3.667999999999999972e+01,1.925882207075770569e-01
3.671999999999999886e+01,1.623205783470509089e-01
3.675999999999999801e+01,1.255275901686932760e-01
3.679999999999999716e+01,1.327379210282788602e-01
3.684000000000000341e+01,2.507798053875073818e-01
3.688000000000000256e+01,1.846310324566053374e-01
3.692000000000000171e+01,1.999745858895218553e-01
3.696000000000000085e+01,1.615240370345203680e-01
3.700000000000000000e+01,9.861861025967913474e-02
3.703999999999999915e+01,1.090557222779479918e-01
3.707999999999999829e+01,2.009851569697058971e-01
3.711999999999999744e+01,1.233935414811707793e-01
3.715999999999999659e+01,1.354440316239210462e-01
3.720000000000000284e+01,2.110573151058993402e-01
3.724000000000000199e+01,1.024799329945076526e-01
3.728000000000000114e+01,1.568927169733042859e-01
3.732000000000000028e+01,2.292294966270008727e-01
3.735999999999999943e+01,1.059659091954345822e-01
3.739999999999999858e+01,1.880713660617080452e-01
3.743999999999999773e+01,2.114928386873000388e-01
3.747999999999999687e+01,2.463184754550939992e-01
3.752000000000000313e+01,1.572618477133537196e-01
3.756000000000000227e+01,2.018561543130666658e-01
3.760000000000000142e+01,1.535373768093334368e-01
3.764000000000000057e+01,1.361822432845788966e-01
3.767999999999999972e+01,1.742401072251051897e-01
3.771999999999999886e+01,2.807506233930670558e-01
3.775999999999999801e+01,2.242599024617878967e-01
3.779999999999999716e+01,2.720808850458091843e-01
3.784000000000000341e+01,2.416583906362202994e-01
3.788000000000000256e+01,3.677062206357177843e-01
3.792000000000000171e+01,2.036161669194531398e-01
3.796000000000000085e+01,4.046309267229132312e-01
3.800000000000000000e+01,5.029528514335507294e-01
3.803999999999999915e+01,6.811371197151122603e-01
3.807999999999999829e+01,9.342938597632380882e-01
3.811999999999999744e+01,1.000000000000000000e+00
3.815999999999999659e+01,8.684757977392625339e-01
3.820000000000000284e+01,8.722324720192544678e-01
3.824000000000000199e+01,6.640891893112531585e-01
3.828000000000000114e+01,5.488479003234187914e-01
3.832000000000000028e+01,4.124116168917152936e-01
3.835999999999999943e+01,4.112562063104121535e-01
3.839999999999999858e+01,3.889057994400753615e-01
3.843999999999999773e+01,3.241709548704235777e-01
3.847999999999999687e+01,3.555980133292129808e-01
3.852000000000000313e+01,2.533630424503588996e-01
3.856000000000000227e+01,3.548671321538667822e-01
3.860000000000000142e+01,2.249117730390348679e-01
3.864000000000000057e+01,2.008980550258675501e-01
3.867999999999999972e+01,1.344998937778923154e-01
3.871999999999999886e+01,1.756733287470098326e-01
3.875999999999999801e+01,2.217310704933285748e-01
3.879999999999999716e+01,2.156246244735392503e-01
3.884000000000000341e+01,1.818033441739423384e-01
3.888000000000000256e+01,1.854655070956443830e-01
3.892000000000000171e+01,1.369634794834915514e-01
3.896000000000000085e+01,1.585440324593170580e-01
3.900000000000000000e+01,1.263304360955311290e-01
3.903999999999999915e+01,2.473272234647616585e-01
3.907999999999999829e+01,1.759835179988785692e-01
3.911999999999999744e+01,1.502730350217616473e-01
3.915999999999999659e+01,1.131472799901017123e-01
3.920000000000000284e+01,1.346944012867818397e-01
3.924000000000000199e+01,1.855751726985591654e-01
3.928000000000000114e+01,1.207234238101449336e-01
3.932000000000000028e+01,1.569234294577218358e-01
3.935999999999999943e+01,2.436465229403480537e-01
3.939999999999999858e+01,1.526987288525324948e-01
3.943999999999999773e+01,2.768996737744151004e-01
3.947999999999999687e+01,1.044428711574595797e-01
3.952000000000000313e+01,8.845635512371903542e-02
3.956000000000000227e+01,1.702616741692907776e-01
3.960000000000000142e+01,1.721935186670421614e-01
3.964000000000000057e+01,2.344281863053205295e-01
3.967999999999999972e+01,1.939699801023229975e-01
3.971999999999999886e+01,1.323167471650782967e-01
3.975999999999999801e+01,2.059443547878551939e-01
3.979999999999999716e+01,1.866588275651629714e-01
3.984000000000000341e+01,1.412883999586995731e-01
3.988000000000000256e+01,2.100093696568130497e-01
3.992000000000000171e+01,2.363458675200690307e-01
3.996000000000000085e+01,2.691966014436512067e-01
4.000000000000000000e+01,1.194865630762809716e-01
4.003999999999999915e+01,1.295067132197411930e-01
4.007999999999999829e+01,1.851600637099939661e-01
4.011999999999999744e+01,2.456976896096517704e-01
4.015999999999999659e+01,1.986525597152705713e-01
4.020000000000000284e+01,1.842009717151973647e-01
4.024000000000000199e+01,1.827834411597439590e-01
4.028000000000000114e+01,1.748404835992215800e-01
4.032000000000000028e+01,2.777289992736869384e-01
4.035999999999999943e+01,1.067791445607957357e-01
4.039999999999999858e+01,1.558678775974065289e-01
4.043999999999999773e+01,2.000611368992112615e-01
4.047999999999999687e+01,1.872002988046771454e-01
4.052000000000000313e+01,7.001661053404752144e-02
4.056000000000000227e+01,2.299199999433184649e-01
4.060000000000000142e+01,1.371744539174384603e-01
4.064000000000000057e+01,1.992692116818778891e-01
4.067999999999999972e+01,2.108296952794362911e-01
4.071999999999999886e+01,1.620761620239777323e-01
4.075999999999999801e+01,1.589558134314139892e-01
4.079999999999999716e+01,2.960061522935115708e-01
4.084000000000000341e+01,1.543282388154890716e-01
4.088000000000000256e+01,1.006623882080121268e-01
4.092000000000000171e+01,1.887971792480416522e-01
4.096000000000000085e+01,2.622567427961428610e-01
4.100000000000000000e+01,1.058867591315617029e-01
4.103999999999999915e+01,8.153767258318724009e-02
4.107999999999999829e+01,6.696271018402065456e-02
4.111999999999999744e+01,2.430870936372159230e-01
4.115999999999999659e+01,1.779722274632539736e-01
4.120000000000000284e+01,1.258913965919382094e-01
4.124000000000000199e+01,2.156111999874710528e-01
4.128000000000000114e+01,1.195102876482354581e-01
4.132000000000000028e+01,1.798796203760139878e-01
4.135999999999999943e+01,1.033269443416259536e-01
4.139999999999999858e+01,2.386630481892223765e-01
4.143999999999999773e+01,2.550066679960025229e-01
4.147999999999999687e+01,1.914767698935969376e-01
4.152000000000000313e+01,1.018619326589661617e-01
4.156000000000000227e+01,1.996865172071076999e-01
4.160000000000000142e+01,1.475494317728523186e-01
4.164000000000000057e+01,2.290631865766614983e-01
4.167999999999999972e+01,5.792798103559958223e-02
4.171999999999999886e+01,2.274481478826489433e-01
4.175999999999999801e+01,1.361695677367013857e-01
4.179999999999999716e+01,1.589823406113837767e-01
4.184000000000000341e+01,1.785295644214740518e-01
4.188000000000000256e+01,1.882914104020211310e-01
4.192000000000000171e+01,1.964176624334043053e-01
4.196000000000000085e+01,1.507496968540904814e-01
4.200000000000000000e+01,2.517722188943387618e-01
4.203999999999999915e+01,2.175026734491150859e-01
4.207999999999999829e+01,2.223464543792036119e-01
4.211999999999999744e+01,1.962154114565566043e-01
4.215999999999999659e+01,9.836061974378774997e-02
4.220000000000000284e+01,1.830553641706986201e-01
4.224000000000000199e+01,1.340879934598178669e-01
4.228000000000000114e+01,1.079343749054164359e-01
4.232000000000000028e+01,1.877223125751140420e-01
4.235999999999999943e+01,1.371080462604586936e-01
4.239999999999999858e+01,1.467965394281561808e-01
4.243999999999999773e+01,2.118979202738477952e-01
4.247999999999999687e+01,1.759363196580990829e-01
4.252000000000000313e+01,2.622158402594604865e-01
4.256000000000000227e+01,9.910629414032577633e-02
4.260000000000000142e+01,1.609251559104466212e-01
4.264000000000000057e+01,5.485279714451743449e-02
4.267999999999999972e+01,1.264400925655048691e-01
4.271999999999999886e+01,1.393432819649558785e-01
4.275999999999999801e+01,4.955352648429856011e-02
4.279999999999999716e+01,1.928419590829466290e-01
4.284000000000000341e+01,1.014109311483527287e-01
4.288000000000000256e+01,1.452606718123668206e-01
4.292000000000000171e+01,1.027170335118656325e-01
4.296000000000000085e+01,7.646730384157685023e-02
4.300000000000000000e+01,1.414895020661592895e-01
4.303999999999999915e+01,1.021887919919658022e-01
4.307999999999999829e+01,9.711151434675130423e-02
4.311999999999999744e+01,2.110154301587300885e-01
4.315999999999999659e+01,1.179091463868764539e-01
4.320000000000000284e+01,1.894228491236328027e-01
4.324000000000000199e+01,1.566136389487014224e-01
4.328000000000000114e+01,1.596578135504311269e-01
4.332000000000000028e+01,9.260816956774485520e-02
4.335999999999999943e+01,1.722489818368259928e-01
4.339999999999999858e+01,2.258048116123168858e-01
4.343999999999999773e+01,1.456984985725491843e-01
4.347999999999999687e+01,1.764235858837726323e-01
4.352000000000000313e+01,2.348522676332025771e-01
4.356000000000000227e+01,1.791782873267339926e-01
4.360000000000000142e+01,6.645013766251263443e-02
4.364000000000000057e+01,1.851701997427763480e-01
4.367999999999999972e+01,1.506686299451823197e-01
4.371999999999999886e+01,1.911394018300573983e-01
4.375999999999999801e+01,1.012079374402007625e-01
4.379999999999999716e+01,1.237378229812694241e-01
4.384000000000000341e+01,1.234426298015282725e-01
4.388000000000000256e+01,1.883400328503734567e-01
4.392000000000000171e+01,1.554343351460028277e-01
4.396000000000000085e+01,2.610692950517037869e-01
4.400000000000000000e+01,2.509716257925094229e-01
4.403999999999999915e+01,2.620577111355837929e-01
4.407999999999999829e+01,2.405389704588006550e-01
4.411999999999999744e+01,2.891026913568880974e-01
4.415999999999999659e+01,3.800396045771960440e-01
4.420000000000000284e+01,2.933055195171935248e-01
4.424000000000000199e+01,2.733939793431292009e-01
4.428000000000000114e+01,3.626838641078198311e-01
4.432000000000000028e+01,2.938622313515596995e-01
4.435999999999999943e+01,2.902331837528996372e-01
4.439999999999999858e+01,2.588891736355014017e-01
4.443999999999999773e+01,2.373192101704033885e-01
4.447999999999999687e+01,2.548625177256839125e-01
4.452000000000000313e+01,2.886996979304687905e-01
4.456000000000000227e+01,2.491831170296046893e-01
4.460000000000000142e+01,1.835815259576833725e-01
4.464000000000000057e+01,1.685029009399567901e-01
4.467999999999999972e+01,1.566784891966686022e-01
4.471999999999999886e+01,1.970069986230022496e-01
4.475999999999999801e+01,1.542020005672224692e-01
4.479999999999999716e+01,1.602900079147162038e-01
4.484000000000000341e+01,1.011740325014462982e-01
4.488000000000000256e+01,1.968982630847792570e-01
4.492000000000000171e+01,2.225286381804069680e-01
4.496000000000000085e+01,2.986819719495719117e-01
4.500000000000000000e+01,7.165760302118101555e-02
4.503999999999999915e+01,2.733062057785550225e-01
4.507999999999999829e+01,1.587374483084720844e-01
4.511999999999999744e+01,1.810793647329838052e-01
4.515999999999999659e+01,9.420845308008436725e-02
4.520000000000000284e+01,3.015122623516025904e-02
4.524000000000000199e+01,1.584232071772199435e-01
4.528000000000000114e+01,7.968493963858884477e-02
4.532000000000000028e+01,1.655666097117089730e-01
4.535999999999999943e+01,1.813544141487196948e-01
4.539999999999999858e+01,9.281925585460276684e-02
4.543999999999999773e+01,6.947665780836521920e-02
4.547999999999999687e+01,9.176713556031873553e-02
4.552000000000000313e+01,1.222016780942601355e-01
4.556000000000000227e+01,9.558200606391842324e-02
4.560000000000000142e+01,1.732738576453409785e-01
4.564000000000000057e+01,1.580524396842871715e-01
4.567999999999999972e+01,1.819442650661445282e-01
4.571999999999999886e+01,1.846409253264186812e-01
4.575999999999999801e+01,1.465829360154209948e-01
4.579999999999999716e+01,9.873947846182125343e-02
4.584000000000000341e+01,1.323881415362007374e-01
4.588000000000000256e+01,1.448416357986686553e-01
4.592000000000000171e+01,1.442497451296028410e-01
4.596000000000000085e+01,1.550618230153046062e-01
4.600000000000000000e+01,1.723879976514155754e-01
4.603999999999999915e+01,1.685189997852853117e-01
4.607999999999999829e+01,1.190054740854488285e-01
4.611999999999999744e+01,1.493541055949237639e-01
4.615999999999999659e+01,1.650273896767798232e-01
4.620000000000000284e+01,1.937345937385021866e-01
4.624000000000000199e+01,1.034492030495397785e-01
4.628000000000000114e+01,1.060656215642979266e-01
4.632000000000000028e+01,2.048437622813785719e-01
4.635999999999999943e+01,1.634398649923288760e-01
4.639999999999999858e+01,1.546293665973409726e-01
4.643999999999999773e+01,1.409232560802115009e-01
4.647999999999999687e+01,1.076519198730291477e-01
4.652000000000000313e+01,9.882419498920051726e-02
4.656000000000000227e+01,1.943079715751621361e-01
4.660000000000000142e+01,1.528696185406845098e-01
4.664000000000000057e+01,1.815136689583960738e-01
4.667999999999999972e+01,1.482136080977456416e-01
4.671999999999999886e+01,1.295774121839845805e-01
4.675999999999999801e+01,1.076755537280166403e-01
4.679999999999999716e+01,1.656358367974624379e-01
4.684000000000000341e+01,1.209030808834117565e-01
4.688000000000000256e+01,2.326404417974444749e-01
4.692000000000000171e+01,1.846362682620890372e-01
4.696000000000000085e+01,1.659655667834593895e-01
4.700000000000000000e+01,1.326194985029838791e-01
4.703999999999999915e+01,2.198844902272340807e-01
4.707999999999999829e+01,1.865269108659800001e-01
4.711999999999999744e+01,1.547935315410556567e-01
4.715999999999999659e+01,1.768429740688290952e-01
4.720000000000000284e+01,1.646575616547394094e-01
4.724000000000000199e+01,1.573562604304167278e-01
4.728000000000000114e+01,2.250272187787441258e-01
4.732000000000000028e+01,1.166570638459389631e-01
4.735999999999999943e+01,1.533473159460845003e-01
4.739999999999999858e+01,1.183136983978345935e-01
4.743999999999999773e+01,1.435827240865760746e-01
4.747999999999999687e+01,1.134274478876791392e-01
4.752000000000000313e+01,1.696541244500847923e-01
4.756000000000000227e+01,1.394873150284356156e-01
4.760000000000000142e+01,1.125746515327217812e-01
4.764000000000000057e+01,1.883435076364854688e-01
4.767999999999999972e+01,1.174104674465359238e-01
4.771999999999999886e+01,1.149298488384634109e-01
4.775999999999999801e+01,2.135007901015293641e-01
4.779999999999999716e+01,1.555900905395823375e-01
4.784000000000000341e+01,1.922111211612410886e-01
4.788000000000000256e+01,2.125268077236520947e-01
4.792000000000000171e+01,1.871979240135739631e-01
4.796000000000000085e+01,1.634932209655982627e-01
4.800000000000000000e+01,7.295450531227042068e-02
4.803999999999999915e+01,1.062867405202962690e-01
4.807999999999999829e+01,1.950317333222210958e-01
4.811999999999999744e+01,1.533743892879506077e-01
4.815999999999999659e+01,2.176584667807728302e-01
4.820000000000000284e+01,1.466503347104583521e-01
4.824000000000000199e+01,2.174426754551015972e-01
4.828000000000000114e+01,2.344406528210539187e-01
4.832000000000000028e+01,1.422257292255984795e-01
4.835999999999999943e+01,2.341901566527509471e-01
4.839999999999999858e+01,8.817508138654622796e-02
4.843999999999999773e+01,3.995163638639787768e-02
4.847999999999999687e+01,1.563480561140039860e-01
4.852000000000000313e+01,1.407121728190003362e-01
4.856000000000000227e+01,1.104008867414438266e-01
4.860000000000000142e+01,5.563445519519816945e-02
4.864000000000000057e+01,1.475583581198643968e-01
4.867999999999999972e+01,1.596085770705420459e-01
4.871999999999999886e+01,2.172917970902499551e-01
4.875999999999999801e+01,1.364228807094853835e-01
4.879999999999999716e+01,1.566055002127210716e-01
4.884000000000000341e+01,1.784122800812504017e-01
4.888000000000000256e+01,1.268651992052491351e-01
4.892000000000000171e+01,2.073388336967538770e-01
4.896000000000000085e+01,1.785995524655347444e-01
4.900000000000000000e+01,1.596342127122412358e-01
4.903999999999999915e+01,1.683723400808053994e-01
4.907999999999999829e+01,1.608050957126550273e-01
4.911999999999999744e+01,2.037607140694889241e-01
4.915999999999999659e+01,1.114241007212128654e-01
4.920000000000000284e+01,1.771875076518417136e-01
4.924000000000000199e+01,1.353679493622640118e-01
4.928000000000000114e+01,1.603708197132634461e-01
4.932000000000000028e+01,1.152797330925119518e-01
4.935999999999999943e+01,1.321212023853967354e-01
4.939999999999999858e+01,1.554766900092002524e-01
4.943999999999999773e+01,1.494871419083117214e-01
4.947999999999999687e+01,1.092626862783718372e-01
4.952000000000000313e+01,1.456403955170695597e-01
4.956000000000000227e+01,1.901620763569489558e-01
4.960000000000000142e+01,1.792594064123320952e-01
4.964000000000000057e+01,1.536813087754420326e-01
4.967999999999999972e+01,1.558066634990931676e-01
4.971999999999999886e+01,1.530363304488601972e-01
4.975999999999999801e+01,2.399078124165085202e-01
4.979999999999999716e+01,1.572579517452940556e-01
4.984000000000000341e+01,2.033688713010097793e-01
4.988000000000000256e+01,2.070950892988910330e-01
4.992000000000000171e+01,1.896260453040546079e-01
4.996000000000000085e+01,1.770410497633933267e-01
5.000000000000000000e+01,1.807498004784703904e-01
5.003999999999999915e+01,1.388139320241995878e-01
5.007999999999999829e+01,1.311013345470169178e-01
5.011999999999999744e+01,1.331626527154576023e-01
5.015999999999999659e+01,1.792269817793753217e-01
5.020000000000000284e+01,1.095585386781508658e-01
5.024000000000000199e+01,1.344217704055980511e-01
5.028000000000000114e+01,1.853584836942610559e-01
5.032000000000000028e+01,1.841307435131317172e-01
5.035999999999999943e+01,1.519279894273269094e-01
5.039999999999999858e+01,1.800278103074275937e-01
5.043999999999999773e+01,1.347737344622905176e-01
5.047999999999999687e+01,1.302627482107884815e-01
5.052000000000000313e+01,1.224860126943491390e-01
5.056000000000000227e+01,1.782717623746712943e-01
5.060000000000000142e+01,1.900428369300860287e-01
5.064000000000000057e+01,2.001781164134097124e-01
5.067999999999999972e+01,1.402194075571861764e-01
5.071999999999999886e+01,1.552328789315408908e-01
5.075999999999999801e+01,1.930599068749403735e-01
5.079999999999999716e+01,1.624229006716381707e-01
5.084000000000000341e+01,1.953483732070220580e-01
5.088000000000000256e+01,1.679595945535011514e-01
5.092000000000000171e+01,1.275253156456673531e-01
5.096000000000000085e+01,1.767328240782480298e-01
5.100000000000000000e+01,2.145247873719436649e-01
5.103999999999999915e+01,1.235443034415325686e-01
5.107999999999999829e+01,2.297827634828755738e-01
5.111999999999999744e+01,1.958390757308014485e-01
5.115999999999999659e+01,1.407000973859605930e-01
5.120000000000000284e+01,2.371412653485446553e-01
5.124000000000000199e+01,1.852504979470042112e-01
5.128000000000000114e+01,2.148517257022594384e-01
5.132000000000000028e+01,1.482796389871762766e-01
5.135999999999999943e+01,1.909088139137922469e-01
5.139999999999999858e+01,1.536642421308273831e-01
5.143999999999999773e+01,1.033741580999807258e-01
5.147999999999999687e+01,1.182764950070965548e-01
5.152000000000000313e+01,1.771818114418933221e-01
5.156000000000000227e+01,1.659931192403339417e-01
5.160000000000000142e+01,1.482787389429328362e-01
5.164000000000000057e+01,2.104263885384947130e-01
5.167999999999999972e+01,1.731408014392939176e-01
5.171999999999999886e+01,1.228096956341359069e-01
5.175999999999999801e+01,1.376710043088642532e-01
5.179999999999999716e+01,1.802357164472759565e-01
5.184000000000000341e+01,8.913809202815994870e-02
5.188000000000000256e+01,2.360083171439579242e-01
5.192000000000000171e+01,1.253394748520552104e-01
5.196000000000000085e+01,1.255018373237096474e-01
5.200000000000000000e+01,7.186975061652624286e-02
5.203999999999999915e+01,1.453684364336569890e-01
5.207999999999999829e+01,1.471431446602708415e-01
5.211999999999999744e+01,2.418195273935990486e-01
5.215999999999999659e+01,1.963137383463718910e-01
5.220000000000000284e+01,1.866611283399668975e-01
5.224000000000000199e+01,1.655929445946279777e-01
5.228000000000000114e+01,1.445188849119177221e-01
5.232000000000000028e+01,2.147165381624178970e-01
5.235999999999999943e+01,2.441593896155770382e-01
5.239999999999999858e+01,2.002482991369693710e-01
5.243999999999999773e+01,2.198996504937574259e-01
5.247999999999999687e+01,1.352278758223614819e-01
5.252000000000000313e+01,1.988763030919928898e-01
5.256000000000000227e+01,1.793910429759743574e-01
5.260000000000000142e+01,1.533800716995579461e-01
5.264000000000000057e+01,1.583323984337826895e-01
5.267999999999999972e+01,1.469792703988914151e-01
5.271999999999999886e+01,2.008185347019129929e-01
5.275999999999999801e+01,2.562818689571690345e-01
5.279999999999999716e+01,1.210343508921964129e-01
5.284000000000000341e+01,1.715960374812129097e-01
5.288000000000000256e+01,1.341341584221454608e-01
5.292000000000000171e+01,2.058735050240696196e-01
5.296000000000000085e+01,2.075188106992592596e-01
5.300000000000000000e+01,2.156780516729664976e-01
5.303999999999999915e+01,1.944921738895805108e-01
5.307999999999999829e+01,1.765603156383627748e-01
5.311999999999999744e+01,1.961115721691678304e-01
5.315999999999999659e+01,1.797978793327645319e-01
5.320000000000000284e+01,1.618483323790058104e-01
5.324000000000000199e+01,2.661396593903183616e-01
5.328000000000000114e+01,2.172091331040361117e-01
5.332000000000000028e+01,1.601229220902836703e-01
5.335999999999999943e+01,2.285374961950398798e-01
5.339999999999999858e+01,1.975187939339971555e-01
5.343999999999999773e+01,1.664941889806991759e-01
5.347999999999999687e+01,2.234813562845418822e-01
5.352000000000000313e+01,1.516960191641797406e-01
5.356000000000000227e+01,1.614026246134255826e-01
5.360000000000000142e+01,2.346716451431823114e-01
5.364000000000000057e+01,1.905778572051329556e-01
5.367999999999999972e+01,2.247160951477603641e-01
5.371999999999999886e+01,1.789805328710379062e-01
5.375999999999999801e+01,2.440761338416720660e-01
5.379999999999999716e+01,2.292979327477916163e-01
5.384000000000000341e+01,1.101965742579314178e-01
5.388000000000000256e+01,1.459352141836707806e-01
5.392000000000000171e+01,2.110071656368267823e-01
5.396000000000000085e+01,1.815356986898100378e-01
5.400000000000000000e+01,1.830274983856375881e-01
5.403999999999999915e+01,9.812566263908852060e-02
5.407999999999999829e+01,1.974030459858876208e-01
5.411999999999999744e+01,1.776876528333018179e-01
5.415999999999999659e+01,1.547064264607947159e-01
5.420000000000000284e+01,1.203095811428238765e-01
5.424000000000000199e+01,1.788143614347092181e-01
5.428000000000000114e+01,1.916744247635286669e-01
5.432000000000000028e+01,1.262906309948571282e-01
5.435999999999999943e+01,1.375088904623724684e-01
5.439999999999999858e+01,1.878401921498708826e-01
5.443999999999999773e+01,2.055664288687130969e-01
5.447999999999999687e+01,1.906875996963171838e-01
5.452000000000000313e+01,1.546134024342465385e-01
5.456000000000000227e+01,2.277403930072947058e-01
5.460000000000000142e+01,1.900243808129323531e-01
5.464000000000000057e+01,1.376328256035169451e-01
5.467999999999999972e+01,1.602133592890379044e-01
5.471999999999999886e+01,1.615985202719727176e-01
5.475999999999999801e+01,1.287486519450015965e-01
5.479999999999999716e+01,1.643510419028507696e-01
5.484000000000000341e+01,3.695180081884459622e-02
5.488000000000000256e+01,1.540401679184543182e-01
5.492000000000000171e+01,1.081269021310435480e-01
5.496000000000000085e+01,1.779346427952992471e-01
5.500000000000000000e+01,1.809082094023108656e-01
5.503999999999999915e+01,2.735234692463489603e-01
5.507999999999999829e+01,1.819476520253394403e-01
5.511999999999999744e+01,1.963130958021135908e-01
5.515999999999999659e+01,1.650338023190140446e-01
5.520000000000000284e+01,1.712375756436612106e-01
5.524000000000000199e+01,1.790653617204433778e-01
5.528000000000000114e+01,1.119091824789455319e-01
5.532000000000000028e+01,1.881832697159408763e-01
5.535999999999999943e+01,1.731738201835691382e-01
5.539999999999999858e+01,1.826077771612950040e-01
5.543999999999999773e+01,1.235775929727807310e-01
5.547999999999999687e+01,1.281097805034120962e-01
5.552000000000000313e+01,1.750148983429089256e-01
5.556000000000000227e+01,2.349537202780292711e-01
5.560000000000000142e+01,2.019790429476966132e-01
5.564000000000000057e+01,2.097473361978902107e-01
5.567999999999999972e+01,1.816506219581944526e-01
5.571999999999999886e+01,1.486580815572779990e-01
5.575999999999999801e+01,1.466287672055882063e-01
5.579999999999999716e+01,2.423909133648229908e-01
5.584000000000000341e+01,2.191602433536369576e-01
5.588000000000000256e+01,1.665843890820179196e-01
5.592000000000000171e+01,1.433418002087043508e-01
5.596000000000000085e+01,2.244104959983558301e-01
5.600000000000000000e+01,1.082484378188302149e-01
5.603999999999999915e+01,1.371465864719102201e-01
5.607999999999999829e+01,1.236598905669093751e-01
5.611999999999999744e+01,1.981849060286219322e-01
5.615999999999999659e+01,1.586069688210317019e-01
5.620000000000000284e+01,2.086706980955836122e-01
5.624000000000000199e+01,1.951601386340260369e-01
5.628000000000000114e+01,1.686039552921358986e-01
5.632000000000000028e+01,1.420418028320689641e-01
5.635999999999999943e+01,1.497027765036795799e-01
5.639999999999999858e+01,1.785472196996472638e-01
5.643999999999999773e+01,1.861962505219925401e-01
5.647999999999999687e+01,2.394781034324142133e-01
5.652000000000000313e+01,2.242957902668743508e-01
5.656000000000000227e+01,2.417066416595086420e-01
5.660000000000000142e+01,1.841334972886485288e-01
5.664000000000000057e+01,1.558936017096133886e-01
5.667999999999999972e+01,1.667666957633742175e-01
5.671999999999999886e+01,1.417747583401069156e-01
5.675999999999999801e+01,1.917548618375002623e-01
5.679999999999999716e+01,1.683809219190798290e-01
5.684000000000000341e+01,1.466309578495056942e-01
5.688000000000000256e+01,2.389719989870586758e-01
5.692000000000000171e+01,1.943906724779546902e-01
5.696000000000000085e+01,1.367637064046202666e-01
5.700000000000000000e+01,1.541087757164531502e-01
5.703999999999999915e+01,1.958972137125113699e-01
5.707999999999999829e+01,2.034505688888940678e-01
5.711999999999999744e+01,1.637291846382806781e-01
5.715999999999999659e+01,1.729005207130304422e-01
5.720000000000000284e+01,1.510966851215413409e-01
5.724000000000000199e+01,1.749256540890660461e-01
5.728000000000000114e+01,1.628895786634115828e-01
5.732000000000000028e+01,1.459576401732471940e-01
5.735999999999999943e+01,1.583589338684278092e-01
5.739999999999999858e+01,1.952035879445946642e-01
5.743999999999999773e+01,1.065355611046809592e-01
5.747999999999999687e+01,1.612977509238203433e-01
5.752000000000000313e+01,2.127940300261315365e-01
5.756000000000000227e+01,1.550771950505377972e-01
5.760000000000000142e+01,1.984116929908529281e-01
5.764000000000000057e+01,1.635022572593510248e-01
5.767999999999999972e+01,1.090273375147701729e-01
5.771999999999999886e+01,1.067050391005842369e-01
5.775999999999999801e+01,1.141564801188141159e-01
5.779999999999999716e+01,6.944329514437412587e-02
5.784000000000000341e+01,2.333585969494346990e-01
5.788000000000000256e+01,1.902633596604003940e-01
5.792000000000000171e+01,1.618317289952299343e-01
5.796000000000000085e+01,1.024249091347581714e-01
5.800000000000000000e+01,1.897082078609548528e-01
5.803999999999999915e+01,1.677783814382602934e-01
5.807999999999999829e+01,1.817015984367992554e-01
5.811999999999999744e+01,1.662795795103007568e-01
5.815999999999999659e+01,1.769308603963175297e-01
5.820000000000000284e+01,2.364748376205592639e-01
5.824000000000000199e+01,1.639862876347068232e-01
5.828000000000000114e+01,2.104785814473795758e-01
5.832000000000000028e+01,1.917665815890752801e-01
5.835999999999999943e+01,1.681586946791231996e-01
5.839999999999999858e+01,1.086857375436889733e-01
5.843999999999999773e+01,1.844931901223731407e-01
5.847999999999999687e+01,2.016161731821201342e-01
5.852000000000000313e+01,2.431824907905500988e-01
5.856000000000000227e+01,1.755356712565195321e-01
5.860000000000000142e+01,1.421119261895618935e-01
5.864000000000000057e+01,1.771403508395297255e-01
5.867999999999999972e+01,1.534843013576490389e-01
5.871999999999999886e+01,1.379720122056186105e-01
5.875999999999999801e+01,1.208237406973022149e-01
5.879999999999999716e+01,1.558280656096613093e-01
5.884000000000000341e+01,1.565972671087259294e-01
5.888000000000000256e+01,1.573604404443508242e-01
5.892000000000000171e+01,1.695272834180985011e-01
5.896000000000000085e+01,1.670184837379117826e-01
5.900000000000000000e+01,1.416842556782478835e-01
5.903999999999999915e+01,1.114541248830379500e-01
5.907999999999999829e+01,8.284791827206873516e-02
5.911999999999999744e+01,1.846322348095435772e-01
5.915999999999999659e+01,1.413443472327953476e-01
5.920000000000000284e+01,1.290196063632012002e-01
5.924000000000000199e+01,1.639575808841013671e-01
5.928000000000000114e+01,1.402110674344191343e-01
5.932000000000000028e+01,1.881766219389494899e-01
5.935999999999999943e+01,1.856074714306946705e-01
5.939999999999999858e+01,1.259837871447031798e-01
5.943999999999999773e+01,1.886008338235362070e-01
5.947999999999999687e+01,1.501545069434784552e-01
5.952000000000000313e+01,1.182219649810340445e-01
5.956000000000000227e+01,1.759310120038228842e-01
5.960000000000000142e+01,1.179070700546444861e-01
5.964000000000000057e+01,1.218154469154678898e-01
5.967999999999999972e+01,1.354975189247590306e-01
5.971999999999999886e+01,1.214642750663158244e-01
5.975999999999999801e+01,9.764524098407016683e-02
5.979999999999999716e+01,1.618378333909727407e-01
5.984000000000000341e+01,1.200771730539673399e-01
5.988000000000000256e+01,1.076496867796264828e-01
5.992000000000000171e+01,1.294452445271436214e-01
5.996000000000000085e+01,1.659043618468297177e-01
