2.003999999999999915e+01,1.302042590399909300e-02
2.007999999999999829e+01,1.828980720739069657e-02
2.012000000000000099e+01,1.655375367586528479e-02
2.016000000000000014e+01,9.287047180216024059e-03
2.019999999999999929e+01,1.433454736226038445e-02
2.023999999999999844e+01,1.451504656094388529e-02
2.028000000000000114e+01,8.869936708121504282e-03
2.032000000000000028e+01,1.391677384255490812e-02
2.035999999999999943e+01,1.763608653729719158e-02
2.039999999999999858e+01,6.164926138934626217e-03
2.044000000000000128e+01,1.054744923078846340e-02
2.048000000000000043e+01,2.230366066072842976e-02
2.051999999999999957e+01,1.606731388218685455e-02
2.055999999999999872e+01,1.432883114767835586e-02
2.060000000000000142e+01,9.788042730011546275e-03
2.064000000000000057e+01,1.099868304961078812e-02
2.067999999999999972e+01,2.091031575844094423e-02
2.071999999999999886e+01,1.445165066616905560e-02
2.076000000000000156e+01,1.588284816271805927e-02
2.080000000000000071e+01,1.510165313666677125e-02
2.083999999999999986e+01,6.135199463879832150e-03
2.087999999999999901e+01,1.331738662333894867e-02
2.092000000000000171e+01,2.123674509139801547e-02
2.096000000000000085e+01,1.426058807723492618e-02
2.100000000000000000e+01,9.201427975846060078e-03
2.103999999999999915e+01,7.534046658022678852e-03
2.107999999999999829e+01,1.250296413196439436e-02
2.112000000000000099e+01,1.489079435495412745e-02
2.116000000000000014e+01,1.867944822577822378e-02
2.119999999999999929e+01,1.855971142182956390e-02
2.123999999999999844e+01,2.426514378847132239e-02
2.128000000000000114e+01,2.569349021428232044e-02
2.132000000000000028e+01,2.977622516039617195e-02
2.135999999999999943e+01,3.068796068079479925e-02
2.139999999999999858e+01,3.351669401014486377e-02
2.144000000000000128e+01,3.059355997596145682e-02
2.148000000000000043e+01,3.187333569078397433e-02
2.151999999999999957e+01,3.352158861317873495e-02
2.155999999999999872e+01,3.140892984547759281e-02
2.160000000000000142e+01,2.516666403200472357e-02
2.164000000000000057e+01,1.508974761861266861e-02
2.167999999999999972e+01,2.241503834381848581e-02
2.171999999999999886e+01,2.339854962034541158e-02
2.176000000000000156e+01,2.209593143603856211e-02
2.180000000000000071e+01,1.902335750392635666e-02
2.183999999999999986e+01,1.963752050396863971e-02
2.187999999999999901e+01,2.415963779295934866e-02
2.192000000000000171e+01,2.285614970477041485e-02
2.196000000000000085e+01,1.270375367761391976e-02
2.200000000000000000e+01,1.928991370446896114e-02
2.203999999999999915e+01,2.093533769170170811e-02
2.207999999999999829e+01,1.712385210551922721e-02
2.212000000000000099e+01,1.596675683199379539e-02
2.216000000000000014e+01,2.218335366049858925e-02
2.219999999999999929e+01,9.227570619527114548e-03
2.223999999999999844e+01,1.411643050615354368e-02
2.228000000000000114e+01,1.037760043793018415e-02
2.232000000000000028e+01,2.278741442819059992e-02
2.235999999999999943e+01,1.558241437309355534e-02
2.239999999999999858e+01,1.648849784831975598e-02
2.244000000000000128e+01,1.496097520809595849e-02
2.248000000000000043e+01,1.424436646062174003e-02
2.251999999999999957e+01,1.964788610773964342e-02
2.255999999999999872e+01,1.723484640697717230e-02
2.260000000000000142e+01,1.872976260828190104e-02
2.264000000000000057e+01,2.125681032798311387e-02
2.267999999999999972e+01,2.053912249029514470e-02
2.271999999999999886e+01,2.431930353599694172e-02
2.276000000000000156e+01,2.426483649107560175e-02
2.280000000000000071e+01,2.634858765890173843e-02
2.283999999999999986e+01,2.629368996368976891e-02
2.287999999999999901e+01,3.626709318973936336e-02
2.292000000000000171e+01,4.011993692281757423e-02
2.296000000000000085e+01,4.131795843830009946e-02
2.300000000000000000e+01,5.247054205483862865e-02
2.303999999999999915e+01,5.034987480856713965e-02
2.307999999999999829e+01,4.985125277895644663e-02
2.312000000000000099e+01,5.060598061033084322e-02
2.316000000000000014e+01,4.708362671290720197e-02
2.319999999999999929e+01,3.729323577171884257e-02
2.323999999999999844e+01,2.742889135731255840e-02
2.328000000000000114e+01,2.670797969164080687e-02
2.332000000000000028e+01,2.112007394317241479e-02
2.335999999999999943e+01,1.885021308703842616e-02
2.339999999999999858e+01,1.930848450038711098e-02
2.344000000000000128e+01,1.947158562143041019e-02
2.348000000000000043e+01,1.535760573061736162e-02
2.351999999999999957e+01,1.308688930943598290e-02
2.355999999999999872e+01,1.568273909890980505e-02
2.360000000000000142e+01,1.009333642527053543e-02
2.364000000000000057e+01,1.003415194304998342e-02
2.367999999999999972e+01,1.439909940598575050e-02
2.371999999999999886e+01,1.249601099018719103e-02
2.376000000000000156e+01,1.287862111607863437e-02
2.380000000000000071e+01,1.326101811245882986e-02
2.383999999999999986e+01,1.688772198752738762e-02
2.387999999999999901e+01,1.432012943139108867e-02
2.392000000000000171e+01,1.219475854894873541e-02
2.396000000000000085e+01,7.045872244060224186e-03
2.400000000000000000e+01,1.185155028067059156e-02
2.403999999999999915e+01,8.693194107138714141e-03
2.407999999999999829e+01,1.416209885128503522e-02
2.412000000000000099e+01,1.129827411923111161e-02
2.416000000000000014e+01,1.499701599044777137e-02
2.419999999999999929e+01,1.478737390822037687e-02
2.423999999999999844e+01,1.376638970263116546e-02
2.428000000000000114e+01,9.869368969654800788e-03
2.432000000000000028e+01,1.902395503558362150e-02
2.435999999999999943e+01,1.741242222408216286e-02
2.439999999999999858e+01,9.901550502640880588e-03
2.444000000000000128e+01,1.315637408813885231e-02
2.448000000000000043e+01,6.529948133763859193e-03
2.451999999999999957e+01,1.066921766556356774e-02
2.455999999999999872e+01,1.348097216753239846e-02
2.460000000000000142e+01,8.402432803065702088e-03
2.464000000000000057e+01,1.416332828268554965e-02
2.467999999999999972e+01,1.306627732192679886e-02
2.471999999999999886e+01,1.366501434121387970e-02
2.476000000000000156e+01,1.264128042252392510e-02
2.480000000000000071e+01,1.316585648499790824e-02
2.483999999999999986e+01,1.051944091849809845e-02
2.487999999999999901e+01,1.096985638262981851e-02
2.492000000000000171e+01,7.880584951729842011e-03
2.496000000000000085e+01,1.187005553986549868e-02
2.500000000000000000e+01,1.172992669973538064e-02
2.503999999999999915e+01,8.861241213072114375e-03
2.507999999999999829e+01,1.218642894559351236e-02
2.512000000000000099e+01,9.833496648470036947e-03
2.516000000000000014e+01,1.124104781083029234e-02
2.519999999999999929e+01,6.454305499370367565e-03
2.523999999999999844e+01,1.125343486226513048e-02
2.528000000000000114e+01,1.177548724610081796e-02
2.532000000000000028e+01,1.259228626213323814e-02
2.535999999999999943e+01,9.943138457987403880e-03
2.539999999999999858e+01,7.662476554332355722e-03
2.544000000000000128e+01,1.378786134818182733e-02
2.548000000000000043e+01,4.575306252258927626e-03
2.551999999999999957e+01,1.755800768704884537e-02
2.555999999999999872e+01,1.114711951307461799e-02
2.560000000000000142e+01,8.791672140613637429e-03
2.564000000000000057e+01,5.772363959528272782e-03
2.567999999999999972e+01,1.115910301365367722e-02
2.571999999999999886e+01,1.337485241039499534e-02
2.576000000000000156e+01,8.953875053612123450e-03
2.580000000000000071e+01,1.080051161819145858e-02
2.583999999999999986e+01,1.360554778152594374e-02
2.587999999999999901e+01,1.567298458488362162e-02
2.592000000000000171e+01,1.066126045883588648e-02
2.596000000000000085e+01,1.648897413425930852e-02
2.600000000000000000e+01,1.081318171599205367e-02
2.603999999999999915e+01,6.611962967979196672e-03
2.607999999999999829e+01,1.376635591370142624e-02
2.612000000000000099e+01,8.384895787764606867e-03
2.616000000000000014e+01,6.026530471167565461e-03
2.619999999999999929e+01,1.259038717822243483e-02
2.623999999999999844e+01,6.544651993412691805e-03
2.628000000000000114e+01,1.178078986136792301e-02
2.632000000000000028e+01,9.052898627390710759e-03
2.635999999999999943e+01,1.126531896636758651e-02
2.639999999999999858e+01,1.001179481522688000e-02
2.644000000000000128e+01,8.168150736874752946e-03
2.648000000000000043e+01,8.241515848924043514e-03
2.651999999999999957e+01,1.414006196110239796e-02
2.655999999999999872e+01,7.723973254592618985e-03
2.660000000000000142e+01,1.000889020073575386e-02
2.664000000000000057e+01,1.185116584587346013e-02
2.667999999999999972e+01,1.266088756715397397e-02
2.671999999999999886e+01,8.456144645026393916e-03
2.676000000000000156e+01,7.938149678032522735e-03
2.680000000000000071e+01,5.871427432623838039e-03
2.683999999999999986e+01,3.140847067122273448e-03
2.687999999999999901e+01,4.834405816194326487e-03
2.692000000000000171e+01,5.937845713467551287e-03
2.696000000000000085e+01,1.205533761701923882e-02
2.700000000000000000e+01,1.470688637471911052e-02
2.703999999999999915e+01,1.241771029501132287e-02
2.707999999999999829e+01,8.579807564212728679e-03
2.712000000000000099e+01,1.462273707603628861e-02
2.716000000000000014e+01,9.973293072728392147e-03
2.719999999999999929e+01,9.231815277525085364e-03
2.723999999999999844e+01,1.660143185638875488e-02
2.728000000000000114e+01,1.261502338744601402e-02
2.732000000000000028e+01,9.365800565937852651e-03
2.735999999999999943e+01,9.582109776653090910e-03
2.739999999999999858e+01,1.628725376061526328e-02
2.744000000000000128e+01,1.716680473464271203e-02
2.748000000000000043e+01,2.652614606573690595e-02
2.751999999999999957e+01,3.308319721753763543e-02
2.755999999999999872e+01,2.975900573002962513e-02
2.760000000000000142e+01,3.963390656819675700e-02
2.764000000000000057e+01,3.630930593865000500e-02
2.767999999999999972e+01,5.016570862318256441e-02
2.771999999999999886e+01,4.676696012100933081e-02
2.776000000000000156e+01,4.911965630805568972e-02
2.780000000000000071e+01,3.746172140621352453e-02
2.783999999999999986e+01,3.413609948988011872e-02
2.787999999999999901e+01,2.417375556976148962e-02
2.792000000000000171e+01,1.686581495686879928e-02
2.796000000000000085e+01,1.825888304363142145e-02
2.800000000000000000e+01,1.552235842345701423e-02
2.803999999999999915e+01,1.167954383736907568e-02
2.807999999999999829e+01,1.388313101367723464e-02
2.812000000000000099e+01,8.565127655202240189e-03
2.816000000000000014e+01,8.777352614948035620e-03
2.819999999999999929e+01,1.031667790618754493e-02
2.823999999999999844e+01,1.819736167452866427e-02
2.828000000000000114e+01,1.110880727163104584e-02
2.832000000000000028e+01,1.272126237494822926e-02
2.835999999999999943e+01,1.728307812752090389e-02
2.839999999999999858e+01,1.181617494463944526e-02
2.844000000000000128e+01,8.708719877779564494e-03
2.848000000000000043e+01,1.186888473666890438e-02
2.851999999999999957e+01,1.023580625212343331e-02
2.855999999999999872e+01,6.611569897990674308e-03
2.860000000000000142e+01,7.632693779169283203e-03
2.864000000000000057e+01,1.219309164939694733e-02
2.867999999999999972e+01,9.084422061372179891e-03
2.871999999999999886e+01,7.302853969871496258e-03
2.876000000000000156e+01,6.627170197336576703e-03
2.880000000000000071e+01,5.656328141270231154e-03
2.883999999999999986e+01,7.708586898930706692e-03
2.887999999999999901e+01,6.884819435241465620e-03
2.892000000000000171e+01,2.226417682057371152e-03
2.896000000000000085e+01,8.923634075083914513e-03
2.900000000000000000e+01,1.193369453596844314e-02
2.903999999999999915e+01,4.177646604695483060e-03
2.907999999999999829e+01,1.065304156177480227e-02
2.912000000000000099e+01,1.189275998533295686e-02
2.916000000000000014e+01,6.938193807224862959e-03
2.919999999999999929e+01,9.283596414806362732e-03
2.923999999999999844e+01,8.015582717010846792e-03
2.928000000000000114e+01,2.912935536279949444e-03
2.932000000000000028e+01,9.165907308319077781e-03
2.935999999999999943e+01,1.195294122195170693e-02
2.939999999999999858e+01,8.693169249741705337e-03
2.944000000000000128e+01,5.064501338825083340e-03
2.948000000000000043e+01,1.345510454067753298e-02
2.951999999999999957e+01,7.687602329085876582e-03
2.955999999999999872e+01,5.680593434926767618e-03
2.960000000000000142e+01,8.466425194639378912e-03
2.964000000000000057e+01,1.044092692938185588e-02
2.967999999999999972e+01,6.221145227488400486e-03
2.971999999999999886e+01,1.247211430583804008e-02
2.976000000000000156e+01,9.947932009733442826e-03
2.980000000000000071e+01,5.137638265956054849e-03
2.983999999999999986e+01,6.226272049636821272e-03
2.987999999999999901e+01,6.282359078877738055e-03
2.992000000000000171e+01,8.329202094702323200e-03
2.996000000000000085e+01,1.236680118672830141e-02
3.000000000000000000e+01,8.145423065417080333e-03
3.003999999999999915e+01,5.767323021425343685e-03
3.007999999999999829e+01,8.771977419187317049e-03
3.012000000000000099e+01,5.729827544225620135e-03
3.016000000000000014e+01,7.922954112135741078e-03
3.019999999999999929e+01,5.986492902083246151e-03
3.023999999999999844e+01,5.155919326851991780e-03
3.028000000000000114e+01,4.841320763590306088e-03
3.032000000000000028e+01,2.461829184862127356e-03
3.035999999999999943e+01,4.137789072155517028e-03
3.039999999999999858e+01,8.173201466738569398e-03
3.044000000000000128e+01,6.604244839891719107e-03
3.048000000000000043e+01,8.058392701098062577e-03
3.051999999999999957e+01,0.000000000000000000e+00
3.055999999999999872e+01,4.772010810994776683e-03
3.060000000000000142e+01,5.414434740204132450e-03
3.064000000000000057e+01,7.826399001939989344e-03
3.067999999999999972e+01,8.910861945355622732e-03
3.071999999999999886e+01,5.791999186780257859e-03
3.076000000000000156e+01,4.000242495232511457e-03
3.080000000000000071e+01,1.046706633184586906e-02
3.083999999999999986e+01,3.365700424869210242e-03
3.087999999999999901e+01,4.817871581523817427e-03
3.092000000000000171e+01,8.334540054263659195e-03
3.096000000000000085e+01,9.048926054833716232e-03
3.100000000000000000e+01,1.131163592731373319e-02
3.103999999999999915e+01,1.091954168497671906e-02
3.107999999999999829e+01,9.863598822024727264e-03
3.112000000000000099e+01,6.079112934432501225e-03
3.116000000000000014e+01,1.055320838156080000e-02
3.119999999999999929e+01,6.399633858590034197e-03
3.123999999999999844e+01,8.513685444990900034e-03
3.128000000000000114e+01,8.489107077691805323e-03
3.132000000000000028e+01,9.496679675833660794e-03
3.135999999999999943e+01,1.360109782267713771e-02
3.139999999999999858e+01,2.124479614219204615e-02
3.144000000000000128e+01,1.060100436262728305e-02
3.148000000000000043e+01,1.625335534212073510e-02
3.151999999999999957e+01,1.364673251375024023e-02
3.155999999999999872e+01,9.933827605825272869e-03
3.160000000000000142e+01,1.883011127287777253e-02
3.164000000000000057e+01,2.315437585385335395e-02
3.167999999999999972e+01,2.349653415083919825e-02
3.171999999999999886e+01,2.546075702191253481e-02
3.176000000000000156e+01,2.086200567117784885e-02
3.180000000000000071e+01,2.157227352670000597e-02
3.183999999999999986e+01,2.405208440328018490e-02
3.187999999999999901e+01,2.800648203430137692e-02
3.192000000000000171e+01,2.289077677399032479e-02
3.196000000000000085e+01,2.478009012675661329e-02
3.200000000000000000e+01,1.981147343918641252e-02
3.203999999999999915e+01,1.801344291287768767e-02
3.207999999999999829e+01,1.673139143133578477e-02
3.211999999999999744e+01,1.928357809181888843e-02
3.215999999999999659e+01,1.033227245973964911e-02
3.220000000000000284e+01,1.325276585631682616e-02
3.224000000000000199e+01,5.333418941095173504e-03
3.228000000000000114e+01,9.285871233765369270e-03
3.232000000000000028e+01,1.264821677302848529e-02
3.235999999999999943e+01,1.173350119556830495e-02
3.239999999999999858e+01,1.037615722205381674e-02
3.243999999999999773e+01,8.944880387396178176e-03
3.247999999999999687e+01,1.024175616544279778e-02
3.252000000000000313e+01,1.411930646769410727e-02
3.256000000000000227e+01,9.074233490613960174e-03
3.260000000000000142e+01,1.051800693708386872e-02
3.264000000000000057e+01,1.277271703920331014e-02
3.267999999999999972e+01,9.644280405661016797e-03
3.271999999999999886e+01,1.042382234746818195e-02
3.275999999999999801e+01,1.076073669978049561e-02
3.279999999999999716e+01,1.058128446315699175e-02
3.284000000000000341e+01,9.000596658511255538e-03
3.288000000000000256e+01,7.640933334751919687e-03
3.292000000000000171e+01,9.156901787609134438e-03
3.296000000000000085e+01,5.879636844598048334e-03
3.300000000000000000e+01,4.666873877793489139e-03
3.303999999999999915e+01,6.182264778341265386e-03
3.307999999999999829e+01,1.558754586996656012e-02
3.311999999999999744e+01,1.282568501832660225e-02
3.315999999999999659e+01,1.375058646065493127e-02
3.320000000000000284e+01,1.061964593540809000e-02
3.324000000000000199e+01,7.635991608548367039e-03
3.328000000000000114e+01,9.813881625683706228e-03
3.332000000000000028e+01,4.765149114573800741e-03
3.335999999999999943e+01,8.343698312452220434e-03
3.339999999999999858e+01,8.235101436137424666e-03
3.343999999999999773e+01,1.004352934370665411e-02
3.347999999999999687e+01,8.754724068787514066e-03
3.352000000000000313e+01,9.456682846046518542e-03
3.356000000000000227e+01,1.399288299156834468e-02
3.360000000000000142e+01,1.100750487993424828e-02
3.364000000000000057e+01,7.210805705101654833e-03
3.367999999999999972e+01,1.491721342948760208e-02
3.371999999999999886e+01,1.524952134368812509e-02
3.375999999999999801e+01,1.528668208695406483e-02
3.379999999999999716e+01,1.377513123490558579e-02
3.384000000000000341e+01,1.196843339115797461e-02
3.388000000000000256e+01,2.151736471660012015e-02
3.392000000000000171e+01,1.277881149926099642e-02
3.396000000000000085e+01,1.281501951329332492e-02
3.400000000000000000e+01,7.689301016224605809e-03
3.403999999999999915e+01,1.178077846411480605e-02
3.407999999999999829e+01,1.048911231296336365e-02
3.411999999999999744e+01,1.015586431143433548e-02
3.415999999999999659e+01,8.568861877385040154e-03
3.420000000000000284e+01,4.916975120787765718e-03
3.424000000000000199e+01,9.081242065123134102e-03
3.428000000000000114e+01,1.051697306461784297e-02
3.432000000000000028e+01,1.468086079923181832e-02
3.435999999999999943e+01,8.373608417079351357e-03
3.439999999999999858e+01,1.128355278644525839e-02
3.443999999999999773e+01,1.117000521320665567e-02
3.447999999999999687e+01,7.738009430746567441e-03
3.452000000000000313e+01,9.836256215724087718e-03
3.456000000000000227e+01,1.370405211576432997e-02
3.460000000000000142e+01,1.314731373955607685e-02
3.464000000000000057e+01,1.133682200624016798e-02
3.467999999999999972e+01,1.085344512248810102e-02
3.471999999999999886e+01,1.479422491838203006e-02
3.475999999999999801e+01,1.283568901532472495e-02
3.479999999999999716e+01,1.124566007292158998e-02
3.484000000000000341e+01,1.142518087290521518e-02
3.488000000000000256e+01,1.912590045147021314e-02
3.492000000000000171e+01,1.642922025697546307e-02
3.496000000000000085e+01,1.513339462842723006e-02
3.500000000000000000e+01,1.730311814908621834e-02
3.503999999999999915e+01,2.153734821645527167e-02
3.507999999999999829e+01,2.643504222803716441e-02
3.511999999999999744e+01,2.653950768310747721e-02
3.515999999999999659e+01,3.084691353644266124e-02
3.520000000000000284e+01,4.319169250871172233e-02
3.524000000000000199e+01,4.646637602791896249e-02
3.528000000000000114e+01,4.819235126766729937e-02
3.532000000000000028e+01,4.335536026158434003e-02
3.535999999999999943e+01,4.367991825961767272e-02
3.539999999999999858e+01,4.127594282210641369e-02
3.543999999999999773e+01,3.739699855266576112e-02
3.547999999999999687e+01,3.565630090478875275e-02
3.552000000000000313e+01,3.723367539303192031e-02
3.556000000000000227e+01,2.465295800010619542e-02
3.560000000000000142e+01,2.667239354851388272e-02
3.564000000000000057e+01,2.802799069272627480e-02
3.567999999999999972e+01,2.407418691166434213e-02
3.571999999999999886e+01,2.093132668681607980e-02
3.575999999999999801e+01,2.862792621977952243e-02
3.579999999999999716e+01,2.968782149326556347e-02
3.584000000000000341e+01,2.897779247476471587e-02
3.588000000000000256e+01,3.033227188494594731e-02
3.592000000000000171e+01,3.544725886177661073e-02
3.596000000000000085e+01,3.930849543888428194e-02
3.600000000000000000e+01,3.277233466261052913e-02
3.603999999999999915e+01,3.397859253100797561e-02
3.607999999999999829e+01,3.216136213112728848e-02
3.611999999999999744e+01,2.901664260093579292e-02
3.615999999999999659e+01,2.985364844227604217e-02
3.620000000000000284e+01,2.722473174983924132e-02
3.624000000000000199e+01,2.717649791605472945e-02
3.628000000000000114e+01,3.759902955981882233e-02
3.632000000000000028e+01,3.592816551879364495e-02
3.635999999999999943e+01,3.543694191315900632e-02
3.639999999999999858e+01,3.347075162642022816e-02
3.643999999999999773e+01,2.966089930290160062e-02
3.647999999999999687e+01,2.725190495080271127e-02
3.652000000000000313e+01,3.317524303125703872e-02
3.656000000000000227e+01,3.150327039720778738e-02
3.660000000000000142e+01,3.101093873625538830e-02
3.664000000000000057e+01,3.066590089119605386e-02
3.667999999999999972e+01,2.655998523153753690e-02
3.671999999999999886e+01,3.373596601486796714e-02
3.675999999999999801e+01,3.080950750378831995e-02
3.679999999999999716e+01,2.832529952330732625e-02
3.684000000000000341e+01,2.635708125210136157e-02
3.688000000000000256e+01,2.254520192991045502e-02
3.692000000000000171e+01,2.699191684739125907e-02
3.696000000000000085e+01,2.214732289819603198e-02
3.700000000000000000e+01,2.246428162744344009e-02
3.703999999999999915e+01,2.455079502805202277e-02
3.707999999999999829e+01,2.737451594281797157e-02
3.711999999999999744e+01,2.923944541300942113e-02
3.715999999999999659e+01,2.933445354859860743e-02
3.720000000000000284e+01,2.308771691756518127e-02
3.724000000000000199e+01,2.672183520243612623e-02
3.728000000000000114e+01,2.991333602461418786e-02
3.732000000000000028e+01,2.735300506149221031e-02
3.735999999999999943e+01,3.150274845360458847e-02
3.739999999999999858e+01,2.790970483506804989e-02
3.743999999999999773e+01,2.940447579171035983e-02
3.747999999999999687e+01,3.112028153527645821e-02
3.752000000000000313e+01,2.737921229786583616e-02
3.756000000000000227e+01,3.241291235742114335e-02
3.760000000000000142e+01,3.058869492312023264e-02
3.764000000000000057e+01,3.473716158079092481e-02
3.767999999999999972e+01,4.006527163123679847e-02
3.771999999999999886e+01,3.676572631927135792e-02
3.775999999999999801e+01,3.840651812130913695e-02
3.779999999999999716e+01,4.034208451627112335e-02
3.784000000000000341e+01,4.478459826553539413e-02
3.788000000000000256e+01,4.871075680731380003e-02
3.792000000000000171e+01,3.958491509124881236e-02
3.796000000000000085e+01,4.926235968030714951e-02
3.800000000000000000e+01,5.318797400756662686e-02
3.803999999999999915e+01,5.187793178605573652e-02
3.807999999999999829e+01,5.978509456089314139e-02
3.811999999999999744e+01,7.167398709853042837e-02
3.815999999999999659e+01,7.169070534096938507e-02
3.820000000000000284e+01,7.679523986132383295e-02
3.824000000000000199e+01,9.384532603166853559e-02
3.828000000000000114e+01,9.688480459296644476e-02
3.832000000000000028e+01,1.266176527952257436e-01
3.835999999999999943e+01,1.424136326567323196e-01
3.839999999999999858e+01,1.758330743842183019e-01
3.843999999999999773e+01,2.092523357822771990e-01
3.847999999999999687e+01,2.556494966148541437e-01
3.852000000000000313e+01,3.334593292362365569e-01
3.856000000000000227e+01,4.297774931507732932e-01
3.860000000000000142e+01,5.447514666261994432e-01
3.864000000000000057e+01,7.096466235130125533e-01
3.867999999999999972e+01,8.643656063180070737e-01
3.871999999999999886e+01,9.630427017363031306e-01
3.875999999999999801e+01,1.000000000000000000e+00
3.879999999999999716e+01,9.530420353920533438e-01
3.884000000000000341e+01,8.401611457323980847e-01
3.888000000000000256e+01,6.997753965102239126e-01
3.892000000000000171e+01,5.487710392095852541e-01
3.896000000000000085e+01,4.219529239557965328e-01
3.900000000000000000e+01,3.113572292201380320e-01
3.903999999999999915e+01,2.372622045833640558e-01
3.907999999999999829e+01,1.805694260688946173e-01
3.911999999999999744e+01,1.465881081785722073e-01
3.915999999999999659e+01,1.226351276839219573e-01
3.920000000000000284e+01,9.728092587046635598e-02
3.924000000000000199e+01,8.107019256321414125e-02
3.928000000000000114e+01,7.503527509860456746e-02
3.932000000000000028e+01,6.523948573416511743e-02
3.935999999999999943e+01,6.502959967913424233e-02
3.939999999999999858e+01,5.346371573046508618e-02
3.943999999999999773e+01,4.912408442056225705e-02
3.947999999999999687e+01,4.279331970670867402e-02
3.952000000000000313e+01,4.973541311366851819e-02
3.956000000000000227e+01,4.104464182005752859e-02
3.960000000000000142e+01,3.574569089263249927e-02
3.964000000000000057e+01,3.641942853806485331e-02
3.967999999999999972e+01,3.377472962457883643e-02
3.971999999999999886e+01,3.385819954460378423e-02
3.975999999999999801e+01,2.870601676942018121e-02
3.979999999999999716e+01,2.694565480851109085e-02
3.984000000000000341e+01,2.975693917643307956e-02
3.988000000000000256e+01,2.969222196787733511e-02
3.992000000000000171e+01,2.866871958798725487e-02
3.996000000000000085e+01,2.263078222815321019e-02
4.000000000000000000e+01,2.300796878208807850e-02
4.003999999999999915e+01,1.925558960401856784e-02
4.007999999999999829e+01,2.317189903295091211e-02
4.011999999999999744e+01,2.258994746382094257e-02
4.015999999999999659e+01,2.377755755623400108e-02
4.020000000000000284e+01,2.083560227511353086e-02
4.024000000000000199e+01,2.475120597982037249e-02
4.028000000000000114e+01,2.431602722305305914e-02
4.032000000000000028e+01,2.373319417077402946e-02
4.035999999999999943e+01,2.986044219505806091e-02
4.039999999999999858e+01,2.212456553815162971e-02
4.043999999999999773e+01,2.345842098692138902e-02
4.047999999999999687e+01,1.999905988795354361e-02
4.052000000000000313e+01,2.428212747084114442e-02
4.056000000000000227e+01,2.001128514323395960e-02
4.060000000000000142e+01,1.574026732555643820e-02
4.064000000000000057e+01,1.552472400565356112e-02
4.067999999999999972e+01,2.002830707467118110e-02
4.071999999999999886e+01,1.774771872907316903e-02
4.075999999999999801e+01,1.554069434093433705e-02
4.079999999999999716e+01,1.606184120598483367e-02
4.084000000000000341e+01,1.525550951561504415e-02
4.088000000000000256e+01,1.636621927802455953e-02
4.092000000000000171e+01,1.511710341742770851e-02
4.096000000000000085e+01,1.239303109214640215e-02
4.100000000000000000e+01,1.696895398978104721e-02
4.103999999999999915e+01,1.903757335514513760e-02
4.107999999999999829e+01,1.557558662645059169e-02
4.111999999999999744e+01,1.380942462106559028e-02
4.115999999999999659e+01,1.351787016143182925e-02
4.120000000000000284e+01,9.981621637411612624e-03
4.124000000000000199e+01,1.750606241600623572e-02
4.128000000000000114e+01,1.197851046464560969e-02
4.132000000000000028e+01,1.257112902820382329e-02
4.135999999999999943e+01,9.329141173377001120e-03
4.139999999999999858e+01,1.368210579387802404e-02
4.143999999999999773e+01,1.139837879099967616e-02
4.147999999999999687e+01,8.598304646229990716e-03
4.152000000000000313e+01,1.398309595811069936e-02
4.156000000000000227e+01,1.096145777805691314e-02
4.160000000000000142e+01,1.243773078095506378e-02
4.164000000000000057e+01,1.435626515819553480e-02
4.167999999999999972e+01,1.185028112152328866e-02
4.171999999999999886e+01,1.354725218042139058e-02
4.175999999999999801e+01,9.049966867233938742e-03
4.179999999999999716e+01,1.067285314437792405e-02
4.184000000000000341e+01,1.037835039407510908e-02
4.188000000000000256e+01,1.325445585099204078e-02
4.192000000000000171e+01,1.023126165052896594e-02
4.196000000000000085e+01,1.620406387215666058e-02
4.200000000000000000e+01,1.649878388281582342e-02
4.203999999999999915e+01,1.472863713599942108e-02
4.207999999999999829e+01,1.214718823532271591e-02
4.211999999999999744e+01,1.406365168262823338e-02
4.215999999999999659e+01,1.450516135378076589e-02
4.220000000000000284e+01,1.597884636639309089e-02
4.224000000000000199e+01,1.818975045384820313e-02
4.228000000000000114e+01,1.597613747165635076e-02
4.232000000000000028e+01,1.088652837966747750e-02
4.235999999999999943e+01,1.088474488583658466e-02
4.239999999999999858e+01,1.515965710013587875e-02
4.243999999999999773e+01,1.228170630808799249e-02
4.247999999999999687e+01,8.887410614591664121e-03
4.252000000000000313e+01,1.220320083701509177e-02
4.256000000000000227e+01,1.256925639828911090e-02
4.260000000000000142e+01,1.433618364249350172e-02
4.264000000000000057e+01,1.256346369231448913e-02
4.267999999999999972e+01,1.049561655595165205e-02
4.271999999999999886e+01,1.358933491336491821e-02
4.275999999999999801e+01,1.129992911878098701e-02
4.279999999999999716e+01,9.010352763101065962e-03
4.284000000000000341e+01,9.227734963938000190e-03
4.288000000000000256e+01,1.209955398902681951e-02
4.292000000000000171e+01,1.511868089999019935e-02
4.296000000000000085e+01,1.393450953198380540e-02
4.300000000000000000e+01,1.769068701790147899e-02
4.303999999999999915e+01,1.643243642443936031e-02
4.307999999999999829e+01,1.406792956132512165e-02
4.311999999999999744e+01,1.516899003981453907e-02
4.315999999999999659e+01,1.567996805129802732e-02
4.320000000000000284e+01,2.135251263197019897e-02
4.324000000000000199e+01,2.540262767805035946e-02
4.328000000000000114e+01,2.797779145727358890e-02
4.332000000000000028e+01,2.959417768266835516e-02
4.335999999999999943e+01,3.261143729373010974e-02
4.339999999999999858e+01,3.459618044114010776e-02
4.343999999999999773e+01,4.188996887356246507e-02
4.347999999999999687e+01,5.287054272132399313e-02
4.352000000000000313e+01,4.895565163125540492e-02
4.356000000000000227e+01,5.853484498056559654e-02
4.360000000000000142e+01,5.661057166798032919e-02
4.364000000000000057e+01,5.697204143709019841e-02
4.367999999999999972e+01,5.534238721210953116e-02
4.371999999999999886e+01,5.695708440582225585e-02
4.375999999999999801e+01,5.458970238009555609e-02
4.379999999999999716e+01,5.347571654771334643e-02
4.384000000000000341e+01,4.756852169548170944e-02
4.388000000000000256e+01,4.741280764840936218e-02
4.392000000000000171e+01,4.290631929507510156e-02
4.396000000000000085e+01,4.061183565131899070e-02
4.400000000000000000e+01,3.610501146323808613e-02
4.403999999999999915e+01,3.602236483573112436e-02
4.407999999999999829e+01,3.785676683042075996e-02
4.411999999999999744e+01,3.725761128246268122e-02
4.415999999999999659e+01,3.584715824076557117e-02
4.420000000000000284e+01,3.576384137764875709e-02
4.424000000000000199e+01,3.759757349519941838e-02
4.428000000000000114e+01,3.913618201127491703e-02
4.432000000000000028e+01,3.713514709691112525e-02
4.435999999999999943e+01,3.690368325395056853e-02
4.439999999999999858e+01,3.586092245495725583e-02
4.443999999999999773e+01,3.865242740024565221e-02
4.447999999999999687e+01,3.458603026592507040e-02
4.452000000000000313e+01,2.889720646477943189e-02
4.456000000000000227e+01,3.338421033581494279e-02
4.460000000000000142e+01,3.610130954114346147e-02
4.464000000000000057e+01,3.660606963603062203e-02
4.467999999999999972e+01,3.172770988057098396e-02
4.471999999999999886e+01,3.348570188094681516e-02
4.475999999999999801e+01,3.177779052573691948e-02
4.479999999999999716e+01,3.206066849490119691e-02
4.484000000000000341e+01,3.603033492640694835e-02
4.488000000000000256e+01,3.542801193529995785e-02
4.492000000000000171e+01,3.718517398271367624e-02
4.496000000000000085e+01,4.255538567226336416e-02
4.500000000000000000e+01,4.291117367370137631e-02
4.503999999999999915e+01,4.068592801558178901e-02
4.507999999999999829e+01,4.045147230916040781e-02
4.511999999999999744e+01,4.191285028782020666e-02
4.515999999999999659e+01,4.595493110988307234e-02
4.520000000000000284e+01,4.896449950109144078e-02
4.524000000000000199e+01,5.396485820246891413e-02
4.528000000000000114e+01,5.601548833670166178e-02
4.532000000000000028e+01,6.190038618680587801e-02
4.535999999999999943e+01,6.675277196452648887e-02
4.539999999999999858e+01,7.049890667042253700e-02
4.543999999999999773e+01,7.181148679105547883e-02
4.547999999999999687e+01,7.341885871121421603e-02
4.552000000000000313e+01,7.930293332968506304e-02
4.556000000000000227e+01,8.983240618137909583e-02
4.560000000000000142e+01,1.018364965263909155e-01
4.564000000000000057e+01,1.124393799810497196e-01
4.567999999999999972e+01,1.181015803601567077e-01
4.571999999999999886e+01,1.235423994530850111e-01
4.575999999999999801e+01,1.272133164792200732e-01
4.579999999999999716e+01,1.259435506986564535e-01
4.584000000000000341e+01,1.248948384351193375e-01
4.588000000000000256e+01,1.131537945975420872e-01
4.592000000000000171e+01,1.043621507513978752e-01
4.596000000000000085e+01,8.974495538832168162e-02
4.600000000000000000e+01,7.416898847580406795e-02
4.603999999999999915e+01,6.345963813909828721e-02
4.607999999999999829e+01,5.149656007595176249e-02
4.611999999999999744e+01,4.513748965843929206e-02
4.615999999999999659e+01,3.892573438583638024e-02
4.620000000000000284e+01,3.109155621035250908e-02
4.624000000000000199e+01,2.517443149642190070e-02
4.628000000000000114e+01,2.213296849142514303e-02
4.632000000000000028e+01,2.078734186004106699e-02
4.635999999999999943e+01,2.416085434329319492e-02
4.639999999999999858e+01,2.075020813764544281e-02
4.643999999999999773e+01,1.955157219787425488e-02
4.647999999999999687e+01,1.687799216066346655e-02
4.652000000000000313e+01,1.236077267033738707e-02
4.656000000000000227e+01,1.130912822873857311e-02
4.660000000000000142e+01,1.733627428935998610e-02
4.664000000000000057e+01,1.318726410208858821e-02
4.667999999999999972e+01,1.228261196522158552e-02
4.671999999999999886e+01,1.218892802944027132e-02
4.675999999999999801e+01,1.585577594670952578e-02
4.679999999999999716e+01,1.133742337914117777e-02
4.684000000000000341e+01,1.168568917973898495e-02
4.688000000000000256e+01,1.380353169765620447e-02
4.692000000000000171e+01,1.334034476804849510e-02
4.696000000000000085e+01,1.405682202252618758e-02
4.700000000000000000e+01,1.145487911812762168e-02
4.703999999999999915e+01,1.172859962539949709e-02
4.707999999999999829e+01,1.251833278408180997e-02
4.711999999999999744e+01,1.323416597132287195e-02
4.715999999999999659e+01,1.232757840650811239e-02
4.720000000000000284e+01,1.223196011819167872e-02
4.724000000000000199e+01,1.294731119599126963e-02
4.728000000000000114e+01,1.012302547506256992e-02
4.732000000000000028e+01,1.120675103994982387e-02
4.735999999999999943e+01,1.192162081486738620e-02
4.739999999999999858e+01,9.465549505203217986e-03
4.743999999999999773e+01,9.000273434682511814e-03
4.747999999999999687e+01,7.723707308693190596e-03
4.752000000000000313e+01,1.190367378684066037e-02
4.756000000000000227e+01,1.084800504523425121e-02
4.760000000000000142e+01,8.464872893601642356e-03
4.764000000000000057e+01,9.989752744726717107e-03
4.767999999999999972e+01,9.302300296356877732e-03
4.771999999999999886e+01,1.392390272209504537e-02
4.775999999999999801e+01,7.779438696767034325e-03
4.779999999999999716e+01,7.902637882545290871e-03
4.784000000000000341e+01,1.134393680670038422e-02
4.788000000000000256e+01,9.697079406160682286e-03
4.792000000000000171e+01,6.796498401595191773e-03
4.796000000000000085e+01,5.739235623086108400e-03
4.800000000000000000e+01,8.737463832011526516e-03
4.803999999999999915e+01,4.435363402952669822e-03
4.807999999999999829e+01,5.884753188913336742e-03
4.811999999999999744e+01,7.407723421993007984e-03
4.815999999999999659e+01,7.898187855929206941e-03
4.820000000000000284e+01,6.471277511635539596e-03
4.824000000000000199e+01,9.542293226834717979e-03
4.828000000000000114e+01,7.156458068222881427e-03
4.832000000000000028e+01,7.130115565637662814e-03
4.835999999999999943e+01,5.923789533880203552e-03
4.839999999999999858e+01,3.684958240685594182e-03
4.843999999999999773e+01,7.640052503422025028e-03
4.847999999999999687e+01,6.654469963846769420e-03
4.852000000000000313e+01,9.945596843912354185e-03
4.856000000000000227e+01,7.779873477490944871e-03
4.860000000000000142e+01,8.047382483478828646e-03
4.864000000000000057e+01,5.365170450210219634e-03
4.867999999999999972e+01,9.835492668341759906e-03
4.871999999999999886e+01,9.217660443750571794e-03
4.875999999999999801e+01,7.198628318988284890e-03
4.879999999999999716e+01,8.718915350604043019e-03
4.884000000000000341e+01,4.118700961528722407e-03
4.888000000000000256e+01,9.841802101465322444e-03
4.892000000000000171e+01,6.347360259481756202e-03
4.896000000000000085e+01,2.189109856002474479e-03
4.900000000000000000e+01,9.091566140975022164e-03
4.903999999999999915e+01,1.038969507675582132e-02
4.907999999999999829e+01,6.820887643549341725e-03
4.911999999999999744e+01,7.455051885190782518e-03
4.915999999999999659e+01,8.605233438363920143e-03
4.920000000000000284e+01,3.561175288346738171e-03
4.924000000000000199e+01,4.416088130380214742e-03
4.928000000000000114e+01,9.105277560439052967e-03
4.932000000000000028e+01,9.222487515451653281e-03
4.935999999999999943e+01,6.832412578678724244e-03
4.939999999999999858e+01,1.048878717054466635e-02
4.943999999999999773e+01,9.057008932806771134e-03
4.947999999999999687e+01,8.657422346953037168e-03
4.952000000000000313e+01,7.299072098016900351e-03
4.956000000000000227e+01,4.834480097498704797e-03
4.960000000000000142e+01,2.074776414661613604e-03
4.964000000000000057e+01,7.721173648047419125e-03
4.967999999999999972e+01,7.173332253655483916e-03
4.971999999999999886e+01,4.781858575565594259e-03
4.975999999999999801e+01,3.791272621977277886e-03
4.979999999999999716e+01,7.003659866738026589e-03
4.984000000000000341e+01,7.487546027949811174e-03
4.988000000000000256e+01,7.381364777932016182e-03
4.992000000000000171e+01,3.145639931485806444e-03
4.996000000000000085e+01,4.882626779267817962e-03
5.000000000000000000e+01,9.421544581372591140e-03
5.003999999999999915e+01,9.314745432491351035e-03
5.007999999999999829e+01,3.677360353537636843e-03
5.011999999999999744e+01,1.028050989727070409e-02
5.015999999999999659e+01,8.182292860643571031e-03
5.020000000000000284e+01,7.263747267136864798e-03
5.024000000000000199e+01,7.156177761074938859e-03
5.028000000000000114e+01,5.426194493139064809e-03
5.032000000000000028e+01,8.710315568228061550e-03
5.035999999999999943e+01,8.454806745152925948e-03
5.039999999999999858e+01,3.996016312003300604e-03
5.043999999999999773e+01,6.689764073433346163e-03
5.047999999999999687e+01,7.613620342960707339e-03
5.052000000000000313e+01,6.620107032085727379e-03
5.056000000000000227e+01,9.903307711355115520e-03
5.060000000000000142e+01,7.582184536523694889e-03
5.064000000000000057e+01,8.284211017074548031e-03
5.067999999999999972e+01,1.127199635203859039e-02
5.071999999999999886e+01,6.369546340935955918e-03
5.075999999999999801e+01,1.068432973499771135e-02
5.079999999999999716e+01,1.168070148386626469e-02
5.084000000000000341e+01,1.002231347868744703e-02
5.088000000000000256e+01,1.116585839942114966e-02
5.092000000000000171e+01,1.444768453415700392e-02
5.096000000000000085e+01,1.168275308699942561e-02
5.100000000000000000e+01,1.282584117048769269e-02
5.103999999999999915e+01,1.042930087931302763e-02
5.107999999999999829e+01,7.516434954498956225e-03
5.111999999999999744e+01,1.020758787753348225e-02
5.115999999999999659e+01,1.193998081181196422e-02
5.120000000000000284e+01,8.289268503431417023e-03
5.124000000000000199e+01,1.297092160692371945e-02
5.128000000000000114e+01,1.344929507193129078e-02
5.132000000000000028e+01,1.009308443336521914e-02
5.135999999999999943e+01,1.152976320070858186e-02
5.139999999999999858e+01,1.230263887323691796e-02
5.143999999999999773e+01,1.440266694515223919e-02
5.147999999999999687e+01,1.458532758749044034e-02
5.152000000000000313e+01,1.344053360233864354e-02
5.156000000000000227e+01,1.318045775107491713e-02
5.160000000000000142e+01,1.867188000118977231e-02
5.164000000000000057e+01,1.656802532268009803e-02
5.167999999999999972e+01,1.756106171867200666e-02
5.171999999999999886e+01,2.069238112102040131e-02
5.175999999999999801e+01,2.116894283052888140e-02
5.179999999999999716e+01,2.407874408186398349e-02
5.184000000000000341e+01,2.514491779924008658e-02
5.188000000000000256e+01,2.562102858627241658e-02
5.192000000000000171e+01,2.690811922469358089e-02
5.196000000000000085e+01,2.377071448095514211e-02
5.200000000000000000e+01,2.188672430219307588e-02
5.203999999999999915e+01,1.838032430473658316e-02
5.207999999999999829e+01,1.671725176396130982e-02
5.211999999999999744e+01,1.962585306465608123e-02
5.215999999999999659e+01,1.619274311575417957e-02
5.220000000000000284e+01,1.718382900944036978e-02
5.224000000000000199e+01,1.411911559358437762e-02
5.228000000000000114e+01,1.252903463720478165e-02
5.232000000000000028e+01,8.800370866044040369e-03
5.235999999999999943e+01,1.303537957075884442e-02
5.239999999999999858e+01,1.291963296816761066e-02
5.243999999999999773e+01,1.177139015552855841e-02
5.247999999999999687e+01,1.349882294256937558e-02
5.252000000000000313e+01,1.176036975986144602e-02
5.256000000000000227e+01,1.238141873265806436e-02
5.260000000000000142e+01,8.430495579061175401e-03
5.264000000000000057e+01,1.170585463807706852e-02
5.267999999999999972e+01,8.344547256291880849e-03
5.271999999999999886e+01,8.817524169655690733e-03
5.275999999999999801e+01,1.098635188508453008e-02
5.279999999999999716e+01,9.763033347147323862e-03
5.284000000000000341e+01,8.908262187454340369e-03
5.288000000000000256e+01,7.610908515977867633e-03
5.292000000000000171e+01,7.935666915978634162e-03
5.296000000000000085e+01,1.069366745671977877e-02
5.300000000000000000e+01,9.764565835948729733e-03
5.303999999999999915e+01,1.104748926797747936e-02
5.307999999999999829e+01,1.063426612231377875e-02
5.311999999999999744e+01,8.598635577634020782e-03
5.315999999999999659e+01,9.069986710841949906e-03
5.320000000000000284e+01,1.005736420697090489e-02
5.324000000000000199e+01,1.141328997752128795e-02
5.328000000000000114e+01,4.657768870362798824e-03
5.332000000000000028e+01,9.257920486604228477e-03
5.335999999999999943e+01,1.275183886494665568e-02
5.339999999999999858e+01,9.019179703137484433e-03
5.343999999999999773e+01,7.277329223129255439e-03
5.347999999999999687e+01,1.165567650182563163e-02
5.352000000000000313e+01,9.839793756045062817e-03
5.356000000000000227e+01,1.333297896855911886e-02
5.360000000000000142e+01,9.304630732775424906e-03
5.364000000000000057e+01,8.815612497113487975e-03
5.367999999999999972e+01,8.916360788843882487e-03
5.371999999999999886e+01,5.035052175946286117e-03
5.375999999999999801e+01,1.214072182695009536e-02
5.379999999999999716e+01,7.964164935752150384e-03
5.384000000000000341e+01,1.035024114417036796e-02
5.388000000000000256e+01,1.008156440948763943e-02
5.392000000000000171e+01,1.018143747272750449e-02
5.396000000000000085e+01,1.042864315633166943e-02
5.400000000000000000e+01,8.389791610981420580e-03
5.403999999999999915e+01,1.151253092122100745e-02
5.407999999999999829e+01,1.109564866774410442e-02
5.411999999999999744e+01,1.230088117427592491e-02
5.415999999999999659e+01,9.229101405739879166e-03
5.420000000000000284e+01,8.516827467034774821e-03
5.424000000000000199e+01,1.090145033836509986e-02
5.428000000000000114e+01,7.976713956659237797e-03
5.432000000000000028e+01,7.853918207989491612e-03
5.435999999999999943e+01,5.592544215042189425e-03
5.439999999999999858e+01,8.271544617068117555e-03
5.443999999999999773e+01,1.050796600240148926e-02
5.447999999999999687e+01,1.171189574819059796e-02
5.452000000000000313e+01,8.712553114530004889e-03
5.456000000000000227e+01,1.478297422159950865e-02
5.460000000000000142e+01,1.281569049740344593e-02
5.464000000000000057e+01,1.151191454048359868e-02
5.467999999999999972e+01,1.271512366692462322e-02
5.471999999999999886e+01,1.443436256175993811e-02
5.475999999999999801e+01,1.364632866320143745e-02
5.479999999999999716e+01,1.366928106850735097e-02
5.484000000000000341e+01,1.428200260011936763e-02
5.488000000000000256e+01,1.201875616189733778e-02
5.492000000000000171e+01,1.580197161955904442e-02
5.496000000000000085e+01,1.257983029933611857e-02
5.500000000000000000e+01,1.592032467764312523e-02
5.503999999999999915e+01,1.601615599929356870e-02
5.507999999999999829e+01,1.434210613507868638e-02
5.511999999999999744e+01,1.347904329166996207e-02
5.515999999999999659e+01,1.674522656632566192e-02
5.520000000000000284e+01,1.617683443032620280e-02
5.524000000000000199e+01,1.597699504963395745e-02
5.528000000000000114e+01,1.843162027468573175e-02
5.532000000000000028e+01,1.336471590500156251e-02
5.535999999999999943e+01,1.250079719052905360e-02
5.539999999999999858e+01,1.244786612418671660e-02
5.543999999999999773e+01,1.217357554877079688e-02
5.547999999999999687e+01,1.271027280072046725e-02
5.552000000000000313e+01,1.037100351671952671e-02
5.556000000000000227e+01,1.341454576095771518e-02
5.560000000000000142e+01,1.653168521082784906e-02
5.564000000000000057e+01,1.625668477018978736e-02
5.567999999999999972e+01,1.081980639125300001e-02
5.571999999999999886e+01,9.217219028793893071e-03
5.575999999999999801e+01,1.174387912866493508e-02
5.579999999999999716e+01,1.294309419014164596e-02
5.584000000000000341e+01,1.104512616543346613e-02
5.588000000000000256e+01,1.194910226885236536e-02
5.592000000000000171e+01,1.100945997931930716e-02
5.596000000000000085e+01,1.456776104549840564e-02
5.600000000000000000e+01,1.045705586232539841e-02
5.603999999999999915e+01,1.180290237186274946e-02
5.607999999999999829e+01,1.204252173750583639e-02
5.611999999999999744e+01,1.279817400816325723e-02
5.615999999999999659e+01,1.370116382815936978e-02
5.620000000000000284e+01,1.040088503264986926e-02
5.624000000000000199e+01,1.041872479523762648e-02
5.628000000000000114e+01,1.250111869154285626e-02
5.632000000000000028e+01,1.163380875519313094e-02
5.635999999999999943e+01,1.504322580355667294e-02
5.639999999999999858e+01,1.314328834862298935e-02
5.643999999999999773e+01,1.360286174211233073e-02
5.647999999999999687e+01,1.059655803800686573e-02
5.652000000000000313e+01,1.253063347861360817e-02
5.656000000000000227e+01,1.490700372097090824e-02
5.660000000000000142e+01,1.455488802517332717e-02
5.664000000000000057e+01,1.412889368695097354e-02
5.667999999999999972e+01,9.794588164870304814e-03
5.671999999999999886e+01,1.283405217452682212e-02
5.675999999999999801e+01,1.026920613121086109e-02
5.679999999999999716e+01,1.028508901005341022e-02
5.684000000000000341e+01,1.081700640702921642e-02
5.688000000000000256e+01,1.577313013186595891e-02
5.692000000000000171e+01,1.578859596372917187e-02
5.696000000000000085e+01,1.469783662328785767e-02
5.700000000000000000e+01,1.493424213909613080e-02
5.703999999999999915e+01,1.472807446336340913e-02
5.707999999999999829e+01,1.577533273405701958e-02
5.711999999999999744e+01,1.615880072526902633e-02
5.715999999999999659e+01,1.440369674544363793e-02
5.720000000000000284e+01,1.707279981042086545e-02
5.724000000000000199e+01,1.605481021336384664e-02
5.728000000000000114e+01,1.570033429835232877e-02
5.732000000000000028e+01,1.593563306594531631e-02
5.735999999999999943e+01,1.506470755741094736e-02
5.739999999999999858e+01,1.316129695142561826e-02
5.743999999999999773e+01,1.376487761242360316e-02
5.747999999999999687e+01,1.820275323307880486e-02
5.752000000000000313e+01,1.430797420832706848e-02
5.756000000000000227e+01,1.255149127411836832e-02
5.760000000000000142e+01,1.315452178724650645e-02
5.764000000000000057e+01,1.397863225462750783e-02
5.767999999999999972e+01,1.155808558012121415e-02
5.771999999999999886e+01,1.370922529356522965e-02
5.775999999999999801e+01,1.209953442094662511e-02
5.779999999999999716e+01,9.236142079878195341e-03
5.784000000000000341e+01,1.492634720478186114e-02
5.788000000000000256e+01,1.383241936107023826e-02
5.792000000000000171e+01,1.701522199716283199e-02
5.796000000000000085e+01,1.510989089222515049e-02
5.800000000000000000e+01,1.438424870586260673e-02
5.803999999999999915e+01,1.174125378722841798e-02
5.807999999999999829e+01,1.492351057710154458e-02
5.811999999999999744e+01,1.530354574523431696e-02
5.815999999999999659e+01,1.619961838888496833e-02
5.820000000000000284e+01,1.539955592591090230e-02
5.824000000000000199e+01,1.459935749427937988e-02
5.828000000000000114e+01,1.461015316325362488e-02
5.832000000000000028e+01,1.189246674763478478e-02
5.835999999999999943e+01,1.603237991466875331e-02
5.839999999999999858e+01,1.515789941552603617e-02
5.843999999999999773e+01,1.502067428640124769e-02
5.847999999999999687e+01,1.495705281538402785e-02
5.852000000000000313e+01,1.415590511244660052e-02
5.856000000000000227e+01,1.645166389825798367e-02
5.860000000000000142e+01,1.432294217845070904e-02
5.864000000000000057e+01,1.130921631745899873e-02
5.867999999999999972e+01,1.566926437947259096e-02
5.871999999999999886e+01,1.671091854060084356e-02
5.875999999999999801e+01,1.856356787774744027e-02
5.879999999999999716e+01,1.481191173242507771e-02
5.884000000000000341e+01,1.681176990928794773e-02
5.888000000000000256e+01,1.335480096103467545e-02
5.892000000000000171e+01,1.328969566432434100e-02
5.896000000000000085e+01,1.418306416983830531e-02
5.900000000000000000e+01,1.714099290307447704e-02
5.903999999999999915e+01,1.729670207577774579e-02
5.907999999999999829e+01,1.420775724321378906e-02
5.911999999999999744e+01,1.849258731945003023e-02
5.915999999999999659e+01,1.798424269942220516e-02
5.920000000000000284e+01,1.585350430227122978e-02
5.924000000000000199e+01,1.711463027360495687e-02
5.928000000000000114e+01,1.431997270811455683e-02
5.932000000000000028e+01,1.506465786846165021e-02
5.935999999999999943e+01,1.772642588497301552e-02
5.939999999999999858e+01,1.729101879127625807e-02
5.943999999999999773e+01,1.567565299251468328e-02
5.947999999999999687e+01,1.759963027806146774e-02
5.952000000000000313e+01,1.310817371461274299e-02
5.956000000000000227e+01,1.370458128494003204e-02
5.960000000000000142e+01,1.238363961808662712e-02
5.964000000000000057e+01,1.821525675788769616e-02
5.967999999999999972e+01,1.468187684481693511e-02
5.971999999999999886e+01,1.653131778022778886e-02
5.975999999999999801e+01,1.432497625422714770e-02
5.979999999999999716e+01,1.381450130300962073e-02
5.984000000000000341e+01,1.654841388642516731e-02
5.988000000000000256e+01,1.544776154445840627e-02
5.992000000000000171e+01,1.810767053977090785e-02
5.996000000000000085e+01,1.479458120623481157e-02
