2.003999999999999915e+01,2.333996216316912287e-02
2.007999999999999829e+01,2.377564968240261645e-02
2.012000000000000099e+01,2.277610851595381763e-02
2.016000000000000014e+01,1.940261640620189257e-02
2.019999999999999929e+01,2.878514831903159626e-02
2.023999999999999844e+01,2.265163104963297327e-02
2.028000000000000114e+01,2.496706209227493242e-02
2.032000000000000028e+01,2.822167118385339457e-02
2.035999999999999943e+01,1.562891440645964788e-02
2.039999999999999858e+01,1.910530952990947134e-02
2.044000000000000128e+01,2.490135163042661581e-02
2.048000000000000043e+01,2.650121047935028243e-02
2.051999999999999957e+01,2.048131373295475691e-02
2.055999999999999872e+01,2.252382526514761299e-02
2.060000000000000142e+01,2.379372143356694308e-02
2.064000000000000057e+01,2.373881221621219548e-02
2.067999999999999972e+01,1.816246079812385353e-02
2.071999999999999886e+01,2.528690003012027537e-02
2.076000000000000156e+01,2.131278686238679762e-02
2.080000000000000071e+01,2.264013074926244165e-02
2.083999999999999986e+01,2.722583161708149249e-02
2.087999999999999901e+01,1.552240100781485110e-02
2.092000000000000171e+01,2.408474351868056945e-02
2.096000000000000085e+01,2.232159253116776723e-02
2.100000000000000000e+01,2.602554970078886643e-02
2.103999999999999915e+01,2.415283575308559139e-02
2.107999999999999829e+01,2.222533865432236438e-02
2.112000000000000099e+01,2.173396734218775370e-02
2.116000000000000014e+01,1.991777616258485692e-02
2.119999999999999929e+01,2.423131425986231602e-02
2.123999999999999844e+01,2.004157445740538390e-02
2.128000000000000114e+01,2.292028284751679995e-02
2.132000000000000028e+01,1.989099897765406882e-02
2.135999999999999943e+01,2.288100214716101005e-02
2.139999999999999858e+01,2.228220424244201081e-02
2.144000000000000128e+01,2.085554868964101596e-02
2.148000000000000043e+01,1.782796990354781896e-02
2.151999999999999957e+01,1.861091806882201466e-02
2.155999999999999872e+01,1.994647751414498071e-02
2.160000000000000142e+01,2.012286151066561279e-02
2.164000000000000057e+01,1.875353670879054135e-02
2.167999999999999972e+01,1.815769540824444667e-02
2.171999999999999886e+01,2.280806665004595987e-02
2.176000000000000156e+01,2.088780668850315908e-02
2.180000000000000071e+01,1.758749014506593919e-02
2.183999999999999986e+01,1.831856720439391586e-02
2.187999999999999901e+01,2.297059897090578465e-02
2.192000000000000171e+01,2.182505954940107754e-02
2.196000000000000085e+01,2.106646359577319869e-02
2.200000000000000000e+01,2.522275904184308540e-02
2.203999999999999915e+01,1.281379625149732006e-02
2.207999999999999829e+01,1.338168069004806032e-02
2.212000000000000099e+01,1.914054764037922615e-02
2.216000000000000014e+01,1.799745890278678026e-02
2.219999999999999929e+01,2.314972826506998468e-02
2.223999999999999844e+01,1.885997073456583545e-02
2.228000000000000114e+01,1.865681344388798318e-02
2.232000000000000028e+01,1.602442616437572617e-02
2.235999999999999943e+01,1.698166687951518927e-02
2.239999999999999858e+01,1.418442199860945815e-02
2.244000000000000128e+01,2.226569647032040564e-02
2.248000000000000043e+01,9.308970296879319484e-03
2.251999999999999957e+01,1.772235050055956385e-02
2.255999999999999872e+01,2.094554949142612282e-02
2.260000000000000142e+01,1.848159613828082373e-02
2.264000000000000057e+01,1.618369175220248438e-02
2.267999999999999972e+01,1.515621303526282736e-02
2.271999999999999886e+01,1.716616337916243226e-02
2.276000000000000156e+01,2.342835726757783524e-02
2.280000000000000071e+01,1.494749515050390783e-02
2.283999999999999986e+01,1.789733015430597721e-02
2.287999999999999901e+01,1.637482061391378960e-02
2.292000000000000171e+01,1.142912434059666776e-02
2.296000000000000085e+01,1.669930624857308282e-02
2.300000000000000000e+01,2.688435170683529593e-02
2.303999999999999915e+01,1.409871974619044711e-02
2.307999999999999829e+01,1.329596713058674336e-02
2.312000000000000099e+01,1.481278685562623966e-02
2.316000000000000014e+01,1.605388993961916547e-02
2.319999999999999929e+01,1.740580750420598483e-02
2.323999999999999844e+01,1.174530152189942785e-02
2.328000000000000114e+01,1.674241593549382484e-02
2.332000000000000028e+01,1.389882121220580025e-02
2.335999999999999943e+01,2.022193460520073718e-02
2.339999999999999858e+01,2.047134113903738284e-02
2.344000000000000128e+01,1.575141751578734012e-02
2.348000000000000043e+01,1.484196625905723210e-02
2.351999999999999957e+01,1.647295176641510109e-02
2.355999999999999872e+01,1.081541036105572451e-02
2.360000000000000142e+01,1.879730054311555890e-02
2.364000000000000057e+01,1.965631825691244866e-02
2.367999999999999972e+01,1.306114904365540848e-02
2.371999999999999886e+01,1.414176786922800161e-02
2.376000000000000156e+01,1.340052440163939582e-02
2.380000000000000071e+01,1.884415669326245171e-02
2.383999999999999986e+01,1.677837871112327489e-02
2.387999999999999901e+01,9.301507191736925473e-03
2.392000000000000171e+01,1.253745713543025046e-02
2.396000000000000085e+01,1.549766815854746599e-02
2.400000000000000000e+01,1.757473134828559450e-02
2.403999999999999915e+01,1.147975200475017700e-02
2.407999999999999829e+01,2.040466315097645006e-02
2.412000000000000099e+01,1.889355501307744475e-02
2.416000000000000014e+01,1.224743999410795800e-02
2.419999999999999929e+01,1.819158092766474596e-02
2.423999999999999844e+01,1.121484914905841908e-02
2.428000000000000114e+01,1.003644752632908144e-02
2.432000000000000028e+01,1.741731948562073515e-02
2.435999999999999943e+01,8.398525270268106940e-03
2.439999999999999858e+01,1.451005041447012145e-02
2.444000000000000128e+01,1.852359987389878490e-02
2.448000000000000043e+01,2.016307808056551354e-02
2.451999999999999957e+01,1.423790818506748615e-02
2.455999999999999872e+01,7.926544877741362877e-03
2.460000000000000142e+01,9.567039555774321802e-03
2.464000000000000057e+01,1.374793980655381748e-02
2.467999999999999972e+01,1.699045439555168721e-02
2.471999999999999886e+01,9.686495209172286958e-03
2.476000000000000156e+01,1.083135956946776855e-02
2.480000000000000071e+01,7.669482587105191755e-03
2.483999999999999986e+01,1.229380023383561289e-02
2.487999999999999901e+01,1.597972664890200470e-02
2.492000000000000171e+01,4.977756908528085077e-03
2.496000000000000085e+01,5.958614156300803995e-03
2.500000000000000000e+01,8.927678043007650915e-03
2.503999999999999915e+01,1.471323081670833886e-02
2.507999999999999829e+01,1.403849770862171734e-02
2.512000000000000099e+01,1.137620775976636370e-02
2.516000000000000014e+01,1.263478117202354936e-02
2.519999999999999929e+01,9.641820992660350351e-03
2.523999999999999844e+01,1.073537861886397077e-02
2.528000000000000114e+01,6.749117063458065849e-03
2.532000000000000028e+01,1.187429014868523515e-02
2.535999999999999943e+01,7.170817215342785607e-03
2.539999999999999858e+01,1.262793561992618316e-02
2.544000000000000128e+01,7.704216869962908845e-03
2.548000000000000043e+01,1.211280386793641729e-02
2.551999999999999957e+01,9.177590477542792863e-03
2.555999999999999872e+01,1.005279152689209608e-02
2.560000000000000142e+01,1.308183917793557562e-02
2.564000000000000057e+01,6.116576340166896691e-03
2.567999999999999972e+01,1.135499600217782998e-02
2.571999999999999886e+01,1.002267417717293656e-02
2.576000000000000156e+01,2.892674222409452427e-03
2.580000000000000071e+01,6.199348919819096249e-03
2.583999999999999986e+01,8.125854523709900162e-03
2.587999999999999901e+01,1.181966669584268159e-02
2.592000000000000171e+01,1.242152193162899404e-02
2.596000000000000085e+01,1.429371149048266031e-02
2.600000000000000000e+01,1.285306632182724694e-02
2.603999999999999915e+01,8.430898656500717542e-03
2.607999999999999829e+01,1.091138883415782197e-02
2.612000000000000099e+01,7.759847528675238408e-03
2.616000000000000014e+01,2.510282637430675916e-03
2.619999999999999929e+01,1.493105595370999156e-02
2.623999999999999844e+01,1.178039410048660821e-02
2.628000000000000114e+01,3.549885216241686035e-03
2.632000000000000028e+01,6.970852100128686196e-03
2.635999999999999943e+01,1.083385880528207369e-02
2.639999999999999858e+01,1.254361635001220027e-02
2.644000000000000128e+01,1.364625256281001148e-02
2.648000000000000043e+01,1.044210064593763948e-02
2.651999999999999957e+01,1.027527196213899249e-02
2.655999999999999872e+01,1.044003974811952458e-02
2.660000000000000142e+01,1.187512403354372414e-02
2.664000000000000057e+01,1.082563912987132004e-02
2.667999999999999972e+01,9.831652900036628312e-03
2.671999999999999886e+01,9.224477574877638572e-03
2.676000000000000156e+01,6.187948609494970525e-03
2.680000000000000071e+01,8.452709602249452656e-03
2.683999999999999986e+01,1.513525718632601977e-02
2.687999999999999901e+01,1.027733080585206335e-02
2.692000000000000171e+01,9.947626570352020164e-03
2.696000000000000085e+01,1.480877005547841935e-02
2.700000000000000000e+01,1.193953969949101968e-02
2.703999999999999915e+01,1.337765258333847157e-02
2.707999999999999829e+01,4.048350403986780699e-03
2.712000000000000099e+01,1.134020188545410528e-02
2.716000000000000014e+01,1.161952065033310978e-02
2.719999999999999929e+01,1.162301026254110303e-02
2.723999999999999844e+01,1.063282402767032689e-02
2.728000000000000114e+01,1.571697885445267825e-02
2.732000000000000028e+01,1.108287085942268220e-02
2.735999999999999943e+01,1.473185733018916345e-02
2.739999999999999858e+01,6.177728665081984663e-03
2.744000000000000128e+01,1.159423799046641751e-02
2.748000000000000043e+01,8.396857854180778818e-03
2.751999999999999957e+01,1.221253323933030495e-02
2.755999999999999872e+01,1.227357932546880442e-02
2.760000000000000142e+01,1.194834733756668099e-02
2.764000000000000057e+01,1.841529196596063817e-02
2.767999999999999972e+01,1.941581833853946171e-02
2.771999999999999886e+01,1.925699882391452428e-02
2.776000000000000156e+01,1.451526107836002139e-02
2.780000000000000071e+01,2.048623674016669671e-02
2.783999999999999986e+01,1.635240286284995320e-02
2.787999999999999901e+01,1.912117669957523816e-02
2.792000000000000171e+01,2.189019578606496430e-02
2.796000000000000085e+01,2.449380233593542039e-02
2.800000000000000000e+01,2.847812417767757454e-02
2.803999999999999915e+01,2.511857545053433269e-02
2.807999999999999829e+01,2.711549992508327164e-02
2.812000000000000099e+01,3.745071659067798070e-02
2.816000000000000014e+01,3.072353456423396537e-02
2.819999999999999929e+01,4.729896190833547676e-02
2.823999999999999844e+01,4.946249509096096314e-02
2.828000000000000114e+01,5.488417805490463514e-02
2.832000000000000028e+01,6.058218958285999794e-02
2.835999999999999943e+01,7.125013427905535490e-02
2.839999999999999858e+01,8.561797654105875177e-02
2.844000000000000128e+01,1.061153464501996824e-01
2.848000000000000043e+01,1.214223702780079794e-01
2.851999999999999957e+01,1.483255897144392932e-01
2.855999999999999872e+01,1.741246587609632801e-01
2.860000000000000142e+01,1.960586317634828157e-01
2.864000000000000057e+01,2.102621852518530010e-01
2.867999999999999972e+01,2.268955940197405485e-01
2.871999999999999886e+01,2.203372916208511667e-01
2.876000000000000156e+01,2.024593384637264626e-01
2.880000000000000071e+01,1.844159493764762903e-01
2.883999999999999986e+01,1.614582986361172701e-01
2.887999999999999901e+01,1.372860508124341405e-01
2.892000000000000171e+01,1.189120039233563381e-01
2.896000000000000085e+01,9.485062756800642647e-02
2.900000000000000000e+01,8.028711560307034978e-02
2.903999999999999915e+01,6.859520001828248170e-02
2.907999999999999829e+01,6.264626202139168820e-02
2.912000000000000099e+01,5.360527797003600964e-02
2.916000000000000014e+01,4.346012681912575504e-02
2.919999999999999929e+01,3.375693639715186128e-02
2.923999999999999844e+01,3.189503695766059133e-02
2.928000000000000114e+01,3.019900156514070122e-02
2.932000000000000028e+01,3.170586809974817316e-02
2.935999999999999943e+01,2.432269836177897854e-02
2.939999999999999858e+01,2.500169071359619258e-02
2.944000000000000128e+01,2.468694594962822508e-02
2.948000000000000043e+01,2.492459189836607192e-02
2.951999999999999957e+01,2.438937406657546922e-02
2.955999999999999872e+01,1.628936777158363283e-02
2.960000000000000142e+01,1.415320014600423074e-02
2.964000000000000057e+01,2.256403801246070068e-02
2.967999999999999972e+01,1.352590262015535179e-02
2.971999999999999886e+01,1.774049614125097415e-02
2.976000000000000156e+01,1.207110221556177351e-02
2.980000000000000071e+01,1.021200464810868326e-02
2.983999999999999986e+01,1.127970007207670759e-02
2.987999999999999901e+01,1.129842723571584245e-02
2.992000000000000171e+01,7.231146030917207958e-03
2.996000000000000085e+01,1.150210577424628546e-02
3.000000000000000000e+01,1.290187051883757638e-02
3.003999999999999915e+01,1.242437918515800800e-02
3.007999999999999829e+01,1.509454972225026358e-02
3.012000000000000099e+01,1.091776178090190716e-02
3.016000000000000014e+01,7.127688942251958829e-03
3.019999999999999929e+01,9.687970298984127995e-03
3.023999999999999844e+01,8.659204392688371610e-03
3.028000000000000114e+01,1.204812927573741844e-02
3.032000000000000028e+01,5.663488897935803346e-03
3.035999999999999943e+01,8.390142799730779602e-03
3.039999999999999858e+01,3.607203735620873476e-03
3.044000000000000128e+01,6.168552217477575768e-03
3.048000000000000043e+01,4.643876735225750847e-03
3.051999999999999957e+01,1.013217322617309367e-02
3.055999999999999872e+01,8.552623421728919664e-03
3.060000000000000142e+01,8.850686517906916975e-03
3.064000000000000057e+01,6.774506808945184727e-03
3.067999999999999972e+01,1.132476238165981350e-02
3.071999999999999886e+01,9.304137220298694735e-03
3.076000000000000156e+01,1.258469173340318915e-02
3.080000000000000071e+01,2.060688589363390312e-03
3.083999999999999986e+01,6.225074328245732390e-03
3.087999999999999901e+01,1.094181179065713966e-02
3.092000000000000171e+01,3.565773868869481084e-03
3.096000000000000085e+01,0.000000000000000000e+00
3.100000000000000000e+01,1.211655059259010223e-02
3.103999999999999915e+01,8.385437884487950688e-03
3.107999999999999829e+01,8.078053651757670373e-03
3.112000000000000099e+01,1.031089452758425333e-02
3.116000000000000014e+01,9.120319191331079448e-03
3.119999999999999929e+01,1.416963241944316394e-02
3.123999999999999844e+01,1.071538925370099302e-02
3.128000000000000114e+01,9.304396723388062493e-03
3.132000000000000028e+01,1.507201055915192989e-02
3.135999999999999943e+01,1.294347245795853321e-02
3.139999999999999858e+01,1.329993277668425553e-02
3.144000000000000128e+01,1.465048034968755367e-02
3.148000000000000043e+01,8.988374896642711831e-03
3.151999999999999957e+01,1.724157491768611369e-02
3.155999999999999872e+01,1.329154394930198366e-02
3.160000000000000142e+01,1.453223148027259562e-02
3.164000000000000057e+01,1.742962738526726216e-02
3.167999999999999972e+01,2.065847717105177145e-02
3.171999999999999886e+01,2.040867625828337098e-02
3.176000000000000156e+01,1.822635247545308437e-02
3.180000000000000071e+01,2.355393503579629108e-02
3.183999999999999986e+01,2.120622785467412078e-02
3.187999999999999901e+01,2.084653570853159388e-02
3.192000000000000171e+01,2.291660860981154652e-02
3.196000000000000085e+01,2.338546641596162684e-02
3.200000000000000000e+01,2.004435238090902793e-02
3.203999999999999915e+01,1.979562674097834138e-02
3.207999999999999829e+01,1.695174262954498440e-02
3.211999999999999744e+01,1.587499130602282316e-02
3.215999999999999659e+01,2.092766402982559198e-02
3.220000000000000284e+01,1.836025587717707991e-02
3.224000000000000199e+01,2.010004614742108217e-02
3.228000000000000114e+01,1.990729906590894827e-02
3.232000000000000028e+01,1.115574662237511783e-02
3.235999999999999943e+01,2.084742530522102136e-02
3.239999999999999858e+01,1.723147178908511837e-02
3.243999999999999773e+01,1.008162863201729313e-02
3.247999999999999687e+01,1.734403423082390636e-02
3.252000000000000313e+01,1.560587777130718196e-02
3.256000000000000227e+01,1.226648950701339676e-02
3.260000000000000142e+01,1.621610974315388157e-02
3.264000000000000057e+01,1.370523355595238378e-02
3.267999999999999972e+01,1.185709674494314983e-02
3.271999999999999886e+01,6.751156949178690851e-03
3.275999999999999801e+01,1.119819572084134081e-02
3.279999999999999716e+01,1.178002148096929901e-02
3.284000000000000341e+01,1.451549221304863739e-02
3.288000000000000256e+01,7.863858625399440180e-03
3.292000000000000171e+01,7.617722373534144970e-03
3.296000000000000085e+01,1.300401787224255042e-02
3.300000000000000000e+01,8.892767927688177351e-03
3.303999999999999915e+01,1.080047974137138267e-02
3.307999999999999829e+01,4.922429498713513062e-03
3.311999999999999744e+01,1.108219788380285925e-02
3.315999999999999659e+01,1.022926645583188687e-02
3.320000000000000284e+01,6.505050911004786433e-03
3.324000000000000199e+01,7.584975956879869488e-03
3.328000000000000114e+01,8.664996979671140548e-03
3.332000000000000028e+01,1.200908738830085316e-02
3.335999999999999943e+01,8.892661322011932365e-03
3.339999999999999858e+01,4.671950074661584441e-03
3.343999999999999773e+01,1.298601856046823454e-02
3.347999999999999687e+01,1.715876064312803206e-02
3.352000000000000313e+01,1.128175389280671251e-02
3.356000000000000227e+01,1.296982336149618727e-02
3.360000000000000142e+01,7.258648527767229582e-03
3.364000000000000057e+01,1.375093451249844063e-02
3.367999999999999972e+01,1.190525282321729973e-02
3.371999999999999886e+01,1.061184376513514202e-02
3.375999999999999801e+01,8.987203971436935265e-03
3.379999999999999716e+01,7.417864563763074993e-03
3.384000000000000341e+01,1.391056359448633768e-02
3.388000000000000256e+01,1.339054276057265701e-02
3.392000000000000171e+01,9.336591068597306642e-03
3.396000000000000085e+01,1.599518123160525995e-02
3.400000000000000000e+01,2.027943501544918203e-02
3.403999999999999915e+01,1.274692097894067518e-02
3.407999999999999829e+01,1.664479103591734108e-02
3.411999999999999744e+01,1.822354026260293927e-02
3.415999999999999659e+01,1.759360532662579760e-02
3.420000000000000284e+01,1.596980071166243659e-02
3.424000000000000199e+01,2.064101888965433340e-02
3.428000000000000114e+01,1.725034713799870542e-02
3.432000000000000028e+01,1.463280687110450097e-02
3.435999999999999943e+01,1.416886924505546264e-02
3.439999999999999858e+01,1.955819882963646603e-02
3.443999999999999773e+01,1.727216626428092205e-02
3.447999999999999687e+01,2.045286644598560966e-02
3.452000000000000313e+01,2.197706134726333874e-02
3.456000000000000227e+01,2.107168538290388887e-02
3.460000000000000142e+01,1.320878839313328369e-02
3.464000000000000057e+01,1.633450877475787696e-02
3.467999999999999972e+01,2.282863848306876040e-02
3.471999999999999886e+01,1.546288247373798878e-02
3.475999999999999801e+01,1.665610929856694775e-02
3.479999999999999716e+01,1.674501195315769228e-02
3.484000000000000341e+01,2.213498065661312006e-02
3.488000000000000256e+01,1.648122261744379077e-02
3.492000000000000171e+01,1.723290621523435387e-02
3.496000000000000085e+01,1.737723120410245015e-02
3.500000000000000000e+01,1.481587861958007062e-02
3.503999999999999915e+01,1.496029864632677370e-02
3.507999999999999829e+01,1.720308237153958184e-02
3.511999999999999744e+01,1.812065745149268534e-02
3.515999999999999659e+01,1.815477389862887175e-02
3.520000000000000284e+01,1.990071846668485522e-02
3.524000000000000199e+01,2.026623215674929271e-02
3.528000000000000114e+01,1.229373361374219015e-02
3.532000000000000028e+01,1.569636574014698915e-02
3.535999999999999943e+01,1.534415134212723485e-02
3.539999999999999858e+01,1.582025724230633201e-02
3.543999999999999773e+01,1.983040797602584476e-02
3.547999999999999687e+01,2.019614662499618143e-02
3.552000000000000313e+01,1.691747207524085111e-02
3.556000000000000227e+01,1.910550019518080997e-02
3.560000000000000142e+01,1.532991947474095923e-02
3.564000000000000057e+01,1.795976033968438648e-02
3.567999999999999972e+01,2.252229152103951693e-02
3.571999999999999886e+01,2.101077273848057925e-02
3.575999999999999801e+01,2.303328987765023567e-02
3.579999999999999716e+01,2.373057943396001887e-02
3.584000000000000341e+01,2.470398812670332109e-02
3.588000000000000256e+01,1.502017446302672012e-02
3.592000000000000171e+01,2.792090959200379738e-02
3.596000000000000085e+01,3.160011129747064551e-02
3.600000000000000000e+01,2.329683392533035344e-02
3.603999999999999915e+01,2.703129386065422982e-02
3.607999999999999829e+01,3.291930853583463490e-02
3.611999999999999744e+01,2.969622311320371452e-02
3.615999999999999659e+01,3.033847581735100996e-02
3.620000000000000284e+01,3.506694109750973370e-02
3.624000000000000199e+01,3.372134193206014624e-02
3.628000000000000114e+01,3.497104306300396342e-02
3.632000000000000028e+01,3.268674649729733789e-02
3.635999999999999943e+01,3.658697590218772805e-02
3.639999999999999858e+01,3.303266413550367403e-02
3.643999999999999773e+01,3.847903954238652419e-02
3.647999999999999687e+01,3.680218489455644448e-02
3.652000000000000313e+01,3.551186822716455305e-02
3.656000000000000227e+01,3.101886052407776262e-02
3.660000000000000142e+01,3.414606326859172952e-02
3.664000000000000057e+01,3.230356824378079195e-02
3.667999999999999972e+01,2.891494556541781419e-02
3.671999999999999886e+01,2.690679533205395449e-02
3.675999999999999801e+01,2.981312544106690457e-02
3.679999999999999716e+01,3.095244899138873892e-02
3.684000000000000341e+01,2.944126261620443399e-02
3.688000000000000256e+01,3.289977213226991104e-02
3.692000000000000171e+01,2.824109930543781607e-02
3.696000000000000085e+01,2.336154440647611810e-02
3.700000000000000000e+01,2.207120978677454617e-02
3.703999999999999915e+01,2.845629225173486668e-02
3.707999999999999829e+01,2.109186105604600459e-02
3.711999999999999744e+01,2.432944592959374389e-02
3.715999999999999659e+01,2.464041751181147294e-02
3.720000000000000284e+01,2.301871472316604009e-02
3.724000000000000199e+01,2.294312657023272334e-02
3.728000000000000114e+01,2.137661294490257255e-02
3.732000000000000028e+01,2.483500184788334925e-02
3.735999999999999943e+01,1.747047050490725326e-02
3.739999999999999858e+01,2.700290098480697537e-02
3.743999999999999773e+01,2.593328455400650823e-02
3.747999999999999687e+01,1.823738023630280466e-02
3.752000000000000313e+01,1.943169523319620423e-02
3.756000000000000227e+01,1.388928233362861017e-02
3.760000000000000142e+01,1.751318097471720597e-02
3.764000000000000057e+01,1.887307964638693797e-02
3.767999999999999972e+01,1.973598174033839095e-02
3.771999999999999886e+01,2.070929394142157279e-02
3.775999999999999801e+01,1.593981271060470814e-02
3.779999999999999716e+01,2.353933311710134854e-02
3.784000000000000341e+01,1.865935318585111927e-02
3.788000000000000256e+01,1.902513575045070363e-02
3.792000000000000171e+01,1.541512493292139518e-02
3.796000000000000085e+01,2.102663452106238312e-02
3.800000000000000000e+01,2.067446843023480404e-02
3.803999999999999915e+01,1.999095240830784867e-02
3.807999999999999829e+01,1.864477199649059586e-02
3.811999999999999744e+01,2.293087963228116269e-02
3.815999999999999659e+01,1.589707472536357885e-02
3.820000000000000284e+01,1.808478354025743612e-02
3.824000000000000199e+01,2.005157463577434199e-02
3.828000000000000114e+01,2.488970478287269930e-02
3.832000000000000028e+01,2.304630475875935405e-02
3.835999999999999943e+01,1.788972578840471173e-02
3.839999999999999858e+01,2.040852602751163855e-02
3.843999999999999773e+01,2.452862637383873903e-02
3.847999999999999687e+01,2.185675431144335976e-02
3.852000000000000313e+01,2.730200924299939005e-02
3.856000000000000227e+01,2.341522056096920906e-02
3.860000000000000142e+01,2.659639771969169939e-02
3.864000000000000057e+01,2.756876595038575475e-02
3.867999999999999972e+01,2.782323419073988793e-02
3.871999999999999886e+01,3.139078035535348282e-02
3.875999999999999801e+01,2.739328184217552919e-02
3.879999999999999716e+01,2.483141673802219049e-02
3.884000000000000341e+01,2.497521841737235931e-02
3.888000000000000256e+01,3.467182822574826212e-02
3.892000000000000171e+01,3.106062425697617493e-02
3.896000000000000085e+01,3.407562497674920116e-02
3.900000000000000000e+01,3.079560882332720365e-02
3.903999999999999915e+01,3.408657623969494482e-02
3.907999999999999829e+01,3.809532368682062159e-02
3.911999999999999744e+01,3.796258766011577357e-02
3.915999999999999659e+01,4.313079737281581144e-02
3.920000000000000284e+01,5.564305067063337468e-02
3.924000000000000199e+01,5.799495805522845299e-02
3.928000000000000114e+01,5.874544648699789318e-02
3.932000000000000028e+01,6.209115055294826130e-02
3.935999999999999943e+01,6.488459236336581448e-02
3.939999999999999858e+01,6.657358189624996980e-02
3.943999999999999773e+01,7.152041041101454832e-02
3.947999999999999687e+01,8.276211578781553224e-02
3.952000000000000313e+01,7.787982724689850034e-02
3.956000000000000227e+01,8.028635337450827636e-02
3.960000000000000142e+01,7.540390588483249223e-02
3.964000000000000057e+01,6.764999492808733417e-02
3.967999999999999972e+01,6.779230309676606558e-02
3.971999999999999886e+01,6.285438993832612176e-02
3.975999999999999801e+01,6.791101152784863315e-02
3.979999999999999716e+01,6.976485184958139407e-02
3.984000000000000341e+01,6.836069089874556581e-02
3.988000000000000256e+01,5.894970295235748420e-02
3.992000000000000171e+01,6.969352120566914277e-02
3.996000000000000085e+01,7.016653571257684685e-02
4.000000000000000000e+01,7.268255800804121480e-02
4.003999999999999915e+01,7.365235907592929121e-02
4.007999999999999829e+01,7.694126015843311128e-02
4.011999999999999744e+01,7.719302773374264737e-02
4.015999999999999659e+01,9.423124248594605401e-02
4.020000000000000284e+01,9.796160781375416737e-02
4.024000000000000199e+01,9.937268187286979471e-02
4.028000000000000114e+01,1.105021817442416315e-01
4.032000000000000028e+01,1.234538049291486611e-01
4.035999999999999943e+01,1.272942099347375289e-01
4.039999999999999858e+01,1.524490044791589616e-01
4.043999999999999773e+01,1.707013342484055840e-01
4.047999999999999687e+01,1.930397573981803283e-01
4.052000000000000313e+01,2.253726941303643705e-01
4.056000000000000227e+01,2.566563651704995008e-01
4.060000000000000142e+01,3.156045926218618014e-01
4.064000000000000057e+01,3.881917771066630274e-01
4.067999999999999972e+01,4.707734707179674349e-01
4.071999999999999886e+01,5.677671836059917654e-01
4.075999999999999801e+01,6.988860586732189573e-01
4.079999999999999716e+01,8.154822520087507964e-01
4.084000000000000341e+01,9.311396096360031738e-01
4.088000000000000256e+01,9.818594360010078903e-01
4.092000000000000171e+01,1.000000000000000000e+00
4.096000000000000085e+01,9.778306558066657272e-01
4.100000000000000000e+01,8.951412882733469356e-01
4.103999999999999915e+01,7.797069983596791598e-01
4.107999999999999829e+01,6.664813428296103570e-01
4.111999999999999744e+01,5.565686983852120573e-01
4.115999999999999659e+01,4.690748001301415226e-01
4.120000000000000284e+01,3.559592119523266041e-01
4.124000000000000199e+01,2.983937022173314690e-01
4.128000000000000114e+01,2.529762216404864983e-01
4.132000000000000028e+01,2.100434632173936167e-01
4.135999999999999943e+01,1.843388696783195557e-01
4.139999999999999858e+01,1.641560350591772521e-01
4.143999999999999773e+01,1.395003390107540375e-01
4.147999999999999687e+01,1.243421597920830318e-01
4.152000000000000313e+01,1.059259325138312419e-01
4.156000000000000227e+01,9.209273855596425418e-02
4.160000000000000142e+01,9.278197714893915427e-02
4.164000000000000057e+01,7.558015827776556894e-02
4.167999999999999972e+01,8.427586123477709412e-02
4.171999999999999886e+01,7.187780883314746905e-02
4.175999999999999801e+01,6.074965073387569164e-02
4.179999999999999716e+01,5.823549829970568747e-02
4.184000000000000341e+01,5.340201003778405342e-02
4.188000000000000256e+01,5.607814739696300593e-02
4.192000000000000171e+01,5.025043093056759391e-02
4.196000000000000085e+01,4.635522988627659158e-02
4.200000000000000000e+01,4.549692096616164694e-02
4.203999999999999915e+01,3.574822264292601415e-02
4.207999999999999829e+01,4.239938579009642355e-02
4.211999999999999744e+01,3.916621727174982720e-02
4.215999999999999659e+01,4.018475201932639185e-02
4.220000000000000284e+01,3.490818077558956178e-02
4.224000000000000199e+01,3.051495823087598327e-02
4.228000000000000114e+01,2.816467997805979090e-02
4.232000000000000028e+01,3.271660729377642851e-02
4.235999999999999943e+01,3.163605085190267230e-02
4.239999999999999858e+01,2.911964523944510219e-02
4.243999999999999773e+01,2.721048830211633338e-02
4.247999999999999687e+01,2.320285327662188063e-02
4.252000000000000313e+01,2.151425031317798220e-02
4.256000000000000227e+01,2.485040394712614148e-02
4.260000000000000142e+01,1.946180925469013015e-02
4.264000000000000057e+01,2.086497343737031898e-02
4.267999999999999972e+01,2.282016072051805053e-02
4.271999999999999886e+01,2.140682874318581078e-02
4.275999999999999801e+01,1.855763756948142912e-02
4.279999999999999716e+01,2.277629526899937334e-02
4.284000000000000341e+01,1.782844683185499240e-02
4.288000000000000256e+01,1.497874486776318986e-02
4.292000000000000171e+01,2.212348964749193819e-02
4.296000000000000085e+01,2.021216273023374727e-02
4.300000000000000000e+01,1.874241222002644494e-02
4.303999999999999915e+01,1.898427149134892036e-02
4.307999999999999829e+01,1.718285485566093188e-02
4.311999999999999744e+01,1.709304577354979829e-02
4.315999999999999659e+01,1.462864521166076792e-02
4.320000000000000284e+01,2.387046921063160076e-02
4.324000000000000199e+01,1.660166345645493896e-02
4.328000000000000114e+01,1.717375767901659425e-02
4.332000000000000028e+01,1.730391714397873024e-02
4.335999999999999943e+01,1.274028614557943563e-02
4.339999999999999858e+01,1.507883063834803035e-02
4.343999999999999773e+01,1.576062143393470658e-02
4.347999999999999687e+01,1.307387180348830967e-02
4.352000000000000313e+01,1.535663314419605067e-02
4.356000000000000227e+01,1.697657748023579175e-02
4.360000000000000142e+01,1.263269018059980271e-02
4.364000000000000057e+01,1.320309161938613106e-02
4.367999999999999972e+01,1.846690511940864490e-02
4.371999999999999886e+01,1.721469473380192114e-02
4.375999999999999801e+01,1.502356731963273677e-02
4.379999999999999716e+01,1.321877514218242240e-02
4.384000000000000341e+01,1.511345053561902879e-02
4.388000000000000256e+01,1.203822652998792070e-02
4.392000000000000171e+01,1.266246786729076021e-02
4.396000000000000085e+01,1.422522889343065360e-02
4.400000000000000000e+01,1.628475736801184362e-02
4.403999999999999915e+01,1.210434749916398413e-02
4.407999999999999829e+01,1.129208517252971652e-02
4.411999999999999744e+01,1.324056147530607019e-02
4.415999999999999659e+01,1.364270181092866463e-02
4.420000000000000284e+01,1.012409276091746219e-02
4.424000000000000199e+01,1.306588468214883725e-02
4.428000000000000114e+01,1.164517386337415861e-02
4.432000000000000028e+01,1.099731603524099766e-02
4.435999999999999943e+01,1.239234457222825915e-02
4.439999999999999858e+01,1.864642179128231381e-02
4.443999999999999773e+01,1.352519268251850017e-02
4.447999999999999687e+01,1.066772216015530669e-02
4.452000000000000313e+01,1.432586370200174090e-02
4.456000000000000227e+01,1.467065363125254901e-02
4.460000000000000142e+01,1.496000539127337152e-02
4.464000000000000057e+01,1.348213225321305032e-02
4.467999999999999972e+01,1.482020103969504746e-02
4.471999999999999886e+01,1.306578932088512703e-02
4.475999999999999801e+01,1.379600395385011981e-02
4.479999999999999716e+01,1.198592476159432083e-02
4.484000000000000341e+01,1.111434075069302543e-02
4.488000000000000256e+01,1.300347420364922867e-02
4.492000000000000171e+01,1.549978726519251823e-02
4.496000000000000085e+01,1.534536426400428394e-02
4.500000000000000000e+01,1.011057289080208657e-02
4.503999999999999915e+01,1.376579140461883961e-02
4.507999999999999829e+01,1.383154937013368786e-02
4.511999999999999744e+01,1.538798362719175777e-02
4.515999999999999659e+01,1.363104956200700789e-02
4.520000000000000284e+01,1.281260065238845440e-02
4.524000000000000199e+01,1.580401810608484184e-02
4.528000000000000114e+01,1.758038174610049298e-02
4.532000000000000028e+01,7.650101206001292710e-03
4.535999999999999943e+01,1.710141089356687419e-02
4.539999999999999858e+01,1.081509514448879446e-02
4.543999999999999773e+01,1.772585162525274621e-02
4.547999999999999687e+01,1.508349621128985026e-02
4.552000000000000313e+01,1.282742813305721985e-02
4.556000000000000227e+01,1.233811854663856983e-02
4.560000000000000142e+01,1.532735195293211290e-02
4.564000000000000057e+01,1.434057697963617324e-02
4.567999999999999972e+01,1.263570707011639656e-02
4.571999999999999886e+01,1.407806346656489786e-02
4.575999999999999801e+01,1.607235718729200721e-02
4.579999999999999716e+01,1.950208937115979063e-02
4.584000000000000341e+01,1.591876861142320701e-02
4.588000000000000256e+01,1.139647178237074981e-02
4.592000000000000171e+01,1.377628026396798995e-02
4.596000000000000085e+01,1.477535932187709622e-02
4.600000000000000000e+01,1.665768236502039590e-02
4.603999999999999915e+01,1.517139368763593260e-02
4.607999999999999829e+01,1.688754018123383299e-02
4.611999999999999744e+01,1.749904724924977034e-02
4.615999999999999659e+01,1.733722712252168396e-02
4.620000000000000284e+01,1.579467088824662580e-02
4.624000000000000199e+01,1.408619303010109729e-02
4.628000000000000114e+01,1.530405031904351343e-02
4.632000000000000028e+01,1.585901373894082339e-02
4.635999999999999943e+01,1.448104768736115620e-02
4.639999999999999858e+01,9.127052090638866286e-03
4.643999999999999773e+01,1.575528527669365839e-02
4.647999999999999687e+01,1.492869656910114293e-02
4.652000000000000313e+01,1.410183511221001218e-02
4.656000000000000227e+01,1.332991868284622711e-02
4.660000000000000142e+01,1.620217406918986539e-02
4.664000000000000057e+01,1.636842771498742480e-02
4.667999999999999972e+01,1.554046412113711632e-02
4.671999999999999886e+01,1.046036761632033150e-02
4.675999999999999801e+01,1.288976082747365741e-02
4.679999999999999716e+01,1.504277903748098624e-02
4.684000000000000341e+01,1.393760102903575729e-02
4.688000000000000256e+01,1.642136814766018138e-02
4.692000000000000171e+01,1.354861896938754778e-02
4.696000000000000085e+01,1.520353383387257340e-02
4.700000000000000000e+01,1.166758684591480931e-02
4.703999999999999915e+01,1.304583390837859604e-02
4.707999999999999829e+01,1.469988707988510723e-02
4.711999999999999744e+01,1.591189966602655700e-02
4.715999999999999659e+01,8.454255823267553885e-03
4.720000000000000284e+01,1.778286309754205374e-02
4.724000000000000199e+01,1.330645487033913291e-02
4.728000000000000114e+01,1.043110056155436248e-02
4.732000000000000028e+01,1.280124585017022865e-02
4.735999999999999943e+01,1.627547281202959550e-02
4.739999999999999858e+01,1.477970234489101552e-02
4.743999999999999773e+01,6.326053265891307988e-03
4.747999999999999687e+01,1.449299083368250571e-02
4.752000000000000313e+01,1.249935189511991625e-02
4.756000000000000227e+01,1.354245023800274526e-02
4.760000000000000142e+01,1.425393240940756034e-02
4.764000000000000057e+01,1.408160838733379938e-02
4.767999999999999972e+01,1.666992385076397978e-02
4.771999999999999886e+01,1.351516850215064673e-02
4.775999999999999801e+01,1.361802042830996366e-02
4.779999999999999716e+01,9.358271584533048304e-03
4.784000000000000341e+01,1.498239468386487229e-02
4.788000000000000256e+01,1.751394927376288477e-02
4.792000000000000171e+01,1.397111413692055278e-02
4.796000000000000085e+01,1.622594968187928213e-02
4.800000000000000000e+01,1.235117438134227842e-02
4.803999999999999915e+01,1.239662524737147886e-02
4.807999999999999829e+01,1.371179440747475990e-02
4.811999999999999744e+01,1.381183066156727035e-02
4.815999999999999659e+01,1.297282734968458265e-02
4.820000000000000284e+01,1.660623465648624481e-02
4.824000000000000199e+01,1.361305441671162818e-02
4.828000000000000114e+01,1.133739799310462017e-02
4.832000000000000028e+01,1.132539321415618715e-02
4.835999999999999943e+01,1.059521886255976840e-02
4.839999999999999858e+01,1.765058300790985080e-02
4.843999999999999773e+01,8.139953692367682403e-03
4.847999999999999687e+01,1.298590865130568560e-02
4.852000000000000313e+01,1.413186947835972512e-02
4.856000000000000227e+01,8.540796065420835220e-03
4.860000000000000142e+01,1.206050895880383771e-02
4.864000000000000057e+01,1.535901449892519699e-02
4.867999999999999972e+01,1.285920360076511955e-02
4.871999999999999886e+01,1.223650097188197332e-02
4.875999999999999801e+01,1.277305991786794465e-02
4.879999999999999716e+01,1.292275038227910268e-02
4.884000000000000341e+01,1.307210348675586463e-02
4.888000000000000256e+01,1.012886023238681286e-02
4.892000000000000171e+01,1.143713198191587295e-02
4.896000000000000085e+01,1.368378417322201925e-02
4.900000000000000000e+01,1.123648883048307227e-02
4.903999999999999915e+01,9.120163902741777739e-03
4.907999999999999829e+01,1.517589076996365971e-02
4.911999999999999744e+01,9.911399864921987754e-03
4.915999999999999659e+01,1.254286407287849917e-02
4.920000000000000284e+01,1.362785195264482919e-02
4.924000000000000199e+01,1.079195008574093499e-02
4.928000000000000114e+01,1.336714990379738420e-02
4.932000000000000028e+01,1.196623885642824313e-02
4.935999999999999943e+01,1.343635828915568792e-02
4.939999999999999858e+01,1.529265700189486737e-02
4.943999999999999773e+01,1.477418934054884961e-02
4.947999999999999687e+01,1.154964084632671521e-02
4.952000000000000313e+01,1.412271958882292330e-02
4.956000000000000227e+01,1.327186969005873449e-02
4.960000000000000142e+01,1.578901360475394242e-02
4.964000000000000057e+01,1.245259545492982158e-02
4.967999999999999972e+01,1.585252122955906409e-02
4.971999999999999886e+01,1.693289172307017518e-02
4.975999999999999801e+01,1.100010010328191824e-02
4.979999999999999716e+01,1.025752012355014842e-02
4.984000000000000341e+01,1.730043853761161279e-02
4.988000000000000256e+01,1.053826792774798481e-02
4.992000000000000171e+01,1.758045258118717813e-02
4.996000000000000085e+01,1.589768393656994933e-02
5.000000000000000000e+01,1.620242569558709433e-02
5.003999999999999915e+01,1.821858229025009532e-02
5.007999999999999829e+01,1.797039246880905577e-02
5.011999999999999744e+01,1.656223293333567576e-02
5.015999999999999659e+01,2.056515057534008539e-02
5.020000000000000284e+01,2.578250857986276109e-02
5.024000000000000199e+01,2.034224431040936032e-02
5.028000000000000114e+01,2.975548420371621275e-02
5.032000000000000028e+01,2.956025852033977025e-02
5.035999999999999943e+01,3.786836232949363640e-02
5.039999999999999858e+01,4.126160405221598881e-02
5.043999999999999773e+01,5.139116853383860622e-02
5.047999999999999687e+01,6.074728551125740256e-02
5.052000000000000313e+01,7.750234970925243272e-02
5.056000000000000227e+01,8.492503610071731879e-02
5.060000000000000142e+01,8.754329261747315072e-02
5.064000000000000057e+01,9.352951398429987240e-02
5.067999999999999972e+01,8.698065853612735321e-02
5.071999999999999886e+01,8.010010002631140491e-02
5.075999999999999801e+01,6.874642053069490721e-02
5.079999999999999716e+01,5.711625463628444005e-02
5.084000000000000341e+01,4.995842583811069271e-02
5.088000000000000256e+01,4.451198848207672809e-02
5.092000000000000171e+01,3.497895791995313947e-02
5.096000000000000085e+01,3.306573788787414009e-02
5.100000000000000000e+01,2.568545015169233781e-02
5.103999999999999915e+01,2.531756291877564416e-02
5.107999999999999829e+01,2.312705254676218278e-02
5.111999999999999744e+01,2.132267355377181692e-02
5.115999999999999659e+01,2.233405602113408203e-02
5.120000000000000284e+01,2.279284649592551101e-02
5.124000000000000199e+01,2.087682046769017211e-02
5.128000000000000114e+01,1.873951356374553220e-02
5.132000000000000028e+01,1.461392016443801602e-02
5.135999999999999943e+01,1.678287277615244863e-02
5.139999999999999858e+01,1.315343319918485000e-02
5.143999999999999773e+01,1.548722406047180200e-02
5.147999999999999687e+01,1.583272397048996263e-02
5.152000000000000313e+01,1.540474741291584029e-02
5.156000000000000227e+01,1.138712984285010846e-02
5.160000000000000142e+01,1.289098712871374758e-02
5.164000000000000057e+01,1.489139909351105788e-02
5.167999999999999972e+01,1.451698230154031995e-02
5.171999999999999886e+01,1.414214794332863644e-02
5.175999999999999801e+01,1.531302384736695638e-02
5.179999999999999716e+01,1.074071531376084854e-02
5.184000000000000341e+01,1.450603838314807985e-02
5.188000000000000256e+01,1.473693041903426787e-02
5.192000000000000171e+01,1.712093606009104998e-02
5.196000000000000085e+01,1.376175280759747363e-02
5.200000000000000000e+01,1.526140658163956977e-02
5.203999999999999915e+01,1.416534600991565737e-02
5.207999999999999829e+01,1.577458349548050212e-02
5.211999999999999744e+01,1.241369210282280630e-02
5.215999999999999659e+01,1.479513553363338840e-02
5.220000000000000284e+01,1.469129794437687084e-02
5.224000000000000199e+01,1.629881392205983701e-02
5.228000000000000114e+01,1.685673781258537063e-02
5.232000000000000028e+01,1.432196954228785561e-02
5.235999999999999943e+01,1.487902376706060070e-02
5.239999999999999858e+01,1.184641358583567346e-02
5.243999999999999773e+01,1.251303147055453889e-02
5.247999999999999687e+01,1.152264389940707394e-02
5.252000000000000313e+01,1.119444317211797622e-02
5.256000000000000227e+01,1.312977600798059460e-02
5.260000000000000142e+01,1.208284666678964211e-02
5.264000000000000057e+01,1.269204086197096501e-02
5.267999999999999972e+01,8.993717272887934502e-03
5.271999999999999886e+01,1.330168743450122794e-02
5.275999999999999801e+01,1.087250638859122917e-02
5.279999999999999716e+01,8.332439917470518473e-03
5.284000000000000341e+01,1.335691272869740653e-02
5.288000000000000256e+01,1.247251435250769716e-02
5.292000000000000171e+01,9.323690467883892150e-03
5.296000000000000085e+01,8.659264569856647831e-03
5.300000000000000000e+01,1.219102115932416477e-02
5.303999999999999915e+01,1.213309551917033692e-02
5.307999999999999829e+01,1.008683436868852354e-02
5.311999999999999744e+01,1.196065790975998910e-02
5.315999999999999659e+01,1.018957698847825638e-02
5.320000000000000284e+01,1.035069846191012666e-02
5.324000000000000199e+01,9.903952239168317684e-03
5.328000000000000114e+01,1.304597290725942674e-02
5.332000000000000028e+01,5.916817760802359043e-03
5.335999999999999943e+01,9.886196426352827915e-03
5.339999999999999858e+01,1.280595181340443006e-02
5.343999999999999773e+01,9.540725963356680786e-03
5.347999999999999687e+01,7.710724692965497014e-03
5.352000000000000313e+01,1.096039368121337100e-02
5.356000000000000227e+01,1.006817705012158330e-02
5.360000000000000142e+01,1.331690730607493212e-02
5.364000000000000057e+01,1.148502857109471448e-02
5.367999999999999972e+01,1.302103002397297406e-02
5.371999999999999886e+01,1.345218039573810830e-02
5.375999999999999801e+01,1.029362848630527988e-02
5.379999999999999716e+01,1.309824129051468007e-02
5.384000000000000341e+01,7.950857212182848091e-03
5.388000000000000256e+01,1.020232678040292919e-02
5.392000000000000171e+01,1.085196968040582320e-02
5.396000000000000085e+01,1.194288375790418001e-02
5.400000000000000000e+01,9.223213307136027619e-03
5.403999999999999915e+01,1.224582532294160933e-02
5.407999999999999829e+01,9.911721640060291300e-03
5.411999999999999744e+01,8.791949150002238353e-03
5.415999999999999659e+01,1.175788906051621584e-02
5.420000000000000284e+01,1.234893003374391666e-02
5.424000000000000199e+01,1.089638430052333566e-02
5.428000000000000114e+01,1.325345317193329583e-02
5.432000000000000028e+01,1.157905304005528435e-02
5.435999999999999943e+01,9.075878457452536685e-03
5.439999999999999858e+01,7.566151706628044399e-03
5.443999999999999773e+01,1.130172626539081501e-02
5.447999999999999687e+01,9.680573985701884307e-03
5.452000000000000313e+01,1.192424851758704454e-02
5.456000000000000227e+01,1.460917751732045654e-02
5.460000000000000142e+01,1.254478413549923316e-02
5.464000000000000057e+01,1.324083640727447171e-02
5.467999999999999972e+01,8.138405144296338364e-03
5.471999999999999886e+01,8.943894082699029024e-03
5.475999999999999801e+01,8.865378539809764744e-03
5.479999999999999716e+01,7.185011821220759626e-03
5.484000000000000341e+01,1.179909419769997747e-02
5.488000000000000256e+01,1.365172646367591308e-02
5.492000000000000171e+01,1.318465863159135748e-02
5.496000000000000085e+01,1.155748629432040361e-02
5.500000000000000000e+01,1.346381405609132532e-02
5.503999999999999915e+01,1.260868725145304972e-02
5.507999999999999829e+01,1.175304930654951473e-02
5.511999999999999744e+01,8.853800147715147617e-03
5.515999999999999659e+01,1.180724004571789658e-02
5.520000000000000284e+01,1.106049977776458332e-02
5.524000000000000199e+01,1.793345084437250256e-02
5.528000000000000114e+01,1.216075920708117354e-02
5.532000000000000028e+01,1.135724991788251287e-02
5.535999999999999943e+01,1.176803728823624245e-02
5.539999999999999858e+01,1.190221015250083648e-02
5.543999999999999773e+01,9.992762891022757832e-03
5.547999999999999687e+01,1.084373788963506786e-02
5.552000000000000313e+01,1.417903958034925048e-02
5.556000000000000227e+01,9.341420924323931216e-03
5.560000000000000142e+01,1.195782690466431694e-02
5.564000000000000057e+01,1.153666715493625872e-02
5.567999999999999972e+01,1.139107400930781423e-02
5.571999999999999886e+01,1.384023976750365856e-02
5.575999999999999801e+01,1.198180196524620961e-02
5.579999999999999716e+01,1.663866208583111156e-02
5.584000000000000341e+01,1.356434518826044738e-02
5.588000000000000256e+01,1.258781272138646476e-02
5.592000000000000171e+01,1.370906357123269532e-02
5.596000000000000085e+01,1.333886872166609172e-02
5.600000000000000000e+01,1.777218061018477277e-02
5.603999999999999915e+01,1.348036987622212683e-02
5.607999999999999829e+01,1.515166035924236411e-02
5.611999999999999744e+01,1.687762962941131636e-02
5.615999999999999659e+01,1.297073082010436439e-02
5.620000000000000284e+01,1.270773647214974017e-02
5.624000000000000199e+01,1.283073091422880230e-02
5.628000000000000114e+01,1.665284648050960326e-02
5.632000000000000028e+01,1.727172070671459392e-02
5.635999999999999943e+01,1.871833150744312349e-02
5.639999999999999858e+01,1.823173322859826875e-02
5.643999999999999773e+01,1.299576132528071880e-02
5.647999999999999687e+01,1.648382403930170187e-02
5.652000000000000313e+01,1.549860535490906605e-02
5.656000000000000227e+01,1.743943552564911417e-02
5.660000000000000142e+01,1.965580667902972270e-02
5.664000000000000057e+01,2.004939985058289478e-02
5.667999999999999972e+01,2.011112397799718482e-02
5.671999999999999886e+01,1.674872006236122202e-02
5.675999999999999801e+01,1.807936393765260247e-02
5.679999999999999716e+01,1.891247875446843904e-02
5.684000000000000341e+01,1.499620880704678576e-02
5.688000000000000256e+01,2.052180791763018319e-02
5.692000000000000171e+01,1.770879213386655424e-02
5.696000000000000085e+01,2.119016640441773180e-02
5.700000000000000000e+01,1.832080362155563344e-02
5.703999999999999915e+01,1.600306402160487154e-02
5.707999999999999829e+01,1.799183106515276492e-02
5.711999999999999744e+01,1.666689670749042784e-02
5.715999999999999659e+01,2.020065567339788398e-02
5.720000000000000284e+01,1.754932868841687504e-02
5.724000000000000199e+01,1.804490718417802245e-02
5.728000000000000114e+01,1.169277081146886423e-02
5.732000000000000028e+01,1.389898899018495761e-02
5.735999999999999943e+01,1.488981693432346945e-02
5.739999999999999858e+01,1.808882475965725711e-02
5.743999999999999773e+01,1.587580442147745394e-02
5.747999999999999687e+01,1.553964839172551973e-02
5.752000000000000313e+01,1.498203770593344551e-02
5.756000000000000227e+01,1.436862792253197803e-02
5.760000000000000142e+01,1.673645692167711682e-02
5.764000000000000057e+01,1.573535114711539090e-02
5.767999999999999972e+01,1.589325853066781563e-02
5.771999999999999886e+01,1.406270118262062732e-02
5.775999999999999801e+01,1.631775597726229862e-02
5.779999999999999716e+01,1.603215490432730733e-02
5.784000000000000341e+01,1.348199130385122069e-02
5.788000000000000256e+01,1.523831206734418443e-02
5.792000000000000171e+01,1.340481469608529111e-02
5.796000000000000085e+01,1.355860604714132812e-02
5.800000000000000000e+01,1.779800285702734519e-02
5.803999999999999915e+01,1.899976709825614007e-02
5.807999999999999829e+01,1.456860978913803416e-02
5.811999999999999744e+01,1.201429896482412475e-02
5.815999999999999659e+01,1.376646470664392129e-02
5.820000000000000284e+01,1.590456465364991495e-02
5.824000000000000199e+01,1.693768764020059728e-02
5.828000000000000114e+01,1.587189251787612249e-02
5.832000000000000028e+01,1.789775390812645486e-02
5.835999999999999943e+01,1.848732165117757120e-02
5.839999999999999858e+01,1.570793345496869151e-02
5.843999999999999773e+01,2.132121194643641846e-02
5.847999999999999687e+01,2.201940332822375015e-02
5.852000000000000313e+01,1.967994877363610229e-02
5.856000000000000227e+01,2.324830747868720723e-02
5.860000000000000142e+01,2.300595354817666985e-02
5.864000000000000057e+01,2.508218274719535568e-02
5.867999999999999972e+01,2.378944820911869582e-02
5.871999999999999886e+01,2.492573235422312558e-02
5.875999999999999801e+01,3.644255434407903116e-02
5.879999999999999716e+01,3.299444218640429360e-02
5.884000000000000341e+01,3.379756876646070746e-02
5.888000000000000256e+01,3.217044718318033680e-02
5.892000000000000171e+01,3.810769555782266699e-02
5.896000000000000085e+01,4.028944016191741279e-02
5.900000000000000000e+01,4.120052996759651642e-02
5.903999999999999915e+01,4.343625172859670591e-02
5.907999999999999829e+01,4.749357434816317558e-02
5.911999999999999744e+01,5.536037678120615813e-02
5.915999999999999659e+01,5.599287975326742300e-02
5.920000000000000284e+01,6.336146152337988890e-02
5.924000000000000199e+01,6.272267713332396744e-02
5.928000000000000114e+01,6.230414019868208558e-02
5.932000000000000028e+01,6.586073418004152746e-02
5.935999999999999943e+01,6.152039644090796094e-02
5.939999999999999858e+01,5.579895498198911979e-02
5.943999999999999773e+01,6.001628130380232823e-02
5.947999999999999687e+01,6.075418382738578815e-02
5.952000000000000313e+01,6.066316819727861354e-02
5.956000000000000227e+01,5.295130973080806880e-02
5.960000000000000142e+01,4.960110661812038718e-02
5.964000000000000057e+01,5.017080661881977849e-02
5.967999999999999972e+01,4.472100827449623089e-02
5.971999999999999886e+01,4.098235518351044798e-02
5.975999999999999801e+01,3.961747292151488603e-02
5.979999999999999716e+01,3.764454027120298779e-02
5.984000000000000341e+01,3.163998488884891408e-02
5.988000000000000256e+01,3.148798711410736445e-02
5.992000000000000171e+01,3.116968673553932589e-02
5.996000000000000085e+01,2.510797466812500489e-02
