2.003999999999999915e+01,3.321130553145334920e-03
2.007999999999999829e+01,3.024694389360956751e-03
2.012000000000000099e+01,3.105515128555461947e-03
2.016000000000000014e+01,1.730686271645811474e-03
2.019999999999999929e+01,1.649567771478239152e-03
2.023999999999999844e+01,4.425521205105467301e-03
2.028000000000000114e+01,4.775462980225513888e-03
2.032000000000000028e+01,3.400210400586557713e-03
2.035999999999999943e+01,3.103032436116598056e-03
2.039999999999999858e+01,4.099565236830018597e-03
2.044000000000000128e+01,2.854486879417163784e-05
2.048000000000000043e+01,3.720317479102227404e-03
2.051999999999999957e+01,2.667991186526726989e-03
2.055999999999999872e+01,2.963285002969197768e-03
2.060000000000000142e+01,2.342020292693490317e-03
2.064000000000000057e+01,2.637103718160004572e-03
2.067999999999999972e+01,3.794626343975487578e-03
2.071999999999999886e+01,3.388682483159164219e-03
2.076000000000000156e+01,3.144360764008381423e-03
2.080000000000000071e+01,4.301568661086666717e-03
2.083999999999999986e+01,2.924948009130355457e-03
2.087999999999999901e+01,1.709949743904362910e-03
2.092000000000000171e+01,4.484114159885811170e-03
2.096000000000000085e+01,5.425267493957386389e-03
2.100000000000000000e+01,2.916139315361332418e-03
2.103999999999999915e+01,4.611810131363643095e-03
2.107999999999999829e+01,2.965017632237914712e-03
2.112000000000000099e+01,3.636208693233407892e-03
2.116000000000000014e+01,2.851752200331056798e-03
2.119999999999999929e+01,2.875826952643517620e-03
2.123999999999999844e+01,4.247523202674372521e-03
2.128000000000000114e+01,4.487026246361368667e-03
2.132000000000000028e+01,4.349062404534233262e-03
2.135999999999999943e+01,4.210994878451938817e-03
2.139999999999999858e+01,1.053918793236902638e-03
2.144000000000000128e+01,3.988458117356513677e-03
2.148000000000000043e+01,4.550897250698295385e-03
2.151999999999999957e+01,3.927234650744242279e-03
2.155999999999999872e+01,6.052828646134542252e-03
2.160000000000000142e+01,3.596052995468954419e-03
2.164000000000000057e+01,3.349443932708898522e-03
2.167999999999999972e+01,3.534003975852060154e-03
2.171999999999999886e+01,4.257551240749760449e-03
2.176000000000000156e+01,2.231635767116723484e-03
2.180000000000000071e+01,3.925339686425215191e-03
2.183999999999999986e+01,4.648578594270097973e-03
2.187999999999999901e+01,5.156078811481093829e-03
2.192000000000000171e+01,3.722751873137403796e-03
2.196000000000000085e+01,3.906592988308483193e-03
2.200000000000000000e+01,4.575512879970405899e-03
2.203999999999999915e+01,1.416790263288736969e-03
2.207999999999999829e+01,4.942683550850767576e-03
2.212000000000000099e+01,2.754118895592086880e-03
2.216000000000000014e+01,4.177356334306216515e-03
2.219999999999999929e+01,3.336313086794274064e-03
2.223999999999999844e+01,5.783617994142464976e-03
2.228000000000000114e+01,3.648554644135197471e-03
2.232000000000000028e+01,3.400205168244707990e-03
2.235999999999999943e+01,2.181391742837998117e-03
2.239999999999999858e+01,4.843925986941334874e-03
2.244000000000000128e+01,3.409273454176041818e-03
2.248000000000000043e+01,4.508243327258984988e-03
2.251999999999999957e+01,1.833480689339026578e-03
2.255999999999999872e+01,4.064337372231282587e-03
2.260000000000000142e+01,5.001276493247682094e-03
2.264000000000000057e+01,3.134845655793576380e-03
2.267999999999999972e+01,4.287218786362797553e-03
2.271999999999999886e+01,4.954309856343945898e-03
2.276000000000000156e+01,3.680575486223896381e-03
2.280000000000000071e+01,4.617010072968963721e-03
2.283999999999999986e+01,3.612619382989355581e-03
2.287999999999999901e+01,3.147218283723842835e-03
2.292000000000000171e+01,2.196535532311583595e-03
2.296000000000000085e+01,4.480293389066609434e-03
2.300000000000000000e+01,3.475500868811666564e-03
2.303999999999999915e+01,4.519150744306822329e-03
2.307999999999999829e+01,3.298521730717642649e-03
2.312000000000000099e+01,5.527969720374951296e-03
2.316000000000000014e+01,4.792321762264526233e-03
2.319999999999999929e+01,4.541755031292772811e-03
2.323999999999999844e+01,4.614542557903342571e-03
2.328000000000000114e+01,7.220954124127361949e-03
2.332000000000000028e+01,2.711275754058633213e-03
2.335999999999999943e+01,3.646308509382684051e-03
2.339999999999999858e+01,3.071789268269964086e-03
2.344000000000000128e+01,4.168350120219213410e-03
2.348000000000000043e+01,3.270177985374420927e-03
2.351999999999999957e+01,4.204813158212720656e-03
2.355999999999999872e+01,3.845532729693424204e-03
2.360000000000000142e+01,4.833878618499955031e-03
2.364000000000000057e+01,3.719673813102411519e-03
2.367999999999999972e+01,5.839911086260867953e-03
2.371999999999999886e+01,6.504506033570185003e-03
2.376000000000000156e+01,4.042279207191092592e-03
2.380000000000000071e+01,2.496406969926844195e-03
2.383999999999999986e+01,3.538068932993235736e-03
2.387999999999999901e+01,4.687450392328001807e-03
2.392000000000000171e+01,5.405461258804063543e-03
2.396000000000000085e+01,4.775648323723617750e-03
2.400000000000000000e+01,1.450286241736596735e-03
2.403999999999999915e+01,3.246182571353590108e-03
2.407999999999999829e+01,3.802073378641920333e-03
2.412000000000000099e+01,3.225776779452927626e-03
2.416000000000000014e+01,4.590106829122255275e-03
2.419999999999999929e+01,2.558070918266383033e-03
2.423999999999999844e+01,2.897933956297639273e-03
2.428000000000000114e+01,3.399426324561394784e-03
2.432000000000000028e+01,4.008639087664395313e-03
2.435999999999999943e+01,4.402118224805703570e-03
2.439999999999999858e+01,3.232138390635247091e-03
2.444000000000000128e+01,2.062061162205736271e-03
2.448000000000000043e+01,2.401339099488383408e-03
2.451999999999999957e+01,4.088245232926851318e-03
2.455999999999999872e+01,3.295239431420521423e-03
2.460000000000000142e+01,2.124773442837462820e-03
2.464000000000000057e+01,3.703570339594875003e-03
2.467999999999999972e+01,4.042362939347536252e-03
2.471999999999999886e+01,4.758421836229712737e-03
2.476000000000000156e+01,4.342294633646752271e-03
2.480000000000000071e+01,4.519069959895957549e-03
2.483999999999999986e+01,3.779295418382664241e-03
2.487999999999999901e+01,4.602785876545671846e-03
2.492000000000000171e+01,2.622911032469037781e-03
2.496000000000000085e+01,1.020302975651488477e-03
2.500000000000000000e+01,3.029502812673285760e-03
2.503999999999999915e+01,1.965792507112559036e-03
2.507999999999999829e+01,3.974800087952369033e-03
2.512000000000000099e+01,5.498530509499771103e-03
2.516000000000000014e+01,3.679805948121778539e-03
2.519999999999999929e+01,3.855619176578423124e-03
2.523999999999999844e+01,5.648607156987245186e-03
2.528000000000000114e+01,6.794591253612117417e-03
2.532000000000000028e+01,3.735576420760108179e-03
2.535999999999999943e+01,4.881369404838637426e-03
2.539999999999999858e+01,5.649703835605667836e-03
2.544000000000000128e+01,3.938128128569650527e-03
2.548000000000000043e+01,2.334275185332447110e-03
2.551999999999999957e+01,3.533595941658978275e-03
2.555999999999999872e+01,4.517185522671658508e-03
2.560000000000000142e+01,2.859138241389724833e-03
2.564000000000000057e+01,2.764357511861044708e-03
2.567999999999999972e+01,3.478117176632425020e-03
2.571999999999999886e+01,3.814418941598382139e-03
2.576000000000000156e+01,4.581898144670177794e-03
2.580000000000000071e+01,3.031194996377879151e-03
2.583999999999999986e+01,2.989849791198615023e-03
2.587999999999999901e+01,3.433591286271501022e-03
2.592000000000000171e+01,3.068603153328005283e-03
2.596000000000000085e+01,4.752063379377662045e-03
2.600000000000000000e+01,3.632160508770720161e-03
2.603999999999999915e+01,2.835617613924381296e-03
2.607999999999999829e+01,2.578070844853040406e-03
2.612000000000000099e+01,5.015880966506292005e-03
2.616000000000000014e+01,3.518238959543785495e-03
2.619999999999999929e+01,3.583864647970200906e-03
2.623999999999999844e+01,4.350213840169260028e-03
2.628000000000000114e+01,2.690563627100274035e-03
2.632000000000000028e+01,2.432454303240394293e-03
2.635999999999999943e+01,1.203889198690403844e-03
2.639999999999999858e+01,3.048044676253564619e-03
2.644000000000000128e+01,3.760017485258537392e-03
2.648000000000000043e+01,3.501534758638184981e-03
2.651999999999999957e+01,1.356143287694701587e-03
2.655999999999999872e+01,3.685107169737269778e-03
2.660000000000000142e+01,3.264618197528709048e-03
2.664000000000000057e+01,3.544853545975396123e-03
2.667999999999999972e+01,3.932814108868720217e-03
2.671999999999999886e+01,1.840867147983360312e-03
2.676000000000000156e+01,4.385002999769966291e-03
2.680000000000000071e+01,3.101506064116066157e-03
2.683999999999999986e+01,2.195279755069522165e-03
2.687999999999999901e+01,8.576888980956014728e-04
2.692000000000000171e+01,3.617091009731353540e-03
2.696000000000000085e+01,4.381767241451773459e-03
2.700000000000000000e+01,5.200260324043412714e-03
2.703999999999999915e+01,2.406757177650225947e-03
2.707999999999999829e+01,2.739885019152176002e-03
2.712000000000000099e+01,2.479921751611706415e-03
2.716000000000000014e+01,3.998864208304551970e-03
2.719999999999999929e+01,2.229264865254829489e-03
2.723999999999999844e+01,1.322118119428883831e-03
2.728000000000000114e+01,1.115697001270365453e-03
2.732000000000000028e+01,4.467179497788790164e-03
2.735999999999999943e+01,3.613667230931638056e-03
2.739999999999999858e+01,1.735792290197649438e-03
2.744000000000000128e+01,3.361912192123843197e-03
2.748000000000000043e+01,4.610577788528111114e-03
2.751999999999999957e+01,2.732429289940509296e-03
2.755999999999999872e+01,1.555006990838171330e-03
2.760000000000000142e+01,2.695581485355341266e-03
2.764000000000000057e+01,3.728247086511286053e-03
2.767999999999999972e+01,2.604461226896013885e-03
2.771999999999999886e+01,4.283853559698833080e-03
2.776000000000000156e+01,3.159886390128552932e-03
2.780000000000000071e+01,3.922644285966820840e-03
2.783999999999999986e+01,4.847038782292844780e-03
2.787999999999999901e+01,2.752437952984413978e-03
2.792000000000000171e+01,1.196837007110995244e-03
2.796000000000000085e+01,1.635779487562238378e-03
2.800000000000000000e+01,2.991085134395732488e-03
2.803999999999999915e+01,3.807210568098350588e-03
2.807999999999999829e+01,3.275520614135361136e-03
2.812000000000000099e+01,3.552376037456346503e-03
2.816000000000000014e+01,1.079781792368374833e-03
2.819999999999999929e+01,1.248639668713028049e-03
2.823999999999999844e+01,2.226043167406447244e-03
2.828000000000000114e+01,4.119810404299947479e-03
2.832000000000000028e+01,3.587582402026743677e-03
2.835999999999999943e+01,3.216992062188677934e-03
2.839999999999999858e+01,2.684585363984818163e-03
2.844000000000000128e+01,4.092814055283220016e-03
2.848000000000000043e+01,2.643775697515690290e-03
2.851999999999999957e+01,2.919736824300811669e-03
2.855999999999999872e+01,1.847883543679452404e-03
2.860000000000000142e+01,5.088662730900855337e-03
2.864000000000000057e+01,3.154087461303451898e-03
2.867999999999999972e+01,2.351512815114868010e-03
2.871999999999999886e+01,1.656667549474248992e-03
2.876000000000000156e+01,2.686822258515850822e-03
2.880000000000000071e+01,3.501252408992734915e-03
2.883999999999999986e+01,3.075686758044030109e-03
2.887999999999999901e+01,1.086671284868797379e-03
2.892000000000000171e+01,3.194652864716298647e-03
2.896000000000000085e+01,3.900911836958388841e-03
2.900000000000000000e+01,2.019449907489603412e-03
2.903999999999999915e+01,1.701261473276263802e-03
2.907999999999999829e+01,4.617526145534176993e-03
2.912000000000000099e+01,3.274890631618452772e-03
2.916000000000000014e+01,2.686893601799959785e-03
2.919999999999999929e+01,2.260535949870098090e-03
2.923999999999999844e+01,3.020089082066257109e-03
2.928000000000000114e+01,4.426462909261364917e-03
2.932000000000000028e+01,1.520027941642616278e-03
2.935999999999999943e+01,2.279318788965206330e-03
2.939999999999999858e+01,2.068160063905529616e-03
2.944000000000000128e+01,3.150730565576236042e-03
2.948000000000000043e+01,3.262851658241205238e-03
2.951999999999999957e+01,1.434161116121092762e-03
2.955999999999999872e+01,2.678197609486753818e-03
2.960000000000000142e+01,2.089240665606916826e-03
2.964000000000000057e+01,2.632286305654183128e-03
2.967999999999999972e+01,3.929971491746068329e-03
2.971999999999999886e+01,2.855573314841913530e-03
2.976000000000000156e+01,3.452268137744973070e-03
2.980000000000000071e+01,4.857511768838976111e-03
2.983999999999999986e+01,2.974218991615645326e-03
2.987999999999999901e+01,2.169020271367453050e-03
2.992000000000000171e+01,3.358368980168716187e-03
2.996000000000000085e+01,2.984270072326502231e-03
3.000000000000000000e+01,2.556176107812000494e-03
3.003999999999999915e+01,1.265451912090477917e-03
3.007999999999999829e+01,1.322367267193057033e-03
3.012000000000000099e+01,1.271378793606599365e-03
3.016000000000000014e+01,2.082848880486966314e-03
3.019999999999999929e+01,2.139507097076426018e-03
3.023999999999999844e+01,3.112533054590760958e-03
3.028000000000000114e+01,2.414294014804650983e-03
3.032000000000000028e+01,2.955876981809127130e-03
3.035999999999999943e+01,4.359918917721748374e-03
3.039999999999999858e+01,4.685695289295557266e-03
3.044000000000000128e+01,3.933206178218817163e-03
3.048000000000000043e+01,0.000000000000000000e+00
3.051999999999999957e+01,8.646113643942771694e-04
3.055999999999999872e+01,2.645591123219534057e-03
3.060000000000000142e+01,5.450368379075543664e-04
3.064000000000000057e+01,1.139848674093665382e-03
3.067999999999999972e+01,3.297937354753929275e-03
3.071999999999999886e+01,2.814399629217007471e-03
3.076000000000000156e+01,2.115141347840167330e-03
3.080000000000000071e+01,2.493979002268458759e-03
3.083999999999999986e+01,5.546445980535555419e-04
3.087999999999999901e+01,2.173221078770827888e-03
3.092000000000000171e+01,3.198714210830495060e-03
3.096000000000000085e+01,1.474763392659479613e-03
3.100000000000000000e+01,1.206272038305636644e-03
3.103999999999999915e+01,3.309693519843294549e-03
3.107999999999999829e+01,4.658304928231787705e-03
3.112000000000000099e+01,2.880109593571905224e-03
3.116000000000000014e+01,1.964374861585374728e-03
3.119999999999999929e+01,7.790114552482583880e-04
3.123999999999999844e+01,3.043741634874611197e-03
3.128000000000000114e+01,1.750393261553374056e-03
3.132000000000000028e+01,4.338410774224401613e-03
3.135999999999999943e+01,2.559714641101345015e-03
3.139999999999999858e+01,2.667750925330349219e-03
3.144000000000000128e+01,1.050615564136937003e-03
3.148000000000000043e+01,2.506211159465818097e-03
3.151999999999999957e+01,4.177359887684017718e-03
3.155999999999999872e+01,3.152974908076973653e-03
3.160000000000000142e+01,3.476232583447953252e-03
3.164000000000000057e+01,2.236046073082417936e-03
3.167999999999999972e+01,7.262318686254418988e-04
3.171999999999999886e+01,3.367329452450989070e-03
3.176000000000000156e+01,3.474620788137212923e-03
3.180000000000000071e+01,2.934921555226034911e-03
3.183999999999999986e+01,1.370868715834983216e-03
3.187999999999999901e+01,3.580364871908774289e-03
3.192000000000000171e+01,3.687327243248554338e-03
3.196000000000000085e+01,3.524662492314706384e-03
3.200000000000000000e+01,2.175917410409431568e-03
3.203999999999999915e+01,2.498269984542245484e-03
3.207999999999999829e+01,2.389268630221622232e-03
3.211999999999999744e+01,2.603639668277277740e-03
3.215999999999999659e+01,1.362385616706891962e-03
3.220000000000000284e+01,2.061774633335307968e-03
3.224000000000000199e+01,2.707173167834048527e-03
3.228000000000000114e+01,2.705582113994526271e-03
3.232000000000000028e+01,2.703909758483402821e-03
3.235999999999999943e+01,2.216975029255122132e-03
3.239999999999999858e+01,1.352596042161023551e-03
3.243999999999999773e+01,5.420450155416362339e-04
3.247999999999999687e+01,2.642499936406475774e-03
3.252000000000000313e+01,3.449057554084210102e-03
3.256000000000000227e+01,2.099173676958579655e-03
3.260000000000000142e+01,1.234390223712960840e-03
3.264000000000000057e+01,2.687613856807760746e-03
3.267999999999999972e+01,2.577395428060823019e-03
3.271999999999999886e+01,2.736641599932560821e-03
3.275999999999999801e+01,3.219261471192756425e-03
3.279999999999999716e+01,2.192348542757550922e-03
3.284000000000000341e+01,3.106079989533326244e-03
3.288000000000000256e+01,6.234632021365391595e-04
3.292000000000000171e+01,2.130033602425534731e-03
3.296000000000000085e+01,2.558343666424429778e-03
3.300000000000000000e+01,3.256118902859819579e-03
3.303999999999999915e+01,2.498270846810904302e-03
3.307999999999999829e+01,2.818523382797994553e-03
3.311999999999999744e+01,3.408241336286376138e-03
3.315999999999999659e+01,3.458789532741291927e-03
3.320000000000000284e+01,2.377168865954143711e-03
3.324000000000000199e+01,1.403286810488459232e-03
3.328000000000000114e+01,2.963049216701493706e-03
3.332000000000000028e+01,2.096826594780449270e-03
3.335999999999999943e+01,1.523444534519136084e-04
3.339999999999999858e+01,3.544775907106621163e-03
3.343999999999999773e+01,1.815771723615361519e-03
3.347999999999999687e+01,3.159502581059462495e-03
3.352000000000000313e+01,2.724157023789191591e-03
3.356000000000000227e+01,6.714621847373985044e-04
3.360000000000000142e+01,2.607955922071817246e-03
3.364000000000000057e+01,1.956738233533649417e-03
3.367999999999999972e+01,1.790623174458543616e-03
3.371999999999999886e+01,2.001792792371695669e-03
3.375999999999999801e+01,2.266793066472178476e-03
3.379999999999999716e+01,2.531715061366708510e-03
3.384000000000000341e+01,3.820830183292680832e-03
3.388000000000000256e+01,1.282326976600362944e-03
3.392000000000000171e+01,2.948649068126476917e-03
3.396000000000000085e+01,1.919442353123018176e-03
3.400000000000000000e+01,6.745216990287870862e-04
3.403999999999999915e+01,1.478065904956433335e-03
3.407999999999999829e+01,1.742442232680630702e-03
3.411999999999999744e+01,2.006740934704961780e-03
3.415999999999999659e+01,3.403051451429894587e-03
3.420000000000000284e+01,2.157742668836356778e-03
3.424000000000000199e+01,2.906990137624471202e-03
3.428000000000000114e+01,4.626522614933371684e-03
3.432000000000000028e+01,2.410619628031787295e-03
3.435999999999999943e+01,2.728363308391966186e-03
3.439999999999999858e+01,3.531211088603916550e-03
3.443999999999999773e+01,3.147983520828359638e-03
3.447999999999999687e+01,2.926406113791897232e-03
3.452000000000000313e+01,1.249208436736778602e-03
3.456000000000000227e+01,4.855017706542937538e-03
3.460000000000000142e+01,4.687119135201042210e-03
3.464000000000000057e+01,1.608057077703875645e-03
3.467999999999999972e+01,4.243274348785038182e-03
3.471999999999999886e+01,4.129055348332051970e-03
3.475999999999999801e+01,3.313942807131452228e-03
3.479999999999999716e+01,2.498754028931427298e-03
3.484000000000000341e+01,3.300759607866244217e-03
3.488000000000000256e+01,3.240144839873619793e-03
3.492000000000000171e+01,3.341181131190966869e-03
3.496000000000000085e+01,1.932689033978996071e-03
3.500000000000000000e+01,2.141391620654907978e-03
3.503999999999999915e+01,2.457836494624030237e-03
3.507999999999999829e+01,2.720296686330025450e-03
3.511999999999999744e+01,2.820954243298087923e-03
3.515999999999999659e+01,3.029354332624139765e-03
3.520000000000000284e+01,2.752497848099588404e-03
3.524000000000000199e+01,1.774748803086544134e-03
3.528000000000000114e+01,2.953285184594546618e-03
3.532000000000000028e+01,2.999657032338324484e-03
3.535999999999999943e+01,2.884226735473733282e-03
3.539999999999999858e+01,5.086809161439561668e-03
3.543999999999999773e+01,3.461776444629286690e-03
3.547999999999999687e+01,2.321850033253824476e-03
3.552000000000000313e+01,2.853028384795169327e-03
3.556000000000000227e+01,3.545859102658656479e-03
3.560000000000000142e+01,3.699525046472609997e-03
3.564000000000000057e+01,4.446115656637487056e-03
3.567999999999999972e+01,2.389362938704950486e-03
3.571999999999999886e+01,3.297531802087332563e-03
3.575999999999999801e+01,1.995356688645691899e-03
3.579999999999999716e+01,3.496376268650886517e-03
3.584000000000000341e+01,1.385417591088718018e-03
3.588000000000000256e+01,2.670652958246765712e-03
3.592000000000000171e+01,3.093270102372176235e-03
3.596000000000000085e+01,2.275905985582465409e-03
3.600000000000000000e+01,4.585191073170100801e-03
3.603999999999999915e+01,4.091133567854669806e-03
3.607999999999999829e+01,5.807272139907040422e-03
3.611999999999999744e+01,3.965342043291401018e-03
3.615999999999999659e+01,5.196152460724617200e-03
3.620000000000000284e+01,4.270528816986215656e-03
3.624000000000000199e+01,5.932464696939390887e-03
3.628000000000000114e+01,3.335515012917667638e-03
3.632000000000000028e+01,3.218306981800980564e-03
3.635999999999999943e+01,4.502660343646915954e-03
3.639999999999999858e+01,4.439215308985537504e-03
3.643999999999999773e+01,5.130423625684910408e-03
3.647999999999999687e+01,4.312106658008890009e-03
3.652000000000000313e+01,4.302352222151674399e-03
3.656000000000000227e+01,4.508161211904655394e-03
3.660000000000000142e+01,6.978076358054363659e-03
3.664000000000000057e+01,5.458651760831192447e-03
3.667999999999999972e+01,4.909517073424469157e-03
3.671999999999999886e+01,4.737673189625589074e-03
3.675999999999999801e+01,4.565757071552079514e-03
3.679999999999999716e+01,6.011039313338197541e-03
3.684000000000000341e+01,6.108524057187875687e-03
3.688000000000000256e+01,6.798935999724577302e-03
3.692000000000000171e+01,6.195459624782889869e-03
3.696000000000000085e+01,6.131001594823214627e-03
3.700000000000000000e+01,7.899378401490608423e-03
3.703999999999999915e+01,7.295686794113730514e-03
3.707999999999999829e+01,5.236380144766914282e-03
3.711999999999999744e+01,6.788906140802547506e-03
3.715999999999999659e+01,7.263180377815497794e-03
3.720000000000000284e+01,6.174021783760224279e-03
3.724000000000000199e+01,7.564606721439988239e-03
3.728000000000000114e+01,8.523848350140245458e-03
3.732000000000000028e+01,1.034556316150605712e-02
3.735999999999999943e+01,1.152029875894276280e-02
3.739999999999999858e+01,1.005342159212188093e-02
3.743999999999999773e+01,1.009592605800974097e-02
3.747999999999999687e+01,1.407371800696360052e-02
3.752000000000000313e+01,1.395435397552326380e-02
3.756000000000000227e+01,1.324192015567664769e-02
3.760000000000000142e+01,1.651868308104234573e-02
3.764000000000000057e+01,1.494356403193717112e-02
3.767999999999999972e+01,1.951400257468215507e-02
3.771999999999999886e+01,2.289837246787704630e-02
3.775999999999999801e+01,2.531230986153623977e-02
3.779999999999999716e+01,3.106853620387065029e-02
3.784000000000000341e+01,3.655514743210581952e-02
3.788000000000000256e+01,4.549186580655580070e-02
3.792000000000000171e+01,5.895687175053950652e-02
3.796000000000000085e+01,7.721971043115287425e-02
3.800000000000000000e+01,1.127872738929999036e-01
3.803999999999999915e+01,1.684628311060085704e-01
3.807999999999999829e+01,2.864571425267076754e-01
3.811999999999999744e+01,5.111912383119688874e-01
3.815999999999999659e+01,7.747397570207487094e-01
3.820000000000000284e+01,9.592575873945032860e-01
3.824000000000000199e+01,1.000000000000000000e+00
3.828000000000000114e+01,8.776675668037375866e-01
3.832000000000000028e+01,6.876253391046367458e-01
3.835999999999999943e+01,4.683643551806008776e-01
3.839999999999999858e+01,2.963815103520138217e-01
3.843999999999999773e+01,1.812187007239951519e-01
3.847999999999999687e+01,1.169459344992644506e-01
3.852000000000000313e+01,8.199960492689672975e-02
3.856000000000000227e+01,6.349545700609376953e-02
3.860000000000000142e+01,4.790232753107899477e-02
3.864000000000000057e+01,4.314484209452604246e-02
3.867999999999999972e+01,3.267293253409247339e-02
3.871999999999999886e+01,3.093421550931745381e-02
3.875999999999999801e+01,2.628434341227805712e-02
3.879999999999999716e+01,2.438376311822354828e-02
3.884000000000000341e+01,2.016502710317805147e-02
3.888000000000000256e+01,1.912685519114622548e-02
3.892000000000000171e+01,1.808861545600587081e-02
3.896000000000000085e+01,1.532521943283618113e-02
3.900000000000000000e+01,1.396339019405434465e-02
3.903999999999999915e+01,1.448830897508242462e-02
3.907999999999999829e+01,1.339588974730901959e-02
3.911999999999999744e+01,1.268076622443911963e-02
3.915999999999999659e+01,1.131866716361185424e-02
3.920000000000000284e+01,1.141204431269528426e-02
3.924000000000000199e+01,9.564629677241077294e-03
3.928000000000000114e+01,9.711781585889417770e-03
3.932000000000000028e+01,9.966684522474900110e-03
3.935999999999999943e+01,8.819886090402857814e-03
3.939999999999999858e+01,8.104292952133685182e-03
3.943999999999999773e+01,6.418270745235772623e-03
3.947999999999999687e+01,6.726815490881719525e-03
3.952000000000000313e+01,7.520474792476847248e-03
3.956000000000000227e+01,6.966342150937289944e-03
3.960000000000000142e+01,6.897324228723437575e-03
3.964000000000000057e+01,6.612603885463618110e-03
3.967999999999999972e+01,7.405997612802895334e-03
3.971999999999999886e+01,5.989055450455998096e-03
3.975999999999999801e+01,5.758045556247784642e-03
3.979999999999999716e+01,7.036422114355714644e-03
3.984000000000000341e+01,7.398279437799047675e-03
3.988000000000000256e+01,4.633347907923189221e-03
3.992000000000000171e+01,5.480254741608055723e-03
3.996000000000000085e+01,5.410642585693110559e-03
4.000000000000000000e+01,7.066053358861748568e-03
4.003999999999999915e+01,6.511128895850296430e-03
4.007999999999999829e+01,5.309230773711490561e-03
4.011999999999999744e+01,4.107267279111983908e-03
4.015999999999999659e+01,5.708507381979770548e-03
4.020000000000000284e+01,5.261139626665112777e-03
4.024000000000000199e+01,5.298887897688338115e-03
4.028000000000000114e+01,5.552207191330039461e-03
4.032000000000000028e+01,4.889008230566284190e-03
4.035999999999999943e+01,4.333562421634460857e-03
4.039999999999999858e+01,3.993687880385900571e-03
4.043999999999999773e+01,4.246747808079594927e-03
4.047999999999999687e+01,3.852834893528540080e-03
4.052000000000000313e+01,4.429219730866993526e-03
4.056000000000000227e+01,3.064815479380427095e-03
4.060000000000000142e+01,5.743523116807285576e-03
4.064000000000000057e+01,4.918080333421174372e-03
4.067999999999999972e+01,5.170753662840684405e-03
4.071999999999999886e+01,3.159184127699017804e-03
4.075999999999999801e+01,4.813363688653089605e-03
4.079999999999999716e+01,4.365027599667100321e-03
4.084000000000000341e+01,2.892356284059980406e-03
4.088000000000000256e+01,3.036891660515119492e-03
4.092000000000000171e+01,3.936089537416243705e-03
4.096000000000000085e+01,3.002317176538027259e-03
4.100000000000000000e+01,5.195204231069779771e-03
4.103999999999999915e+01,3.722214630426574390e-03
4.107999999999999829e+01,2.518706703248603778e-03
4.111999999999999744e+01,5.681765829420656368e-03
4.115999999999999659e+01,3.292132947628866567e-03
4.120000000000000284e+01,3.436160701791493143e-03
4.124000000000000199e+01,5.628668019862991326e-03
4.128000000000000114e+01,3.777936053318371387e-03
4.132000000000000028e+01,3.975683814059149772e-03
4.135999999999999943e+01,4.820276939653714288e-03
4.139999999999999858e+01,4.047536794365936760e-03
4.143999999999999773e+01,4.245096279797677501e-03
4.147999999999999687e+01,5.089501375147990545e-03
4.152000000000000313e+01,3.669665239702352057e-03
4.156000000000000227e+01,5.214762612057734746e-03
4.160000000000000142e+01,3.363529558281486663e-03
4.164000000000000057e+01,3.183413765725989514e-03
4.167999999999999972e+01,3.704053008611908181e-03
4.171999999999999886e+01,4.170721129486034372e-03
4.175999999999999801e+01,4.475600175873569765e-03
4.179999999999999716e+01,3.702236939076702059e-03
4.184000000000000341e+01,5.139081542757223918e-03
4.188000000000000256e+01,4.096049582510009890e-03
4.192000000000000171e+01,3.699864130752237787e-03
4.196000000000000085e+01,3.465344115438376716e-03
4.200000000000000000e+01,4.255033891561223365e-03
4.203999999999999915e+01,3.103937601324698557e-03
4.207999999999999829e+01,4.216958658776669318e-03
4.211999999999999744e+01,3.281375779082723685e-03
4.215999999999999659e+01,4.178638273801529336e-03
4.220000000000000284e+01,4.536749473033879938e-03
4.224000000000000199e+01,3.762710270571168174e-03
4.228000000000000114e+01,2.772974038487720921e-03
4.232000000000000028e+01,4.424718763793062011e-03
4.235999999999999943e+01,4.459132178734330487e-03
4.239999999999999858e+01,4.385666843282710892e-03
4.243999999999999773e+01,4.635594975778737151e-03
4.247999999999999687e+01,3.915100247953863521e-03
4.252000000000000313e+01,4.919633595573025438e-03
4.256000000000000227e+01,3.174746682557209963e-03
4.260000000000000142e+01,3.586160145014217777e-03
4.264000000000000057e+01,3.242787142229507265e-03
4.267999999999999972e+01,2.144627755891337015e-03
4.271999999999999886e+01,4.011404246313771127e-03
4.275999999999999801e+01,3.721760072439403173e-03
4.279999999999999716e+01,2.946874845484029077e-03
4.284000000000000341e+01,4.975198689109442372e-03
4.288000000000000256e+01,4.038466857279836633e-03
4.292000000000000171e+01,5.096309003184540561e-03
4.296000000000000085e+01,4.159457944478349781e-03
4.300000000000000000e+01,3.168638377784722005e-03
4.303999999999999915e+01,4.495847136379385947e-03
4.307999999999999829e+01,4.529180157487866336e-03
4.311999999999999744e+01,5.640634274385901425e-03
4.315999999999999659e+01,4.919122646358942662e-03
4.320000000000000284e+01,4.305369970030455129e-03
4.324000000000000199e+01,7.411280471551427371e-03
4.328000000000000114e+01,6.258319704543194653e-03
4.332000000000000028e+01,4.997482065972087308e-03
4.335999999999999943e+01,4.706947979157022344e-03
4.339999999999999858e+01,5.548444577030868866e-03
4.343999999999999773e+01,5.203884206775947693e-03
4.347999999999999687e+01,7.231262077461725855e-03
4.352000000000000313e+01,6.670948699275394862e-03
4.356000000000000227e+01,6.164485990900353020e-03
4.360000000000000142e+01,8.730778990590725569e-03
4.364000000000000057e+01,8.439835901066103374e-03
4.367999999999999972e+01,9.227015050966683868e-03
4.371999999999999886e+01,9.259409941208602071e-03
4.375999999999999801e+01,9.130019841376972936e-03
4.379999999999999716e+01,1.148038667015519390e-02
4.384000000000000341e+01,1.183606209146426461e-02
4.388000000000000256e+01,1.332376917772138021e-02
4.392000000000000171e+01,1.481141865190259074e-02
4.396000000000000085e+01,1.673028273234843794e-02
4.400000000000000000e+01,1.881081641533950688e-02
4.403999999999999915e+01,2.342501653415152846e-02
4.407999999999999829e+01,2.642188885519470079e-02
4.411999999999999744e+01,2.861006871638027346e-02
4.415999999999999659e+01,3.457182265132685561e-02
4.420000000000000284e+01,4.409151467339656599e-02
4.424000000000000199e+01,5.609096452264698135e-02
4.428000000000000114e+01,7.358907723733225381e-02
4.432000000000000028e+01,9.847266849699429225e-02
4.435999999999999943e+01,1.350544597498440358e-01
4.439999999999999858e+01,1.739542821053829402e-01
4.443999999999999773e+01,2.030965158190358444e-01
4.447999999999999687e+01,2.168746231960114734e-01
4.452000000000000313e+01,2.096281575244371975e-01
4.456000000000000227e+01,2.004409109328639804e-01
4.460000000000000142e+01,1.651077348333716555e-01
4.464000000000000057e+01,1.312839550704750502e-01
4.467999999999999972e+01,9.719057416217186107e-02
4.471999999999999886e+01,7.457975791392457143e-02
4.475999999999999801e+01,5.617378910141448967e-02
4.479999999999999716e+01,4.202657682341134904e-02
4.484000000000000341e+01,3.251548428117419925e-02
4.488000000000000256e+01,2.710142138557594671e-02
4.492000000000000171e+01,2.184902997135292416e-02
4.496000000000000085e+01,1.880685276929165012e-02
4.500000000000000000e+01,1.538725704116680054e-02
4.503999999999999915e+01,1.493260192772168961e-02
4.507999999999999829e+01,1.372316533201879164e-02
4.511999999999999744e+01,1.240585554072475873e-02
4.515999999999999659e+01,1.006421934514178940e-02
4.520000000000000284e+01,7.668619134425742022e-03
4.524000000000000199e+01,6.890234519792421200e-03
4.528000000000000114e+01,7.405611480440870559e-03
4.532000000000000028e+01,5.602845953596628271e-03
4.535999999999999943e+01,5.579023319144489276e-03
4.539999999999999858e+01,7.010689556283513681e-03
4.543999999999999773e+01,5.369487311853156190e-03
4.547999999999999687e+01,7.717497905222551677e-03
4.552000000000000313e+01,5.644914753360767007e-03
4.556000000000000227e+01,4.866093748598580848e-03
4.560000000000000142e+01,3.763764460178270228e-03
4.564000000000000057e+01,6.596739319229211543e-03
4.567999999999999972e+01,6.302937169758817890e-03
4.571999999999999886e+01,3.744902366759875981e-03
4.575999999999999801e+01,4.097900631747840479e-03
4.579999999999999716e+01,4.828208243578911880e-03
4.584000000000000341e+01,5.019371993555286557e-03
4.588000000000000256e+01,3.754938672979163915e-03
4.592000000000000171e+01,4.107722337186191577e-03
4.596000000000000085e+01,3.004909094217233893e-03
4.600000000000000000e+01,4.004494153141757891e-03
4.603999999999999915e+01,4.464935758652886777e-03
4.607999999999999829e+01,3.793234804542018005e-03
4.611999999999999744e+01,3.930115987432612756e-03
4.615999999999999659e+01,3.096581825322327567e-03
4.620000000000000284e+01,2.909902912345428607e-03
4.624000000000000199e+01,3.208352278945572622e-03
4.628000000000000114e+01,3.129385733506493544e-03
4.632000000000000028e+01,4.182455835999379819e-03
4.635999999999999943e+01,3.726020831117357688e-03
4.639999999999999858e+01,2.245261954282494303e-03
4.643999999999999773e+01,1.950448987525911330e-03
4.647999999999999687e+01,2.302491841720546387e-03
4.652000000000000313e+01,2.924027478983922020e-03
4.656000000000000227e+01,3.222056793107423538e-03
4.660000000000000142e+01,2.765307729127058477e-03
4.664000000000000057e+01,2.470233659117145909e-03
4.667999999999999972e+01,3.253287955152019649e-03
4.671999999999999886e+01,3.605018220637002790e-03
4.675999999999999801e+01,1.854245007732825907e-03
4.679999999999999716e+01,2.421507798813486972e-03
4.684000000000000341e+01,3.689536163121235474e-03
4.688000000000000256e+01,3.016788345349212183e-03
4.692000000000000171e+01,3.799532503322272312e-03
4.696000000000000085e+01,3.126681796325871208e-03
4.700000000000000000e+01,3.046778955146549946e-03
4.703999999999999915e+01,3.667642095635623590e-03
4.707999999999999829e+01,3.048546684546157674e-03
4.711999999999999744e+01,1.998128059789419566e-03
4.715999999999999659e+01,2.349292883825792287e-03
4.720000000000000284e+01,3.185587947957476112e-03
4.724000000000000199e+01,1.649835428551472407e-03
4.728000000000000114e+01,2.432119893389424886e-03
4.732000000000000028e+01,1.543174160126149124e-03
4.735999999999999943e+01,3.565264762380219131e-03
4.739999999999999858e+01,2.784035971197375368e-03
4.743999999999999773e+01,1.733211671097946221e-03
4.747999999999999687e+01,1.490972285400850436e-03
4.752000000000000313e+01,2.973771186180419225e-03
4.756000000000000227e+01,2.893158413151384473e-03
4.760000000000000142e+01,3.459403748344873700e-03
4.764000000000000057e+01,1.815329368127885671e-03
4.767999999999999972e+01,2.920564925689726754e-03
4.771999999999999886e+01,4.133568665723546393e-03
4.775999999999999801e+01,2.974525884167064649e-03
4.779999999999999716e+01,3.702249012149681339e-03
4.784000000000000341e+01,3.136106123549185689e-03
4.788000000000000256e+01,2.677731744173700561e-03
4.792000000000000171e+01,2.273216938629962162e-03
4.796000000000000085e+01,3.000742130236890969e-03
4.800000000000000000e+01,3.512581973644422761e-03
4.803999999999999915e+01,3.593100482214684095e-03
4.807999999999999829e+01,2.379753464331399795e-03
4.811999999999999744e+01,3.214900060737894884e-03
4.815999999999999659e+01,3.133544413638094956e-03
4.820000000000000284e+01,2.243504638883345864e-03
4.824000000000000199e+01,2.162051330607888192e-03
4.828000000000000114e+01,1.703186194706256739e-03
4.832000000000000028e+01,2.160725722823515511e-03
4.835999999999999943e+01,3.642488030810983688e-03
4.839999999999999858e+01,2.698296107138802372e-03
4.843999999999999773e+01,2.454873024224159348e-03
4.847999999999999687e+01,2.157492624613844591e-03
4.852000000000000313e+01,1.428791870425391488e-03
4.856000000000000227e+01,2.371222509526856124e-03
4.860000000000000142e+01,2.882332957426705661e-03
4.864000000000000057e+01,2.261306073753262865e-03
4.867999999999999972e+01,2.772320657619188698e-03
4.871999999999999886e+01,2.852015295348284737e-03
4.875999999999999801e+01,1.476118744079675917e-03
4.879999999999999716e+01,2.849534417861214735e-03
4.884000000000000341e+01,2.875177100184638391e-03
4.888000000000000256e+01,2.954681316858072566e-03
4.892000000000000171e+01,3.088047149569772380e-03
4.896000000000000085e+01,2.682275492111144827e-03
4.900000000000000000e+01,3.139000870290306264e-03
4.903999999999999915e+01,1.654954477555784995e-03
4.907999999999999829e+01,2.488948745036981703e-03
4.911999999999999744e+01,2.891623883263955315e-03
4.915999999999999659e+01,1.569163563968164208e-03
4.920000000000000284e+01,1.756108893729872809e-03
4.924000000000000199e+01,2.266461578443606378e-03
4.928000000000000114e+01,3.046312682716093533e-03
4.932000000000000028e+01,3.664390151583325761e-03
4.935999999999999943e+01,2.449514537206040794e-03
4.939999999999999858e+01,2.636226946164487665e-03
4.943999999999999773e+01,3.146347118516267406e-03
4.947999999999999687e+01,3.332966930971236006e-03
4.952000000000000313e+01,2.225724157750063551e-03
4.956000000000000227e+01,1.549707427150072685e-03
4.960000000000000142e+01,2.167461094164051857e-03
4.964000000000000057e+01,1.814806523055872240e-03
4.967999999999999972e+01,2.378559393367455504e-03
4.971999999999999886e+01,2.403176325585663822e-03
4.975999999999999801e+01,3.074655777192491710e-03
4.979999999999999716e+01,2.614000266185600475e-03
4.984000000000000341e+01,1.452482010905519058e-03
4.988000000000000256e+01,2.609006049606369011e-03
4.992000000000000171e+01,1.824760114535291331e-03
4.996000000000000085e+01,3.196829585577068162e-03
5.000000000000000000e+01,1.388221853348161911e-03
5.003999999999999915e+01,1.897656741853239381e-03
5.007999999999999829e+01,3.107863820334559168e-03
5.011999999999999744e+01,1.406939026017648819e-03
5.015999999999999659e+01,1.700602995010301209e-03
5.020000000000000284e+01,2.910675467370112384e-03
5.024000000000000199e+01,3.042522892768609669e-03
5.028000000000000114e+01,2.419599455383254685e-03
5.032000000000000028e+01,2.497448698103705688e-03
5.035999999999999943e+01,1.928345275579893903e-03
5.039999999999999858e+01,1.952196662375344687e-03
5.043999999999999773e+01,1.544731615629190997e-03
5.047999999999999687e+01,1.676312524497283610e-03
5.052000000000000313e+01,2.346939470667894559e-03
5.056000000000000227e+01,2.801886296687814467e-03
5.060000000000000142e+01,2.448153896348432331e-03
5.064000000000000057e+01,3.064739915028615730e-03
5.067999999999999972e+01,2.010102597421492641e-03
5.071999999999999886e+01,2.680510101351921311e-03
5.075999999999999801e+01,2.488329688594564243e-03
5.079999999999999716e+01,1.972651611653010104e-03
5.084000000000000341e+01,2.481201379253861975e-03
5.088000000000000256e+01,3.097525782699306687e-03
5.092000000000000171e+01,2.581717510802348202e-03
5.096000000000000085e+01,2.766683226023374746e-03
5.100000000000000000e+01,1.927334463441579982e-03
5.103999999999999915e+01,3.136485278392621076e-03
5.107999999999999829e+01,1.973596351879038698e-03
5.111999999999999744e+01,2.320116995459478408e-03
5.115999999999999659e+01,2.774412846702349698e-03
5.120000000000000284e+01,2.473939713991366550e-03
5.124000000000000199e+01,1.903878832748601537e-03
5.128000000000000114e+01,2.196319643374508145e-03
5.132000000000000028e+01,3.351262227557350384e-03
5.135999999999999943e+01,3.535800086213256987e-03
5.139999999999999858e+01,2.857751335193550821e-03
5.143999999999999773e+01,3.311749688203229763e-03
5.147999999999999687e+01,2.903161594913824823e-03
5.152000000000000313e+01,2.063259273665859952e-03
5.156000000000000227e+01,2.409313318593592212e-03
5.160000000000000142e+01,2.539689367265429796e-03
5.164000000000000057e+01,3.209113740511081690e-03
5.167999999999999972e+01,1.183045495126819942e-03
5.171999999999999886e+01,2.283658557606511787e-03
5.175999999999999801e+01,3.276411984746401516e-03
5.179999999999999716e+01,3.083125516604098403e-03
5.184000000000000341e+01,1.865526286112459626e-03
5.188000000000000256e+01,2.480792280281004895e-03
5.192000000000000171e+01,2.449108795047467719e-03
5.196000000000000085e+01,2.956474287893843481e-03
5.200000000000000000e+01,2.709072430551598583e-03
5.203999999999999915e+01,3.270264800073448622e-03
5.207999999999999829e+01,2.052418658234062606e-03
5.211999999999999744e+01,2.182257077450637864e-03
5.215999999999999659e+01,2.312054712373092825e-03
5.220000000000000284e+01,1.255813268895958823e-03
5.224000000000000199e+01,3.164527143985570307e-03
5.228000000000000114e+01,2.054295523279979930e-03
5.232000000000000028e+01,3.477747247865380347e-03
5.235999999999999943e+01,3.229979067070440357e-03
5.239999999999999858e+01,2.443080421295624072e-03
5.243999999999999773e+01,2.356958785104446008e-03
5.247999999999999687e+01,1.893433898554506981e-03
5.252000000000000313e+01,2.615867338698541454e-03
5.256000000000000227e+01,3.499987862675663954e-03
5.260000000000000142e+01,3.413706193461944240e-03
5.264000000000000057e+01,2.464840446908716023e-03
5.267999999999999972e+01,2.486297285476358858e-03
5.271999999999999886e+01,3.208531705445474315e-03
5.275999999999999801e+01,2.259547036916857363e-03
5.279999999999999716e+01,3.359065540204574703e-03
5.284000000000000341e+01,3.003001186697210143e-03
5.288000000000000256e+01,3.617259826752026487e-03
5.292000000000000171e+01,3.207207910040562552e-03
5.296000000000000085e+01,2.150208637821797789e-03
5.300000000000000000e+01,2.063532604230000535e-03
5.303999999999999915e+01,2.300271685975036322e-03
5.307999999999999829e+01,3.669061220968154735e-03
5.311999999999999744e+01,4.013540607636291446e-03
5.315999999999999659e+01,2.525074671444711878e-03
5.320000000000000284e+01,2.060841399402932490e-03
5.324000000000000199e+01,3.213840061096085582e-03
5.328000000000000114e+01,2.264348559586638540e-03
5.332000000000000028e+01,2.608635052699446143e-03
5.335999999999999943e+01,2.036429921779899996e-03
5.339999999999999858e+01,2.650184914696065291e-03
5.343999999999999773e+01,2.778720583608673689e-03
5.347999999999999687e+01,2.044673890635245565e-03
5.352000000000000313e+01,3.251313805703776299e-03
5.356000000000000227e+01,3.164099385610536202e-03
5.360000000000000142e+01,1.836939729125306895e-03
5.364000000000000057e+01,3.205193164888287330e-03
5.367999999999999972e+01,3.279592510554272915e-03
5.371999999999999886e+01,2.976591138197597682e-03
5.375999999999999801e+01,2.511825197832647915e-03
5.379999999999999716e+01,2.262657890718416075e-03
5.384000000000000341e+01,2.606452418113907200e-03
5.388000000000000256e+01,3.273663776299703346e-03
5.392000000000000171e+01,3.401747773659537580e-03
5.396000000000000085e+01,2.559432355229409629e-03
5.400000000000000000e+01,3.334350422611170265e-03
5.403999999999999915e+01,2.599779066764151911e-03
5.407999999999999829e+01,3.266805291779418564e-03
5.411999999999999744e+01,3.610340632736165623e-03
5.415999999999999659e+01,2.983476966344247774e-03
5.420000000000000284e+01,3.165211937982527826e-03
5.424000000000000199e+01,3.724273492687006377e-03
5.428000000000000114e+01,1.965210858069272107e-03
5.432000000000000028e+01,2.793744670237115289e-03
5.435999999999999943e+01,2.813606934742207862e-03
5.439999999999999858e+01,3.695977262800333608e-03
5.443999999999999773e+01,2.853222916186159801e-03
5.447999999999999687e+01,2.819067779420012226e-03
5.452000000000000313e+01,2.569240609641023840e-03
5.456000000000000227e+01,2.966285761841979621e-03
5.460000000000000142e+01,2.608568873591278221e-03
5.464000000000000057e+01,2.843815453615520551e-03
5.467999999999999972e+01,3.456389515276822328e-03
5.471999999999999886e+01,2.775111610735921715e-03
5.475999999999999801e+01,2.525070368290141358e-03
5.479999999999999716e+01,3.353174074606140708e-03
5.484000000000000341e+01,2.186608837724785415e-03
5.488000000000000256e+01,3.014642003367802234e-03
5.492000000000000171e+01,3.141822799146779845e-03
5.496000000000000085e+01,3.592422631299116778e-03
5.500000000000000000e+01,1.670990727436411040e-03
5.503999999999999915e+01,1.312885416198858110e-03
5.507999999999999829e+01,3.758014172149971854e-03
5.511999999999999744e+01,2.429476993030963740e-03
5.515999999999999659e+01,2.232994514949621003e-03
5.520000000000000284e+01,3.222475836675734156e-03
5.524000000000000199e+01,2.271198049168636057e-03
5.528000000000000114e+01,2.451975207763987773e-03
5.532000000000000028e+01,2.417081967111712072e-03
5.535999999999999943e+01,2.975153665123071549e-03
5.539999999999999858e+01,4.287917434730931406e-03
5.543999999999999773e+01,2.527833144834692146e-03
5.547999999999999687e+01,2.331076346134464041e-03
5.552000000000000313e+01,3.104647932421648448e-03
5.556000000000000227e+01,3.878185677916919788e-03
5.560000000000000142e+01,2.657056032291786954e-03
5.564000000000000057e+01,2.352345999637317844e-03
5.567999999999999972e+01,2.263238439581849535e-03
5.571999999999999886e+01,3.414004758362758872e-03
5.575999999999999801e+01,2.947467132347053077e-03
5.579999999999999716e+01,2.750441241076653602e-03
5.584000000000000341e+01,3.200290285810562449e-03
5.588000000000000256e+01,3.003197938280233008e-03
5.592000000000000171e+01,3.722525775538394754e-03
5.596000000000000085e+01,3.471458281419646449e-03
5.600000000000000000e+01,1.926541435123044731e-03
5.603999999999999915e+01,2.807497496962648061e-03
5.607999999999999829e+01,3.580602745794660407e-03
5.611999999999999744e+01,3.329403972921265130e-03
5.615999999999999659e+01,4.479807028699730673e-03
5.620000000000000284e+01,4.228543106578588374e-03
5.624000000000000199e+01,3.060793441979888039e-03
5.628000000000000114e+01,3.294645851097827757e-03
5.632000000000000028e+01,4.067556142316137990e-03
5.635999999999999943e+01,3.600526833632481782e-03
5.639999999999999858e+01,3.456919502099579933e-03
5.643999999999999773e+01,3.151553075671900683e-03
5.647999999999999687e+01,3.546971909342238986e-03
5.652000000000000313e+01,2.486815401537512300e-03
5.656000000000000227e+01,2.828261539267257468e-03
5.660000000000000142e+01,2.361040703876869130e-03
5.664000000000000057e+01,2.971968574908268306e-03
5.667999999999999972e+01,2.774229636196056791e-03
5.671999999999999886e+01,3.331185464792954954e-03
5.675999999999999801e+01,3.349019732430433532e-03
5.679999999999999716e+01,3.744185811182806824e-03
5.684000000000000341e+01,3.546321475270748820e-03
5.688000000000000256e+01,3.402335011360918104e-03
5.692000000000000171e+01,2.719227313244701721e-03
5.696000000000000085e+01,3.329905043382499607e-03
5.700000000000000000e+01,2.161554309815179147e-03
5.703999999999999915e+01,3.311260492427518364e-03
5.707999999999999829e+01,3.274937562608123184e-03
5.711999999999999744e+01,3.777674148654317117e-03
5.715999999999999659e+01,3.202199819808375456e-03
5.720000000000000284e+01,3.974420426427535853e-03
5.724000000000000199e+01,2.859795025308071222e-03
5.728000000000000114e+01,3.362409808437914500e-03
5.732000000000000028e+01,3.595449259651649267e-03
5.735999999999999943e+01,2.534642136088408049e-03
5.739999999999999858e+01,3.791892663899191097e-03
5.743999999999999773e+01,3.270115626575715445e-03
5.747999999999999687e+01,3.287398840312180052e-03
5.752000000000000313e+01,2.873380079329254135e-03
5.756000000000000227e+01,2.998421732782783917e-03
5.760000000000000142e+01,3.716432899442569451e-03
5.764000000000000057e+01,3.356234131469343265e-03
5.767999999999999972e+01,3.373368971752768383e-03
5.771999999999999886e+01,3.444383399491895807e-03
5.775999999999999801e+01,3.138005359722723531e-03
5.779999999999999716e+01,2.723780019541185808e-03
5.784000000000000341e+01,3.495523870592329076e-03
5.788000000000000256e+01,2.811695157569296926e-03
5.792000000000000171e+01,4.014653021215415681e-03
5.796000000000000085e+01,4.624582757468398246e-03
5.800000000000000000e+01,3.347668038059719697e-03
5.803999999999999915e+01,3.849722106221905270e-03
5.807999999999999829e+01,4.136111411626482506e-03
5.811999999999999744e+01,4.260745053043244086e-03
5.815999999999999659e+01,2.660261616795981613e-03
5.820000000000000284e+01,3.485655499851034525e-03
5.824000000000000199e+01,4.095384946901509983e-03
5.828000000000000114e+01,3.734723800494219210e-03
5.832000000000000028e+01,3.751397569355756616e-03
5.835999999999999943e+01,2.420317788565305890e-03
5.839999999999999858e+01,3.353388684273867718e-03
5.843999999999999773e+01,3.585614398685370730e-03
5.847999999999999687e+01,4.249084372200275135e-03
5.852000000000000313e+01,3.510892105734707280e-03
5.856000000000000227e+01,3.743034432564400216e-03
5.860000000000000142e+01,3.543876990257744351e-03
5.864000000000000057e+01,4.584599390030530408e-03
5.867999999999999972e+01,3.415024620352890162e-03
5.871999999999999886e+01,4.401783146517285542e-03
5.875999999999999801e+01,3.393880734933906428e-03
5.879999999999999716e+01,4.811856867976750142e-03
5.884000000000000341e+01,4.935989448708275398e-03
5.888000000000000256e+01,4.143641678387490271e-03
5.892000000000000171e+01,3.998175134067101684e-03
5.896000000000000085e+01,4.230044812027714679e-03
5.900000000000000000e+01,4.515796691468396303e-03
5.903999999999999915e+01,5.017157905321994842e-03
5.907999999999999829e+01,4.817675244890710570e-03
5.911999999999999744e+01,3.270440586884410319e-03
5.915999999999999659e+01,3.556086020801812499e-03
5.920000000000000284e+01,4.057341115885177221e-03
5.924000000000000199e+01,4.019479714681311808e-03
5.928000000000000114e+01,3.765956001367662485e-03
5.932000000000000028e+01,3.781951211366297704e-03
5.935999999999999943e+01,5.091736750914609491e-03
5.939999999999999858e+01,3.544318386422801604e-03
5.943999999999999773e+01,3.937598719835587457e-03
5.947999999999999687e+01,4.438671252069096435e-03
5.952000000000000313e+01,4.400627859833205341e-03
5.956000000000000227e+01,3.607832556490029024e-03
5.960000000000000142e+01,4.270555124070696956e-03
5.964000000000000057e+01,4.394162012246734944e-03
5.967999999999999972e+01,4.140380353951004719e-03
5.971999999999999886e+01,4.425663521257835326e-03
5.975999999999999801e+01,4.495285356714022809e-03
5.979999999999999716e+01,3.648428719947896873e-03
5.984000000000000341e+01,4.203181427153645199e-03
5.988000000000000256e+01,4.596182064655070232e-03
5.992000000000000171e+01,4.072704474998964548e-03
5.996000000000000085e+01,3.980474166911910847e-03
