2.003999999999999915e+01,1.244764094386097836e-02
2.007999999999999829e+01,3.652202470186791117e-02
2.012000000000000099e+01,5.124273422253236565e-02
2.016000000000000014e+01,3.283553379137577055e-02
2.019999999999999929e+01,4.970006495231911459e-02
2.023999999999999844e+01,3.713922893747197834e-02
2.028000000000000114e+01,3.646562936492538098e-02
2.032000000000000028e+01,5.800741639804414540e-02
2.035999999999999943e+01,4.856486707918258872e-02
2.039999999999999858e+01,5.451722521399677418e-02
2.044000000000000128e+01,3.689033452531258889e-02
2.048000000000000043e+01,5.511978084058896665e-02
2.051999999999999957e+01,3.944182520437069378e-02
2.055999999999999872e+01,6.312787857169867289e-02
2.060000000000000142e+01,4.959372481154915996e-02
2.064000000000000057e+01,5.788520819849123089e-02
2.067999999999999972e+01,5.779735739536778771e-02
2.071999999999999886e+01,3.451999240416221693e-02
2.076000000000000156e+01,4.339641274699206075e-02
2.080000000000000071e+01,3.453969866577368680e-02
2.083999999999999986e+01,4.322145970880825194e-02
2.087999999999999901e+01,5.463151587807951043e-02
2.092000000000000171e+01,4.226744058888155103e-02
2.096000000000000085e+01,2.990346757927172042e-02
2.100000000000000000e+01,5.144711096243761994e-02
2.103999999999999915e+01,3.713463178292419897e-02
2.107999999999999829e+01,5.770412090198959176e-02
2.112000000000000099e+01,4.787386722240957737e-02
2.116000000000000014e+01,4.291548029248557633e-02
2.119999999999999929e+01,4.380331300623106772e-02
2.123999999999999844e+01,2.676312964916790701e-02
2.128000000000000114e+01,3.719982014472809906e-02
2.132000000000000028e+01,5.075453644909874718e-02
2.135999999999999943e+01,6.158115428072506031e-02
2.139999999999999858e+01,3.401832056199496218e-02
2.144000000000000128e+01,4.932714808218658514e-02
2.148000000000000043e+01,5.021562757831320167e-02
2.151999999999999957e+01,2.694021923992357542e-02
2.155999999999999872e+01,4.478263218782078253e-02
2.160000000000000142e+01,3.729193066611182633e-02
2.164000000000000057e+01,3.175002238886055067e-02
2.167999999999999972e+01,4.082350683676948949e-02
2.171999999999999886e+01,5.769190584605960598e-02
2.176000000000000156e+01,5.858098370225266194e-02
2.180000000000000071e+01,4.972660426337240092e-02
2.183999999999999986e+01,4.886200719768656053e-02
2.187999999999999901e+01,4.448981570674049452e-02
2.192000000000000171e+01,4.771766305967828359e-02
2.196000000000000085e+01,5.874041904473413511e-02
2.200000000000000000e+01,3.371215797361395983e-02
2.203999999999999915e+01,4.434532458979959652e-02
2.207999999999999829e+01,3.977864525298344112e-02
2.212000000000000099e+01,5.352989252346365689e-02
2.216000000000000014e+01,3.239934344359440138e-02
2.219999999999999929e+01,4.400715645151697525e-02
2.223999999999999844e+01,5.113301225806050898e-02
2.228000000000000114e+01,5.475126375723883554e-02
2.232000000000000028e+01,3.693379852791819212e-02
2.235999999999999943e+01,4.405986037575455871e-02
2.239999999999999858e+01,4.670396106937009517e-02
2.244000000000000128e+01,4.798403204367122227e-02
2.248000000000000043e+01,3.211553941841735482e-02
2.251999999999999957e+01,3.787776671791675404e-02
2.255999999999999872e+01,5.572204490816256434e-02
2.260000000000000142e+01,4.199731907730529235e-02
2.264000000000000057e+01,4.990331020656973982e-02
2.267999999999999972e+01,4.124534512456112800e-02
2.271999999999999886e+01,2.830028175909222315e-02
2.276000000000000156e+01,5.530378537492634805e-02
2.280000000000000071e+01,3.592810101879883450e-02
2.283999999999999986e+01,3.857287023463008835e-02
2.287999999999999901e+01,1.081785317055362211e-02
2.292000000000000171e+01,3.489851649807187983e-02
2.296000000000000085e+01,3.325629020393705559e-02
2.300000000000000000e+01,4.213713771867479835e-02
2.303999999999999915e+01,4.575652516204426618e-02
2.307999999999999829e+01,2.365302001912925750e-02
2.312000000000000099e+01,2.863660171826454617e-02
2.316000000000000014e+01,5.875856150679167195e-02
2.319999999999999929e+01,5.088076682837917863e-02
2.323999999999999844e+01,4.241840577222166786e-02
2.328000000000000114e+01,4.428424083101824282e-02
2.332000000000000028e+01,4.420141210053490227e-02
2.335999999999999943e+01,6.146212546059809378e-02
2.339999999999999858e+01,4.501023649445532598e-02
2.344000000000000128e+01,4.531727531310354717e-02
2.348000000000000043e+01,3.529620300250264214e-02
2.351999999999999957e+01,3.034180991358289073e-02
2.355999999999999872e+01,3.707970145725737049e-02
2.360000000000000142e+01,3.134590036615841901e-02
2.364000000000000057e+01,4.315050522457727911e-02
2.367999999999999972e+01,4.209367391891196547e-02
2.371999999999999886e+01,3.226769176629303709e-02
2.376000000000000156e+01,5.030826375013575796e-02
2.380000000000000071e+01,2.898497100876767929e-02
2.383999999999999986e+01,4.098461216789515277e-02
2.387999999999999901e+01,3.252285194053792378e-02
2.392000000000000171e+01,4.608151860345591211e-02
2.396000000000000085e+01,2.768140609322406950e-02
2.400000000000000000e+01,3.656322946085628633e-02
2.403999999999999915e+01,4.563994979231261739e-02
2.407999999999999829e+01,4.789621814736914895e-02
2.412000000000000099e+01,5.249096003072165062e-02
2.416000000000000014e+01,3.896274292745376122e-02
2.419999999999999929e+01,2.796786815250575098e-02
2.423999999999999844e+01,5.711639457151684168e-02
2.428000000000000114e+01,2.546525899786114544e-02
2.432000000000000028e+01,3.824467972352942752e-02
2.435999999999999943e+01,4.108570913220723625e-02
2.439999999999999858e+01,4.041908185836311229e-02
2.444000000000000128e+01,2.961919051466256961e-02
2.448000000000000043e+01,2.973207796893546917e-02
2.451999999999999957e+01,3.705519848051986448e-02
2.455999999999999872e+01,3.658350127495416798e-02
2.460000000000000142e+01,4.838867533784411284e-02
2.464000000000000057e+01,2.726069954578157900e-02
2.467999999999999972e+01,3.283003050267031125e-02
2.471999999999999886e+01,2.086100096732591488e-02
2.476000000000000156e+01,4.416359036808376742e-02
2.480000000000000071e+01,2.537409946814058598e-02
2.483999999999999986e+01,4.711773649188866903e-02
2.487999999999999901e+01,3.865640860164865772e-02
2.492000000000000171e+01,2.590792807637082307e-02
2.496000000000000085e+01,2.991833778388486298e-02
2.500000000000000000e+01,5.049276595953540447e-02
2.503999999999999915e+01,1.884182753009172942e-02
2.507999999999999829e+01,2.752914031863124347e-02
2.512000000000000099e+01,4.264718823554529414e-02
2.516000000000000014e+01,3.535509537879050895e-02
2.519999999999999929e+01,3.995011741444416675e-02
2.523999999999999844e+01,1.804271039466678189e-02
2.528000000000000114e+01,1.874030899534165698e-02
2.532000000000000028e+01,3.697627204069335594e-02
2.535999999999999943e+01,3.708924645310945900e-02
2.539999999999999858e+01,2.901764084306542729e-02
2.544000000000000128e+01,1.899731906858485170e-02
2.548000000000000043e+01,3.411531806728668875e-02
2.551999999999999957e+01,3.442312767977293020e-02
2.555999999999999872e+01,3.590015058630822986e-02
2.560000000000000142e+01,2.704900998843768473e-02
2.564000000000000057e+01,3.027984418910490208e-02
2.567999999999999972e+01,8.567204675584061055e-03
2.571999999999999886e+01,1.550055398198936854e-02
2.576000000000000156e+01,2.009543766538435944e-02
2.580000000000000071e+01,3.696716297091995340e-02
2.583999999999999986e+01,3.532614623210438703e-02
2.587999999999999901e+01,3.037230702342298000e-02
2.592000000000000171e+01,2.795176765000970814e-02
2.596000000000000085e+01,1.773637597207870092e-02
2.600000000000000000e+01,4.064899405483123757e-02
2.603999999999999915e+01,3.764377564727697939e-02
2.607999999999999829e+01,2.119244945367393385e-02
2.612000000000000099e+01,3.319223142144708122e-02
2.616000000000000014e+01,1.050498899426538860e-02
2.619999999999999929e+01,3.926360437252731511e-02
2.623999999999999844e+01,2.982751940340657576e-02
2.628000000000000114e+01,2.214524226988021788e-02
2.632000000000000028e+01,2.459621537086482262e-02
2.635999999999999943e+01,3.094457287191575146e-02
2.639999999999999858e+01,3.398009505636412353e-02
2.644000000000000128e+01,3.409252248888929721e-02
2.648000000000000043e+01,1.900499526525718449e-02
2.651999999999999957e+01,3.996852660224427256e-02
2.655999999999999872e+01,3.754752869597063891e-02
2.660000000000000142e+01,3.239830286137655724e-02
2.664000000000000057e+01,2.939261752137187211e-02
2.667999999999999972e+01,1.781257898328119510e-02
2.671999999999999886e+01,3.176057213673692120e-02
2.676000000000000156e+01,1.433432927164207324e-02
2.680000000000000071e+01,9.769515652759632254e-03
2.683999999999999986e+01,1.923535495054779290e-02
2.687999999999999901e+01,3.396266123677957327e-02
2.692000000000000171e+01,1.712085677517376572e-02
2.696000000000000085e+01,2.580707807585142302e-02
2.700000000000000000e+01,1.948820265008022884e-02
2.703999999999999915e+01,3.109739072882345204e-02
2.707999999999999829e+01,2.205022758779690006e-02
2.712000000000000099e+01,2.411064879929541993e-02
2.716000000000000014e+01,3.143253008176377650e-02
2.719999999999999929e+01,2.082624805005838659e-02
2.723999999999999844e+01,2.990186156981846852e-02
2.728000000000000114e+01,3.527487647945528465e-02
2.732000000000000028e+01,1.356079861738044255e-02
2.735999999999999943e+01,3.549771884485198453e-02
2.739999999999999858e+01,3.970134159354203607e-02
2.744000000000000128e+01,3.143317683925019035e-02
2.748000000000000043e+01,2.082650396889629274e-02
2.751999999999999957e+01,2.795301196808605212e-02
2.755999999999999872e+01,3.936661627391678520e-02
2.760000000000000142e+01,3.558023825369600185e-02
2.764000000000000057e+01,2.321948331833705373e-02
2.767999999999999972e+01,3.794570256903103539e-02
2.771999999999999886e+01,4.331805982238678271e-02
2.776000000000000156e+01,1.692641479903943258e-02
2.780000000000000071e+01,4.159084649982609794e-02
2.783999999999999986e+01,4.988606528662936634e-02
2.787999999999999901e+01,3.499159299567021486e-02
2.792000000000000171e+01,3.822003324503941285e-02
2.796000000000000085e+01,4.729452613050288273e-02
2.800000000000000000e+01,5.500485193539191714e-02
2.803999999999999915e+01,3.406910096922158987e-02
2.807999999999999829e+01,6.165609971592898864e-02
2.812000000000000099e+01,4.110994207067433098e-02
2.816000000000000014e+01,4.083026957737800888e-02
2.819999999999999929e+01,5.867350270693644926e-02
2.823999999999999844e+01,4.631168791282436886e-02
2.828000000000000114e+01,5.304713064737022477e-02
2.832000000000000028e+01,6.952603265301211810e-02
2.835999999999999943e+01,5.521527144101780887e-02
2.839999999999999858e+01,6.156073100460815462e-02
2.844000000000000128e+01,6.537278795863972480e-02
2.848000000000000043e+01,7.327704771402569761e-02
2.851999999999999957e+01,6.461720697940481761e-02
2.855999999999999872e+01,4.913680358880774535e-02
2.860000000000000142e+01,5.587158224430151254e-02
2.864000000000000057e+01,5.013454375049809786e-02
2.867999999999999972e+01,4.751534923477247763e-02
2.871999999999999886e+01,2.969614472310138156e-02
2.876000000000000156e+01,3.954850004513395939e-02
2.880000000000000071e+01,5.505201647439546958e-02
2.883999999999999986e+01,4.171456559194286484e-02
2.887999999999999901e+01,2.233602725360891647e-02
2.892000000000000171e+01,3.998284206548808478e-02
2.896000000000000085e+01,2.976304048324547938e-02
2.900000000000000000e+01,3.980970330054058731e-02
2.903999999999999915e+01,2.705638793485824062e-02
2.907999999999999829e+01,1.995422675893127051e-02
2.912000000000000099e+01,2.707753294812101710e-02
2.916000000000000014e+01,3.049819408129393269e-02
2.919999999999999929e+01,1.150861463153706257e-02
2.923999999999999844e+01,2.662131877963693979e-02
2.928000000000000114e+01,3.822624568353304858e-02
2.932000000000000028e+01,1.806713177051680677e-02
2.935999999999999943e+01,2.246163044492964153e-02
2.939999999999999858e+01,1.964580415805573799e-02
2.944000000000000128e+01,1.838883686170157336e-02
2.948000000000000043e+01,1.245486272142242584e-02
2.951999999999999957e+01,1.704380131170346244e-02
2.955999999999999872e+01,1.266857399985272734e-02
2.960000000000000142e+01,8.877847843455365789e-03
2.964000000000000057e+01,2.243050862855534844e-02
2.967999999999999972e+01,2.818822520556082262e-02
2.971999999999999886e+01,1.835616552846842942e-02
2.976000000000000156e+01,2.762132681624525007e-02
2.980000000000000071e+01,5.901918534362764028e-03
2.983999999999999986e+01,1.672581281562075459e-02
2.987999999999999901e+01,5.724062043704853352e-03
2.992000000000000171e+01,1.947078080071584436e-02
2.996000000000000085e+01,4.766246129008045590e-03
3.000000000000000000e+01,0.000000000000000000e+00
3.003999999999999915e+01,6.731007637039800040e-03
3.007999999999999829e+01,1.365676301811737971e-02
3.012000000000000099e+01,2.818235465992535022e-02
3.016000000000000014e+01,5.487502991945412099e-03
3.019999999999999929e+01,1.358210800520803785e-02
3.023999999999999844e+01,2.109197370388726095e-02
3.028000000000000114e+01,8.724892231735694587e-03
3.032000000000000028e+01,2.383446127663339451e-02
3.035999999999999943e+01,2.569268757340303216e-02
3.039999999999999858e+01,2.092517653295790717e-02
3.044000000000000128e+01,1.830111210710424000e-02
3.048000000000000043e+01,9.830791473394185145e-03
3.051999999999999957e+01,2.084741458144324586e-02
3.055999999999999872e+01,1.042811738962950985e-02
3.060000000000000142e+01,2.553675603294326690e-02
3.064000000000000057e+01,1.277873677729413071e-02
3.067999999999999972e+01,1.405127557010739207e-02
3.071999999999999886e+01,3.208256229339992438e-02
3.076000000000000156e+01,1.347800321308124417e-02
3.080000000000000071e+01,2.351930744995468781e-02
3.083999999999999986e+01,1.095545981082283495e-02
3.087999999999999901e+01,2.430928264223463850e-02
3.092000000000000171e+01,4.409369731149787724e-02
3.096000000000000085e+01,3.094480598854892905e-02
3.100000000000000000e+01,3.884181276039171127e-02
3.103999999999999915e+01,5.036326623584615192e-03
3.107999999999999829e+01,7.866398720733568453e-03
3.112000000000000099e+01,1.693218693823658749e-02
3.116000000000000014e+01,1.333122497273592395e-02
3.119999999999999929e+01,2.200697122095770369e-02
3.123999999999999844e+01,2.600566714399231080e-02
3.128000000000000114e+01,4.150158619854902448e-02
3.132000000000000028e+01,2.503854424922316926e-02
3.135999999999999943e+01,2.689320063056706636e-02
3.139999999999999858e+01,3.167076301522950971e-02
3.144000000000000128e+01,2.553540528741822871e-02
3.148000000000000043e+01,4.219977078387592007e-02
3.151999999999999957e+01,3.781793381630823431e-02
3.155999999999999872e+01,2.720007240631078932e-02
3.160000000000000142e+01,4.249986367906797430e-02
3.164000000000000057e+01,2.603555681870329055e-02
3.167999999999999972e+01,6.647335411939814254e-02
3.171999999999999886e+01,5.020359192561353601e-02
3.176000000000000156e+01,4.815923187505243008e-02
3.180000000000000071e+01,4.767367251059132643e-02
3.183999999999999986e+01,3.647005392799604340e-02
3.187999999999999901e+01,5.098921033423704091e-02
3.192000000000000171e+01,4.290318818278909124e-02
3.196000000000000085e+01,4.923743400995694852e-02
3.200000000000000000e+01,4.641258287770721330e-02
3.203999999999999915e+01,4.787471737252185083e-02
3.207999999999999829e+01,2.147015839279545202e-02
3.211999999999999744e+01,3.871647990556541241e-02
3.215999999999999659e+01,5.187034069364106909e-02
3.220000000000000284e+01,3.988569591277157933e-02
3.224000000000000199e+01,4.621872772194077217e-02
3.228000000000000114e+01,2.468506111551643789e-02
3.232000000000000028e+01,2.166393989915452178e-02
3.235999999999999943e+01,3.949381240198238108e-02
3.239999999999999858e+01,2.594930954857844682e-02
3.243999999999999773e+01,3.228144455571916455e-02
3.247999999999999687e+01,3.978262189649157260e-02
3.252000000000000313e+01,4.182723418356140005e-02
3.256000000000000227e+01,2.282561831313268536e-02
3.260000000000000142e+01,2.311602402107218457e-02
3.264000000000000057e+01,2.632930509780475811e-02
3.267999999999999972e+01,2.194243862709969323e-02
3.271999999999999886e+01,2.457073185410785926e-02
3.275999999999999801e+01,2.252193720392964976e-02
3.279999999999999716e+01,4.015490074395675762e-02
3.284000000000000341e+01,2.193145019920569178e-02
3.288000000000000256e+01,1.890772801000814574e-02
3.292000000000000171e+01,8.673593896999613750e-03
3.296000000000000085e+01,2.104427566802659355e-02
3.300000000000000000e+01,4.573887353446908464e-03
3.303999999999999915e+01,2.279030108606034180e-02
3.307999999999999829e+01,2.366301856689028912e-02
3.311999999999999744e+01,2.492527946420465892e-02
3.315999999999999659e+01,3.281294763602698311e-02
3.320000000000000284e+01,1.439286087497271965e-02
3.324000000000000199e+01,9.223785811129175949e-03
3.328000000000000114e+01,2.451594018474417130e-02
3.332000000000000028e+01,2.012594305997484831e-02
3.335999999999999943e+01,1.671009575176131412e-02
3.339999999999999858e+01,3.375547491637476138e-02
3.343999999999999773e+01,3.638021058198238206e-02
3.347999999999999687e+01,1.542537526746738316e-02
3.352000000000000313e+01,3.675729042296735360e-02
3.356000000000000227e+01,2.281738603523454992e-02
3.360000000000000142e+01,3.362586026106222786e-02
3.364000000000000057e+01,2.494704585926633272e-02
3.367999999999999972e+01,2.542694597902455181e-02
3.371999999999999886e+01,3.019379022100584717e-02
3.375999999999999801e+01,2.541175246941781637e-02
3.379999999999999716e+01,1.166544406538426275e-02
3.384000000000000341e+01,3.435975493233724143e-02
3.388000000000000256e+01,2.509504154993527983e-02
3.392000000000000171e+01,3.005567694738965623e-02
3.396000000000000085e+01,3.462635190312847444e-02
3.400000000000000000e+01,3.140197592403826815e-02
3.403999999999999915e+01,2.856712063259075202e-02
3.407999999999999829e+01,4.794731200239505525e-02
3.411999999999999744e+01,4.706071978027052960e-02
3.415999999999999659e+01,3.350730325935443593e-02
3.420000000000000284e+01,3.028181307192477287e-02
3.424000000000000199e+01,3.426631580665393667e-02
3.428000000000000114e+01,2.987114835974605254e-02
3.432000000000000028e+01,3.911670748125496699e-02
3.435999999999999943e+01,3.978772366826096446e-02
3.439999999999999858e+01,4.805847037747346118e-02
3.443999999999999773e+01,4.112906577663828778e-02
3.447999999999999687e+01,5.485573174339132552e-02
3.452000000000000313e+01,5.669504762323753638e-02
3.456000000000000227e+01,4.255472612262533455e-02
3.460000000000000142e+01,4.224999504940116224e-02
3.464000000000000057e+01,3.980144974687965104e-02
3.467999999999999972e+01,2.780399972194707095e-02
3.471999999999999886e+01,4.503692849891156175e-02
3.475999999999999801e+01,4.161331631968957084e-02
3.479999999999999716e+01,3.682536906410733418e-02
3.484000000000000341e+01,4.372942776575722279e-02
3.488000000000000256e+01,4.517686310928470395e-02
3.492000000000000171e+01,3.532155081313484435e-02
3.496000000000000085e+01,3.579414607447177488e-02
3.500000000000000000e+01,2.535373327259998061e-02
3.503999999999999915e+01,3.245144478025225460e-02
3.507999999999999829e+01,2.629769693093693753e-02
3.511999999999999744e+01,4.606151480185179115e-02
3.515999999999999659e+01,3.815343388246162509e-02
3.520000000000000284e+01,3.063484499260957228e-02
3.524000000000000199e+01,4.961843118769068695e-02
3.528000000000000114e+01,4.326856494517300478e-02
3.532000000000000028e+01,4.315431106090647506e-02
3.535999999999999943e+01,3.485523108976403689e-02
3.539999999999999858e+01,5.091474370981977082e-02
3.543999999999999773e+01,3.657415975186948526e-02
3.547999999999999687e+01,5.360751436070972792e-02
3.552000000000000313e+01,4.472279827335375046e-02
3.556000000000000227e+01,4.597110414388221045e-02
3.560000000000000142e+01,3.806022411604767508e-02
3.564000000000000057e+01,3.112343757677020484e-02
3.567999999999999972e+01,4.075040565342460952e-02
3.571999999999999886e+01,4.862327437198760843e-02
3.575999999999999801e+01,4.597285780423191609e-02
3.579999999999999716e+01,6.826563627490370156e-02
3.584000000000000341e+01,6.541981924947454230e-02
3.588000000000000256e+01,6.218399434822564215e-02
3.592000000000000171e+01,6.732734552296329444e-02
3.596000000000000085e+01,6.233714802321937282e-02
3.600000000000000000e+01,6.143896754125504484e-02
3.603999999999999915e+01,8.723781315645846857e-02
3.607999999999999829e+01,7.756990619472266257e-02
3.611999999999999744e+01,9.674260189462664805e-02
3.615999999999999659e+01,9.584333438031084063e-02
3.620000000000000284e+01,1.103385839765215204e-01
3.624000000000000199e+01,1.131413117692185027e-01
3.628000000000000114e+01,1.192565665564422200e-01
3.632000000000000028e+01,1.185510669748516821e-01
3.635999999999999943e+01,1.283683111398252197e-01
3.639999999999999858e+01,1.255186756662189373e-01
3.643999999999999773e+01,1.100021595658224882e-01
3.647999999999999687e+01,1.256646865505090249e-01
3.652000000000000313e+01,1.091732532875026307e-01
3.656000000000000227e+01,1.180147378398137825e-01
3.660000000000000142e+01,1.110714053893756686e-01
3.664000000000000057e+01,1.175738714147001041e-01
3.667999999999999972e+01,9.153263168660005777e-02
3.671999999999999886e+01,9.433197979698218494e-02
3.675999999999999801e+01,9.128491655045865849e-02
3.679999999999999716e+01,9.116062589883569545e-02
3.684000000000000341e+01,8.441043880810672473e-02
3.688000000000000256e+01,7.727021913629543437e-02
3.692000000000000171e+01,7.149380288319470700e-02
3.696000000000000085e+01,8.286572195262413565e-02
3.700000000000000000e+01,1.039808858514702644e-01
3.703999999999999915e+01,9.001901500921458132e-02
3.707999999999999829e+01,9.788237515953317203e-02
3.711999999999999744e+01,8.411478216702138189e-02
3.715999999999999659e+01,8.885961499110095474e-02
3.720000000000000284e+01,9.711182285731050079e-02
3.724000000000000199e+01,9.503557964985753781e-02
3.728000000000000114e+01,9.412826019077573381e-02
3.732000000000000028e+01,9.828727902075090617e-02
3.735999999999999943e+01,9.854857943511101392e-02
3.739999999999999858e+01,8.731220016429762365e-02
3.743999999999999773e+01,8.835237494636796751e-02
3.747999999999999687e+01,1.088793215215697885e-01
3.752000000000000313e+01,1.003702155669331103e-01
3.756000000000000227e+01,1.131017164170101813e-01
3.760000000000000142e+01,9.757664586660698414e-02
3.764000000000000057e+01,1.112818819787341484e-01
3.767999999999999972e+01,1.208945209931172882e-01
3.771999999999999886e+01,1.147223153348570085e-01
3.775999999999999801e+01,1.440162782207296266e-01
3.779999999999999716e+01,1.407665076832834705e-01
3.784000000000000341e+01,1.416087087059337557e-01
3.788000000000000256e+01,1.734350474498546346e-01
3.792000000000000171e+01,1.877226995920760755e-01
3.796000000000000085e+01,1.856408888030566529e-01
3.800000000000000000e+01,2.168816620880140711e-01
3.803999999999999915e+01,2.430554754991089694e-01
3.807999999999999829e+01,2.618238787307929361e-01
3.811999999999999744e+01,3.238532726705081188e-01
3.815999999999999659e+01,3.798413498895049090e-01
3.820000000000000284e+01,4.416752267627070960e-01
3.824000000000000199e+01,5.208522781121480705e-01
3.828000000000000114e+01,6.323775527358682647e-01
3.832000000000000028e+01,7.267538724286738416e-01
3.835999999999999943e+01,8.178170613299361458e-01
3.839999999999999858e+01,8.995261243816551344e-01
3.843999999999999773e+01,9.716861898191760938e-01
3.847999999999999687e+01,1.000000000000000000e+00
3.852000000000000313e+01,9.608881899860938214e-01
3.856000000000000227e+01,8.989761665951104819e-01
3.860000000000000142e+01,8.062742270046012738e-01
3.864000000000000057e+01,7.005156108828346495e-01
3.867999999999999972e+01,5.894951482993924241e-01
3.871999999999999886e+01,5.073152241439072840e-01
3.875999999999999801e+01,4.085709465165263121e-01
3.879999999999999716e+01,3.854361916874375349e-01
3.884000000000000341e+01,3.083218923326270233e-01
3.888000000000000256e+01,2.974633165303362525e-01
3.892000000000000171e+01,2.538661088583878955e-01
3.896000000000000085e+01,2.225454176873241374e-01
3.900000000000000000e+01,2.157781009449577792e-01
3.903999999999999915e+01,1.871849128492121261e-01
3.907999999999999829e+01,1.841194510879669566e-01
3.911999999999999744e+01,1.716998456893896463e-01
3.915999999999999659e+01,1.604491175932898361e-01
3.920000000000000284e+01,1.425724347536642400e-01
3.924000000000000199e+01,1.515875697308109171e-01
3.928000000000000114e+01,1.524177817764524046e-01
3.932000000000000028e+01,1.505194516428329521e-01
3.935999999999999943e+01,1.412156797070664993e-01
3.939999999999999858e+01,1.305474590507318400e-01
3.943999999999999773e+01,1.352736754598727331e-01
3.947999999999999687e+01,1.320098347729006527e-01
3.952000000000000313e+01,1.135457172731468428e-01
3.956000000000000227e+01,1.385374256822908268e-01
3.960000000000000142e+01,1.247494913524091059e-01
3.964000000000000057e+01,1.394123311687532618e-01
3.967999999999999972e+01,1.180237171398782065e-01
3.971999999999999886e+01,1.254756168336975952e-01
3.975999999999999801e+01,1.216246493143685464e-01
3.979999999999999716e+01,1.477834181999818919e-01
3.984000000000000341e+01,1.507522005328919001e-01
3.988000000000000256e+01,1.490437190871458095e-01
3.992000000000000171e+01,1.642886290599077370e-01
3.996000000000000085e+01,1.857690367585023150e-01
4.000000000000000000e+01,1.975055375262439739e-01
4.003999999999999915e+01,2.098262815264975434e-01
4.007999999999999829e+01,2.198082061243803176e-01
4.011999999999999744e+01,2.350512706130294949e-01
4.015999999999999659e+01,2.672477205909238318e-01
4.020000000000000284e+01,2.746952089106617367e-01
4.024000000000000199e+01,2.930550866734344395e-01
4.028000000000000114e+01,2.975787642825394319e-01
4.032000000000000028e+01,3.054148690769102337e-01
4.035999999999999943e+01,3.031173164936440401e-01
4.039999999999999858e+01,3.082244754245638263e-01
4.043999999999999773e+01,3.082646151889906760e-01
4.047999999999999687e+01,2.966121283995905022e-01
4.052000000000000313e+01,2.492979085654401517e-01
4.056000000000000227e+01,2.649265675794065800e-01
4.060000000000000142e+01,2.328115034326233568e-01
4.064000000000000057e+01,2.375266321139303527e-01
4.067999999999999972e+01,1.970313557518491854e-01
4.071999999999999886e+01,2.005764889698955777e-01
4.075999999999999801e+01,1.852187699881830407e-01
4.079999999999999716e+01,1.807734266145581969e-01
4.084000000000000341e+01,1.622969984758738937e-01
4.088000000000000256e+01,1.500560453341805434e-01
4.092000000000000171e+01,1.594453575404083112e-01
4.096000000000000085e+01,1.464241386298179015e-01
4.100000000000000000e+01,1.608793063840720794e-01
4.103999999999999915e+01,1.381137620352810569e-01
4.107999999999999829e+01,1.391220576224620475e-01
4.111999999999999744e+01,1.229813291039929257e-01
4.115999999999999659e+01,1.378246572735330744e-01
4.120000000000000284e+01,1.298677068441025095e-01
4.124000000000000199e+01,1.396435983280125970e-01
4.128000000000000114e+01,1.275935631187549713e-01
4.132000000000000028e+01,1.315225308584136721e-01
4.135999999999999943e+01,1.223947548685004050e-01
4.139999999999999858e+01,1.138511885119419531e-01
4.143999999999999773e+01,9.926622440140386860e-02
4.147999999999999687e+01,1.115730227678499442e-01
4.152000000000000313e+01,1.014692761825308071e-01
4.156000000000000227e+01,1.122162960279853988e-01
4.160000000000000142e+01,1.023066059332571748e-01
4.164000000000000057e+01,9.142215333106207265e-02
4.167999999999999972e+01,9.145005459632359057e-02
4.171999999999999886e+01,9.498521923592802285e-02
4.175999999999999801e+01,7.435599600650097396e-02
4.179999999999999716e+01,8.821848762972175906e-02
4.184000000000000341e+01,8.083965105416221486e-02
4.188000000000000256e+01,7.560397846498995156e-02
4.192000000000000171e+01,7.523965974422186509e-02
4.196000000000000085e+01,7.253647517518921339e-02
4.200000000000000000e+01,9.711478178929368321e-02
4.203999999999999915e+01,7.901596985463543721e-02
4.207999999999999829e+01,8.761403479735888067e-02
4.211999999999999744e+01,7.165796142426655857e-02
4.215999999999999659e+01,6.973216248322183786e-02
4.220000000000000284e+01,7.618538446911445050e-02
4.224000000000000199e+01,6.295623458568026798e-02
4.228000000000000114e+01,7.622908586213036908e-02
4.232000000000000028e+01,6.416831077593297683e-02
4.235999999999999943e+01,6.029168188738612266e-02
4.239999999999999858e+01,6.226074889094146414e-02
4.243999999999999773e+01,6.598322449304733217e-02
4.247999999999999687e+01,6.171556888325236551e-02
4.252000000000000313e+01,6.231925231870406173e-02
4.256000000000000227e+01,6.370198750585066849e-02
4.260000000000000142e+01,5.300230221112382095e-02
4.264000000000000057e+01,6.081490734814926080e-02
4.267999999999999972e+01,5.206306216864941411e-02
4.271999999999999886e+01,4.545436022311616364e-02
4.275999999999999801e+01,5.813742885048300141e-02
4.279999999999999716e+01,6.848161087716468642e-02
4.284000000000000341e+01,5.836392310558272817e-02
4.288000000000000256e+01,5.389704859113204904e-02
4.292000000000000171e+01,5.566559867493674901e-02
4.296000000000000085e+01,4.496197783008370336e-02
4.300000000000000000e+01,6.368340200399821849e-02
4.303999999999999915e+01,7.090700715505812712e-02
4.307999999999999829e+01,5.533028726125355928e-02
4.311999999999999744e+01,5.047101488288253945e-02
4.315999999999999659e+01,5.944712145485164106e-02
4.320000000000000284e+01,5.244337719289335342e-02
4.324000000000000199e+01,5.225966195284079824e-02
4.328000000000000114e+01,5.343959300602853929e-02
4.332000000000000028e+01,5.383959082335308677e-02
4.335999999999999943e+01,5.794168227483473266e-02
4.339999999999999858e+01,5.268952435046032196e-02
4.343999999999999773e+01,5.230868274249084876e-02
4.347999999999999687e+01,4.549665142891649167e-02
4.352000000000000313e+01,4.920718697222586230e-02
4.356000000000000227e+01,5.350187878552270515e-02
4.360000000000000142e+01,5.857559665704142882e-02
4.364000000000000057e+01,7.397700764436747345e-02
4.367999999999999972e+01,6.872165730456450405e-02
4.371999999999999886e+01,4.982489260143529303e-02
4.375999999999999801e+01,6.288647423485677068e-02
4.379999999999999716e+01,5.568103312940718419e-02
4.384000000000000341e+01,4.964435370580612406e-02
4.388000000000000256e+01,5.101229982207704239e-02
4.392000000000000171e+01,8.921035773317705087e-02
4.396000000000000085e+01,7.011594142804876417e-02
4.400000000000000000e+01,7.830296689553242762e-02
4.403999999999999915e+01,7.869469338735037012e-02
4.407999999999999829e+01,8.551668659576380782e-02
4.411999999999999744e+01,9.467665922722112715e-02
4.415999999999999659e+01,9.116956050726079952e-02
4.420000000000000284e+01,1.003285903854985173e-01
4.424000000000000199e+01,9.292313140700131369e-02
4.428000000000000114e+01,1.090965625311909604e-01
4.432000000000000028e+01,1.155259799977932655e-01
4.435999999999999943e+01,1.221497924172833399e-01
4.439999999999999858e+01,1.457268855757050119e-01
4.443999999999999773e+01,1.451395246549912477e-01
4.447999999999999687e+01,1.433824602874201326e-01
4.452000000000000313e+01,1.825477791968614927e-01
4.456000000000000227e+01,1.798154004060576738e-01
4.460000000000000142e+01,1.959850051775810786e-01
4.464000000000000057e+01,1.942260157751507232e-01
4.467999999999999972e+01,2.037690476772787140e-01
4.471999999999999886e+01,2.086346962272795924e-01
4.475999999999999801e+01,2.111614097542805490e-01
4.479999999999999716e+01,2.111543164936262595e-01
4.484000000000000341e+01,2.158236341855646057e-01
4.488000000000000256e+01,2.037335764329550325e-01
4.492000000000000171e+01,1.762482376827008146e-01
4.496000000000000085e+01,1.756545754351167832e-01
4.500000000000000000e+01,1.670707197183701476e-01
4.503999999999999915e+01,1.536146019673675367e-01
4.507999999999999829e+01,1.335323842058949995e-01
4.511999999999999744e+01,1.233880814435515255e-01
4.515999999999999659e+01,1.153868616343340092e-01
4.520000000000000284e+01,1.023185050615735697e-01
4.524000000000000199e+01,9.743422353530731272e-02
4.528000000000000114e+01,9.060073569219427581e-02
4.532000000000000028e+01,9.253593324848889690e-02
4.535999999999999943e+01,7.927070971326814763e-02
4.539999999999999858e+01,6.775882164902057025e-02
4.543999999999999773e+01,6.754893611333175063e-02
4.547999999999999687e+01,6.344113155529550185e-02
4.552000000000000313e+01,6.361997959738355246e-02
4.556000000000000227e+01,5.795219887625493310e-02
4.560000000000000142e+01,4.916597927392662992e-02
4.564000000000000057e+01,4.934330794176665369e-02
4.567999999999999972e+01,4.289452177597929960e-02
4.571999999999999886e+01,4.229134948082222817e-02
4.575999999999999801e+01,3.856973435162346781e-02
4.579999999999999716e+01,4.595524208064408894e-02
4.584000000000000341e+01,4.281721549429885754e-02
4.588000000000000256e+01,2.935052438082217524e-02
4.592000000000000171e+01,4.706264313474952526e-02
4.596000000000000085e+01,3.281543919974964918e-02
4.600000000000000000e+01,2.558306687657548040e-02
4.603999999999999915e+01,2.867832837657844497e-02
4.607999999999999829e+01,2.475772360795924776e-02
4.611999999999999744e+01,3.506216621499255032e-02
4.615999999999999659e+01,3.445332504808628488e-02
4.620000000000000284e+01,3.247986716482610670e-02
4.624000000000000199e+01,3.109049934144966429e-02
4.628000000000000114e+01,3.067496214263610091e-02
4.632000000000000028e+01,3.025890069795077533e-02
4.635999999999999943e+01,2.204748296139046049e-02
4.639999999999999858e+01,3.566106596435698883e-02
4.643999999999999773e+01,3.037165644167294162e-02
4.647999999999999687e+01,3.404577443673681425e-02
4.652000000000000313e+01,3.128862762219739718e-02
4.656000000000000227e+01,3.067452917341621094e-02
4.660000000000000142e+01,3.220347810218275597e-02
4.664000000000000057e+01,1.560891267002551160e-02
4.667999999999999972e+01,4.480844656263410081e-02
4.671999999999999886e+01,2.158720746360999823e-02
4.675999999999999801e+01,3.597549310224834596e-02
4.679999999999999716e+01,2.834284489822456662e-02
4.684000000000000341e+01,3.142755230605741995e-02
4.688000000000000256e+01,3.158865998639920347e-02
4.692000000000000171e+01,2.278517288125015902e-02
4.696000000000000085e+01,3.697589733934966011e-02
4.700000000000000000e+01,4.843788988177145927e-02
4.703999999999999915e+01,2.326363441890679992e-02
4.707999999999999829e+01,2.342203687199701997e-02
4.711999999999999744e+01,3.254395103146700413e-02
4.715999999999999659e+01,1.945005167793551620e-02
4.720000000000000284e+01,2.194526845348660285e-02
4.724000000000000199e+01,2.346558437210023371e-02
4.728000000000000114e+01,3.804169434959276536e-02
4.732000000000000028e+01,3.449427316658294773e-02
4.735999999999999943e+01,2.510017875088372749e-02
4.739999999999999858e+01,2.291575213608742709e-02
4.743999999999999773e+01,2.521280146375606823e-02
4.747999999999999687e+01,3.491438739235135091e-02
4.752000000000000313e+01,3.428726827718448639e-02
4.756000000000000227e+01,3.580317282251326005e-02
4.760000000000000142e+01,3.439545985256180910e-02
4.764000000000000057e+01,2.460774663866491241e-02
4.767999999999999972e+01,3.528090710644492950e-02
4.771999999999999886e+01,2.724591420228306832e-02
4.775999999999999801e+01,2.681032175801918022e-02
4.779999999999999716e+01,4.040486440812172952e-02
4.784000000000000341e+01,2.671693655807901024e-02
4.788000000000000256e+01,3.329500667221581278e-02
4.792000000000000171e+01,2.369823856714087934e-02
4.796000000000000085e+01,2.442905685113884798e-02
4.800000000000000000e+01,2.243111851419646655e-02
4.803999999999999915e+01,2.666847828456480121e-02
4.807999999999999829e+01,1.999250684688941987e-02
4.811999999999999744e+01,2.481334250411384307e-02
4.815999999999999659e+01,3.275154088090037607e-02
4.820000000000000284e+01,1.691493383965377365e-02
4.824000000000000199e+01,3.654423643138795391e-02
4.828000000000000114e+01,3.415256861667131938e-02
4.832000000000000028e+01,2.416036686420990065e-02
4.835999999999999943e+01,3.268031422939857850e-02
4.839999999999999858e+01,1.586648502394309712e-02
4.843999999999999773e+01,2.828269566418170969e-02
4.847999999999999687e+01,2.315995881514780821e-02
4.852000000000000313e+01,1.550332327488180249e-02
4.856000000000000227e+01,2.538447802898935804e-02
4.860000000000000142e+01,1.792155310563766507e-02
4.864000000000000057e+01,2.858102882957300889e-02
4.867999999999999972e+01,2.618357998141406309e-02
4.871999999999999886e+01,2.475990147697722937e-02
4.875999999999999801e+01,2.625870009250014930e-02
4.879999999999999716e+01,2.619794698154151100e-02
4.884000000000000341e+01,2.165457950921854252e-02
4.888000000000000256e+01,3.094644967313358447e-02
4.892000000000000171e+01,1.938655827789866753e-02
4.896000000000000085e+01,1.679013313136030333e-02
4.900000000000000000e+01,2.822381343287323416e-02
4.903999999999999915e+01,1.179038125859128983e-02
4.907999999999999829e+01,2.049468681329420436e-02
4.911999999999999744e+01,2.374201720693518841e-02
4.915999999999999659e+01,2.387082076864154370e-02
4.920000000000000284e+01,2.575286592132319113e-02
4.924000000000000199e+01,1.944974207808397582e-02
4.928000000000000114e+01,2.756645831831215643e-02
4.932000000000000028e+01,3.626718852621518829e-02
4.935999999999999943e+01,2.275205086953904776e-02
4.939999999999999858e+01,2.599519964903655375e-02
4.943999999999999773e+01,2.280701147956403982e-02
4.947999999999999687e+01,1.630541779602801347e-02
4.952000000000000313e+01,1.448011944445553451e-02
4.956000000000000227e+01,2.337210950642540710e-02
4.960000000000000142e+01,3.206862351281734858e-02
4.964000000000000057e+01,3.004663854740076065e-02
4.967999999999999972e+01,2.451637235042330651e-02
4.971999999999999886e+01,2.736494129680843920e-02
4.975999999999999801e+01,3.644876585745256831e-02
4.979999999999999716e+01,3.598331215211502537e-02
4.984000000000000341e+01,3.161983170948499955e-02
4.988000000000000256e+01,3.544031168093068201e-02
4.992000000000000171e+01,3.049099352754242390e-02
4.996000000000000085e+01,1.833084247266834541e-02
5.000000000000000000e+01,4.066220368728870604e-02
5.003999999999999915e+01,2.869569209817264197e-02
5.007999999999999829e+01,3.582589946298946754e-02
5.011999999999999744e+01,2.444276493967902780e-02
5.015999999999999659e+01,4.034092000456283161e-02
5.020000000000000284e+01,3.597189421689493682e-02
5.024000000000000199e+01,3.160224733872592923e-02
5.028000000000000114e+01,2.606275372317628375e-02
5.032000000000000028e+01,2.558927722826975087e-02
5.035999999999999943e+01,1.848957027910675538e-02
5.039999999999999858e+01,1.937894012083802089e-02
5.043999999999999773e+01,2.806251498880830975e-02
5.047999999999999687e+01,2.758653634410802510e-02
5.052000000000000313e+01,2.847402512654670023e-02
5.056000000000000227e+01,2.663269404257277012e-02
5.060000000000000142e+01,2.264715443331011269e-02
5.064000000000000057e+01,2.333788248611684546e-02
5.067999999999999972e+01,2.695104022477911795e-02
5.071999999999999886e+01,3.212253122597274330e-02
5.075999999999999801e+01,2.306782160945694896e-02
5.079999999999999716e+01,2.141756657239598030e-02
5.084000000000000341e+01,3.165379298481015014e-02
5.088000000000000256e+01,2.064846786286995972e-02
5.092000000000000171e+01,1.841168979086678717e-02
5.096000000000000085e+01,2.728190709792797236e-02
5.100000000000000000e+01,2.348488406957529098e-02
5.103999999999999915e+01,2.144105717451469037e-02
5.107999999999999829e+01,2.231965008320458896e-02
5.111999999999999744e+01,2.787449879543778264e-02
5.115999999999999659e+01,2.680309728920446735e-02
5.120000000000000284e+01,2.144389389363189624e-02
5.124000000000000199e+01,2.738654973609490340e-02
5.128000000000000114e+01,2.319527841945319413e-02
5.132000000000000028e+01,2.368025796530225449e-02
5.135999999999999943e+01,3.176454903210388508e-02
5.139999999999999858e+01,2.308930357604546679e-02
5.143999999999999773e+01,3.721328822721430701e-02
5.147999999999999687e+01,3.087518962665061414e-02
5.152000000000000313e+01,1.966466890172911819e-02
5.156000000000000227e+01,1.585858398026284907e-02
5.160000000000000142e+01,1.555951834514499380e-02
5.164000000000000057e+01,3.357765001797111126e-02
5.167999999999999972e+01,2.957472728645354695e-02
5.171999999999999886e+01,2.927369165309772620e-02
5.175999999999999801e+01,2.585406495412445951e-02
5.179999999999999716e+01,2.340813250666440651e-02
5.184000000000000341e+01,2.641792118073793549e-02
5.188000000000000256e+01,2.143734641344207520e-02
5.192000000000000171e+01,2.775861408460325239e-02
5.196000000000000085e+01,3.076641497264965761e-02
5.200000000000000000e+01,2.753768644269858831e-02
5.203999999999999915e+01,2.684161244655624071e-02
5.207999999999999829e+01,2.653461345511915967e-02
5.211999999999999744e+01,3.207307022063169560e-02
5.215999999999999659e+01,2.728270730996356849e-02
5.220000000000000284e+01,3.126085982649631778e-02
5.224000000000000199e+01,3.036657243088224448e-02
5.228000000000000114e+01,3.025109665181055854e-02
5.232000000000000028e+01,2.799136985439844988e-02
5.235999999999999943e+01,3.079760977889366494e-02
5.239999999999999858e+01,3.068011360284827321e-02
5.243999999999999773e+01,2.140301549181749738e-02
5.247999999999999687e+01,2.635080763096897191e-02
5.252000000000000313e+01,2.233386663515894710e-02
5.256000000000000227e+01,2.650081984332081433e-02
5.260000000000000142e+01,2.209277949298974614e-02
5.264000000000000057e+01,1.943789574753066254e-02
5.267999999999999972e+01,2.574638634719118510e-02
5.271999999999999886e+01,2.874139138773739582e-02
5.275999999999999801e+01,1.926398338805230745e-02
5.279999999999999716e+01,1.602175589862800051e-02
5.284000000000000341e+01,3.031721296505321406e-02
5.288000000000000256e+01,2.941206315638823787e-02
5.292000000000000171e+01,2.616777672978050362e-02
5.296000000000000085e+01,2.136383580279874878e-02
5.300000000000000000e+01,2.669248597392147662e-02
5.303999999999999915e+01,3.202044587980776291e-02
5.307999999999999829e+01,2.273240629888576003e-02
5.311999999999999744e+01,2.396669640432638401e-02
5.315999999999999659e+01,2.968232113812983505e-02
5.320000000000000284e+01,3.890492562986148928e-02
5.324000000000000199e+01,1.733725223702296814e-02
5.328000000000000114e+01,1.291751097682895290e-02
5.332000000000000028e+01,2.155341455572761314e-02
5.335999999999999943e+01,1.966559803568560666e-02
5.339999999999999858e+01,3.570519378943579764e-02
5.343999999999999773e+01,2.777498389313195343e-02
5.347999999999999687e+01,3.816192584708889141e-02
5.352000000000000313e+01,2.730725104479817325e-02
5.356000000000000227e+01,1.859545167142746466e-02
5.360000000000000142e+01,3.268282904191678606e-02
5.364000000000000057e+01,2.689268212664070248e-02
5.367999999999999972e+01,2.714282320454942249e-02
5.371999999999999886e+01,2.700251566475346532e-02
5.375999999999999801e+01,3.036917404793864142e-02
5.379999999999999716e+01,3.704792658944962985e-02
5.384000000000000341e+01,3.203372251482504429e-02
5.388000000000000256e+01,2.448548732876072373e-02
5.392000000000000171e+01,2.882365749996268489e-02
5.396000000000000085e+01,2.945856992463504950e-02
5.400000000000000000e+01,3.262608846080143621e-02
5.403999999999999915e+01,2.741344863934157272e-02
5.407999999999999829e+01,2.609750838806847856e-02
5.411999999999999744e+01,2.536546351920974593e-02
5.415999999999999659e+01,2.872498702056155290e-02
5.420000000000000284e+01,3.208379159857222690e-02
5.424000000000000199e+01,2.530859588990089226e-02
5.428000000000000114e+01,3.295311673838383776e-02
5.432000000000000028e+01,2.832005678287064301e-02
5.435999999999999943e+01,3.362468354986004188e-02
5.439999999999999858e+01,3.405681704133534798e-02
5.443999999999999773e+01,3.098055170419982199e-02
5.447999999999999687e+01,3.219071760803562943e-02
5.452000000000000313e+01,3.008735348328443401e-02
5.456000000000000227e+01,3.304990172886279609e-02
5.460000000000000142e+01,2.548869924097489290e-02
5.464000000000000057e+01,2.844978888745047091e-02
5.467999999999999972e+01,2.634350756449359982e-02
5.471999999999999886e+01,3.592874105814811841e-02
5.475999999999999801e+01,4.083634315883888366e-02
5.479999999999999716e+01,3.599967269079007437e-02
5.484000000000000341e+01,3.057765515869760933e-02
5.488000000000000256e+01,2.885744665613702159e-02
5.492000000000000171e+01,2.928007998333922307e-02
5.496000000000000085e+01,3.730193589254860581e-02
5.500000000000000000e+01,3.655386817418998513e-02
5.503999999999999915e+01,2.703587584005293434e-02
5.507999999999999829e+01,2.589658622907079974e-02
5.511999999999999744e+01,3.079754903569526664e-02
5.515999999999999659e+01,3.102087056725093620e-02
5.520000000000000284e+01,2.851525759997544304e-02
5.524000000000000199e+01,3.906524203768844267e-02
5.528000000000000114e+01,3.246585254323284403e-02
5.532000000000000028e+01,3.151696897244167517e-02
5.535999999999999943e+01,2.647505151486362687e-02
5.539999999999999858e+01,2.864260421608752494e-02
5.543999999999999773e+01,2.866582881855173764e-02
5.547999999999999687e+01,4.914973440164449592e-02
5.552000000000000313e+01,4.059714276017170609e-02
5.556000000000000227e+01,2.892586617308361835e-02
5.560000000000000142e+01,3.459733517887548376e-02
5.564000000000000057e+01,4.007317890930323784e-02
5.567999999999999972e+01,2.917912193123665607e-02
5.571999999999999886e+01,3.796625689875624682e-02
5.575999999999999801e+01,3.077323073425004829e-02
5.579999999999999716e+01,3.429733882244750953e-02
5.584000000000000341e+01,3.821042902356288490e-02
5.588000000000000256e+01,4.270737112583034706e-02
5.592000000000000171e+01,3.024979426100591826e-02
5.596000000000000085e+01,3.532982487161172996e-02
5.600000000000000000e+01,6.067565283966473016e-02
5.603999999999999915e+01,3.399021911592722822e-02
5.607999999999999829e+01,3.926282735990496014e-02
5.611999999999999744e+01,4.570389390510623540e-02
5.615999999999999659e+01,4.551858670552788588e-02
5.620000000000000284e+01,4.513764039563843838e-02
5.624000000000000199e+01,4.475592476367212108e-02
5.628000000000000114e+01,4.846572512675962480e-02
5.632000000000000028e+01,3.444151353487091838e-02
5.635999999999999943e+01,4.633434292343456551e-02
5.639999999999999858e+01,5.374437117884853926e-02
5.643999999999999773e+01,4.049732286798254227e-02
5.647999999999999687e+01,4.498273996225505417e-02
5.652000000000000313e+01,3.797000500673296253e-02
5.656000000000000227e+01,4.518205950392167186e-02
5.660000000000000142e+01,4.849592025624269859e-02
5.664000000000000057e+01,4.654749084037172746e-02
5.667999999999999972e+01,5.122388763123218031e-02
5.671999999999999886e+01,5.219695848903822821e-02
5.675999999999999801e+01,5.433847183669978514e-02
5.679999999999999716e+01,4.848950019309990894e-02
5.684000000000000341e+01,5.433199099095468304e-02
5.688000000000000256e+01,5.140451171534777403e-02
5.692000000000000171e+01,5.276340339987141415e-02
5.696000000000000085e+01,4.632667691673645477e-02
5.700000000000000000e+01,5.236089202799341230e-02
5.703999999999999915e+01,4.533797603116064556e-02
5.707999999999999829e+01,3.285788821937560278e-02
5.711999999999999744e+01,4.220253630670210004e-02
5.715999999999999659e+01,4.063362886220048265e-02
5.720000000000000284e+01,4.081776536657322901e-02
5.724000000000000199e+01,3.612933843248610638e-02
5.728000000000000114e+01,4.196313841086916907e-02
5.732000000000000028e+01,5.442174878461554510e-02
5.735999999999999943e+01,3.472588405299613379e-02
5.739999999999999858e+01,3.899832684390774212e-02
5.743999999999999773e+01,5.009044784199603167e-02
5.747999999999999687e+01,4.637158987367568513e-02
5.752000000000000313e+01,4.226218940765279208e-02
5.756000000000000227e+01,4.867500893662651124e-02
5.760000000000000142e+01,4.066658808744975234e-02
5.764000000000000057e+01,3.324197565816303102e-02
5.767999999999999972e+01,4.140622044680662694e-02
5.771999999999999886e+01,4.820556391447100575e-02
5.775999999999999801e+01,3.668624752224655672e-02
5.779999999999999716e+01,4.056091460687619166e-02
5.784000000000000341e+01,3.858864954766428462e-02
5.788000000000000256e+01,4.012324862575152723e-02
5.792000000000000171e+01,3.659039668935558376e-02
5.796000000000000085e+01,4.747717039474752543e-02
5.800000000000000000e+01,4.082476141676689291e-02
5.803999999999999915e+01,4.937145920993245285e-02
5.807999999999999829e+01,3.589694448507368962e-02
5.811999999999999744e+01,4.658559027140168896e-02
5.815999999999999659e+01,4.343759417396660799e-02
5.820000000000000284e+01,4.457593741392596592e-02
5.824000000000000199e+01,3.830837241638020835e-02
5.828000000000000114e+01,3.418356623891484480e-02
5.832000000000000028e+01,3.415022565776764524e-02
5.835999999999999943e+01,4.346986064873801375e-02
5.839999999999999858e+01,5.785531314182960905e-02
5.843999999999999773e+01,5.177851043456081076e-02
5.847999999999999687e+01,4.121885520719615476e-02
5.852000000000000313e+01,4.274036246933452660e-02
5.856000000000000227e+01,4.406617231674200830e-02
5.860000000000000142e+01,4.266296366742554358e-02
5.864000000000000057e+01,4.028457252117777221e-02
5.867999999999999972e+01,4.004893031290543415e-02
5.871999999999999886e+01,3.572017120816382146e-02
5.875999999999999801e+01,4.912382118056191765e-02
5.879999999999999716e+01,3.017808969557127588e-02
5.884000000000000341e+01,4.806210140289143840e-02
5.888000000000000256e+01,4.022233607552566648e-02
5.892000000000000171e+01,4.348936947333379571e-02
5.896000000000000085e+01,5.260168964409527026e-02
5.900000000000000000e+01,4.846195950800760710e-02
5.903999999999999915e+01,4.704958174533518250e-02
5.907999999999999829e+01,4.524662294475047947e-02
5.911999999999999744e+01,4.383256522382233955e-02
5.915999999999999659e+01,5.235607564013613352e-02
5.920000000000000284e+01,4.139166596231405593e-02
5.924000000000000199e+01,3.685714846930630145e-02
5.928000000000000114e+01,4.440377468980202108e-02
5.932000000000000028e+01,3.850347192131965690e-02
5.935999999999999943e+01,3.844844604368564955e-02
5.939999999999999858e+01,4.521304995091360301e-02
5.943999999999999773e+01,4.340249131565234592e-02
5.947999999999999687e+01,4.198082486615303116e-02
5.952000000000000313e+01,3.802498796753291110e-02
5.956000000000000227e+01,3.543239516047782395e-02
5.960000000000000142e+01,3.439791623322206726e-02
5.964000000000000057e+01,3.784461184422738961e-02
5.967999999999999972e+01,3.875713305326986685e-02
5.971999999999999886e+01,3.713547887213897863e-02
5.975999999999999801e+01,2.869249123083827957e-02
5.979999999999999716e+01,4.032033629054202623e-02
5.984000000000000341e+01,3.616279019719332438e-02
5.988000000000000256e+01,3.180951407816712956e-02
5.992000000000000171e+01,4.285016906083823074e-02
5.996000000000000085e+01,2.660805411558112704e-02
