2.003999999999999915e+01,5.771184623049104012e-03
2.007999999999999829e+01,3.778636135048198900e-03
2.012000000000000099e+01,7.102601559991223584e-03
2.016000000000000014e+01,4.696000448659076558e-03
2.019999999999999929e+01,9.229547641526055640e-03
2.023999999999999844e+01,7.746004679464028354e-03
2.028000000000000114e+01,7.567643975204325045e-03
2.032000000000000028e+01,7.198175129068446268e-03
2.035999999999999943e+01,7.178809618613377075e-03
2.039999999999999858e+01,7.573219418918998407e-03
2.044000000000000128e+01,6.471246561493355226e-03
2.048000000000000043e+01,6.515276334792531772e-03
2.051999999999999957e+01,5.763314803492783876e-03
2.055999999999999872e+01,5.616144549609755274e-03
2.060000000000000142e+01,5.341538377428258627e-03
2.064000000000000057e+01,4.557464726382959644e-03
2.067999999999999972e+01,5.969980818593531233e-03
2.071999999999999886e+01,5.440411007341685451e-03
2.076000000000000156e+01,7.775986325646235160e-03
2.080000000000000071e+01,8.105803889657354697e-03
2.083999999999999986e+01,4.487869764051271269e-03
2.087999999999999901e+01,6.218286305131223192e-03
2.092000000000000171e+01,7.884939192906722377e-03
2.096000000000000085e+01,6.463411619772674657e-03
2.100000000000000000e+01,2.017375560808934518e-03
2.103999999999999915e+01,6.326138785199551459e-03
2.107999999999999829e+01,6.655314601638989344e-03
2.112000000000000099e+01,4.692209293629157583e-03
2.116000000000000014e+01,7.918275108060460546e-03
2.119999999999999929e+01,6.305182534330737963e-03
2.123999999999999844e+01,5.392389842590302254e-03
2.128000000000000114e+01,4.129310168805883086e-03
2.132000000000000028e+01,2.961647090039089877e-03
2.135999999999999943e+01,8.574953682385158538e-03
2.139999999999999858e+01,2.345189390654694485e-03
2.144000000000000128e+01,6.048155569218359451e-03
2.148000000000000043e+01,8.923295470342497079e-03
2.151999999999999957e+01,6.449901845327164242e-03
2.155999999999999872e+01,4.867824234622350824e-03
2.160000000000000142e+01,6.119056656384432372e-03
2.164000000000000057e+01,5.046172525277400379e-03
2.167999999999999972e+01,4.068705361934659911e-03
2.171999999999999886e+01,5.829040454812322962e-03
2.176000000000000156e+01,3.768968677974934151e-03
2.180000000000000071e+01,7.343772221884765049e-03
2.183999999999999986e+01,8.976491021988637978e-03
2.187999999999999901e+01,4.687629265727243609e-03
2.192000000000000171e+01,7.370753561397769271e-03
2.196000000000000085e+01,6.774682630575432768e-03
2.200000000000000000e+01,6.369536899343246870e-03
2.203999999999999915e+01,3.449259228414072904e-03
2.207999999999999829e+01,1.770493745357230950e-03
2.212000000000000099e+01,8.973872531222089680e-03
2.216000000000000014e+01,4.493361054079173834e-03
2.219999999999999929e+01,4.979170008378572786e-03
2.223999999999999844e+01,3.650238500362249991e-03
2.228000000000000114e+01,6.046024800180487511e-03
2.232000000000000028e+01,6.340547019029340800e-03
2.235999999999999943e+01,8.640644919627899281e-03
2.239999999999999858e+01,8.903150755753309192e-03
2.244000000000000128e+01,8.433339208925832997e-03
2.248000000000000043e+01,8.218125292347716951e-03
2.251999999999999957e+01,5.487779933068274475e-03
2.255999999999999872e+01,4.253634993311192908e-03
2.260000000000000142e+01,5.311589685287865757e-03
2.264000000000000057e+01,7.133517642487992305e-03
2.267999999999999972e+01,6.631330123642820325e-03
2.271999999999999886e+01,6.320068549881215948e-03
2.276000000000000156e+01,5.785865393806014986e-03
2.280000000000000071e+01,5.569932132974203358e-03
2.283999999999999986e+01,6.563675880092604414e-03
2.287999999999999901e+01,5.424320159238057472e-03
2.292000000000000171e+01,7.818667107888076576e-03
2.296000000000000085e+01,8.971321742688226006e-03
2.300000000000000000e+01,4.998296151574707809e-03
2.303999999999999915e+01,6.978506833431807714e-03
2.307999999999999829e+01,2.973466267749088222e-03
2.312000000000000099e+01,2.947832114297708507e-03
2.316000000000000014e+01,4.291055134285961040e-03
2.319999999999999929e+01,5.634188795362594405e-03
2.323999999999999844e+01,7.868640210234404200e-03
2.328000000000000114e+01,4.659052020788583860e-03
2.332000000000000028e+01,4.123595810551618744e-03
2.335999999999999943e+01,3.747230241227231598e-03
2.339999999999999858e+01,2.288352647791360925e-03
2.344000000000000128e+01,5.795796769703191569e-03
2.348000000000000043e+01,6.628930608745873913e-03
2.351999999999999957e+01,6.220372713766950980e-03
2.355999999999999872e+01,2.309769481124611216e-03
2.360000000000000142e+01,6.931116414657272247e-03
2.364000000000000057e+01,4.452953841365184934e-03
2.367999999999999972e+01,6.972949198750381591e-03
2.371999999999999886e+01,5.003984412351420753e-03
2.376000000000000156e+01,3.767158084000531842e-03
2.380000000000000071e+01,4.472236994722606461e-03
2.383999999999999986e+01,5.750274612166351128e-03
2.387999999999999901e+01,3.398923355949860173e-03
2.392000000000000171e+01,6.650613648712769797e-03
2.396000000000000085e+01,5.795375648170945047e-03
2.400000000000000000e+01,3.252742874957891168e-03
2.403999999999999915e+01,3.829946362092351633e-03
2.407999999999999829e+01,6.922102781186399711e-03
2.412000000000000099e+01,6.766902177099650903e-03
2.416000000000000014e+01,4.860635032343248174e-03
2.419999999999999929e+01,2.190216360119434744e-03
2.423999999999999844e+01,4.836315866719168542e-03
2.428000000000000114e+01,5.381153321748320326e-03
2.432000000000000028e+01,1.532539154733222843e-03
2.435999999999999943e+01,4.210210030399182124e-03
2.439999999999999858e+01,3.799704006957482002e-03
2.444000000000000128e+01,4.694384548613494273e-03
2.448000000000000043e+01,3.010263743303324708e-03
2.451999999999999957e+01,6.833677207721684278e-03
2.455999999999999872e+01,4.289809355021708542e-03
2.460000000000000142e+01,5.884529281115247722e-03
2.464000000000000057e+01,4.327400622935349481e-03
2.467999999999999972e+01,4.170966678846362713e-03
2.471999999999999886e+01,3.473233513524515495e-03
2.476000000000000156e+01,5.322289951071150667e-03
2.480000000000000071e+01,3.701138301691501292e-03
2.483999999999999986e+01,6.123066779107760003e-03
2.487999999999999901e+01,4.565411783121462765e-03
2.492000000000000171e+01,3.517044678433356789e-03
2.496000000000000085e+01,6.479921857958269131e-03
2.500000000000000000e+01,3.425713811094041258e-03
2.503999999999999915e+01,2.472592121367141616e-03
2.507999999999999829e+01,1.027427389804103433e-02
2.512000000000000099e+01,4.227222731950745771e-03
2.516000000000000014e+01,4.483605669044913103e-03
2.519999999999999929e+01,5.758652256660249866e-03
2.523999999999999844e+01,5.027945687191635003e-03
2.528000000000000114e+01,4.870199315431536329e-03
2.532000000000000028e+01,8.882877434790197729e-03
2.535999999999999943e+01,6.942142634170028227e-03
2.539999999999999858e+01,4.778468984712173039e-03
2.544000000000000128e+01,1.818809124860437752e-03
2.548000000000000043e+01,4.080160827242204635e-03
2.551999999999999957e+01,2.839469221359317008e-03
2.555999999999999872e+01,5.737366388261169563e-03
2.560000000000000142e+01,4.974040495571951416e-03
2.564000000000000057e+01,4.497151471851703122e-03
2.567999999999999972e+01,6.980920572388354430e-03
2.571999999999999886e+01,5.389599168769361459e-03
2.576000000000000156e+01,5.612841166294902685e-03
2.580000000000000071e+01,3.766658652901084311e-03
2.583999999999999986e+01,3.544023822493555347e-03
2.587999999999999901e+01,4.117201578861710322e-03
2.592000000000000171e+01,3.958065555495206451e-03
2.596000000000000085e+01,3.735171097278275083e-03
2.600000000000000000e+01,4.403597250581328670e-03
2.603999999999999915e+01,5.708656322166253197e-03
2.607999999999999829e+01,3.830032333632785602e-03
2.612000000000000099e+01,7.172420569993619675e-03
2.616000000000000014e+01,3.351629975093100514e-03
2.619999999999999929e+01,3.924116550292571989e-03
2.623999999999999844e+01,4.146321279069497233e-03
2.628000000000000114e+01,4.495783705317200202e-03
2.632000000000000028e+01,4.876995969956600570e-03
2.635999999999999943e+01,4.207535242122614587e-03
2.639999999999999858e+01,2.710253331054172498e-03
2.644000000000000128e+01,5.415233037592739017e-03
2.648000000000000043e+01,4.236138827876220238e-03
2.651999999999999957e+01,2.834106928978463464e-03
2.655999999999999872e+01,3.405819093710266143e-03
2.660000000000000142e+01,5.123540225861009795e-03
2.664000000000000057e+01,4.612657882675758915e-03
2.667999999999999972e+01,4.197197684292487858e-03
2.671999999999999886e+01,3.877159672127505376e-03
2.676000000000000156e+01,3.843559688587983372e-03
2.680000000000000071e+01,2.918467002313419965e-03
2.683999999999999986e+01,3.744266901759898958e-03
2.687999999999999901e+01,3.646738214472166652e-03
2.692000000000000171e+01,4.345023190783919853e-03
2.696000000000000085e+01,6.189317507261348980e-03
2.700000000000000000e+01,5.582156953326842391e-03
2.703999999999999915e+01,3.032917039705540496e-03
2.707999999999999829e+01,7.232816752896431382e-03
2.712000000000000099e+01,7.930674814474718975e-03
2.716000000000000014e+01,3.311841156443852494e-03
2.719999999999999929e+01,4.996443713828790933e-03
2.723999999999999844e+01,5.757718057226225705e-03
2.728000000000000114e+01,4.895272957752728679e-03
2.732000000000000028e+01,5.624541106836873812e-03
2.735999999999999943e+01,3.265635421619698161e-03
2.739999999999999858e+01,3.612701906905920867e-03
2.744000000000000128e+01,4.341715025390128699e-03
2.748000000000000043e+01,2.332750068971768155e-03
2.751999999999999957e+01,5.353782986027425146e-03
2.755999999999999872e+01,5.700509844676762000e-03
2.760000000000000142e+01,5.123908862085261619e-03
2.764000000000000057e+01,5.725153890568373573e-03
2.767999999999999972e+01,3.683928951725822659e-03
2.771999999999999886e+01,6.131490657298157600e-03
2.776000000000000156e+01,5.236191208077736747e-03
2.780000000000000071e+01,3.990611527670498253e-03
2.783999999999999986e+01,3.445338562942301328e-03
2.787999999999999901e+01,4.396271526104553358e-03
2.792000000000000171e+01,6.493214823423694437e-03
2.796000000000000085e+01,3.273467229459727651e-03
2.800000000000000000e+01,3.969459166852261009e-03
2.803999999999999915e+01,3.933139519574117664e-03
2.807999999999999829e+01,2.082085456760268943e-03
2.812000000000000099e+01,4.528802651533487926e-03
2.816000000000000014e+01,5.128949546771790872e-03
2.819999999999999929e+01,7.734678170539829693e-03
2.823999999999999844e+01,5.310239894425075255e-03
2.828000000000000114e+01,6.801541439580954460e-03
2.832000000000000028e+01,3.326348101350260888e-03
2.835999999999999943e+01,5.295021075149412317e-03
2.839999999999999858e+01,5.098764329593417216e-03
2.844000000000000128e+01,5.570978954129167035e-03
2.848000000000000043e+01,8.430807199090412790e-03
2.851999999999999957e+01,5.050702094474416801e-03
2.855999999999999872e+01,9.916028590168603565e-03
2.860000000000000142e+01,7.140639278518717478e-03
2.864000000000000057e+01,6.975715520782185992e-03
2.867999999999999972e+01,6.874380011830930580e-03
2.871999999999999886e+01,5.181162517827404661e-03
2.876000000000000156e+01,6.321262469808766778e-03
2.880000000000000071e+01,8.862061401760105289e-03
2.883999999999999986e+01,7.423280960522734249e-03
2.887999999999999901e+01,3.628555495935001287e-03
2.892000000000000171e+01,7.633558468758874956e-03
2.896000000000000085e+01,7.340622524324895773e-03
2.900000000000000000e+01,3.354631073853664783e-03
2.903999999999999915e+01,4.080279402357904830e-03
2.907999999999999829e+01,5.347055896287497209e-03
2.912000000000000099e+01,6.454569326759055856e-03
2.916000000000000014e+01,5.779185426766834596e-03
2.919999999999999929e+01,4.721686778326532677e-03
2.923999999999999844e+01,5.001215631771930605e-03
2.928000000000000114e+01,6.999803630500950682e-03
2.932000000000000028e+01,6.069399658486458564e-03
2.935999999999999943e+01,1.732464254667661708e-03
2.939999999999999858e+01,6.022992922883003974e-03
2.944000000000000128e+01,5.824567369845280382e-03
2.948000000000000043e+01,2.665314044897434519e-03
2.951999999999999957e+01,1.511643815217281282e-03
2.955999999999999872e+01,3.223127826679850552e-03
2.960000000000000142e+01,3.183550930089759819e-03
2.964000000000000057e+01,3.080219408948959691e-03
2.967999999999999972e+01,4.441259712600382700e-03
2.971999999999999886e+01,2.077409288876169626e-03
2.976000000000000156e+01,0.000000000000000000e+00
2.980000000000000071e+01,3.143606746317907392e-03
2.983999999999999986e+01,3.644745761790434135e-03
2.987999999999999901e+01,4.623341837350751667e-03
2.992000000000000171e+01,4.296580871834087059e-03
2.996000000000000085e+01,1.900399702693431102e-03
3.000000000000000000e+01,3.738319804042412441e-03
3.003999999999999915e+01,3.029280282122953118e-03
3.007999999999999829e+01,2.734026093709162903e-03
3.012000000000000099e+01,2.757049379721946292e-03
3.016000000000000014e+01,3.862413385540903327e-03
3.019999999999999929e+01,4.681171578814746596e-03
3.023999999999999844e+01,3.971721294519398558e-03
3.028000000000000114e+01,5.872738262205752513e-03
3.032000000000000028e+01,4.972108161883332517e-03
3.035999999999999943e+01,4.485263684980701250e-03
3.039999999999999858e+01,5.176268076877470030e-03
3.044000000000000128e+01,2.970117624518946522e-03
3.048000000000000043e+01,5.571116342618178709e-03
3.051999999999999957e+01,4.988436597808461326e-03
3.055999999999999872e+01,5.328918152808929769e-03
3.060000000000000142e+01,2.422049394069470535e-03
3.064000000000000057e+01,1.297913122431500416e-03
3.067999999999999972e+01,2.720572583274646124e-03
3.071999999999999886e+01,4.015806604143612110e-03
3.076000000000000156e+01,2.573065946246740066e-03
3.080000000000000071e+01,3.199581642602808591e-03
3.083999999999999986e+01,3.252968487588350950e-03
3.087999999999999901e+01,2.255687020142582190e-03
3.092000000000000171e+01,2.340747059412725400e-03
3.096000000000000085e+01,5.577486490882374234e-03
3.100000000000000000e+01,2.224099505435628461e-03
3.103999999999999915e+01,2.595439397993482521e-03
3.107999999999999829e+01,2.712010355996653105e-03
3.112000000000000099e+01,4.038266895124455885e-03
3.116000000000000014e+01,1.703306131527098592e-03
3.119999999999999929e+01,2.679204842786076738e-03
3.123999999999999844e+01,3.846038320800850268e-03
3.128000000000000114e+01,5.012790805996886027e-03
3.132000000000000028e+01,4.587663998200259934e-03
3.135999999999999943e+01,3.175541308631559586e-03
3.139999999999999858e+01,2.813924655942582568e-03
3.144000000000000128e+01,3.120782479567982878e-03
3.148000000000000043e+01,4.669162223896524723e-03
3.151999999999999957e+01,2.874684706564660693e-03
3.155999999999999872e+01,2.735596761582012593e-03
3.160000000000000142e+01,4.060882629374061581e-03
3.164000000000000057e+01,4.335500971644529536e-03
3.167999999999999972e+01,1.108082383760773193e-03
3.171999999999999886e+01,3.611057288362426801e-03
3.176000000000000156e+01,1.784260208015537490e-03
3.180000000000000071e+01,3.650354825751178558e-03
3.183999999999999986e+01,4.911485660692020347e-03
3.187999999999999901e+01,4.421557948309383715e-03
3.192000000000000171e+01,4.568269242404942275e-03
3.196000000000000085e+01,4.110016877954592897e-03
3.200000000000000000e+01,5.466334375591804830e-03
3.203999999999999915e+01,2.461044211362783517e-03
3.207999999999999829e+01,4.963296144543259160e-03
3.211999999999999744e+01,4.536559006121297817e-03
3.215999999999999659e+01,4.268921620198261845e-03
3.220000000000000284e+01,4.892611265321963887e-03
3.224000000000000199e+01,2.077936493783258919e-03
3.228000000000000114e+01,1.810059111377737258e-03
3.232000000000000028e+01,3.293079988726566303e-03
3.235999999999999943e+01,2.802191047924921727e-03
3.239999999999999858e+01,3.616496914064973311e-03
3.243999999999999773e+01,3.125448348355041282e-03
3.247999999999999687e+01,3.207367435287912950e-03
3.252000000000000313e+01,2.143112007362430946e-03
3.256000000000000227e+01,3.848506026306858837e-03
3.260000000000000142e+01,3.357138707775993592e-03
3.264000000000000057e+01,1.846940865962892146e-03
3.267999999999999972e+01,3.679439998241088809e-03
3.271999999999999886e+01,4.015569187592593452e-03
3.275999999999999801e+01,2.473296873452050966e-03
3.279999999999999716e+01,3.828018122006454291e-03
3.284000000000000341e+01,4.386760822182765411e-03
3.288000000000000256e+01,3.417297778265781811e-03
3.292000000000000171e+01,5.185648587133622270e-03
3.296000000000000085e+01,2.274033018392115912e-03
3.300000000000000000e+01,4.424256963989779169e-03
3.303999999999999915e+01,3.327133122241896640e-03
3.307999999999999829e+01,1.147507279127493989e-03
3.311999999999999744e+01,3.870541240442139635e-03
3.315999999999999659e+01,4.142126709455271755e-03
3.320000000000000284e+01,4.509141074127549081e-03
3.324000000000000199e+01,4.525880840230023933e-03
3.328000000000000114e+01,2.950743342738597948e-03
3.332000000000000028e+01,2.871817405754648663e-03
3.335999999999999943e+01,1.296522188504812710e-03
3.339999999999999858e+01,2.554549221530837654e-03
3.343999999999999773e+01,4.894920370499773743e-03
3.347999999999999687e+01,4.051616121366098666e-03
3.352000000000000313e+01,5.404914910121090717e-03
3.356000000000000227e+01,2.683131312315544578e-03
3.360000000000000142e+01,2.985685972858189482e-03
3.364000000000000057e+01,2.046559377703510273e-03
3.367999999999999972e+01,3.877083389075194723e-03
3.371999999999999886e+01,4.720613962236588391e-03
3.375999999999999801e+01,1.489062355918953796e-03
3.379999999999999716e+01,3.765054627911787553e-03
3.384000000000000341e+01,1.679441101771943137e-03
3.388000000000000256e+01,2.108790654585526551e-03
3.392000000000000171e+01,3.333961118851402547e-03
3.396000000000000085e+01,7.551634247380375510e-03
3.400000000000000000e+01,3.205354121643670933e-03
3.403999999999999915e+01,4.525797956874264526e-03
3.407999999999999829e+01,5.750655797931819926e-03
3.411999999999999744e+01,3.186955533743300421e-03
3.415999999999999659e+01,3.838609908722014942e-03
3.420000000000000284e+01,7.132571561311796399e-03
3.424000000000000199e+01,4.791489156659737604e-03
3.428000000000000114e+01,2.545836765906970330e-03
3.432000000000000028e+01,5.043665587913281553e-03
3.435999999999999943e+01,7.032041136847189122e-03
3.439999999999999858e+01,3.417208761036277537e-03
3.443999999999999773e+01,2.922223413811309272e-03
3.447999999999999687e+01,3.127551657371425639e-03
3.452000000000000313e+01,1.963855689065629236e-03
3.456000000000000227e+01,5.288953447362270376e-03
3.460000000000000142e+01,4.188774260772376926e-03
3.464000000000000057e+01,8.918358489385481503e-04
3.467999999999999972e+01,4.216701065686984280e-03
3.471999999999999886e+01,5.503986974183114160e-03
3.475999999999999801e+01,4.339826047029784334e-03
3.479999999999999716e+01,2.538868435056170891e-03
3.484000000000000341e+01,1.501896720277966354e-03
3.488000000000000256e+01,2.852545252533512932e-03
3.492000000000000171e+01,4.648820096499024605e-03
3.496000000000000085e+01,3.802632510905764110e-03
3.500000000000000000e+01,4.962033694613503243e-03
3.503999999999999915e+01,4.847919105362662184e-03
3.507999999999999829e+01,4.033336187542033331e-03
3.511999999999999744e+01,4.492114926139799576e-03
3.515999999999999659e+01,4.887144755636466976e-03
3.520000000000000284e+01,4.104166878335192142e-03
3.524000000000000199e+01,3.957831445065109963e-03
3.528000000000000114e+01,1.264541814062086073e-03
3.532000000000000028e+01,4.142469568852596290e-03
3.535999999999999943e+01,3.645708071115826010e-03
3.539999999999999858e+01,2.735002277625919482e-03
3.543999999999999773e+01,4.052737476838974388e-03
3.547999999999999687e+01,5.211216197785912933e-03
3.552000000000000313e+01,3.631725168506898249e-03
3.556000000000000227e+01,3.643955919543636485e-03
3.560000000000000142e+01,5.343416392807853223e-03
3.564000000000000057e+01,3.031468566822822890e-03
3.567999999999999972e+01,6.481754300368848011e-03
3.571999999999999886e+01,5.443092315021169809e-03
3.575999999999999801e+01,6.123496184397970825e-03
3.579999999999999716e+01,3.843078825640295487e-03
3.584000000000000341e+01,6.083292485638497858e-03
3.588000000000000256e+01,6.699795607270613712e-03
3.592000000000000171e+01,6.520323369579860383e-03
3.596000000000000085e+01,4.780812610019218901e-03
3.600000000000000000e+01,9.121895409638107813e-03
3.603999999999999915e+01,9.801765959320614743e-03
3.607999999999999829e+01,8.348550708409660515e-03
3.611999999999999744e+01,9.664988590419452269e-03
3.615999999999999659e+01,7.511230147732601142e-03
3.620000000000000284e+01,8.700172323771588473e-03
3.624000000000000199e+01,1.097146151489458189e-02
3.628000000000000114e+01,7.862396495661550661e-03
3.632000000000000028e+01,7.682164650589806860e-03
3.635999999999999943e+01,9.762210717627757897e-03
3.639999999999999858e+01,9.581827448075430284e-03
3.643999999999999773e+01,9.847072064052537696e-03
3.647999999999999687e+01,1.125833587727506635e-02
3.652000000000000313e+01,1.139608544994218271e-02
3.656000000000000227e+01,1.067418839228364072e-02
3.660000000000000142e+01,7.787370105611752039e-03
3.664000000000000057e+01,8.879972229881114010e-03
3.667999999999999972e+01,1.032269458768229724e-02
3.671999999999999886e+01,1.001436340953249828e-02
3.675999999999999801e+01,1.448135193736797485e-02
3.679999999999999716e+01,1.506427723435415506e-02
3.684000000000000341e+01,1.405532895379728482e-02
3.688000000000000256e+01,1.298263354504028758e-02
3.692000000000000171e+01,1.388369292673495570e-02
3.696000000000000085e+01,1.430713769424863703e-02
3.700000000000000000e+01,1.415745998850222176e-02
3.703999999999999915e+01,1.639540476626982768e-02
3.707999999999999829e+01,1.436725500112061467e-02
3.711999999999999744e+01,1.829235608748014733e-02
3.715999999999999659e+01,1.766483901226921158e-02
3.720000000000000284e+01,2.009349988970540735e-02
3.724000000000000199e+01,2.042091213445269837e-02
3.728000000000000114e+01,2.125762506813535721e-02
3.732000000000000028e+01,2.282649049999231974e-02
3.735999999999999943e+01,2.455446106846739807e-02
3.739999999999999858e+01,2.777864742191268888e-02
3.743999999999999773e+01,3.189416623194022554e-02
3.747999999999999687e+01,2.891018986518331668e-02
3.752000000000000313e+01,3.286637973588413253e-02
3.756000000000000227e+01,3.386175020076771097e-02
3.760000000000000142e+01,3.784962709879784171e-02
3.764000000000000057e+01,4.365207969861405191e-02
3.767999999999999972e+01,4.518843837675793479e-02
3.771999999999999886e+01,5.707141195044413556e-02
3.775999999999999801e+01,6.526133908826310670e-02
3.779999999999999716e+01,7.026759530094005279e-02
3.784000000000000341e+01,8.148179084527359950e-02
3.788000000000000256e+01,9.422403863840478344e-02
3.792000000000000171e+01,1.123464907083982778e-01
3.796000000000000085e+01,1.404016903536184357e-01
3.800000000000000000e+01,1.677882606604906013e-01
3.803999999999999915e+01,2.160273152487310333e-01
3.807999999999999829e+01,2.817442416755847612e-01
3.811999999999999744e+01,3.894208984761257653e-01
3.815999999999999659e+01,5.260682112243940667e-01
3.820000000000000284e+01,7.191287833708215338e-01
3.824000000000000199e+01,9.056629085303471438e-01
3.828000000000000114e+01,1.000000000000000000e+00
3.832000000000000028e+01,9.657833836992767429e-01
3.835999999999999943e+01,8.374914117484371090e-01
3.839999999999999858e+01,6.719512849836690727e-01
3.843999999999999773e+01,4.990569763014534033e-01
3.847999999999999687e+01,3.712741590820204385e-01
3.852000000000000313e+01,2.779059485113001826e-01
3.856000000000000227e+01,2.092423747470083528e-01
3.860000000000000142e+01,1.685943783810690821e-01
3.864000000000000057e+01,1.371787390241338833e-01
3.867999999999999972e+01,1.130852987077107796e-01
3.871999999999999886e+01,9.548632233558919380e-02
3.875999999999999801e+01,8.269450370709974241e-02
3.879999999999999716e+01,7.480535076415417706e-02
3.884000000000000341e+01,6.223623753179557266e-02
3.888000000000000256e+01,5.619342437623547210e-02
3.892000000000000171e+01,4.900444333242527650e-02
3.896000000000000085e+01,4.490347803041126046e-02
3.900000000000000000e+01,4.369951271061894155e-02
3.903999999999999915e+01,3.826129084414036513e-02
3.907999999999999829e+01,3.387358296647141609e-02
3.911999999999999744e+01,3.158697602447792241e-02
3.915999999999999659e+01,2.955498398333154114e-02
3.920000000000000284e+01,2.612213660919472658e-02
3.924000000000000199e+01,2.415367095834618574e-02
3.928000000000000114e+01,2.466833801081997832e-02
3.932000000000000028e+01,2.467355692584277324e-02
3.935999999999999943e+01,2.009432399035987818e-02
3.939999999999999858e+01,2.458826901663176828e-02
3.943999999999999773e+01,2.281045603314492756e-02
3.947999999999999687e+01,1.775346596350529244e-02
3.952000000000000313e+01,1.753547039123933698e-02
3.956000000000000227e+01,1.394278991515777652e-02
3.960000000000000142e+01,1.445687678215099373e-02
3.964000000000000057e+01,1.723124495739062484e-02
3.967999999999999972e+01,1.513463791196873083e-02
3.971999999999999886e+01,1.357917004870840862e-02
3.975999999999999801e+01,1.622597759468348902e-02
3.979999999999999716e+01,1.708989882693099163e-02
3.984000000000000341e+01,1.521585478191309591e-02
3.988000000000000256e+01,1.222747980946813431e-02
3.992000000000000171e+01,1.293200494261489454e-02
3.996000000000000085e+01,1.271321503215802791e-02
4.000000000000000000e+01,9.788295976932762793e-03
4.003999999999999915e+01,1.189338775848392503e-02
4.007999999999999829e+01,1.119684257760388858e-02
4.011999999999999744e+01,9.545146551953608699e-03
4.015999999999999659e+01,1.219123425019716725e-02
4.020000000000000284e+01,1.264056848006270793e-02
4.024000000000000199e+01,1.082947734930292567e-02
4.028000000000000114e+01,1.242476299539534666e-02
4.032000000000000028e+01,1.032700485626384182e-02
4.035999999999999943e+01,9.470777832254436909e-03
4.039999999999999858e+01,1.265764704598223468e-02
4.043999999999999773e+01,1.052783829031296407e-02
4.047999999999999687e+01,8.620809835396947909e-03
4.052000000000000313e+01,9.706290837017489403e-03
4.056000000000000227e+01,9.486425814297252609e-03
4.060000000000000142e+01,9.489341216579169624e-03
4.064000000000000057e+01,1.286679780162821272e-02
4.067999999999999972e+01,1.022718539547828702e-02
4.071999999999999886e+01,1.035723088512379916e-02
4.075999999999999801e+01,9.945993761473367195e-03
4.079999999999999716e+01,9.057145999606887668e-03
4.084000000000000341e+01,7.181312171631794306e-03
4.088000000000000256e+01,6.738025798181550285e-03
4.092000000000000171e+01,1.008314846622597981e-02
4.096000000000000085e+01,9.385032376557462044e-03
4.100000000000000000e+01,9.801104197344643817e-03
4.103999999999999915e+01,8.848158557123057821e-03
4.107999999999999829e+01,7.003734999786087427e-03
4.111999999999999744e+01,9.425260193502378592e-03
4.115999999999999659e+01,9.395345178177449616e-03
4.120000000000000284e+01,9.078835739790331802e-03
4.124000000000000199e+01,7.074949379157907843e-03
4.128000000000000114e+01,8.891308399598688017e-03
4.132000000000000028e+01,8.479079144486104114e-03
4.135999999999999943e+01,8.544318835939828174e-03
4.139999999999999858e+01,9.628238951516852190e-03
4.143999999999999773e+01,9.152126219257305031e-03
4.147999999999999687e+01,9.885709794944495116e-03
4.152000000000000313e+01,9.950667676918240057e-03
4.156000000000000227e+01,8.933132337781379134e-03
4.160000000000000142e+01,1.023955226995331910e-02
4.164000000000000057e+01,1.036797116335185127e-02
4.167999999999999972e+01,7.949442485625674362e-03
4.171999999999999886e+01,8.077720971279832643e-03
4.175999999999999801e+01,6.263935338446178190e-03
4.179999999999999716e+01,7.474496454302522429e-03
4.184000000000000341e+01,8.239283975598478763e-03
4.188000000000000256e+01,7.093843469487325602e-03
4.192000000000000171e+01,7.540131328883870922e-03
4.196000000000000085e+01,7.222286049650879398e-03
4.200000000000000000e+01,5.439916402904949357e-03
4.203999999999999915e+01,8.210020161273466968e-03
4.207999999999999829e+01,9.197239966643594444e-03
4.211999999999999744e+01,5.791026580223662852e-03
4.215999999999999659e+01,6.618927054849028241e-03
4.220000000000000284e+01,8.465508781923727216e-03
4.224000000000000199e+01,9.229597991964946790e-03
4.228000000000000114e+01,6.937364782817115501e-03
4.232000000000000028e+01,9.961668472661139306e-03
4.235999999999999943e+01,8.751719053371938631e-03
4.239999999999999858e+01,7.732715955986652935e-03
4.243999999999999773e+01,8.464621596680019927e-03
4.247999999999999687e+01,6.363056793088459236e-03
4.252000000000000313e+01,1.120166340399230201e-02
4.256000000000000227e+01,1.005503893709517108e-02
4.260000000000000142e+01,9.576900501660542270e-03
4.264000000000000057e+01,8.366465598505299153e-03
4.267999999999999972e+01,7.792680842813352708e-03
4.271999999999999886e+01,7.664530475010171082e-03
4.275999999999999801e+01,8.937093541466201857e-03
4.279999999999999716e+01,1.033693141032555364e-02
4.284000000000000341e+01,8.393923738337832896e-03
4.288000000000000256e+01,8.647528795653334696e-03
4.292000000000000171e+01,1.068387905487489659e-02
4.296000000000000085e+01,9.695743565816336215e-03
4.300000000000000000e+01,1.045851739466464696e-02
4.303999999999999915e+01,1.160325400906852579e-02
4.307999999999999829e+01,1.300260958311705642e-02
4.311999999999999744e+01,1.156849537554149356e-02
4.315999999999999659e+01,1.392279252877349702e-02
4.320000000000000284e+01,1.277506467974611447e-02
4.324000000000000199e+01,1.235949545850567252e-02
4.328000000000000114e+01,1.047940319507391534e-02
4.332000000000000028e+01,1.448889626901406213e-02
4.335999999999999943e+01,1.273601086130189686e-02
4.339999999999999858e+01,1.448501336140885568e-02
4.343999999999999773e+01,1.667965099489801192e-02
4.347999999999999687e+01,1.807832109674529023e-02
4.352000000000000313e+01,2.014547818262999584e-02
4.356000000000000227e+01,1.613189732562585188e-02
4.360000000000000142e+01,2.001356800631138785e-02
4.364000000000000057e+01,2.090258960962573451e-02
4.367999999999999972e+01,2.271478609729715020e-02
4.371999999999999886e+01,2.567300927856457429e-02
4.375999999999999801e+01,2.210479118837938711e-02
4.379999999999999716e+01,2.697303627910607043e-02
4.384000000000000341e+01,2.833925703023418979e-02
4.388000000000000256e+01,2.945072210002412302e-02
4.392000000000000171e+01,3.170821407049155549e-02
4.396000000000000085e+01,3.800880596474704581e-02
4.400000000000000000e+01,3.988413064694683319e-02
4.403999999999999915e+01,4.503849213180394911e-02
4.407999999999999829e+01,4.825079190031873744e-02
4.411999999999999744e+01,5.601556722759564594e-02
4.415999999999999659e+01,6.607246450999283705e-02
4.420000000000000284e+01,7.749824075080431751e-02
4.424000000000000199e+01,8.675910367311601146e-02
4.428000000000000114e+01,1.009226379550048763e-01
4.432000000000000028e+01,1.214532981121502347e-01
4.435999999999999943e+01,1.403602565111854439e-01
4.439999999999999858e+01,1.677355146792088303e-01
4.443999999999999773e+01,1.872790576397527218e-01
4.447999999999999687e+01,2.126166792382458703e-01
4.452000000000000313e+01,2.203489438947281165e-01
4.456000000000000227e+01,2.209180487714476893e-01
4.460000000000000142e+01,2.089118795484140867e-01
4.464000000000000057e+01,1.899335664294412862e-01
4.467999999999999972e+01,1.636329138207957001e-01
4.471999999999999886e+01,1.486976342941629392e-01
4.475999999999999801e+01,1.190222350888794911e-01
4.479999999999999716e+01,1.034182662291448923e-01
4.484000000000000341e+01,8.587223643997769773e-02
4.488000000000000256e+01,7.367458216727744424e-02
4.492000000000000171e+01,6.214541632818518929e-02
4.496000000000000085e+01,5.472302338195211141e-02
4.500000000000000000e+01,4.812829878631864206e-02
4.503999999999999915e+01,4.264776628418733007e-02
4.507999999999999829e+01,3.739001884568394357e-02
4.511999999999999744e+01,3.289626794836545548e-02
4.515999999999999659e+01,2.913467766681637414e-02
4.520000000000000284e+01,2.884314118998819454e-02
4.524000000000000199e+01,2.364879928253260308e-02
4.528000000000000114e+01,2.278408236708923118e-02
4.532000000000000028e+01,2.242867446525783834e-02
4.535999999999999943e+01,2.009937020557396245e-02
4.539999999999999858e+01,1.929812598095241583e-02
4.543999999999999773e+01,1.649114951447918503e-02
4.547999999999999687e+01,1.584895250253696986e-02
4.552000000000000313e+01,1.285082769642581849e-02
4.556000000000000227e+01,1.402314833808199386e-02
4.560000000000000142e+01,9.974304253539418436e-03
4.564000000000000057e+01,1.133750840603714623e-02
4.567999999999999972e+01,1.305084211073453265e-02
4.571999999999999886e+01,1.062543408576343933e-02
4.575999999999999801e+01,1.154273657801424199e-02
4.579999999999999716e+01,9.117196594224297526e-03
4.584000000000000341e+01,8.315225001571393063e-03
4.588000000000000256e+01,8.340922670676742187e-03
4.592000000000000171e+01,8.302882571666100886e-03
4.596000000000000085e+01,5.590555465747789818e-03
4.600000000000000000e+01,8.003753268130266857e-03
4.603999999999999915e+01,9.143446687037076054e-03
4.607999999999999829e+01,6.908461952985431309e-03
4.611999999999999744e+01,6.233373966321346243e-03
4.615999999999999659e+01,4.730485256075761709e-03
4.620000000000000284e+01,9.658396301316462748e-03
4.624000000000000199e+01,6.850101903306661175e-03
4.628000000000000114e+01,2.991155138141651446e-03
4.632000000000000028e+01,6.263399523011526672e-03
4.635999999999999943e+01,6.765849414641338620e-03
4.639999999999999858e+01,4.211981152961142942e-03
4.643999999999999773e+01,5.000824112579965383e-03
4.647999999999999687e+01,7.986283528969169085e-03
4.652000000000000313e+01,5.782415138566371002e-03
4.656000000000000227e+01,4.660904448653361426e-03
4.660000000000000142e+01,4.239719898664816473e-03
4.664000000000000057e+01,5.664956335961983565e-03
4.667999999999999972e+01,4.479578445508534262e-03
4.671999999999999886e+01,5.299801459332426946e-03
4.675999999999999801e+01,5.833435806960021036e-03
4.679999999999999716e+01,4.297667387226587407e-03
4.684000000000000341e+01,6.231954470282421131e-03
4.688000000000000256e+01,4.345860693060549056e-03
4.692000000000000171e+01,3.160093387093548291e-03
4.696000000000000085e+01,2.865668394788536098e-03
4.700000000000000000e+01,2.762194487262123813e-03
4.703999999999999915e+01,5.555728886633993016e-03
4.707999999999999829e+01,5.133766002613964277e-03
4.711999999999999744e+01,3.310955986031207179e-03
4.715999999999999659e+01,2.666012191678189969e-03
4.720000000000000284e+01,4.695225102066036098e-03
4.724000000000000199e+01,4.591363767008541097e-03
4.728000000000000114e+01,4.105406403671274171e-03
4.732000000000000028e+01,4.128760124761055202e-03
4.735999999999999943e+01,5.648339943480130444e-03
4.739999999999999858e+01,4.238946511623966663e-03
4.743999999999999773e+01,4.262107326566092098e-03
4.747999999999999687e+01,5.335790827741147303e-03
4.752000000000000313e+01,5.518003079825365559e-03
4.756000000000000227e+01,1.943507109372620252e-03
4.760000000000000142e+01,3.940241239517978077e-03
4.764000000000000057e+01,3.772065571549206627e-03
4.767999999999999972e+01,5.195624233035557246e-03
4.771999999999999886e+01,6.046071520830626107e-03
4.775999999999999801e+01,2.853287091683989751e-03
4.779999999999999716e+01,3.735442529122153920e-03
4.784000000000000341e+01,2.643704176518525684e-03
4.788000000000000256e+01,4.194287265901069928e-03
4.792000000000000171e+01,4.789727586692189322e-03
4.796000000000000085e+01,5.162252417439669623e-03
4.800000000000000000e+01,4.897994230746366591e-03
4.803999999999999915e+01,3.455741631887895762e-03
4.807999999999999829e+01,2.077097368720940470e-03
4.811999999999999744e+01,3.086087061383541857e-03
4.815999999999999659e+01,4.731732575542738246e-03
4.820000000000000284e+01,4.085125004088818908e-03
4.824000000000000199e+01,2.578882895869289565e-03
4.828000000000000114e+01,4.192502146276026742e-03
4.832000000000000028e+01,3.482032468486744546e-03
4.835999999999999943e+01,3.503726719770980207e-03
4.839999999999999858e+01,4.894304278181134740e-03
4.843999999999999773e+01,3.196729828680863663e-03
4.847999999999999687e+01,3.982297608252270693e-03
4.852000000000000313e+01,4.831474179094518394e-03
4.856000000000000227e+01,3.993281406874639450e-03
4.860000000000000142e+01,3.250533475590005640e-03
4.864000000000000057e+01,3.048933962302176510e-03
4.867999999999999972e+01,3.770514510409106890e-03
4.871999999999999886e+01,1.849646876164987496e-03
4.875999999999999801e+01,3.207820931701781814e-03
4.879999999999999716e+01,1.350499484747638961e-03
4.884000000000000341e+01,2.963235611397834098e-03
4.888000000000000256e+01,2.411063223839252437e-03
4.892000000000000171e+01,4.946916890735959804e-03
4.896000000000000085e+01,2.357117210898665004e-03
4.900000000000000000e+01,3.269211237162718883e-03
4.903999999999999915e+01,1.889053047555984671e-03
4.907999999999999829e+01,4.106296547378613521e-03
4.911999999999999744e+01,2.025622003759363840e-03
4.915999999999999659e+01,5.102311607160515440e-03
4.920000000000000284e+01,2.734988444007421370e-03
4.924000000000000199e+01,2.436940728022287707e-03
4.928000000000000114e+01,4.080824633294180374e-03
4.932000000000000028e+01,2.541049541318865686e-03
4.935999999999999943e+01,3.898285158387334096e-03
4.939999999999999858e+01,2.358385562527429754e-03
4.943999999999999773e+01,3.206121289235034071e-03
4.947999999999999687e+01,4.563170336849974203e-03
4.952000000000000313e+01,2.195349158158532796e-03
4.956000000000000227e+01,3.297586298564862857e-03
4.960000000000000142e+01,1.884720035105985061e-03
4.964000000000000057e+01,3.719060405754856524e-03
4.967999999999999972e+01,2.306070218239612488e-03
4.971999999999999886e+01,1.593409401120345547e-03
4.975999999999999801e+01,4.000611475030507388e-03
4.979999999999999716e+01,3.128647148193654422e-03
4.984000000000000341e+01,1.588065742234083489e-03
4.988000000000000256e+01,3.581214920366295861e-03
4.992000000000000171e+01,5.383286604685464175e-03
4.996000000000000085e+01,1.709510342528317147e-03
5.000000000000000000e+01,2.524543793665994657e-03
5.003999999999999915e+01,3.498695510389380082e-03
5.007999999999999829e+01,2.467119789552052033e-03
5.011999999999999744e+01,8.305992131697307896e-04
5.015999999999999659e+01,3.428200781093006851e-03
5.020000000000000284e+01,3.892731168377256117e-03
5.024000000000000199e+01,2.224190416438790157e-03
5.028000000000000114e+01,1.128635747397295540e-03
5.032000000000000028e+01,1.497474273959607761e-03
5.035999999999999943e+01,3.394377971205634215e-03
5.039999999999999858e+01,4.145125666680086508e-03
5.043999999999999773e+01,4.736632373585219352e-03
5.047999999999999687e+01,3.736279625906113299e-03
5.052000000000000313e+01,4.677859783389391908e-03
5.056000000000000227e+01,5.332855209225027988e-03
5.060000000000000142e+01,2.708685062639686145e-03
5.064000000000000057e+01,2.440315514279101702e-03
5.067999999999999972e+01,4.623254506054969015e-03
5.071999999999999886e+01,3.495192082826973842e-03
5.075999999999999801e+01,1.698513533051184592e-03
5.079999999999999716e+01,2.512323481819786226e-03
5.084000000000000341e+01,2.657517386873205212e-03
5.088000000000000256e+01,3.662221697554347843e-03
5.092000000000000171e+01,2.884051208239762562e-03
5.096000000000000085e+01,4.811877283630181835e-03
5.100000000000000000e+01,2.218935494322265417e-03
5.103999999999999915e+01,5.165391400582567197e-03
5.107999999999999829e+01,2.890688254677438191e-03
5.111999999999999744e+01,2.653426535674622676e-03
5.115999999999999659e+01,4.294426450831409156e-03
5.120000000000000284e+01,2.688097381643544861e-03
5.124000000000000199e+01,3.087373896775100820e-03
5.128000000000000114e+01,3.709441895061315816e-03
5.132000000000000028e+01,1.752736336719688554e-03
5.135999999999999943e+01,2.979567259723162921e-03
5.139999999999999858e+01,2.837391448539961121e-03
5.143999999999999773e+01,2.599647617858582074e-03
5.147999999999999687e+01,3.698954316526536275e-03
5.152000000000000313e+01,4.034137775061014640e-03
5.156000000000000227e+01,2.650119029924183616e-03
5.160000000000000142e+01,3.080690440862663727e-03
5.164000000000000057e+01,5.166672215133720492e-03
5.167999999999999972e+01,3.877981634728529681e-03
5.171999999999999886e+01,3.098606694543565732e-03
5.175999999999999801e+01,3.115071137481356667e-03
5.179999999999999716e+01,4.818782076248745785e-03
5.184000000000000341e+01,4.134735797791042056e-03
5.188000000000000256e+01,4.405708860864019326e-03
5.192000000000000171e+01,4.421934567275414771e-03
5.196000000000000085e+01,2.687122517346713334e-03
5.200000000000000000e+01,3.849323909937691149e-03
5.203999999999999915e+01,3.610683264171018775e-03
5.207999999999999829e+01,3.403819128894210611e-03
5.211999999999999744e+01,4.247482484141320257e-03
5.215999999999999659e+01,4.390695195579384300e-03
5.220000000000000284e+01,3.260409901652229579e-03
5.224000000000000199e+01,2.766784653684438173e-03
5.228000000000000114e+01,2.177592255960797158e-03
5.232000000000000028e+01,2.957287224160618736e-03
5.235999999999999943e+01,3.705087059100806851e-03
5.239999999999999858e+01,3.338568929916308978e-03
5.243999999999999773e+01,4.245430390408764902e-03
5.247999999999999687e+01,3.719614301291087125e-03
5.252000000000000313e+01,3.416590979233424114e-03
5.256000000000000227e+01,2.699641129015969369e-03
5.260000000000000142e+01,3.065055233149858050e-03
5.264000000000000057e+01,4.480997366219579420e-03
5.267999999999999972e+01,2.522268180020588967e-03
5.271999999999999886e+01,3.651568982825529296e-03
5.275999999999999801e+01,1.947409985335043581e-03
5.279999999999999716e+01,3.904328462653589363e-03
5.284000000000000341e+01,5.001617166081186866e-03
5.288000000000000256e+01,4.475212933070836854e-03
5.292000000000000171e+01,2.738983373852308875e-03
5.296000000000000085e+01,2.467149743713480201e-03
5.300000000000000000e+01,4.551119155361193699e-03
5.303999999999999915e+01,4.724872094749928142e-03
5.307999999999999829e+01,3.465948105773040879e-03
5.311999999999999744e+01,4.594663249663405100e-03
5.315999999999999659e+01,3.717654145048285372e-03
5.320000000000000284e+01,5.323792156628416768e-03
5.324000000000000199e+01,3.173227826786411288e-03
5.328000000000000114e+01,4.365381800430997300e-03
5.332000000000000028e+01,4.347710862030416956e-03
5.335999999999999943e+01,2.069628147551410332e-03
5.339999999999999858e+01,4.407702534080085166e-03
5.343999999999999773e+01,3.434778321913396857e-03
5.347999999999999687e+01,3.607890908920279634e-03
5.352000000000000313e+01,4.194813099385535753e-03
5.356000000000000227e+01,2.202964052535840659e-03
5.360000000000000142e+01,3.585669607334947620e-03
5.364000000000000057e+01,2.262260140324477177e-03
5.367999999999999972e+01,4.822780827104296980e-03
5.371999999999999886e+01,4.104139171934662392e-03
5.375999999999999801e+01,5.741301345461295724e-03
5.379999999999999716e+01,5.118052198488822271e-03
5.384000000000000341e+01,3.062126910060470209e-03
5.388000000000000256e+01,4.985639882999320406e-03
5.392000000000000171e+01,3.247959119088564880e-03
5.396000000000000085e+01,4.661981561750704918e-03
5.400000000000000000e+01,3.529069189509001937e-03
5.403999999999999915e+01,4.751960935877674354e-03
5.407999999999999829e+01,5.656435628401440714e-03
5.411999999999999744e+01,4.332335298588322128e-03
5.415999999999999659e+01,3.995092637866881277e-03
5.420000000000000284e+01,3.212089180222212591e-03
5.424000000000000199e+01,2.811060104697556822e-03
5.428000000000000114e+01,4.638491528953857072e-03
5.432000000000000028e+01,2.963909464682593000e-03
5.435999999999999943e+01,3.008412513716030891e-03
5.439999999999999858e+01,2.479811105580520623e-03
5.443999999999999773e+01,2.428692187141935285e-03
5.447999999999999687e+01,4.383182207743185725e-03
5.452000000000000313e+01,3.949917786011556027e-03
5.456000000000000227e+01,3.039056973271605719e-03
5.460000000000000142e+01,4.515836825802047906e-03
5.464000000000000057e+01,4.146073796389195161e-03
5.467999999999999972e+01,4.954184775470760888e-03
5.471999999999999886e+01,5.634895164359072367e-03
5.475999999999999801e+01,4.405390861889368383e-03
5.479999999999999716e+01,4.512940526322016359e-03
5.484000000000000341e+01,2.105392212424968441e-03
5.488000000000000256e+01,4.154822697779734023e-03
5.492000000000000171e+01,4.930757994077778449e-03
5.496000000000000085e+01,5.865816650166616117e-03
5.500000000000000000e+01,5.272692465376901776e-03
5.503999999999999915e+01,3.724432884097427822e-03
5.507999999999999829e+01,4.149946896270506440e-03
5.511999999999999744e+01,4.416224765581537245e-03
5.515999999999999659e+01,3.090648026015625511e-03
5.520000000000000284e+01,4.789431909600720509e-03
5.524000000000000199e+01,4.418821764664394164e-03
5.528000000000000114e+01,5.098742382139809237e-03
5.532000000000000028e+01,4.887199826703170387e-03
5.535999999999999943e+01,3.593178338779960505e-03
5.539999999999999858e+01,4.782306244948590981e-03
5.543999999999999773e+01,3.424500827200253200e-03
5.547999999999999687e+01,4.454336985880938231e-03
5.552000000000000313e+01,4.465366311403870699e-03
5.556000000000000227e+01,6.036302158561526222e-03
5.560000000000000142e+01,3.977881975186047317e-03
5.564000000000000057e+01,5.771558008167812330e-03
5.567999999999999972e+01,6.259903672170804081e-03
5.571999999999999886e+01,4.615183870984368095e-03
5.575999999999999801e+01,5.771973504954540542e-03
5.579999999999999716e+01,5.878120628849261425e-03
5.584000000000000341e+01,5.347492852898299426e-03
5.588000000000000256e+01,6.026576294762611523e-03
5.592000000000000171e+01,4.286070777032776995e-03
5.596000000000000085e+01,5.538090702531893623e-03
5.600000000000000000e+01,3.956654182456000382e-03
5.603999999999999915e+01,3.457585178533368643e-03
5.607999999999999829e+01,4.391079367330170610e-03
5.611999999999999744e+01,5.802057785308542374e-03
5.615999999999999659e+01,6.703605502098859519e-03
5.620000000000000284e+01,5.121892615545542773e-03
5.624000000000000199e+01,6.373525627976245334e-03
5.628000000000000114e+01,5.683109556036582653e-03
5.632000000000000028e+01,6.170569190659715327e-03
5.635999999999999943e+01,6.244106231671714934e-03
5.639999999999999858e+01,6.222080388806917710e-03
5.643999999999999773e+01,6.040819769818024654e-03
5.647999999999999687e+01,5.827668283448560020e-03
5.652000000000000313e+01,5.136922435469547070e-03
5.656000000000000227e+01,6.770147348496099830e-03
5.660000000000000142e+01,6.333979641155495013e-03
5.664000000000000057e+01,6.502640568735605121e-03
5.667999999999999972e+01,6.575738902353039754e-03
5.671999999999999886e+01,4.961476341833860083e-03
5.675999999999999801e+01,3.665518838998068924e-03
5.679999999999999716e+01,5.171071848142719425e-03
5.684000000000000341e+01,5.275787788885906784e-03
5.688000000000000256e+01,5.444121176906953179e-03
5.692000000000000171e+01,6.567479124912674153e-03
5.696000000000000085e+01,6.130820294606812403e-03
5.700000000000000000e+01,7.572429145240584629e-03
5.703999999999999915e+01,5.703043124646112530e-03
5.707999999999999829e+01,5.584581000496646914e-03
5.711999999999999744e+01,5.688916406281860176e-03
5.715999999999999659e+01,4.042219439846186924e-03
5.720000000000000284e+01,5.483557101040206598e-03
5.724000000000000199e+01,6.415465179286306691e-03
5.728000000000000114e+01,5.373489241737785561e-03
5.732000000000000028e+01,5.541226012991391607e-03
5.735999999999999943e+01,6.027268463172904232e-03
5.739999999999999858e+01,6.927124534194045551e-03
5.743999999999999773e+01,6.903683660535307742e-03
5.747999999999999687e+01,4.874523011331649558e-03
5.752000000000000313e+01,5.041990249797580724e-03
5.756000000000000227e+01,7.055889782199543936e-03
5.760000000000000142e+01,6.045318724687737816e-03
5.764000000000000057e+01,5.798757171663214763e-03
5.767999999999999972e+01,5.138274391765508022e-03
5.771999999999999886e+01,6.260552137805432821e-03
5.775999999999999801e+01,7.064416640300176173e-03
5.779999999999999716e+01,7.390688106507043061e-03
5.784000000000000341e+01,5.583896302588473894e-03
5.788000000000000256e+01,5.050489720963865885e-03
5.792000000000000171e+01,5.312928900572467042e-03
5.796000000000000085e+01,5.830002446689872518e-03
5.800000000000000000e+01,6.060498964591730375e-03
5.803999999999999915e+01,5.017503523908386706e-03
5.807999999999999829e+01,8.017622626967526797e-03
5.811999999999999744e+01,6.242293502775560221e-03
5.815999999999999659e+01,6.472577127923169645e-03
5.820000000000000284e+01,4.378782054701242134e-03
5.824000000000000199e+01,5.341186719101046441e-03
5.828000000000000114e+01,6.080686578863012288e-03
5.832000000000000028e+01,5.578530736785707912e-03
5.835999999999999943e+01,5.744877244193685034e-03
5.839999999999999858e+01,6.070350673194388653e-03
5.843999999999999773e+01,4.740300955791255412e-03
5.847999999999999687e+01,5.829731887871581267e-03
5.852000000000000313e+01,6.123210860839389813e-03
5.856000000000000227e+01,5.270542280961140226e-03
5.860000000000000142e+01,7.378565910955941880e-03
5.864000000000000057e+01,6.493955994692601763e-03
5.867999999999999972e+01,5.863981190431510719e-03
5.871999999999999886e+01,5.966181042066050384e-03
5.875999999999999801e+01,5.113249348926850353e-03
5.879999999999999716e+01,5.056164328179487202e-03
5.884000000000000341e+01,5.349222485594990265e-03
5.888000000000000256e+01,5.164688724962752768e-03
5.892000000000000171e+01,6.603736898598164436e-03
5.896000000000000085e+01,4.859136056315029907e-03
5.900000000000000000e+01,6.043391871236155656e-03
5.903999999999999915e+01,4.362358421389381929e-03
5.907999999999999829e+01,6.979128285347057856e-03
5.911999999999999744e+01,5.807365929247123790e-03
5.915999999999999659e+01,3.744144376200080233e-03
5.920000000000000284e+01,5.119155156747661958e-03
5.924000000000000199e+01,4.679463785058420207e-03
5.928000000000000114e+01,5.990698587710760296e-03
5.932000000000000028e+01,5.996606790267748621e-03
5.935999999999999943e+01,6.734690311381179295e-03
5.939999999999999858e+01,6.453971016718110590e-03
5.943999999999999773e+01,5.345464748685649359e-03
5.947999999999999687e+01,5.510345359599220019e-03
5.952000000000000313e+01,6.375565487902635532e-03
5.956000000000000227e+01,5.967295231440309690e-03
5.960000000000000142e+01,6.800576011341111227e-03
5.964000000000000057e+01,5.500795384850053898e-03
5.967999999999999972e+01,6.747840517658710777e-03
5.971999999999999886e+01,4.970417255617573526e-03
5.975999999999999801e+01,6.153687404522226179e-03
5.979999999999999716e+01,6.445499019140602665e-03
5.984000000000000341e+01,4.954445069598476317e-03
5.988000000000000256e+01,5.914709185942168546e-03
5.992000000000000171e+01,6.588398262052772361e-03
5.996000000000000085e+01,6.911840405682982691e-03
