2.003999999999999915e+01,3.907942500784741986e-03
2.007999999999999829e+01,9.931387457952607981e-04
2.012000000000000099e+01,4.457242194206743717e-03
2.016000000000000014e+01,3.972359439730920039e-03
2.019999999999999929e+01,1.816702329350601813e-03
2.023999999999999844e+01,3.913621578464763877e-03
2.028000000000000114e+01,1.909674001176459631e-03
2.032000000000000028e+01,2.943256602356641993e-03
2.035999999999999943e+01,3.571738282724329274e-03
2.039999999999999858e+01,3.390103666678558492e-03
2.044000000000000128e+01,4.322176100106272720e-03
2.048000000000000043e+01,3.634101485918533100e-03
2.051999999999999957e+01,5.325407247850298328e-03
2.055999999999999872e+01,5.042177569516596326e-03
2.060000000000000142e+01,5.467639727724423956e-03
2.064000000000000057e+01,3.867939625384786417e-03
2.067999999999999972e+01,3.837589256408683105e-03
2.071999999999999886e+01,3.756526955723109209e-03
2.076000000000000156e+01,5.649829926671064845e-03
2.080000000000000071e+01,3.594147562299576919e-03
2.083999999999999986e+01,2.955934361999627228e-03
2.087999999999999901e+01,4.393340453458221412e-03
2.092000000000000171e+01,4.564988594850353729e-03
2.096000000000000085e+01,4.685925129871055389e-03
2.100000000000000000e+01,2.174176747615313727e-03
2.103999999999999915e+01,3.661871165674117357e-03
2.107999999999999829e+01,2.921896204726484678e-03
2.112000000000000099e+01,3.498136929955414105e-03
2.116000000000000014e+01,2.656739244271911701e-03
2.119999999999999929e+01,2.929049638298973982e-03
2.123999999999999844e+01,3.302529591699601003e-03
2.128000000000000114e+01,1.093951936112808054e-03
2.132000000000000028e+01,3.188579032769588671e-03
2.135999999999999943e+01,4.017448775812947591e-03
2.139999999999999858e+01,1.859245642713884756e-03
2.144000000000000128e+01,7.041863148207382767e-03
2.148000000000000043e+01,3.111549509916511271e-03
2.151999999999999957e+01,2.168140748056211851e-03
2.155999999999999872e+01,4.110383059393491433e-03
2.160000000000000142e+01,4.128718268991378622e-03
2.164000000000000057e+01,3.590073506728859876e-03
2.167999999999999972e+01,1.481910252268943927e-03
2.171999999999999886e+01,3.879460007194622008e-03
2.176000000000000156e+01,4.201222091088907366e-03
2.180000000000000071e+01,2.649704273086799389e-03
2.183999999999999986e+01,4.692614910035297453e-03
2.187999999999999901e+01,2.634660889501418309e-03
2.192000000000000171e+01,4.272389289820146749e-03
2.196000000000000085e+01,3.581195646582492967e-03
2.200000000000000000e+01,2.636784091859473676e-03
2.203999999999999915e+01,4.173008831186058101e-03
2.207999999999999829e+01,6.772315914401262280e-03
2.212000000000000099e+01,4.966997093104125009e-03
2.216000000000000014e+01,2.199683575021611510e-03
2.219999999999999929e+01,5.963160866120707608e-03
2.223999999999999844e+01,2.790665978976467499e-03
2.228000000000000114e+01,2.655703927227868414e-03
2.232000000000000028e+01,3.887586117073888944e-03
2.235999999999999943e+01,6.135888702895844109e-04
2.239999999999999858e+01,2.908471057969897692e-03
2.244000000000000128e+01,2.266908708033866116e-03
2.248000000000000043e+01,7.646059525524991334e-04
2.251999999999999957e+01,3.109867217452770300e-03
2.255999999999999872e+01,2.670564893589704673e-03
2.260000000000000142e+01,4.408138050530301111e-03
2.264000000000000057e+01,3.462401584609568154e-03
2.267999999999999972e+01,3.883509848290491069e-03
2.271999999999999886e+01,2.228831742292095106e-03
2.276000000000000156e+01,3.358552478725357858e-03
2.280000000000000071e+01,5.551356535061292494e-03
2.283999999999999986e+01,4.200193451274916376e-03
2.287999999999999901e+01,3.608352223469214488e-03
2.292000000000000171e+01,2.257025044027199164e-03
2.296000000000000085e+01,3.082573833395855709e-03
2.300000000000000000e+01,3.503025280670205282e-03
2.303999999999999915e+01,4.986560373185243249e-03
2.307999999999999829e+01,3.179263294555975412e-03
2.312000000000000099e+01,4.055111688909403614e-03
2.316000000000000014e+01,4.728370672972527500e-03
2.319999999999999929e+01,2.971455436936356904e-03
2.323999999999999844e+01,1.923235616159897762e-03
2.328000000000000114e+01,4.216311558722114078e-03
2.332000000000000028e+01,4.737363517318057826e-03
2.335999999999999943e+01,4.549557049458704573e-03
2.339999999999999858e+01,3.804772995551071804e-03
2.344000000000000128e+01,2.958653768370163827e-03
2.348000000000000043e+01,2.517468709418968584e-03
2.351999999999999957e+01,4.253160378400480841e-03
2.355999999999999872e+01,3.103035956737731655e-03
2.360000000000000142e+01,2.003457364877727145e-03
2.364000000000000057e+01,1.966963231603426066e-03
2.367999999999999972e+01,2.031641965305865886e-03
2.371999999999999886e+01,4.627586199152022503e-03
2.376000000000000156e+01,2.920160609084938939e-03
2.380000000000000071e+01,4.756539202167575815e-03
2.383999999999999986e+01,7.250987095126961400e-03
2.387999999999999901e+01,3.670122821362109024e-03
2.392000000000000171e+01,2.671151247584001125e-03
2.396000000000000085e+01,3.292160782183635708e-03
2.400000000000000000e+01,3.811835902632025944e-03
2.403999999999999915e+01,4.483311306792165697e-03
2.407999999999999829e+01,2.015836681567085339e-03
2.412000000000000099e+01,2.484643528539752684e-03
2.416000000000000014e+01,2.497727677157180089e-03
2.419999999999999929e+01,5.497720335146363130e-03
2.423999999999999844e+01,2.422401314418350105e-03
2.428000000000000114e+01,1.827721624228085054e-03
2.432000000000000028e+01,3.055531245334593138e-03
2.435999999999999943e+01,3.371976080648885193e-03
2.439999999999999858e+01,4.599625618601950461e-03
2.444000000000000128e+01,2.789579472632808255e-03
2.448000000000000043e+01,2.599515139940450012e-03
2.451999999999999957e+01,2.662505599091875407e-03
2.455999999999999872e+01,3.332939405406095019e-03
2.460000000000000142e+01,4.458935826922093976e-03
2.464000000000000057e+01,3.812910053830909432e-03
2.467999999999999972e+01,2.407400714915521392e-03
2.471999999999999886e+01,3.533158231718925082e-03
2.476000000000000156e+01,2.583132144216137866e-03
2.480000000000000071e+01,4.214999949606149446e-03
2.483999999999999986e+01,3.619203472951978019e-03
2.487999999999999901e+01,4.187746993252612973e-03
2.492000000000000171e+01,4.503076560347070781e-03
2.496000000000000085e+01,4.413311442274336568e-03
2.500000000000000000e+01,2.956540047425431326e-03
2.503999999999999915e+01,4.537305229359346777e-03
2.507999999999999829e+01,2.979121737483087558e-03
2.512000000000000099e+01,4.053459501011640737e-03
2.516000000000000014e+01,2.646998772640048094e-03
2.519999999999999929e+01,4.024940194303268208e-03
2.523999999999999844e+01,4.390264165624334185e-03
2.528000000000000114e+01,2.882312952450242962e-03
2.532000000000000028e+01,2.690583118867990835e-03
2.535999999999999943e+01,5.435136438396566579e-03
2.539999999999999858e+01,3.724441370971008462e-03
2.544000000000000128e+01,2.671817772342300300e-03
2.548000000000000043e+01,4.403596703309423793e-03
2.551999999999999957e+01,3.047054485647417675e-03
2.555999999999999872e+01,2.702972400547273401e-03
2.560000000000000142e+01,3.270096644775976214e-03
2.564000000000000057e+01,3.381500196900548774e-03
2.567999999999999972e+01,2.733421538775987134e-03
2.571999999999999886e+01,2.085264655545283723e-03
2.576000000000000156e+01,4.019002966559452952e-03
2.580000000000000071e+01,3.168182080873499160e-03
2.583999999999999986e+01,1.507252273102425814e-03
2.587999999999999901e+01,3.238248681893219835e-03
2.592000000000000171e+01,2.083432199196904710e-03
2.596000000000000085e+01,3.358630395676467754e-03
2.600000000000000000e+01,3.671839100778916121e-03
2.603999999999999915e+01,1.959892865439260591e-03
2.607999999999999829e+01,1.311034396288496577e-03
2.612000000000000099e+01,2.990936965749615289e-03
2.616000000000000014e+01,2.696311686165632406e-03
2.619999999999999929e+01,2.148474188511554500e-03
2.623999999999999844e+01,2.866232388850382690e-03
2.628000000000000114e+01,2.419493762461109431e-03
2.632000000000000028e+01,2.225812367950742113e-03
2.635999999999999943e+01,5.829073270502280885e-03
2.639999999999999858e+01,2.850756135098751060e-03
2.644000000000000128e+01,3.011231331739120179e-03
2.648000000000000043e+01,2.310971545134419582e-03
2.651999999999999957e+01,2.724427049899632788e-03
2.655999999999999872e+01,2.631536180961765829e-03
2.660000000000000142e+01,3.095464495831827447e-03
2.664000000000000057e+01,3.711196618908825171e-03
2.667999999999999972e+01,5.298321636317580375e-04
2.671999999999999886e+01,3.069233785087603639e-03
2.676000000000000156e+01,2.419062081371400972e-03
2.680000000000000071e+01,1.993788260021443152e-04
2.683999999999999986e+01,1.726011589642810875e-03
2.687999999999999901e+01,4.518240918844426517e-03
2.692000000000000171e+01,2.247700776829993606e-03
2.696000000000000085e+01,3.369088315398509944e-03
2.700000000000000000e+01,1.857799070140992662e-03
2.703999999999999915e+01,2.320883609528414868e-03
2.707999999999999829e+01,2.125741693927798472e-03
2.712000000000000099e+01,3.196196669226137720e-03
2.716000000000000014e+01,2.646513652150449172e-03
2.719999999999999929e+01,2.805531418411719765e-03
2.723999999999999844e+01,4.533907810608953440e-03
2.728000000000000114e+01,2.161426865429182456e-03
2.732000000000000028e+01,2.877112516471365053e-03
2.735999999999999943e+01,2.732064377174527482e-03
2.739999999999999858e+01,3.093209577417671812e-03
2.744000000000000128e+01,2.846755739407797435e-03
2.748000000000000043e+01,1.992702917367916281e-03
2.751999999999999957e+01,3.619293817929001428e-03
2.755999999999999872e+01,2.562581765058094974e-03
2.760000000000000142e+01,2.720840325034172297e-03
2.764000000000000057e+01,3.537173336072242311e-03
2.767999999999999972e+01,4.150923064019314962e-03
2.771999999999999886e+01,2.840773986346391278e-03
2.776000000000000156e+01,1.733057163852481366e-03
2.780000000000000071e+01,2.498461298784558290e-03
2.783999999999999986e+01,2.858774652605641960e-03
2.787999999999999901e+01,1.548324061338749412e-03
2.792000000000000171e+01,1.908486875254863848e-03
2.796000000000000085e+01,3.281113075112988744e-03
2.800000000000000000e+01,3.944887138384130763e-03
2.803999999999999915e+01,2.684762829819318554e-03
2.807999999999999829e+01,2.588982856049513483e-03
2.812000000000000099e+01,2.796889482921736340e-03
2.816000000000000014e+01,2.295944190098991519e-03
2.819999999999999929e+01,2.959343394740279222e-03
2.823999999999999844e+01,4.432698649972584976e-03
2.828000000000000114e+01,2.260840281954959452e-03
2.832000000000000028e+01,2.367119006086359275e-03
2.835999999999999943e+01,2.878338513653798565e-03
2.839999999999999858e+01,3.237602642872285368e-03
2.844000000000000128e+01,2.736134445772823477e-03
2.848000000000000043e+01,3.804026555522399197e-03
2.851999999999999957e+01,2.543005514288050172e-03
2.855999999999999872e+01,2.901971817076746257e-03
2.860000000000000142e+01,1.590175150791506113e-03
2.864000000000000057e+01,3.467800727543312971e-03
2.867999999999999972e+01,1.193943935995205648e-03
2.871999999999999886e+01,3.020794213034143968e-03
2.876000000000000156e+01,3.075627880435167095e-03
2.880000000000000071e+01,2.775998996805254231e-03
2.883999999999999986e+01,2.729430761103420443e-03
2.887999999999999901e+01,1.214607650800667189e-03
2.892000000000000171e+01,2.534818661999986393e-03
2.896000000000000085e+01,2.538655693228393431e-03
2.900000000000000000e+01,3.301822876556881597e-03
2.903999999999999915e+01,3.609273976736456988e-03
2.907999999999999829e+01,1.739693471238137109e-03
2.912000000000000099e+01,4.477089863836888374e-03
2.916000000000000014e+01,2.961750681355753475e-03
2.919999999999999929e+01,2.509503494457709320e-03
2.923999999999999844e+01,3.525363787189767038e-03
2.928000000000000114e+01,2.617327388998933781e-03
2.932000000000000028e+01,3.025517792700204659e-03
2.935999999999999943e+01,2.269215544844583720e-03
2.939999999999999858e+01,3.335409494607072430e-03
2.944000000000000128e+01,3.135857043802682976e-03
2.948000000000000043e+01,3.189366108494405636e-03
2.951999999999999957e+01,3.495936742905246270e-03
2.955999999999999872e+01,1.777357208498220017e-03
2.960000000000000142e+01,1.273750998088316131e-03
2.964000000000000057e+01,1.985118165898530282e-03
2.967999999999999972e+01,2.392650904311879358e-03
2.971999999999999886e+01,1.331929906807369354e-03
2.976000000000000156e+01,2.701228739663981502e-03
2.980000000000000071e+01,3.412304804696744253e-03
2.983999999999999986e+01,2.047604151744641336e-03
2.987999999999999901e+01,2.454773418358687908e-03
2.992000000000000171e+01,3.469393298017872836e-03
2.996000000000000085e+01,1.750086548897219867e-03
3.000000000000000000e+01,1.650769095827714318e-03
3.003999999999999915e+01,2.817052491936353209e-03
3.007999999999999829e+01,1.856932566670160172e-03
3.012000000000000099e+01,1.656144311748120827e-03
3.016000000000000014e+01,3.429734070865242748e-03
3.019999999999999929e+01,1.861874381804540799e-03
3.023999999999999844e+01,2.268392815228996006e-03
3.028000000000000114e+01,2.472331490057623742e-03
3.032000000000000028e+01,1.258644171041428802e-03
3.035999999999999943e+01,1.664946636083406914e-03
3.039999999999999858e+01,1.564907932830560990e-03
3.044000000000000128e+01,2.730470620985897285e-03
3.048000000000000043e+01,3.085930676924412107e-03
3.051999999999999957e+01,1.314988007941123461e-03
3.055999999999999872e+01,1.670304681411022068e-03
3.060000000000000142e+01,2.936834462085107737e-03
3.064000000000000057e+01,3.950158043442385594e-03
3.067999999999999972e+01,1.571405898569873567e-03
3.071999999999999886e+01,2.179571101418549713e-03
3.076000000000000156e+01,2.230768695251433408e-03
3.080000000000000071e+01,1.775625663019524993e-03
3.083999999999999986e+01,2.079815277145815895e-03
3.087999999999999901e+01,2.991456805669312925e-03
3.092000000000000171e+01,2.586727011149035291e-03
3.096000000000000085e+01,2.131299166007968350e-03
3.100000000000000000e+01,2.789592685213119344e-03
3.103999999999999915e+01,3.397188262243488847e-03
3.107999999999999829e+01,2.739039661850087293e-03
3.112000000000000099e+01,2.941477944831913729e-03
3.116000000000000014e+01,3.143845377035960759e-03
3.119999999999999929e+01,3.548649727597240344e-03
3.123999999999999844e+01,2.788963975082757799e-03
3.128000000000000114e+01,1.573565175907522999e-03
3.132000000000000028e+01,1.218753531222515349e-03
3.135999999999999943e+01,2.635813812354744108e-03
3.139999999999999858e+01,2.280861062567228221e-03
3.144000000000000128e+01,2.786495629938953375e-03
3.148000000000000043e+01,2.544440566369461556e-04
3.151999999999999957e+01,3.493791995556164848e-03
3.155999999999999872e+01,3.341065401151648191e-03
3.160000000000000142e+01,1.720087619310396720e-03
3.164000000000000057e+01,2.681013002495396570e-03
3.167999999999999972e+01,3.540614382345663464e-03
3.171999999999999886e+01,2.729457022516204850e-03
3.176000000000000156e+01,1.766348839070009703e-03
3.180000000000000071e+01,2.575113177894083980e-03
3.183999999999999986e+01,2.877538300451431327e-03
3.187999999999999901e+01,1.256070256581068431e-03
3.192000000000000171e+01,6.470709667299748497e-04
3.196000000000000085e+01,3.126244562969149841e-03
3.200000000000000000e+01,2.770240438345620854e-03
3.203999999999999915e+01,2.667301299490378204e-03
3.207999999999999829e+01,2.209904055890430253e-03
3.211999999999999744e+01,2.866229694880773234e-03
3.215999999999999659e+01,3.269351195028406820e-03
3.220000000000000284e+01,3.368641681828343695e-03
3.224000000000000199e+01,1.746547205119589920e-03
3.228000000000000114e+01,1.238175827893130783e-03
3.232000000000000028e+01,1.489139103275973711e-03
3.235999999999999943e+01,2.398183228035115008e-03
3.239999999999999858e+01,2.800888895649581919e-03
3.243999999999999773e+01,2.596002302886364459e-03
3.247999999999999687e+01,2.593554363616455173e-03
3.252000000000000313e+01,2.186021987326879773e-03
3.256000000000000227e+01,1.120270584600617514e-03
3.260000000000000142e+01,1.168242715140680290e-03
3.264000000000000057e+01,1.266772929882066740e-03
3.267999999999999972e+01,1.770249784143782456e-03
3.271999999999999886e+01,2.223030973596835502e-03
3.275999999999999801e+01,2.726370409920215489e-03
3.279999999999999716e+01,1.710833356768945695e-03
3.284000000000000341e+01,1.809020162222006387e-03
3.288000000000000256e+01,2.615915450678411164e-03
3.292000000000000171e+01,2.663338343249160769e-03
3.296000000000000085e+01,2.660065896349265296e-03
3.300000000000000000e+01,2.352963520561720048e-03
3.303999999999999915e+01,1.438269697741527799e-03
3.307999999999999829e+01,2.852346348335684477e-03
3.311999999999999744e+01,2.798173871967204324e-03
3.315999999999999659e+01,1.883275467595091996e-03
3.320000000000000284e+01,3.094639984394337903e-03
3.324000000000000199e+01,1.572082318699960556e-03
3.328000000000000114e+01,2.074533825166937750e-03
3.332000000000000028e+01,1.412498048154299003e-03
3.335999999999999943e+01,1.560425262277026969e-03
3.339999999999999858e+01,3.783988739958123702e-03
3.343999999999999773e+01,2.463599446612627000e-03
3.347999999999999687e+01,4.990789030751483640e-03
3.352000000000000313e+01,1.392052587181758254e-03
3.356000000000000227e+01,2.653433704102401130e-03
3.360000000000000142e+01,4.721161243444482757e-04
3.364000000000000057e+01,1.733362209138870945e-03
3.367999999999999972e+01,2.235136928284696053e-03
3.371999999999999886e+01,3.192486625476920713e-03
3.375999999999999801e+01,3.795380495290548266e-03
3.379999999999999716e+01,4.701968665412571344e-03
3.384000000000000341e+01,2.874635466386019599e-03
3.388000000000000256e+01,1.452250533569871211e-03
3.392000000000000171e+01,1.194217852107135307e-03
3.396000000000000085e+01,3.518091480604802583e-03
3.400000000000000000e+01,1.336101451365904634e-03
3.403999999999999915e+01,3.690907648774165899e-04
3.407999999999999829e+01,2.642136624482348869e-03
3.411999999999999744e+01,1.978753779587713590e-03
3.415999999999999659e+01,2.732858155024495746e-03
3.420000000000000284e+01,1.765580223879719118e-03
3.424000000000000199e+01,2.671431980064371825e-03
3.428000000000000114e+01,1.299005322105463607e-03
3.432000000000000028e+01,1.394693030097993560e-03
3.435999999999999943e+01,3.717899089184954764e-03
3.439999999999999858e+01,2.902169108421372157e-03
3.443999999999999773e+01,2.744522796630233675e-03
3.447999999999999687e+01,2.586810134570542360e-03
3.452000000000000313e+01,2.834046606289303705e-03
3.456000000000000227e+01,3.638113052193517848e-03
3.460000000000000142e+01,1.303243729362199045e-03
3.464000000000000057e+01,2.613447141570329757e-03
3.467999999999999972e+01,6.834610360329296860e-04
3.471999999999999886e+01,2.347920845252986829e-03
3.475999999999999801e+01,3.455418467757511141e-03
3.479999999999999716e+01,3.044042311937512988e-03
3.484000000000000341e+01,0.000000000000000000e+00
3.488000000000000256e+01,2.575480968831940672e-03
3.492000000000000171e+01,2.214534317624369721e-03
3.496000000000000085e+01,2.663552826472276921e-03
3.500000000000000000e+01,2.201220972846670235e-03
3.503999999999999915e+01,3.460139104826545978e-03
3.507999999999999829e+01,3.706453125322915418e-03
3.511999999999999744e+01,3.092043874742778694e-03
3.515999999999999659e+01,3.338226984061131320e-03
3.520000000000000284e+01,1.711148356188994107e-03
3.524000000000000199e+01,2.564723915957342181e-03
3.528000000000000114e+01,2.203187920445195003e-03
3.532000000000000028e+01,1.942840570803554528e-03
3.535999999999999943e+01,1.479920348887428082e-03
3.539999999999999858e+01,3.143266030407797836e-03
3.543999999999999773e+01,3.388992658627687938e-03
3.547999999999999687e+01,2.672742646322097924e-03
3.552000000000000313e+01,2.158935408458024629e-03
3.556000000000000227e+01,3.923275077106467418e-03
3.560000000000000142e+01,3.308084263514437899e-03
3.564000000000000057e+01,3.199097959400935571e-03
3.567999999999999972e+01,2.533150715700962109e-03
3.571999999999999886e+01,3.689708236853515410e-03
3.575999999999999801e+01,2.669243207569611635e-03
3.579999999999999716e+01,3.623163837768235852e-03
3.584000000000000341e+01,3.311346743080406836e-03
3.588000000000000256e+01,2.796957481017118587e-03
3.592000000000000171e+01,1.472472961065382936e-03
3.596000000000000085e+01,2.071747388760179949e-03
3.600000000000000000e+01,3.379734528852531769e-03
3.603999999999999915e+01,3.573865001357437021e-03
3.607999999999999829e+01,3.464169720145896924e-03
3.611999999999999744e+01,4.468202743824915835e-03
3.615999999999999659e+01,4.257125405129497282e-03
3.620000000000000284e+01,3.995357119026644171e-03
3.624000000000000199e+01,3.885405654651355456e-03
3.628000000000000114e+01,4.332286496050632291e-03
3.632000000000000028e+01,3.867818764335487994e-03
3.635999999999999943e+01,2.998271801008917017e-03
3.639999999999999858e+01,3.596842023229916089e-03
3.643999999999999773e+01,4.549737053205496311e-03
3.647999999999999687e+01,4.591283726958658891e-03
3.652000000000000313e+01,4.025243671080411256e-03
3.656000000000000227e+01,3.813528585625746304e-03
3.660000000000000142e+01,6.335604175033666269e-03
3.664000000000000057e+01,4.959342830159189919e-03
3.667999999999999972e+01,5.354960622761303218e-03
3.671999999999999886e+01,4.535468812111017288e-03
3.675999999999999801e+01,4.374063815367333630e-03
3.679999999999999716e+01,5.528895760217246609e-03
3.684000000000000341e+01,4.456079689923773436e-03
3.688000000000000256e+01,6.724577818789897674e-03
3.692000000000000171e+01,4.537843176926648417e-03
3.696000000000000085e+01,5.236780484117005939e-03
3.700000000000000000e+01,6.492551073095976372e-03
3.703999999999999915e+01,6.533212492606567563e-03
3.707999999999999829e+01,7.687603518359773826e-03
3.711999999999999744e+01,7.778766269274614217e-03
3.715999999999999659e+01,7.464850873038088308e-03
3.720000000000000284e+01,7.606515172249183991e-03
3.724000000000000199e+01,8.355640007314906609e-03
3.728000000000000114e+01,9.762852361186269076e-03
3.732000000000000028e+01,8.942417350590273206e-03
3.735999999999999943e+01,8.526935323605919215e-03
3.739999999999999858e+01,9.528944909016201850e-03
3.743999999999999773e+01,1.022713058429213472e-02
3.747999999999999687e+01,1.067211933238471425e-02
3.752000000000000313e+01,1.516720014939692412e-02
3.756000000000000227e+01,1.333385270031182436e-02
3.760000000000000142e+01,1.428492421039236418e-02
3.764000000000000057e+01,1.756477237530955013e-02
3.767999999999999972e+01,1.892073523613440819e-02
3.771999999999999886e+01,1.880845520564193574e-02
3.775999999999999801e+01,2.269564064067911349e-02
3.779999999999999716e+01,2.855721444634895523e-02
3.784000000000000341e+01,2.986230287096248645e-02
3.788000000000000256e+01,3.754632257399066753e-02
3.792000000000000171e+01,4.811601552742451882e-02
3.796000000000000085e+01,5.645806198395904307e-02
3.800000000000000000e+01,7.290035545832923569e-02
3.803999999999999915e+01,1.017968118753660306e-01
3.807999999999999829e+01,1.510452321708604384e-01
3.811999999999999744e+01,2.324923177213874259e-01
3.815999999999999659e+01,4.035996326874496942e-01
3.820000000000000284e+01,6.531279989456542090e-01
3.824000000000000199e+01,8.914171257729366360e-01
3.828000000000000114e+01,1.000000000000000000e+00
3.832000000000000028e+01,9.675361896459960809e-01
3.835999999999999943e+01,8.072393231631554977e-01
3.839999999999999858e+01,5.972773785617325748e-01
3.843999999999999773e+01,3.998202243739343853e-01
3.847999999999999687e+01,2.503067107635837396e-01
3.852000000000000313e+01,1.566852655951995466e-01
3.856000000000000227e+01,1.068054260282848417e-01
3.860000000000000142e+01,7.859385119165480937e-02
3.864000000000000057e+01,6.101387067682842447e-02
3.867999999999999972e+01,4.859777623540475350e-02
3.871999999999999886e+01,4.043428320450279806e-02
3.875999999999999801e+01,3.470082220413755331e-02
3.879999999999999716e+01,3.144802021726005037e-02
3.884000000000000341e+01,2.647384221366928456e-02
3.888000000000000256e+01,2.230963468398825325e-02
3.892000000000000171e+01,2.391683669778394555e-02
3.896000000000000085e+01,1.944874698692741419e-02
3.900000000000000000e+01,1.644877798611362255e-02
3.903999999999999915e+01,1.608134911030956876e-02
3.907999999999999829e+01,1.510633697514627942e-02
3.911999999999999744e+01,1.448565328067874178e-02
3.915999999999999659e+01,1.204234014582596969e-02
3.920000000000000284e+01,1.061150563357895864e-02
3.924000000000000199e+01,1.191446537491270240e-02
3.928000000000000114e+01,9.724107190506231513e-03
3.932000000000000028e+01,8.951243221198520658e-03
3.935999999999999943e+01,8.583334946652582467e-03
3.939999999999999858e+01,9.683547924379415708e-03
3.943999999999999773e+01,1.007492427329802209e-02
3.947999999999999687e+01,8.896806259255429783e-03
3.952000000000000313e+01,8.224898014322610390e-03
3.956000000000000227e+01,9.021111238554575459e-03
3.960000000000000142e+01,6.577141614470342554e-03
3.964000000000000057e+01,8.082013075668885091e-03
3.967999999999999972e+01,5.992313295901236653e-03
3.971999999999999886e+01,7.294558493854371058e-03
3.975999999999999801e+01,5.356621060383322253e-03
3.979999999999999716e+01,5.595582423607060873e-03
3.984000000000000341e+01,5.480096201348610800e-03
3.988000000000000256e+01,6.073327951118964729e-03
3.992000000000000171e+01,5.552708292933134296e-03
3.996000000000000085e+01,6.196449073774110659e-03
4.000000000000000000e+01,5.371950054008911395e-03
4.003999999999999915e+01,4.446138363516528164e-03
4.007999999999999829e+01,4.735314203447962486e-03
4.011999999999999744e+01,6.087596841842216402e-03
4.015999999999999659e+01,5.212235965602309874e-03
4.020000000000000284e+01,5.551862782455223300e-03
4.024000000000000199e+01,5.840804128423969163e-03
4.028000000000000114e+01,3.345205906419559602e-03
4.032000000000000028e+01,5.203465121312970953e-03
4.035999999999999943e+01,4.530319520319233545e-03
4.039999999999999858e+01,3.806488665333336834e-03
4.043999999999999773e+01,4.196391971322281124e-03
4.047999999999999687e+01,4.333102416853074762e-03
4.052000000000000313e+01,3.912858483780719439e-03
4.056000000000000227e+01,4.454468088168214539e-03
4.060000000000000142e+01,4.287242636214568144e-03
4.064000000000000057e+01,3.866824540694781525e-03
4.067999999999999972e+01,3.193213855831856639e-03
4.071999999999999886e+01,4.139606998784788917e-03
4.075999999999999801e+01,5.693465449216588391e-03
4.079999999999999716e+01,3.348992604558266150e-03
4.084000000000000341e+01,3.586435396216811327e-03
4.088000000000000256e+01,3.317551226007227870e-03
4.092000000000000171e+01,3.706759508896520419e-03
4.096000000000000085e+01,2.880863936171703093e-03
4.100000000000000000e+01,3.320584069727758412e-03
4.103999999999999915e+01,3.203350529579698010e-03
4.107999999999999829e+01,3.440448087054527246e-03
4.111999999999999744e+01,4.234384511287240735e-03
4.115999999999999659e+01,4.116978923388852664e-03
4.120000000000000284e+01,4.860173883062359097e-03
4.124000000000000199e+01,4.438892295410766867e-03
4.128000000000000114e+01,3.410030430665078778e-03
4.132000000000000028e+01,3.545530848528291330e-03
4.135999999999999943e+01,3.782228099935401426e-03
4.139999999999999858e+01,3.411345236917432376e-03
4.143999999999999773e+01,3.850436318081365550e-03
4.147999999999999687e+01,3.276931963442222557e-03
4.152000000000000313e+01,3.209640089062991072e-03
4.156000000000000227e+01,3.446053034254677790e-03
4.160000000000000142e+01,3.884916995784287036e-03
4.164000000000000057e+01,3.665574239498823120e-03
4.167999999999999972e+01,3.142413320717285345e-03
4.171999999999999886e+01,3.530480583134675866e-03
4.175999999999999801e+01,1.994668072206006153e-03
4.179999999999999716e+01,3.496414857498262273e-03
4.184000000000000341e+01,3.934939766266456682e-03
4.188000000000000256e+01,2.500211993085602481e-03
4.192000000000000171e+01,4.001789821338679748e-03
4.196000000000000085e+01,5.655192225208699637e-03
4.200000000000000000e+01,4.372176606510679540e-03
4.203999999999999915e+01,2.987851028235616671e-03
4.207999999999999829e+01,3.324784978814499404e-03
4.211999999999999744e+01,3.459155220806338273e-03
4.215999999999999659e+01,4.403500382994130630e-03
4.220000000000000284e+01,4.031489513024896949e-03
4.224000000000000199e+01,5.988261533537612459e-03
4.228000000000000114e+01,4.603600481219308552e-03
4.232000000000000028e+01,4.636437710724971260e-03
4.235999999999999943e+01,3.454172982421612956e-03
4.239999999999999858e+01,5.106960648772216303e-03
4.243999999999999773e+01,4.481480962471807473e-03
4.247999999999999687e+01,2.387764837391384651e-03
4.252000000000000313e+01,3.685997485641931935e-03
4.256000000000000227e+01,4.174143877022465018e-03
4.260000000000000142e+01,4.560981067947994863e-03
4.264000000000000057e+01,4.087105181721511701e-03
4.267999999999999972e+01,3.613174060942025978e-03
4.271999999999999886e+01,3.189814688560535429e-03
4.275999999999999801e+01,2.918280976256043546e-03
4.279999999999999716e+01,5.785561773203540953e-03
4.284000000000000341e+01,4.197617824426062849e-03
4.288000000000000256e+01,4.533442203874580786e-03
4.292000000000000171e+01,3.147896097356116078e-03
4.296000000000000085e+01,4.091133857333658329e-03
4.300000000000000000e+01,4.781182172902211786e-03
4.303999999999999915e+01,5.116787240828784243e-03
4.307999999999999829e+01,5.199202972792380494e-03
4.311999999999999744e+01,5.889087211391997104e-03
4.315999999999999659e+01,4.250078144626650949e-03
4.320000000000000284e+01,5.851137986799316050e-03
4.324000000000000199e+01,5.983962420429020379e-03
4.328000000000000114e+01,5.306701573202759169e-03
4.332000000000000028e+01,6.856971223023527497e-03
4.335999999999999943e+01,6.888378698242340371e-03
4.339999999999999858e+01,7.476628130930194557e-03
4.343999999999999773e+01,5.330969207990103945e-03
4.347999999999999687e+01,5.767229500085046742e-03
4.352000000000000313e+01,8.127258987974034232e-03
4.356000000000000227e+01,5.829556991240089636e-03
4.360000000000000142e+01,8.797001594794183130e-03
4.364000000000000057e+01,7.410476394539351752e-03
4.367999999999999972e+01,6.682047388770573013e-03
4.371999999999999886e+01,1.020622657139884371e-02
4.375999999999999801e+01,1.033834775871919284e-02
4.379999999999999716e+01,1.072354987337060910e-02
4.384000000000000341e+01,1.267813311650409051e-02
4.388000000000000256e+01,1.225319710155865424e-02
4.392000000000000171e+01,1.203071524788529301e-02
4.396000000000000085e+01,1.211194146716301073e-02
4.400000000000000000e+01,1.447132603400679354e-02
4.403999999999999915e+01,1.759006114079966765e-02
4.407999999999999829e+01,2.136689298430861916e-02
4.411999999999999744e+01,2.392862525582066871e-02
4.415999999999999659e+01,2.684469280012680495e-02
4.420000000000000284e+01,3.264644210785003220e-02
4.424000000000000199e+01,3.956193072773333402e-02
4.428000000000000114e+01,4.931247429075173716e-02
4.432000000000000028e+01,6.118929584893624540e-02
4.435999999999999943e+01,8.182452311987779836e-02
4.439999999999999858e+01,1.051935516391674375e-01
4.443999999999999773e+01,1.411180056342601630e-01
4.447999999999999687e+01,1.782068261955789545e-01
4.452000000000000313e+01,2.066890161328429620e-01
4.456000000000000227e+01,2.243369906362431276e-01
4.460000000000000142e+01,2.190509137940104545e-01
4.464000000000000057e+01,1.992348558292159899e-01
4.467999999999999972e+01,1.664076246579227480e-01
4.471999999999999886e+01,1.326690563003455892e-01
4.475999999999999801e+01,1.066257286944675697e-01
4.479999999999999716e+01,7.612717899979169756e-02
4.484000000000000341e+01,5.858907075297290629e-02
4.488000000000000256e+01,4.560733383938622709e-02
4.492000000000000171e+01,3.642256438233467536e-02
4.496000000000000085e+01,3.037661236257725023e-02
4.500000000000000000e+01,2.281180039136098542e-02
4.503999999999999915e+01,2.056276390118885050e-02
4.507999999999999829e+01,1.628859828072386912e-02
4.511999999999999744e+01,1.621641581773302851e-02
4.515999999999999659e+01,1.401785047543935639e-02
4.520000000000000284e+01,1.257863724556184185e-02
4.524000000000000199e+01,1.118999918013149214e-02
4.528000000000000114e+01,1.066196719301930156e-02
4.532000000000000028e+01,9.576987334064286997e-03
4.535999999999999943e+01,8.542582802225440544e-03
4.539999999999999858e+01,8.014396010277766505e-03
4.543999999999999773e+01,7.891173154988270072e-03
4.547999999999999687e+01,6.400971785099959961e-03
4.552000000000000313e+01,6.530780749787825495e-03
4.556000000000000227e+01,6.103642167970874458e-03
4.560000000000000142e+01,5.727079238608112806e-03
4.564000000000000057e+01,5.249211229738541713e-03
4.567999999999999972e+01,5.733203698873159948e-03
4.571999999999999886e+01,4.495829477650981933e-03
4.575999999999999801e+01,4.422823557790995022e-03
4.579999999999999716e+01,5.716693708428205976e-03
4.584000000000000341e+01,4.732301115369627435e-03
4.588000000000000256e+01,5.266665487438253190e-03
4.592000000000000171e+01,3.370886438073095615e-03
4.596000000000000085e+01,4.715180039033135470e-03
4.600000000000000000e+01,3.629330327005401546e-03
4.603999999999999915e+01,4.467253226820871136e-03
4.607999999999999829e+01,3.887571496654577963e-03
4.611999999999999744e+01,2.902823765289501163e-03
4.615999999999999659e+01,3.133071806244639487e-03
4.620000000000000284e+01,3.160761669359015476e-03
4.624000000000000199e+01,2.834012622671613826e-03
4.628000000000000114e+01,3.266617152421448164e-03
4.632000000000000028e+01,2.433498163711524456e-03
4.635999999999999943e+01,3.473525291900826737e-03
4.639999999999999858e+01,2.134036578060381859e-03
4.643999999999999773e+01,3.123336448117168800e-03
4.647999999999999687e+01,2.543151444238210893e-03
4.652000000000000313e+01,2.266677983582502266e-03
4.656000000000000227e+01,4.622754841861030292e-03
4.660000000000000142e+01,2.928627481200835742e-03
4.664000000000000057e+01,3.057019688272882493e-03
4.667999999999999972e+01,1.615927292524197865e-03
4.671999999999999886e+01,3.161773933697765906e-03
4.675999999999999801e+01,2.024343648480605648e-03
4.679999999999999716e+01,2.456298504247708247e-03
4.684000000000000341e+01,2.128799833734082870e-03
4.688000000000000256e+01,2.408774766818728551e-03
4.692000000000000171e+01,2.081177068252656158e-03
4.696000000000000085e+01,3.221710870106850744e-03
4.700000000000000000e+01,3.096522075292334423e-03
4.703999999999999915e+01,3.224418599872097037e-03
4.707999999999999829e+01,2.542234994781148935e-03
4.711999999999999744e+01,2.619406104810491354e-03
4.715999999999999659e+01,2.291512623439120530e-03
4.720000000000000284e+01,1.963570034714047594e-03
4.724000000000000199e+01,1.989966893954269248e-03
4.728000000000000114e+01,2.876972542662782108e-03
4.732000000000000028e+01,2.397002171030612055e-03
4.735999999999999943e+01,3.840806200600730899e-03
4.739999999999999858e+01,1.993811026612172382e-03
4.743999999999999773e+01,1.817455718631920186e-03
4.747999999999999687e+01,1.894186326498977120e-03
4.752000000000000313e+01,2.375883690620343974e-03
4.756000000000000227e+01,2.047501575747037034e-03
4.760000000000000142e+01,3.035371042678041038e-03
4.764000000000000057e+01,1.593099419764384874e-03
4.767999999999999972e+01,1.922721845653042883e-03
4.771999999999999886e+01,3.112953657463025329e-03
4.775999999999999801e+01,1.569282969729348222e-03
4.779999999999999716e+01,1.544371849827006404e-03
4.784000000000000341e+01,1.975054848690995912e-03
4.788000000000000256e+01,2.456316590720316034e-03
4.792000000000000171e+01,1.418722339569996552e-03
4.796000000000000085e+01,1.798634015687007809e-03
4.800000000000000000e+01,3.342917029654363104e-03
4.803999999999999915e+01,2.457059496007078445e-03
4.807999999999999829e+01,2.330557978832144272e-03
4.811999999999999744e+01,2.710277888712561960e-03
4.815999999999999659e+01,2.583680705311336336e-03
4.820000000000000284e+01,2.305154983947477979e-03
4.824000000000000199e+01,1.570939206475983809e-03
4.828000000000000114e+01,3.621156865711837661e-03
4.832000000000000028e+01,2.684338140886077199e-03
4.835999999999999943e+01,2.861264313189680868e-03
4.839999999999999858e+01,2.228112145181664842e-03
4.843999999999999773e+01,2.708704982749020763e-03
4.847999999999999687e+01,2.075458016082756731e-03
4.852000000000000313e+01,2.404075377253872981e-03
4.856000000000000227e+01,1.669479971365376778e-03
4.860000000000000142e+01,2.808033718864259062e-03
4.864000000000000057e+01,2.782120950293534307e-03
4.867999999999999972e+01,1.946130220972208105e-03
4.871999999999999886e+01,8.569578011312790336e-04
4.875999999999999801e+01,3.109115684681730118e-03
4.879999999999999716e+01,2.475491692302595262e-03
4.884000000000000341e+01,1.892447744440865082e-03
4.888000000000000256e+01,2.321895541151531607e-03
4.892000000000000171e+01,3.257565849377603434e-03
4.896000000000000085e+01,1.965604572030102241e-03
4.900000000000000000e+01,1.888642916836005391e-03
4.903999999999999915e+01,2.571038579466321597e-03
4.907999999999999829e+01,2.392729894848059924e-03
4.911999999999999744e+01,2.011866990668221677e-03
4.915999999999999659e+01,2.491615424437801721e-03
4.920000000000000284e+01,2.262540459811814876e-03
4.924000000000000199e+01,1.679030652109257844e-03
4.928000000000000114e+01,1.854878487569127992e-03
4.932000000000000028e+01,2.891337877870431197e-03
4.935999999999999943e+01,2.155808583380177876e-03
4.939999999999999858e+01,2.584652524545358755e-03
4.943999999999999773e+01,1.393388675548990190e-03
4.947999999999999687e+01,1.974021315390061138e-03
4.952000000000000313e+01,1.187680917155583453e-03
4.956000000000000227e+01,1.110071612916556502e-03
4.960000000000000142e+01,2.551224316543972831e-03
4.964000000000000057e+01,1.207850140380863080e-03
4.967999999999999972e+01,2.750165156186196082e-03
4.971999999999999886e+01,2.571118903935000911e-03
4.975999999999999801e+01,2.138892370962265123e-03
4.979999999999999716e+01,2.263516471138994710e-03
4.984000000000000341e+01,2.793110472504193881e-03
4.988000000000000256e+01,1.854478066344868300e-03
4.992000000000000171e+01,3.345892818940009606e-03
4.996000000000000085e+01,8.377348360566468999e-04
5.000000000000000000e+01,1.417774193837745451e-03
5.003999999999999915e+01,1.491499006818334389e-03
5.007999999999999829e+01,1.463924759045401097e-03
5.011999999999999744e+01,1.841320792021961276e-03
5.015999999999999659e+01,1.965537086507012764e-03
5.020000000000000284e+01,2.039081411635555383e-03
5.024000000000000199e+01,1.910073035446597026e-03
5.028000000000000114e+01,1.983527441987131042e-03
5.032000000000000028e+01,3.271983260040166059e-03
5.035999999999999943e+01,2.231555532868715816e-03
5.039999999999999858e+01,4.026191044951754269e-03
5.043999999999999773e+01,2.378150688240319652e-03
5.047999999999999687e+01,2.147619674845391291e-03
5.052000000000000313e+01,8.032516225899818995e-04
5.056000000000000227e+01,1.838304667929080774e-03
5.060000000000000142e+01,3.227701715965694638e-03
5.064000000000000057e+01,1.376930881234846114e-03
5.067999999999999972e+01,1.399312019487514895e-03
5.071999999999999886e+01,2.788575897666706327e-03
5.075999999999999801e+01,2.456479917587432813e-03
5.079999999999999716e+01,2.782489783688691168e-03
5.084000000000000341e+01,8.808706126974990332e-04
5.088000000000000256e+01,1.713061474180824694e-03
5.092000000000000171e+01,2.140192841225701473e-03
5.096000000000000085e+01,2.263518625511119417e-03
5.100000000000000000e+01,3.753727529284077175e-03
5.103999999999999915e+01,3.016307667079594010e-03
5.107999999999999829e+01,2.734486315704661146e-03
5.111999999999999744e+01,2.908263529382282275e-03
5.115999999999999659e+01,2.221339215407460224e-03
5.120000000000000284e+01,2.445655933483195828e-03
5.124000000000000199e+01,2.872436735640492012e-03
5.128000000000000114e+01,1.932246885534360777e-03
5.132000000000000028e+01,1.447655871595793101e-03
5.135999999999999943e+01,1.823679177871796210e-03
5.139999999999999858e+01,1.237747424377368295e-03
5.143999999999999773e+01,2.271834030463513576e-03
5.147999999999999687e+01,2.495846471409244455e-03
5.152000000000000313e+01,2.618561803629552379e-03
5.156000000000000227e+01,2.639980081347443643e-03
5.160000000000000142e+01,2.661355216241922169e-03
5.164000000000000057e+01,2.227044903983990166e-03
5.167999999999999972e+01,2.450841630812644785e-03
5.171999999999999886e+01,2.472087662574901611e-03
5.175999999999999801e+01,2.746425412045751073e-03
5.179999999999999716e+01,3.020720289808198015e-03
5.184000000000000341e+01,2.889956920261253000e-03
5.188000000000000256e+01,2.303508428899909630e-03
5.192000000000000171e+01,2.881436589243169255e-03
5.196000000000000085e+01,2.446783520210043562e-03
5.200000000000000000e+01,3.075253353871530617e-03
5.203999999999999915e+01,2.387380494234632531e-03
5.207999999999999829e+01,1.395703570082355328e-03
5.211999999999999744e+01,2.429061357125693321e-03
5.215999999999999659e+01,2.905480544459652925e-03
5.220000000000000284e+01,2.571826542667242886e-03
5.224000000000000199e+01,2.541891837987463390e-03
5.228000000000000114e+01,1.347495551531319950e-03
5.232000000000000028e+01,2.076880389929799519e-03
5.235999999999999943e+01,2.856850044469913617e-03
5.239999999999999858e+01,3.282389139550674542e-03
5.243999999999999773e+01,1.784062938827080851e-03
5.247999999999999687e+01,1.804502650026125303e-03
5.252000000000000313e+01,1.976781251714820366e-03
5.256000000000000227e+01,2.047764154476161558e-03
5.260000000000000142e+01,2.928736129637150333e-03
5.264000000000000057e+01,2.189604652476809070e-03
5.267999999999999972e+01,2.614850857258111880e-03
5.271999999999999886e+01,2.888174651276080238e-03
5.275999999999999801e+01,2.402052944017713833e-03
5.279999999999999716e+01,2.472785936634016354e-03
5.284000000000000341e+01,1.935954322603984906e-03
5.288000000000000256e+01,2.715381447814615903e-03
5.292000000000000171e+01,1.570943927896935495e-03
5.296000000000000085e+01,1.388376754569922581e-03
5.300000000000000000e+01,2.268933839512585638e-03
5.303999999999999915e+01,3.098822804931932948e-03
5.307999999999999829e+01,2.764251273034966285e-03
5.311999999999999744e+01,2.733400231156686653e-03
5.315999999999999659e+01,1.993731158960101914e-03
5.320000000000000284e+01,3.076590547068197307e-03
5.324000000000000199e+01,2.235585723831998682e-03
5.328000000000000114e+01,3.368990255530488788e-03
5.332000000000000028e+01,3.540442330162687969e-03
5.335999999999999943e+01,2.243672714671589644e-03
5.339999999999999858e+01,3.478208832792187202e-03
5.343999999999999773e+01,2.231984794675508348e-03
5.347999999999999687e+01,1.795751021864533349e-03
5.352000000000000313e+01,2.777030713318264475e-03
5.356000000000000227e+01,1.834446627211725259e-03
5.360000000000000142e+01,1.954987612719894831e-03
5.364000000000000057e+01,2.885519080425785407e-03
5.367999999999999972e+01,3.613502509992398345e-03
5.371999999999999886e+01,2.772010879986750668e-03
5.375999999999999801e+01,2.335494465023828063e-03
5.379999999999999716e+01,2.911476464062632153e-03
5.384000000000000341e+01,1.816729708742181914e-03
5.388000000000000256e+01,1.785108404597460013e-03
5.392000000000000171e+01,2.867239534579472861e-03
5.396000000000000085e+01,2.784911360151239718e-03
5.400000000000000000e+01,3.158185654831745237e-03
5.403999999999999915e+01,3.480793185563998450e-03
5.407999999999999829e+01,2.284553073459007905e-03
5.411999999999999744e+01,2.607081096419771281e-03
5.415999999999999659e+01,3.030823304285284667e-03
5.420000000000000284e+01,2.492614247990560580e-03
5.424000000000000199e+01,3.523800418158599002e-03
5.428000000000000114e+01,2.276735285684405603e-03
5.432000000000000028e+01,2.092796200838971821e-03
5.435999999999999943e+01,3.225117861485307137e-03
5.439999999999999858e+01,3.091726956718417098e-03
5.443999999999999773e+01,4.021462262249294282e-03
5.447999999999999687e+01,2.217304177700961387e-03
5.452000000000000313e+01,2.539437915184405113e-03
5.456000000000000227e+01,2.709651736162627805e-03
5.460000000000000142e+01,2.373557193762637109e-03
5.464000000000000057e+01,2.442439059311438815e-03
5.467999999999999972e+01,2.764416600848023688e-03
5.471999999999999886e+01,2.023189725667409733e-03
5.475999999999999801e+01,1.940074064744590513e-03
5.479999999999999716e+01,2.261935028662563716e-03
5.484000000000000341e+01,2.381249526908339222e-03
5.488000000000000256e+01,3.158675402080922488e-03
5.492000000000000171e+01,3.682927991299304697e-03
5.496000000000000085e+01,3.548991918962502486e-03
5.500000000000000000e+01,2.402478738197514826e-03
5.503999999999999915e+01,3.939154300371333975e-03
5.507999999999999829e+01,3.450714288002977061e-03
5.511999999999999744e+01,1.797816543691443903e-03
5.515999999999999659e+01,3.283750063539724474e-03
5.520000000000000284e+01,2.845822028970836168e-03
5.524000000000000199e+01,2.053467284775775236e-03
5.528000000000000114e+01,2.476120675745543346e-03
5.532000000000000028e+01,4.417543828471131445e-03
5.535999999999999943e+01,3.473193997839572108e-03
5.539999999999999858e+01,2.478179246841847368e-03
5.543999999999999773e+01,2.343784346804968222e-03
5.547999999999999687e+01,2.006843848663928103e-03
5.552000000000000313e+01,2.733031024841729283e-03
5.556000000000000227e+01,1.889745635705391722e-03
5.560000000000000142e+01,2.565230387885894352e-03
5.564000000000000057e+01,4.405096834510244599e-03
5.567999999999999972e+01,3.561698446473472203e-03
5.571999999999999886e+01,2.617008643126553843e-03
5.575999999999999801e+01,2.988581483076489971e-03
5.579999999999999716e+01,2.499459085242296177e-03
5.584000000000000341e+01,3.377226367878970008e-03
5.588000000000000256e+01,3.546179307361511674e-03
5.592000000000000171e+01,3.310079530280926000e-03
5.596000000000000085e+01,2.922061734500224633e-03
5.600000000000000000e+01,2.280872116786393251e-03
5.603999999999999915e+01,3.614095595394438074e-03
5.607999999999999829e+01,3.985370358323377278e-03
5.611999999999999744e+01,2.939054101244200062e-03
5.615999999999999659e+01,3.006493314779907708e-03
5.620000000000000284e+01,3.478911050961514852e-03
5.624000000000000199e+01,2.888126430900010526e-03
5.628000000000000114e+01,3.259216657938400052e-03
5.632000000000000028e+01,3.124000853187691978e-03
5.635999999999999943e+01,3.090002215606891395e-03
5.639999999999999858e+01,2.650951512138993455e-03
5.643999999999999773e+01,3.578791302486994657e-03
5.647999999999999687e+01,2.228382772457919783e-03
5.652000000000000313e+01,2.700507203242748146e-03
5.656000000000000227e+01,2.615698998848494002e-03
5.660000000000000142e+01,2.986496788058158169e-03
5.664000000000000057e+01,3.256004409086738719e-03
5.667999999999999972e+01,3.424221916157248885e-03
5.671999999999999886e+01,2.883626218756680116e-03
5.675999999999999801e+01,3.001144446764049227e-03
5.679999999999999716e+01,2.814865008570344249e-03
5.684000000000000341e+01,3.337326532958566870e-03
5.688000000000000256e+01,3.252228927223735962e-03
5.692000000000000171e+01,2.863333817956842473e-03
5.696000000000000085e+01,2.271895116836890327e-03
5.700000000000000000e+01,3.047347668654879892e-03
5.703999999999999915e+01,3.265868235969819101e-03
5.707999999999999829e+01,4.243757019932700367e-03
5.711999999999999744e+01,3.804056139462543614e-03
5.715999999999999659e+01,2.604915722246351449e-03
5.720000000000000284e+01,4.038340047283099817e-03
5.724000000000000199e+01,3.294770939635817755e-03
5.728000000000000114e+01,3.867466535759497056e-03
5.732000000000000028e+01,3.781976669485139896e-03
5.735999999999999943e+01,3.595197611043754720e-03
5.739999999999999858e+01,2.851487056106344602e-03
5.743999999999999773e+01,2.310248989815905443e-03
5.747999999999999687e+01,3.237156684595433442e-03
5.752000000000000313e+01,3.151490686995956931e-03
5.756000000000000227e+01,3.015162697072449292e-03
5.760000000000000142e+01,2.271276553039932016e-03
5.764000000000000057e+01,2.641147885873397147e-03
5.767999999999999972e+01,2.605968887955862224e-03
5.771999999999999886e+01,3.431412831710305231e-03
5.775999999999999801e+01,3.294910337151750815e-03
5.779999999999999716e+01,2.398969173415204433e-03
5.784000000000000341e+01,3.882458975859641014e-03
5.788000000000000256e+01,3.340836999372089229e-03
5.792000000000000171e+01,4.115480594223543120e-03
5.796000000000000085e+01,3.016893304773006837e-03
5.800000000000000000e+01,3.740840982387473070e-03
5.803999999999999915e+01,3.097827171425962881e-03
5.807999999999999829e+01,3.771079148695464893e-03
5.811999999999999744e+01,2.976115888378995031e-03
5.815999999999999659e+01,3.548045453467533160e-03
5.820000000000000284e+01,2.803640675600109315e-03
5.824000000000000199e+01,3.021113401759701212e-03
5.828000000000000114e+01,2.175386537049326958e-03
5.832000000000000028e+01,2.797806572091986535e-03
5.835999999999999943e+01,3.470819556726675165e-03
5.839999999999999858e+01,3.283140828072405280e-03
5.843999999999999773e+01,3.804205230920170312e-03
5.847999999999999687e+01,3.464578028924990283e-03
5.852000000000000313e+01,3.378051708325849334e-03
5.856000000000000227e+01,3.342118608433753291e-03
5.860000000000000142e+01,2.951763353647718358e-03
5.864000000000000057e+01,3.320778430206730407e-03
5.867999999999999972e+01,4.449163892333789228e-03
5.871999999999999886e+01,2.995542498203928976e-03
5.875999999999999801e+01,3.415084030104110265e-03
5.879999999999999716e+01,3.480203678225366349e-03
5.884000000000000341e+01,3.747797712798680517e-03
5.888000000000000256e+01,4.167239259319071090e-03
5.892000000000000171e+01,3.371601296353534706e-03
5.896000000000000085e+01,4.550380387989063323e-03
5.900000000000000000e+01,4.615333936040683441e-03
5.903999999999999915e+01,4.022104353283377683e-03
5.907999999999999829e+01,3.125080195036159230e-03
5.911999999999999744e+01,3.392442448634027784e-03
5.915999999999999659e+01,3.204129449003977233e-03
5.920000000000000284e+01,3.471425967473013800e-03
5.924000000000000199e+01,3.131166554976153472e-03
5.928000000000000114e+01,3.854039913760378636e-03
5.932000000000000028e+01,2.703684231824716143e-03
5.935999999999999943e+01,3.730253861632142152e-03
5.939999999999999858e+01,3.187356131533681646e-03
5.943999999999999773e+01,3.707591389608320531e-03
5.947999999999999687e+01,4.582182687887065634e-03
5.952000000000000313e+01,3.330410572920937916e-03
5.956000000000000227e+01,4.407444826996910134e-03
5.960000000000000142e+01,4.218773564650006754e-03
5.964000000000000057e+01,3.574427699751232899e-03
5.967999999999999972e+01,4.853872936739558712e-03
5.971999999999999886e+01,3.956328102870027008e-03
5.975999999999999801e+01,3.666274332405619705e-03
5.979999999999999716e+01,3.123053891193347184e-03
5.984000000000000341e+01,4.098609338936197270e-03
5.988000000000000256e+01,3.808459649817196296e-03
5.992000000000000171e+01,3.265143452619332070e-03
5.996000000000000085e+01,4.240603307045596321e-03
