2.003999999999999915e+01,9.289059988662577705e-02
2.007999999999999829e+01,8.933777593870961820e-02
2.012000000000000099e+01,9.928512131153391373e-02
2.016000000000000014e+01,9.969314808538688732e-02
2.019999999999999929e+01,8.008935881516850153e-02
2.023999999999999844e+01,9.725792729940231640e-02
2.028000000000000114e+01,8.882933987384862562e-02
2.032000000000000028e+01,8.878100984611189683e-02
2.035999999999999943e+01,9.129488068760055475e-02
2.039999999999999858e+01,9.613822496953948471e-02
2.044000000000000128e+01,1.061037018588883302e-01
2.048000000000000043e+01,8.861021955709821873e-02
2.051999999999999957e+01,1.041655045959048315e-01
2.055999999999999872e+01,7.760033079065442596e-02
2.060000000000000142e+01,7.710225218533130198e-02
2.064000000000000057e+01,1.010422090762065350e-01
2.067999999999999972e+01,7.867269414931435390e-02
2.071999999999999886e+01,1.084351274059817266e-01
2.076000000000000156e+01,8.397552852090928166e-02
2.080000000000000071e+01,9.093560497500988160e-02
2.083999999999999986e+01,7.439294857046641063e-02
2.087999999999999901e+01,8.135740718112349779e-02
2.092000000000000171e+01,8.017877719173507889e-02
2.096000000000000085e+01,1.008781971308691794e-01
2.100000000000000000e+01,8.946414698401101984e-02
2.103999999999999915e+01,7.572504323390293057e-02
2.107999999999999829e+01,6.198810095585257501e-02
2.112000000000000099e+01,8.176528936581388407e-02
2.116000000000000014e+01,6.617087751642646010e-02
2.119999999999999929e+01,8.036703285594089252e-02
2.123999999999999844e+01,8.642005653181673852e-02
2.128000000000000114e+01,9.317338090248192262e-02
2.132000000000000028e+01,8.712912192709607040e-02
2.135999999999999943e+01,9.644664176762136887e-02
2.139999999999999858e+01,9.203567931289445558e-02
2.144000000000000128e+01,6.295829302615768563e-02
2.148000000000000043e+01,6.692954488923870404e-02
2.151999999999999957e+01,8.952066267799428656e-02
2.155999999999999872e+01,7.371473978217549239e-02
2.160000000000000142e+01,6.233262725076468835e-02
2.164000000000000057e+01,7.515569359599780230e-02
2.167999999999999972e+01,7.681018246941768990e-02
2.171999999999999886e+01,6.031442711330380763e-02
2.176000000000000156e+01,6.011128492691244357e-02
2.180000000000000071e+01,6.456464823600889524e-02
2.183999999999999986e+01,6.925279278695536944e-02
2.187999999999999901e+01,7.952832025079420442e-02
2.192000000000000171e+01,7.211902066200488737e-02
2.196000000000000085e+01,6.820259480777841887e-02
2.200000000000000000e+01,6.172826411369677913e-02
2.203999999999999915e+01,8.294988915415379971e-02
2.207999999999999829e+01,7.997044832706616535e-02
2.212000000000000099e+01,7.047681173223896423e-02
2.216000000000000014e+01,7.425034788190873480e-02
2.219999999999999929e+01,7.337145386454642371e-02
2.223999999999999844e+01,6.946917861798290739e-02
2.228000000000000114e+01,7.394689700472879823e-02
2.232000000000000028e+01,7.191039270898955116e-02
2.235999999999999943e+01,7.359943036414724749e-02
2.239999999999999858e+01,6.877423457092159131e-02
2.244000000000000128e+01,7.349262110833743034e-02
2.248000000000000043e+01,7.798025866876577561e-02
2.251999999999999957e+01,9.503685438967164612e-02
2.255999999999999872e+01,7.299810871479764374e-02
2.260000000000000142e+01,8.098246387143141767e-02
2.264000000000000057e+01,6.918739666992139437e-02
2.267999999999999972e+01,4.785267174364961351e-02
2.271999999999999886e+01,4.886120398778969615e-02
2.276000000000000156e+01,7.035121165278661326e-02
2.280000000000000071e+01,4.878957084527192622e-02
2.283999999999999986e+01,5.725099857157005256e-02
2.287999999999999901e+01,5.524185347505792404e-02
2.292000000000000171e+01,8.069582364237763705e-02
2.296000000000000085e+01,5.355651992653499144e-02
2.300000000000000000e+01,7.017086391642560206e-02
2.303999999999999915e+01,6.723845376450671152e-02
2.307999999999999829e+01,5.499905410416033869e-02
2.312000000000000099e+01,6.743007824299181163e-02
2.316000000000000014e+01,8.637920122364596553e-02
2.319999999999999929e+01,7.740355488096831160e-02
2.323999999999999844e+01,7.960043753072956751e-02
2.328000000000000114e+01,9.250439969832915943e-02
2.332000000000000028e+01,8.632701413512665345e-02
2.335999999999999943e+01,9.923469097358959823e-02
2.339999999999999858e+01,1.009735588734266137e-01
2.344000000000000128e+01,1.069032674761853513e-01
2.348000000000000043e+01,1.070167634284109603e-01
2.351999999999999957e+01,8.665255246013467416e-02
2.355999999999999872e+01,1.184199074860295686e-01
2.360000000000000142e+01,8.293241361455593041e-02
2.364000000000000057e+01,9.608564428396933199e-02
2.367999999999999972e+01,7.200515920163289008e-02
2.371999999999999886e+01,6.817329830354848519e-02
2.376000000000000156e+01,8.459005620676687820e-02
2.380000000000000071e+01,7.378013017989368261e-02
2.383999999999999986e+01,6.460104852236805972e-02
2.387999999999999901e+01,6.263813495105789719e-02
2.392000000000000171e+01,5.439350542512291081e-02
2.396000000000000085e+01,7.919718030615921500e-02
2.400000000000000000e+01,6.513804205107258383e-02
2.403999999999999915e+01,6.690576604595623034e-02
2.407999999999999829e+01,4.261037865923294338e-02
2.412000000000000099e+01,4.787244346029879971e-02
2.416000000000000014e+01,5.965247252945898859e-02
2.419999999999999929e+01,3.466415996018208656e-02
2.423999999999999844e+01,3.946600547567257616e-02
2.428000000000000114e+01,4.054602909407871436e-02
2.432000000000000028e+01,5.093665999869130545e-02
2.435999999999999943e+01,3.503141979522721161e-02
2.439999999999999858e+01,3.518571544101699311e-02
2.444000000000000128e+01,3.743621880356867021e-02
2.448000000000000043e+01,5.062636224131017437e-02
2.451999999999999957e+01,4.938943737628993802e-02
2.455999999999999872e+01,5.304136862909283184e-02
2.460000000000000142e+01,3.668089171341824134e-02
2.464000000000000057e+01,4.080163721999133936e-02
2.467999999999999972e+01,3.375340153356597844e-02
2.471999999999999886e+01,3.694660748715861837e-02
2.476000000000000156e+01,6.155190789745416946e-02
2.480000000000000071e+01,6.079216617053548322e-02
2.483999999999999986e+01,4.700164535221599410e-02
2.487999999999999901e+01,3.833265963395223602e-02
2.492000000000000171e+01,5.317024525302633392e-02
2.496000000000000085e+01,3.473021764501537517e-02
2.500000000000000000e+01,3.048786877541543455e-02
2.503999999999999915e+01,5.068296327760898196e-02
2.507999999999999829e+01,2.666249225006140852e-02
2.512000000000000099e+01,2.428678927850034044e-02
2.516000000000000014e+01,3.820324192598535673e-02
2.519999999999999929e+01,4.420875204369301148e-02
2.523999999999999844e+01,2.624549308670003772e-02
2.528000000000000114e+01,3.900314044109985667e-02
2.532000000000000028e+01,3.989355433783799837e-02
2.535999999999999943e+01,3.613111281456207052e-02
2.539999999999999858e+01,2.864669867162621467e-02
2.544000000000000128e+01,2.977457495484387567e-02
2.548000000000000043e+01,5.068539448090005062e-02
2.551999999999999957e+01,3.599130496032604959e-02
2.555999999999999872e+01,3.898564950426105374e-02
2.560000000000000142e+01,2.313106153511897828e-02
2.564000000000000057e+01,4.241905030151587458e-02
2.567999999999999972e+01,5.658869649265443891e-02
2.571999999999999886e+01,2.305186033948012150e-02
2.576000000000000156e+01,3.699185320176029412e-02
2.580000000000000071e+01,2.579939139892326039e-02
2.583999999999999986e+01,4.602592668366834588e-02
2.587999999999999901e+01,3.995638630826947590e-02
2.592000000000000171e+01,3.016480333487185292e-02
2.596000000000000085e+01,2.502916603025171979e-02
2.600000000000000000e+01,3.339290675283731330e-02
2.603999999999999915e+01,2.500215416233670523e-02
2.607999999999999829e+01,4.919397659085179147e-02
2.612000000000000099e+01,2.474837466225974017e-02
2.616000000000000014e+01,3.800522199495089126e-02
2.619999999999999929e+01,4.195465994918201602e-02
2.623999999999999844e+01,1.518625492603863092e-02
2.628000000000000114e+01,3.170561211514792005e-02
2.632000000000000028e+01,4.636464924337276722e-02
2.635999999999999943e+01,1.773883677078713292e-02
2.639999999999999858e+01,2.053194602449547393e-02
2.644000000000000128e+01,3.054087885567476068e-02
2.648000000000000043e+01,1.704631983238169557e-02
2.651999999999999957e+01,3.497066638653528042e-02
2.655999999999999872e+01,5.382732513201810703e-02
2.660000000000000142e+01,2.358105083335270205e-02
2.664000000000000057e+01,2.475366596328661475e-02
2.667999999999999972e+01,3.453840464795073645e-02
2.671999999999999886e+01,2.896489078434772227e-02
2.676000000000000156e+01,4.224325972590806111e-02
2.680000000000000071e+01,5.691935265275415573e-02
2.683999999999999986e+01,3.319769434574020017e-02
2.687999999999999901e+01,4.042944907797912241e-02
2.692000000000000171e+01,3.672464321789383618e-02
2.696000000000000085e+01,2.068693910758058474e-02
2.700000000000000000e+01,4.840234440808732080e-02
2.703999999999999915e+01,5.377779272196241134e-02
2.707999999999999829e+01,4.914754709501928387e-02
2.712000000000000099e+01,5.941286104766023424e-02
2.716000000000000014e+01,4.314920503995921947e-02
2.719999999999999929e+01,5.620986468713820572e-02
2.723999999999999844e+01,3.552716018747999194e-02
2.728000000000000114e+01,4.067792988941752730e-02
2.732000000000000028e+01,3.908108199440233493e-02
2.735999999999999943e+01,5.912870071022199164e-02
2.739999999999999858e+01,4.682926602236214125e-02
2.744000000000000128e+01,4.639996125475894656e-02
2.748000000000000043e+01,7.366588014061185852e-02
2.751999999999999957e+01,7.370461448210335886e-02
2.755999999999999872e+01,8.933701532821569646e-02
2.760000000000000142e+01,9.542909634682256170e-02
2.764000000000000057e+01,8.243924827612056361e-02
2.767999999999999972e+01,8.481032851536617068e-02
2.771999999999999886e+01,8.694995461128750269e-02
2.776000000000000156e+01,8.955628731841251688e-02
2.780000000000000071e+01,1.228831872111347950e-01
2.783999999999999986e+01,1.285174154042512118e-01
2.787999999999999901e+01,1.236803979059154512e-01
2.792000000000000171e+01,1.302480016407952246e-01
2.796000000000000085e+01,1.535728282799330990e-01
2.800000000000000000e+01,1.806224378741396186e-01
2.803999999999999915e+01,1.890555086411975227e-01
2.807999999999999829e+01,2.214601695842630114e-01
2.812000000000000099e+01,2.254739550096016842e-01
2.816000000000000014e+01,2.560192623491323594e-01
2.819999999999999929e+01,2.621299581840751403e-01
2.823999999999999844e+01,3.001247722213030711e-01
2.828000000000000114e+01,2.608570595856078977e-01
2.832000000000000028e+01,2.737202723731367859e-01
2.835999999999999943e+01,2.633124623534096043e-01
2.839999999999999858e+01,2.612838223757741885e-01
2.844000000000000128e+01,2.127119442424131868e-01
2.848000000000000043e+01,2.092893086257082980e-01
2.851999999999999957e+01,1.891118459530708451e-01
2.855999999999999872e+01,1.591612122163228726e-01
2.860000000000000142e+01,1.406151082026554089e-01
2.864000000000000057e+01,1.385934135372846321e-01
2.867999999999999972e+01,1.214459246049647556e-01
2.871999999999999886e+01,9.987785013072936202e-02
2.876000000000000156e+01,8.878339566447487896e-02
2.880000000000000071e+01,7.745734171526943990e-02
2.883999999999999986e+01,6.776145926676956088e-02
2.887999999999999901e+01,7.179728931896307842e-02
2.892000000000000171e+01,7.141250691449553545e-02
2.896000000000000085e+01,4.938567527931495005e-02
2.900000000000000000e+01,4.504681477501751991e-02
2.903999999999999915e+01,6.351580502681977713e-02
2.907999999999999829e+01,5.499012284507032861e-02
2.912000000000000099e+01,5.158540517076797699e-02
2.916000000000000014e+01,4.050193410054978710e-02
2.919999999999999929e+01,2.662686721380649185e-02
2.923999999999999844e+01,3.928317690162832360e-02
2.928000000000000114e+01,2.750472974523578140e-02
2.932000000000000028e+01,3.760320748099610366e-02
2.935999999999999943e+01,2.489597192742332502e-02
2.939999999999999858e+01,2.917848753776535256e-02
2.944000000000000128e+01,3.811648050031022500e-02
2.948000000000000043e+01,1.517258423747185232e-02
2.951999999999999957e+01,2.294902369341782905e-02
2.955999999999999872e+01,3.887175504010493415e-02
2.960000000000000142e+01,3.990129035783836903e-02
2.964000000000000057e+01,5.280065953362601816e-02
2.967999999999999972e+01,2.823278346946777109e-02
2.971999999999999886e+01,1.762922890989680400e-02
2.976000000000000156e+01,1.936093615118419931e-02
2.980000000000000071e+01,2.132635342744368390e-02
2.983999999999999986e+01,3.097258082214874794e-02
2.987999999999999901e+01,2.502740836977911110e-02
2.992000000000000171e+01,0.000000000000000000e+00
2.996000000000000085e+01,2.617240816922755675e-02
3.000000000000000000e+01,2.837540669280716812e-02
3.003999999999999915e+01,4.175001910747273837e-02
3.007999999999999829e+01,1.905366472765518751e-02
3.012000000000000099e+01,1.823412758100780018e-02
3.016000000000000014e+01,1.392469928957880930e-02
3.019999999999999929e+01,2.986302314464195709e-02
3.023999999999999844e+01,4.370777736397945396e-02
3.028000000000000114e+01,1.868887332417957722e-02
3.032000000000000028e+01,2.997552644399845839e-02
3.035999999999999943e+01,2.450710489222459113e-02
3.039999999999999858e+01,1.601420398962562566e-02
3.044000000000000128e+01,2.986352134825523072e-02
3.048000000000000043e+01,3.766296199442748655e-02
3.051999999999999957e+01,2.777641825390729513e-02
3.055999999999999872e+01,3.953391048829128090e-02
3.060000000000000142e+01,3.360540757008469853e-02
3.064000000000000057e+01,4.443376689854392630e-02
3.067999999999999972e+01,5.642660602039686890e-02
3.071999999999999886e+01,3.351200244970933134e-02
3.076000000000000156e+01,2.735424497684012593e-02
3.080000000000000071e+01,4.074599276874874693e-02
3.083999999999999986e+01,3.458993674376628635e-02
3.087999999999999901e+01,3.704543906385480284e-02
3.092000000000000171e+01,4.974154866684531162e-02
3.096000000000000085e+01,5.848221537442014478e-02
3.100000000000000000e+01,7.211087154500701868e-02
3.103999999999999915e+01,9.086023384148282644e-02
3.107999999999999829e+01,9.238898048162991206e-02
3.112000000000000099e+01,7.390444153259044524e-02
3.116000000000000014e+01,9.754339784688081938e-02
3.119999999999999929e+01,8.534395868993792378e-02
3.123999999999999844e+01,1.166643363053807003e-01
3.128000000000000114e+01,1.177316367835093969e-01
3.132000000000000028e+01,1.306685450358283929e-01
3.135999999999999943e+01,1.273156881344774671e-01
3.139999999999999858e+01,1.504939171284389587e-01
3.144000000000000128e+01,1.773964661438434398e-01
3.148000000000000043e+01,1.975508377355848777e-01
3.151999999999999957e+01,2.300402342784226284e-01
3.155999999999999872e+01,2.574104969524790287e-01
3.160000000000000142e+01,2.761707896874192047e-01
3.164000000000000057e+01,3.114550880494711960e-01
3.167999999999999972e+01,3.534890607310057775e-01
3.171999999999999886e+01,3.945928748368253136e-01
3.176000000000000156e+01,4.403518540837979556e-01
3.180000000000000071e+01,4.263019863952516864e-01
3.183999999999999986e+01,4.343614265188887047e-01
3.187999999999999901e+01,4.147276512650571734e-01
3.192000000000000171e+01,3.774077032213136174e-01
3.196000000000000085e+01,3.317104588377375318e-01
3.200000000000000000e+01,3.111478873302820358e-01
3.203999999999999915e+01,2.819752866712700312e-01
3.207999999999999829e+01,2.804972906265634780e-01
3.211999999999999744e+01,2.299156186907278798e-01
3.215999999999999659e+01,1.816618376082967945e-01
3.220000000000000284e+01,1.943818975444006059e-01
3.224000000000000199e+01,1.880194093520451415e-01
3.228000000000000114e+01,1.681596967480981641e-01
3.232000000000000028e+01,1.469043007325476213e-01
3.235999999999999943e+01,1.310021552513900844e-01
3.239999999999999858e+01,1.258058619756679541e-01
3.243999999999999773e+01,1.140939841313292347e-01
3.247999999999999687e+01,1.065717304434075086e-01
3.252000000000000313e+01,1.118498112245051579e-01
3.256000000000000227e+01,9.827802285937600746e-02
3.260000000000000142e+01,8.493956772277937162e-02
3.264000000000000057e+01,6.112922632378338383e-02
3.267999999999999972e+01,8.944922360655555016e-02
3.271999999999999886e+01,7.657801381203606372e-02
3.275999999999999801e+01,8.092882505952954386e-02
3.279999999999999716e+01,6.177529394658722028e-02
3.284000000000000341e+01,7.636703836338518125e-02
3.288000000000000256e+01,8.886485786981469792e-02
3.292000000000000171e+01,8.065098341686943728e-02
3.296000000000000085e+01,7.476489215834597468e-02
3.300000000000000000e+01,6.399219529069798129e-02
3.303999999999999915e+01,6.881242746363903928e-02
3.307999999999999829e+01,6.781515507825458533e-02
3.311999999999999744e+01,6.030220661411810762e-02
3.315999999999999659e+01,5.767695693374060711e-02
3.320000000000000284e+01,5.505223769183287263e-02
3.324000000000000199e+01,4.800632463475727058e-02
3.328000000000000114e+01,4.514992807511594708e-02
3.332000000000000028e+01,5.416287014220838580e-02
3.335999999999999943e+01,6.736531794083693014e-02
3.339999999999999858e+01,4.938351512254408188e-02
3.343999999999999773e+01,8.818638962650000857e-02
3.347999999999999687e+01,6.485297065281664386e-02
3.352000000000000313e+01,8.410817344011532748e-02
3.356000000000000227e+01,7.310999226199887957e-02
3.360000000000000142e+01,8.352271590882648367e-02
3.364000000000000057e+01,7.834353371136054678e-02
3.367999999999999972e+01,9.178258102303189780e-02
3.371999999999999886e+01,8.683704717460290212e-02
3.375999999999999801e+01,9.608801319872427305e-02
3.379999999999999716e+01,1.102265918794184257e-01
3.384000000000000341e+01,1.362344392085075018e-01
3.388000000000000256e+01,1.347815240584969709e-01
3.392000000000000171e+01,1.640483525028658129e-01
3.396000000000000085e+01,1.539855833651254668e-01
3.400000000000000000e+01,1.569556715731120489e-01
3.403999999999999915e+01,1.804057172102992435e-01
3.407999999999999829e+01,1.894274080198811161e-01
3.411999999999999744e+01,2.140418825304254424e-01
3.415999999999999659e+01,2.307442087305859868e-01
3.420000000000000284e+01,2.274328348544767120e-01
3.424000000000000199e+01,2.392487844388310192e-01
3.428000000000000114e+01,2.294219688602371354e-01
3.432000000000000028e+01,2.461258462216684706e-01
3.435999999999999943e+01,2.532884940371903926e-01
3.439999999999999858e+01,2.797674406062422015e-01
3.443999999999999773e+01,2.669167249977952294e-01
3.447999999999999687e+01,2.847856776224396702e-01
3.452000000000000313e+01,2.642558454869898266e-01
3.456000000000000227e+01,2.679294535356133711e-01
3.460000000000000142e+01,2.534510840450813207e-01
3.464000000000000057e+01,2.527036519105671508e-01
3.467999999999999972e+01,2.102993048426022027e-01
3.471999999999999886e+01,2.039672007640254692e-01
3.475999999999999801e+01,2.106678517551419660e-01
3.479999999999999716e+01,1.896748944135030479e-01
3.484000000000000341e+01,1.852055120630450857e-01
3.488000000000000256e+01,1.788746577005873029e-01
3.492000000000000171e+01,1.685878275307494678e-01
3.496000000000000085e+01,1.494578532082423694e-01
3.500000000000000000e+01,1.601165889571850298e-01
3.503999999999999915e+01,1.565795627335689333e-01
3.507999999999999829e+01,1.309342195963704714e-01
3.511999999999999744e+01,1.453173403981057599e-01
3.515999999999999659e+01,1.373594114745348982e-01
3.520000000000000284e+01,1.424341784082168993e-01
3.524000000000000199e+01,1.407602619210170103e-01
3.528000000000000114e+01,1.584025257624661898e-01
3.532000000000000028e+01,1.655725426839236014e-01
3.535999999999999943e+01,1.531941475152378829e-01
3.539999999999999858e+01,1.636227472137391503e-01
3.543999999999999773e+01,1.319288856111047459e-01
3.547999999999999687e+01,1.646992543125616604e-01
3.552000000000000313e+01,1.595361477718474086e-01
3.556000000000000227e+01,1.671729665960180189e-01
3.560000000000000142e+01,1.813262101648302760e-01
3.564000000000000057e+01,2.161919178907034944e-01
3.567999999999999972e+01,2.222002886298116986e-01
3.571999999999999886e+01,2.258816302233369322e-01
3.575999999999999801e+01,2.500426977792500338e-01
3.579999999999999716e+01,2.628005656364791887e-01
3.584000000000000341e+01,2.613625638621665526e-01
3.588000000000000256e+01,3.022801442090114477e-01
3.592000000000000171e+01,3.227183489211221112e-01
3.596000000000000085e+01,3.552582590311492705e-01
3.600000000000000000e+01,3.619661756865527047e-01
3.603999999999999915e+01,4.126587072520968569e-01
3.607999999999999829e+01,4.342611259555589354e-01
3.611999999999999744e+01,4.658707301127095191e-01
3.615999999999999659e+01,4.877061404454140492e-01
3.620000000000000284e+01,5.402609875443969978e-01
3.624000000000000199e+01,5.160176808552304761e-01
3.628000000000000114e+01,5.359916788243354047e-01
3.632000000000000028e+01,5.347880811917380406e-01
3.635999999999999943e+01,5.103123841620572643e-01
3.639999999999999858e+01,4.800187357892725659e-01
3.643999999999999773e+01,4.753246068769060861e-01
3.647999999999999687e+01,4.240861578360377582e-01
3.652000000000000313e+01,3.882074474733580027e-01
3.656000000000000227e+01,3.867716781636259538e-01
3.660000000000000142e+01,3.429805694014075867e-01
3.664000000000000057e+01,3.129201288477502785e-01
3.667999999999999972e+01,2.919359102031907627e-01
3.671999999999999886e+01,2.483777098524829752e-01
3.675999999999999801e+01,2.422878102357115815e-01
3.679999999999999716e+01,2.196746913383622046e-01
3.684000000000000341e+01,2.166102648804710817e-01
3.688000000000000256e+01,2.184330365920691963e-01
3.692000000000000171e+01,2.051289051491962112e-01
3.696000000000000085e+01,1.899630217809684662e-01
3.700000000000000000e+01,1.433796812845713753e-01
3.703999999999999915e+01,1.668456902570666089e-01
3.707999999999999829e+01,1.460945188150800100e-01
3.711999999999999744e+01,1.369794525738334823e-01
3.715999999999999659e+01,1.369405436462951819e-01
3.720000000000000284e+01,1.315490198083216211e-01
3.724000000000000199e+01,1.010235017817781439e-01
3.728000000000000114e+01,1.002863869985838458e-01
3.732000000000000028e+01,9.256758683532698151e-02
3.735999999999999943e+01,1.027683548124096180e-01
3.739999999999999858e+01,9.039504957320862455e-02
3.743999999999999773e+01,9.850124421253178553e-02
3.747999999999999687e+01,1.003238980774729533e-01
3.752000000000000313e+01,8.189968303554018281e-02
3.756000000000000227e+01,9.140205718970693949e-02
3.760000000000000142e+01,7.833033121284442568e-02
3.764000000000000057e+01,9.760690253687169526e-02
3.767999999999999972e+01,8.174237248938291678e-02
3.771999999999999886e+01,8.426280622734279302e-02
3.775999999999999801e+01,9.725564880972810411e-02
3.779999999999999716e+01,7.208198727601572431e-02
3.784000000000000341e+01,8.437648113661309901e-02
3.788000000000000256e+01,8.340571901856567993e-02
3.792000000000000171e+01,8.336574033429293429e-02
3.796000000000000085e+01,7.843848855520278718e-02
3.800000000000000000e+01,7.095117875660332529e-02
3.803999999999999915e+01,6.974724329692245928e-02
3.807999999999999829e+01,8.134289407633098212e-02
3.811999999999999744e+01,9.712741001632839433e-02
3.815999999999999659e+01,7.939981431020018410e-02
3.820000000000000284e+01,7.749717529004818140e-02
3.824000000000000199e+01,9.793570485604327636e-02
3.828000000000000114e+01,7.043333978587111577e-02
3.832000000000000028e+01,8.784617098104190169e-02
3.835999999999999943e+01,8.059030135671833850e-02
3.839999999999999858e+01,9.102113787023113911e-02
3.843999999999999773e+01,9.330652805197700572e-02
3.847999999999999687e+01,8.488652401492378929e-02
3.852000000000000313e+01,9.857492883754813418e-02
3.856000000000000227e+01,9.969615230886955115e-02
3.860000000000000142e+01,8.918107722924176195e-02
3.864000000000000057e+01,8.169118710273561013e-02
3.867999999999999972e+01,9.235340952507316292e-02
3.871999999999999886e+01,1.053426399971568589e-01
3.875999999999999801e+01,9.994661105754917840e-02
3.879999999999999716e+01,8.873230779788950084e-02
3.884000000000000341e+01,1.012554246550940451e-01
3.888000000000000256e+01,9.539326595175989798e-02
3.892000000000000171e+01,1.125703504619145895e-01
3.896000000000000085e+01,1.006569345376494284e-01
3.900000000000000000e+01,1.022411471821206980e-01
3.903999999999999915e+01,1.203483696081135285e-01
3.907999999999999829e+01,1.265865068419417538e-01
3.911999999999999744e+01,1.142066141717107408e-01
3.915999999999999659e+01,1.048518364762625193e-01
3.920000000000000284e+01,1.376194720713676822e-01
3.924000000000000199e+01,1.378057388640233361e-01
3.928000000000000114e+01,1.161158455792631605e-01
3.932000000000000028e+01,1.530716146898345176e-01
3.935999999999999943e+01,1.688493790945689021e-01
3.939999999999999858e+01,1.613546349980858052e-01
3.943999999999999773e+01,1.729427893577157038e-01
3.947999999999999687e+01,1.640510890001383448e-01
3.952000000000000313e+01,1.795948833867671846e-01
3.956000000000000227e+01,2.039817900643302040e-01
3.960000000000000142e+01,2.237139249919871120e-01
3.964000000000000057e+01,2.283187907246315429e-01
3.967999999999999972e+01,2.547991871656027363e-01
3.971999999999999886e+01,2.826755688992888538e-01
3.975999999999999801e+01,2.807631764020953602e-01
3.979999999999999716e+01,3.130605668931437657e-01
3.984000000000000341e+01,3.362814344659028065e-01
3.988000000000000256e+01,3.864976908404085254e-01
3.992000000000000171e+01,4.099505380479722683e-01
3.996000000000000085e+01,4.524862137333102718e-01
4.000000000000000000e+01,5.143374345592991448e-01
4.003999999999999915e+01,5.557087253067929389e-01
4.007999999999999829e+01,6.194209370247731883e-01
4.011999999999999744e+01,6.698675913189576780e-01
4.015999999999999659e+01,7.480077628717215488e-01
4.020000000000000284e+01,8.035734844017626832e-01
4.024000000000000199e+01,8.786874408205852527e-01
4.028000000000000114e+01,9.163327255179410935e-01
4.032000000000000028e+01,9.372215951893692054e-01
4.035999999999999943e+01,1.000000000000000000e+00
4.039999999999999858e+01,9.836524707375138288e-01
4.043999999999999773e+01,9.182001459304786062e-01
4.047999999999999687e+01,9.279165926668754283e-01
4.052000000000000313e+01,8.526890380356653143e-01
4.056000000000000227e+01,7.816500202051465118e-01
4.060000000000000142e+01,7.168940322048018565e-01
4.064000000000000057e+01,6.374760845273679255e-01
4.067999999999999972e+01,5.794680888928805951e-01
4.071999999999999886e+01,5.021436818988914697e-01
4.075999999999999801e+01,4.678723664437424157e-01
4.079999999999999716e+01,3.984595297470446273e-01
4.084000000000000341e+01,3.835031540687485752e-01
4.088000000000000256e+01,3.627282241570451982e-01
4.092000000000000171e+01,3.133279741380657901e-01
4.096000000000000085e+01,2.890611912146008322e-01
4.100000000000000000e+01,2.948150329660409463e-01
4.103999999999999915e+01,2.661254873157149481e-01
4.107999999999999829e+01,2.548895650998073137e-01
4.111999999999999744e+01,2.394641106735777292e-01
4.115999999999999659e+01,2.375359941368313521e-01
4.120000000000000284e+01,2.274620598448274522e-01
4.124000000000000199e+01,2.332126731346656767e-01
4.128000000000000114e+01,2.126651383289425712e-01
4.132000000000000028e+01,1.902552648564090620e-01
4.135999999999999943e+01,1.922806385124214146e-01
4.139999999999999858e+01,1.659133495115937551e-01
4.143999999999999773e+01,1.665412393774965971e-01
4.147999999999999687e+01,1.434308967371753507e-01
4.152000000000000313e+01,1.401013387770892460e-01
4.156000000000000227e+01,1.125680934532293925e-01
4.160000000000000142e+01,1.199425550223777170e-01
4.164000000000000057e+01,1.180075293946995646e-01
4.167999999999999972e+01,1.083920655080260614e-01
4.171999999999999886e+01,1.020340941332162632e-01
4.175999999999999801e+01,9.404644692498116687e-02
4.179999999999999716e+01,9.210894601262020753e-02
4.184000000000000341e+01,7.783654439295289995e-02
4.188000000000000256e+01,6.938155625743579191e-02
4.192000000000000171e+01,7.907824465188233176e-02
4.196000000000000085e+01,7.737090437347805827e-02
4.200000000000000000e+01,8.124823938455075223e-02
4.203999999999999915e+01,7.023070426948861689e-02
4.207999999999999829e+01,7.317582732773085519e-02
4.211999999999999744e+01,9.194537954293402482e-02
4.215999999999999659e+01,7.720228181709794246e-02
4.220000000000000284e+01,5.664045222053326611e-02
4.224000000000000199e+01,5.702292064024783863e-02
4.228000000000000114e+01,7.229890850182392470e-02
4.232000000000000028e+01,6.872371377758408617e-02
4.235999999999999943e+01,5.444260268847917611e-02
4.239999999999999858e+01,4.434978078440560828e-02
4.243999999999999773e+01,5.520122998186559327e-02
4.247999999999999687e+01,4.627058687841026363e-02
4.252000000000000313e+01,4.292454908609322217e-02
4.256000000000000227e+01,5.679921351325083884e-02
4.260000000000000142e+01,5.345171199472853463e-02
4.264000000000000057e+01,5.708513191345146454e-02
4.267999999999999972e+01,5.373614513692744760e-02
4.271999999999999886e+01,5.457540448184185211e-02
4.275999999999999801e+01,3.074537088285697606e-02
4.279999999999999716e+01,4.717548974239754722e-02
4.284000000000000341e+01,5.080512922925198988e-02
4.288000000000000256e+01,3.744528713560827532e-02
4.292000000000000171e+01,3.455715948595144277e-02
4.296000000000000085e+01,4.563157158471800590e-02
4.300000000000000000e+01,3.808743163335905763e-02
4.303999999999999915e+01,2.937888768585387653e-02
4.307999999999999829e+01,4.045091848356754949e-02
4.311999999999999744e+01,4.151509677785963914e-02
4.315999999999999659e+01,3.769130219394675740e-02
4.320000000000000284e+01,5.062267961067090649e-02
4.324000000000000199e+01,4.586636086287770170e-02
4.328000000000000114e+01,4.995265379174902015e-02
4.332000000000000028e+01,4.100568070671891524e-02
4.335999999999999943e+01,3.508325738681238037e-02
4.339999999999999858e+01,2.543643912013450470e-02
4.343999999999999773e+01,4.999891399332743319e-02
4.347999999999999687e+01,5.315010767109669410e-02
4.352000000000000313e+01,4.885333752003577501e-02
4.356000000000000227e+01,4.455570362361854081e-02
4.360000000000000142e+01,3.257737308664722387e-02
4.364000000000000057e+01,3.968137579612971561e-02
4.367999999999999972e+01,4.166461360324266727e-02
4.371999999999999886e+01,4.923229523301982102e-02
4.375999999999999801e+01,3.492321389507785367e-02
4.379999999999999716e+01,5.296160088385874765e-02
4.384000000000000341e+01,4.446877322250804981e-02
4.388000000000000256e+01,5.226558196000774537e-02
4.392000000000000171e+01,4.353821325198320435e-02
4.396000000000000085e+01,3.178454037337669763e-02
4.400000000000000000e+01,4.376759321119590845e-02
4.403999999999999915e+01,4.900077837932344249e-02
4.407999999999999829e+01,4.073515116586447909e-02
4.411999999999999744e+01,3.851935803722974366e-02
4.415999999999999659e+01,4.212067156464443379e-02
4.420000000000000284e+01,4.106659430300223929e-02
4.424000000000000199e+01,4.466600270238260673e-02
4.428000000000000114e+01,2.080324905588802273e-02
4.432000000000000028e+01,4.348393855314598017e-02
4.435999999999999943e+01,3.428073636794220364e-02
4.439999999999999858e+01,2.437839125797302761e-02
4.443999999999999773e+01,3.797999060616343014e-02
4.447999999999999687e+01,3.342828282676169049e-02
4.452000000000000313e+01,3.492635530269287691e-02
4.456000000000000227e+01,4.131059242187912900e-02
4.460000000000000142e+01,4.699565970155435146e-02
4.464000000000000057e+01,3.801822900922665477e-02
4.467999999999999972e+01,4.858843569832658332e-02
4.471999999999999886e+01,4.123802500796529963e-02
4.475999999999999801e+01,3.737741977115926345e-02
4.479999999999999716e+01,3.002495323018783760e-02
4.484000000000000341e+01,4.524548913458183858e-02
4.488000000000000256e+01,5.581054273978368341e-02
4.492000000000000171e+01,4.938584023408146978e-02
4.496000000000000085e+01,3.504753602172896304e-02
4.500000000000000000e+01,4.630759931867947654e-02
4.503999999999999915e+01,4.127605649335571586e-02
4.507999999999999829e+01,4.718138152441678224e-02
4.511999999999999744e+01,3.330425897991969031e-02
4.515999999999999659e+01,4.339642809214912245e-02
4.520000000000000284e+01,3.998963410021624115e-02
4.524000000000000199e+01,4.775240847869748062e-02
4.528000000000000114e+01,4.038715466633813200e-02
4.532000000000000028e+01,4.582051277927454841e-02
4.535999999999999943e+01,5.334726332657494657e-02
4.539999999999999858e+01,4.318602703010444854e-02
4.543999999999999773e+01,4.559066446425671243e-02
4.547999999999999687e+01,4.776145772566833814e-02
4.552000000000000313e+01,5.412012030207869612e-02
4.556000000000000227e+01,4.488527291535310965e-02
4.560000000000000142e+01,3.704561952781948442e-02
4.564000000000000057e+01,4.433175546024577945e-02
4.567999999999999972e+01,3.788614164729429967e-02
4.571999999999999886e+01,2.818126476817319273e-02
4.575999999999999801e+01,5.245264677204723724e-02
4.579999999999999716e+01,4.577083149059343881e-02
4.584000000000000341e+01,5.281844633939958289e-02
4.588000000000000256e+01,5.265050181120237149e-02
4.592000000000000171e+01,4.317249411062119846e-02
4.596000000000000085e+01,5.300922949126964795e-02
4.600000000000000000e+01,3.747806977166171644e-02
4.603999999999999915e+01,4.754513760467930089e-02
4.607999999999999829e+01,4.550945618360799361e-02
4.611999999999999744e+01,5.022150583738117097e-02
4.615999999999999659e+01,4.003813092125847739e-02
4.620000000000000284e+01,2.729359448105362490e-02
4.624000000000000199e+01,4.270720118281140509e-02
4.628000000000000114e+01,5.299969309050595045e-02
4.632000000000000028e+01,4.839673889650812633e-02
4.635999999999999943e+01,4.216348982993438355e-02
4.639999999999999858e+01,4.616876484494687738e-02
4.643999999999999773e+01,5.296545309217385450e-02
4.647999999999999687e+01,4.672845007251747590e-02
4.652000000000000313e+01,5.328989748968292195e-02
4.656000000000000227e+01,5.635924675292110220e-02
4.660000000000000142e+01,5.500560429597999706e-02
4.664000000000000057e+01,6.389045362293031827e-02
4.667999999999999972e+01,5.950886272242605912e-02
4.671999999999999886e+01,4.767887735716089259e-02
4.675999999999999801e+01,6.679962970542818734e-02
4.679999999999999716e+01,5.566521633211641423e-02
4.684000000000000341e+01,6.524175989010758125e-02
4.688000000000000256e+01,6.550811108493553858e-02
4.692000000000000171e+01,5.786059680860547449e-02
4.696000000000000085e+01,5.486620215275660878e-02
4.700000000000000000e+01,6.560108152164285944e-02
4.703999999999999915e+01,7.051657768295493955e-02
4.707999999999999829e+01,7.845612299512097487e-02
4.711999999999999744e+01,6.195851066775769772e-02
4.715999999999999659e+01,7.780791449938981308e-02
4.720000000000000284e+01,7.131464833802579617e-02
4.724000000000000199e+01,7.552523730796764645e-02
4.728000000000000114e+01,9.020695398044044355e-02
4.732000000000000028e+01,9.185486634409829876e-02
4.735999999999999943e+01,9.862128859039748230e-02
4.739999999999999858e+01,8.932850916624894555e-02
4.743999999999999773e+01,9.329950046274353148e-02
4.747999999999999687e+01,9.168377138504933688e-02
4.752000000000000313e+01,9.751375111645700644e-02
4.756000000000000227e+01,1.047386610825489922e-01
4.760000000000000142e+01,9.474073223431912771e-02
4.764000000000000057e+01,8.799949922148098125e-02
4.767999999999999972e+01,9.266022826498533649e-02
4.771999999999999886e+01,9.685408964477172644e-02
4.775999999999999801e+01,9.197036228233965161e-02
4.779999999999999716e+01,8.801608876524572023e-02
4.784000000000000341e+01,8.336220938976059147e-02
4.788000000000000256e+01,8.871393288091805607e-02
4.792000000000000171e+01,7.940271699824345830e-02
4.796000000000000085e+01,8.242431367457021818e-02
4.800000000000000000e+01,7.985911999836944886e-02
4.803999999999999915e+01,9.241939266518031659e-02
4.807999999999999829e+01,7.774971395177408817e-02
4.811999999999999744e+01,7.029294125740709331e-02
4.815999999999999659e+01,6.260196373270736359e-02
4.820000000000000284e+01,7.096731920252558057e-02
4.824000000000000199e+01,7.025502133473569832e-02
4.828000000000000114e+01,6.511950566290287956e-02
4.832000000000000028e+01,7.860024934082349146e-02
4.835999999999999943e+01,7.415988579091153943e-02
4.839999999999999858e+01,7.413972602948624979e-02
4.843999999999999773e+01,5.922383487006438463e-02
4.847999999999999687e+01,6.478595789520513737e-02
4.852000000000000313e+01,5.615050489392816452e-02
4.856000000000000227e+01,4.960801369108421705e-02
4.860000000000000142e+01,6.214718824900115207e-02
4.864000000000000057e+01,5.816155017339584565e-02
4.867999999999999972e+01,6.790496003866179631e-02
4.871999999999999886e+01,5.204738671730444605e-02
4.875999999999999801e+01,5.410784739578288621e-02
4.879999999999999716e+01,6.058845803325665913e-02
4.884000000000000341e+01,6.171488732209669953e-02
4.888000000000000256e+01,6.400334716247385591e-02
4.892000000000000171e+01,5.721406215510755483e-02
4.896000000000000085e+01,5.717212603319722641e-02
4.900000000000000000e+01,5.224143112250807797e-02
4.903999999999999915e+01,4.847274523155942899e-02
4.907999999999999829e+01,6.122571800189920838e-02
4.911999999999999744e+01,5.675564740585000573e-02
4.915999999999999659e+01,3.994969102280258866e-02
4.920000000000000284e+01,6.340302582641886564e-02
4.924000000000000199e+01,5.916080905264169826e-02
4.928000000000000114e+01,6.166589810072734684e-02
4.932000000000000028e+01,6.463479235043244342e-02
4.935999999999999943e+01,5.875860458577937540e-02
4.939999999999999858e+01,6.614592377726163930e-02
4.943999999999999773e+01,6.398998405101036235e-02
4.947999999999999687e+01,5.717794298641631218e-02
4.952000000000000313e+01,6.828383364562448654e-02
4.956000000000000227e+01,7.589722242972017641e-02
4.960000000000000142e+01,6.489117097708291260e-02
4.964000000000000057e+01,7.203575714522622575e-02
4.967999999999999972e+01,7.219699460202394503e-02
4.971999999999999886e+01,8.352719753893254884e-02
4.975999999999999801e+01,8.810676304442301154e-02
4.979999999999999716e+01,8.407390936894053313e-02
4.984000000000000341e+01,9.726077821619000252e-02
4.988000000000000256e+01,9.252633528353974846e-02
4.992000000000000171e+01,1.008226072828604103e-01
4.996000000000000085e+01,1.009718826610630643e-01
5.000000000000000000e+01,1.018175937765754685e-01
5.003999999999999915e+01,1.021961250173200886e-01
5.007999999999999829e+01,9.908208440461342692e-02
5.011999999999999744e+01,7.897758789761508136e-02
5.015999999999999659e+01,9.331420224085838766e-02
5.020000000000000284e+01,8.810040741982884394e-02
5.024000000000000199e+01,8.637568058832298390e-02
5.028000000000000114e+01,8.022746680531725461e-02
5.032000000000000028e+01,6.895759455038552588e-02
5.035999999999999943e+01,7.839820552723274216e-02
5.039999999999999858e+01,7.620092998313565680e-02
5.043999999999999773e+01,6.771836958913657334e-02
5.047999999999999687e+01,6.551750943687482953e-02
5.052000000000000313e+01,7.402006301408979583e-02
5.056000000000000227e+01,5.296511100998407828e-02
5.060000000000000142e+01,5.168972175665968033e-02
5.064000000000000057e+01,5.716145530492743737e-02
5.067999999999999972e+01,5.704603784307549219e-02
5.071999999999999886e+01,6.228140014196327512e-02
5.075999999999999801e+01,5.238799678597883674e-02
5.079999999999999716e+01,6.739401427419564050e-02
5.084000000000000341e+01,6.122048215017347750e-02
5.088000000000000256e+01,5.667415552188304756e-02
5.092000000000000171e+01,6.795107380174364442e-02
5.096000000000000085e+01,6.084109087042643971e-02
5.100000000000000000e+01,6.420173502737060167e-02
5.103999999999999915e+01,5.569168449035861307e-02
5.107999999999999829e+01,6.742657620038969291e-02
5.111999999999999744e+01,5.332743970102356290e-02
5.115999999999999659e+01,5.272429535385658728e-02
5.120000000000000284e+01,4.304309933084544265e-02
5.124000000000000199e+01,5.407226811473217487e-02
5.128000000000000114e+01,4.089644147820527265e-02
5.132000000000000028e+01,4.331108387451227532e-02
5.135999999999999943e+01,5.200730808767566743e-02
5.139999999999999858e+01,7.117410555960908269e-02
5.143999999999999773e+01,4.961262082570659648e-02
5.147999999999999687e+01,5.155413315091580961e-02
5.152000000000000313e+01,5.582093098214767346e-02
5.156000000000000227e+01,5.892217824906739732e-02
5.160000000000000142e+01,5.573798456056020673e-02
5.164000000000000057e+01,5.231911772514544895e-02
5.167999999999999972e+01,5.471634555134247818e-02
5.171999999999999886e+01,5.478439105230228229e-02
5.175999999999999801e+01,4.623975360778150717e-02
5.179999999999999716e+01,5.328552060070504415e-02
5.184000000000000341e+01,5.520942456963540135e-02
5.188000000000000256e+01,4.875335149006342073e-02
5.192000000000000171e+01,5.393139192005127341e-02
5.196000000000000085e+01,3.955878633600429933e-02
5.200000000000000000e+01,4.194016850378458339e-02
5.203999999999999915e+01,5.874831258218583124e-02
5.207999999999999829e+01,4.460241425224500261e-02
5.211999999999999744e+01,4.604687729615539876e-02
5.215999999999999659e+01,5.935814359775649918e-02
5.220000000000000284e+01,5.032606703771951018e-02
5.224000000000000199e+01,4.990267432791496705e-02
5.228000000000000114e+01,5.785523803956805350e-02
5.232000000000000028e+01,5.207515843628696822e-02
5.235999999999999943e+01,4.768936311379380621e-02
5.239999999999999858e+01,6.029022375946226087e-02
5.243999999999999773e+01,4.612599037510922706e-02
5.247999999999999687e+01,4.592301559728519805e-02
5.252000000000000313e+01,5.525957517235260269e-02
5.256000000000000227e+01,4.434724185167097238e-02
5.260000000000000142e+01,5.740319895917666421e-02
5.264000000000000057e+01,4.811575399260369090e-02
5.267999999999999972e+01,5.814214777180546495e-02
5.271999999999999886e+01,5.653034281901313240e-02
5.275999999999999801e+01,4.211672352214893000e-02
5.279999999999999716e+01,6.098024957175485899e-02
5.284000000000000341e+01,4.214069160803943226e-02
5.288000000000000256e+01,4.005500297127023712e-02
5.292000000000000171e+01,5.099962554528674613e-02
5.296000000000000085e+01,4.518613208144860866e-02
5.300000000000000000e+01,4.914483042093791693e-02
5.303999999999999915e+01,4.984328061456565900e-02
5.307999999999999829e+01,4.541970091277698629e-02
5.311999999999999744e+01,4.844107640721123653e-02
5.315999999999999659e+01,4.680585533198223375e-02
5.320000000000000284e+01,4.749569367891222360e-02
5.324000000000000199e+01,4.632158924018919127e-02
5.328000000000000114e+01,4.305081458703836211e-02
5.332000000000000028e+01,3.907969661146481338e-02
5.335999999999999943e+01,5.465504791735645990e-02
5.339999999999999858e+01,5.719577670616435988e-02
5.343999999999999773e+01,5.414898306136221168e-02
5.347999999999999687e+01,4.877277024156077834e-02
5.352000000000000313e+01,4.711790605527953896e-02
5.356000000000000227e+01,5.034799534869792426e-02
5.360000000000000142e+01,4.799054067670963791e-02
5.364000000000000057e+01,5.680152395581698072e-02
5.367999999999999972e+01,4.233807702086524183e-02
5.371999999999999886e+01,4.881738319579074364e-02
5.375999999999999801e+01,5.762167343158734745e-02
5.379999999999999716e+01,4.873684640429458426e-02
5.384000000000000341e+01,5.078770836752599660e-02
5.388000000000000256e+01,5.237087369287248689e-02
5.392000000000000171e+01,5.371905904321069847e-02
5.396000000000000085e+01,5.529770312724287956e-02
5.400000000000000000e+01,4.360892190412863495e-02
5.403999999999999915e+01,5.123379640651845590e-02
5.407999999999999829e+01,5.117656393568068007e-02
5.411999999999999744e+01,5.321154503334600550e-02
5.415999999999999659e+01,5.966595477482248416e-02
5.420000000000000284e+01,5.006024774449822912e-02
5.424000000000000199e+01,5.674278292919823080e-02
5.428000000000000114e+01,4.806335671367634177e-02
5.432000000000000028e+01,5.450855171815181810e-02
5.435999999999999943e+01,4.884988319806714274e-02
5.439999999999999858e+01,4.621427874914452866e-02
5.443999999999999773e+01,4.776534321756337881e-02
5.447999999999999687e+01,5.280490508289740342e-02
5.452000000000000313e+01,5.342040940412324385e-02
5.456000000000000227e+01,4.914640670664040950e-02
5.460000000000000142e+01,6.046243164016237154e-02
5.464000000000000057e+01,4.734028693971745888e-02
5.467999999999999972e+01,5.073904728768201255e-02
5.471999999999999886e+01,5.878988296399550312e-02
5.475999999999999801e+01,5.869307606529461374e-02
5.479999999999999716e+01,5.417217394184155321e-02
5.484000000000000341e+01,4.429628302738439216e-02
5.488000000000000256e+01,4.489049705512248439e-02
5.492000000000000171e+01,5.618753268793232752e-02
5.496000000000000085e+01,5.072618313543074409e-02
5.500000000000000000e+01,5.317497987219414052e-02
5.503999999999999915e+01,6.446480569857618304e-02
5.507999999999999829e+01,5.666900973254229007e-02
5.511999999999999744e+01,5.538701163197167626e-02
5.515999999999999659e+01,6.178241624304376539e-02
5.520000000000000284e+01,4.536863017964110761e-02
5.524000000000000199e+01,5.199189108647990498e-02
5.528000000000000114e+01,6.187081968542543914e-02
5.532000000000000028e+01,5.568948078999448603e-02
5.535999999999999943e+01,5.555646337068054913e-02
5.539999999999999858e+01,5.914454158627739655e-02
5.543999999999999773e+01,6.086838095401878729e-02
5.547999999999999687e+01,6.328791859503844763e-02
5.552000000000000313e+01,5.430160274345015303e-02
5.556000000000000227e+01,5.369080191149030318e-02
5.560000000000000142e+01,6.005917844125559235e-02
5.564000000000000057e+01,7.503578127057676517e-02
5.567999999999999972e+01,6.603951860090502557e-02
5.571999999999999886e+01,6.821141396897376086e-02
5.575999999999999801e+01,6.293369832577681844e-02
5.579999999999999716e+01,7.161679450433063032e-02
5.584000000000000341e+01,8.099554050962050333e-02
5.588000000000000256e+01,7.501210979672311152e-02
5.592000000000000171e+01,7.274970474039769985e-02
5.596000000000000085e+01,8.118998133246656257e-02
5.600000000000000000e+01,7.403534301167501164e-02
5.603999999999999915e+01,8.689225740640799112e-02
5.607999999999999829e+01,8.275791384742797741e-02
5.611999999999999744e+01,9.747150200894562355e-02
5.615999999999999659e+01,1.019427607797976781e-01
5.620000000000000284e+01,9.593896273120944285e-02
5.624000000000000199e+01,9.272525909229717422e-02
5.628000000000000114e+01,1.023086924506174944e-01
5.632000000000000028e+01,1.135185992235871050e-01
5.635999999999999943e+01,1.184424244701825640e-01
5.639999999999999858e+01,1.140547762117204988e-01
5.643999999999999773e+01,1.364275661682372298e-01
5.647999999999999687e+01,1.436708207081554001e-01
5.652000000000000313e+01,1.478860808314627906e-01
5.656000000000000227e+01,1.551241143466789707e-01
5.660000000000000142e+01,1.602650308626889786e-01
5.664000000000000057e+01,1.451565054221381490e-01
5.667999999999999972e+01,1.572738299905228065e-01
5.671999999999999886e+01,1.540288647987883008e-01
5.675999999999999801e+01,1.635809720088967634e-01
5.679999999999999716e+01,1.591671109679420049e-01
5.684000000000000341e+01,1.447435510720121721e-01
5.688000000000000256e+01,1.354372199168293878e-01
5.692000000000000171e+01,1.231028405155445010e-01
5.696000000000000085e+01,1.233327845555311914e-01
5.700000000000000000e+01,1.307744395998489406e-01
5.703999999999999915e+01,1.072613847501316386e-01
5.707999999999999829e+01,1.105086819882069860e-01
5.711999999999999744e+01,9.723002540754331624e-02
5.715999999999999659e+01,1.044282149114797581e-01
5.720000000000000284e+01,8.811877845600747661e-02
5.724000000000000199e+01,1.022932252897426342e-01
5.728000000000000114e+01,9.179642516904232274e-02
5.732000000000000028e+01,8.827857094325421150e-02
5.735999999999999943e+01,9.360143359603488589e-02
5.739999999999999858e+01,8.146741656612968563e-02
5.743999999999999773e+01,7.863954974054647440e-02
5.747999999999999687e+01,8.046338681982184715e-02
5.752000000000000313e+01,8.181903741284091147e-02
5.756000000000000227e+01,8.433555045743461320e-02
5.760000000000000142e+01,8.894380875395663244e-02
5.764000000000000057e+01,7.656059916174946800e-02
5.767999999999999972e+01,8.139605703424358796e-02
5.771999999999999886e+01,7.598897558105585648e-02
5.775999999999999801e+01,7.965527922277129691e-02
5.779999999999999716e+01,8.750779961410078134e-02
5.784000000000000341e+01,7.790338111030392643e-02
5.788000000000000256e+01,8.156132837742563479e-02
5.792000000000000171e+01,8.056203850393689470e-02
5.796000000000000085e+01,7.513822815271430089e-02
5.800000000000000000e+01,8.716576424842571724e-02
5.803999999999999915e+01,7.824550384687940785e-02
5.807999999999999829e+01,7.932947365994599820e-02
5.811999999999999744e+01,8.715955966311643432e-02
5.815999999999999659e+01,6.450022914132751140e-02
5.820000000000000284e+01,7.535003931370105879e-02
5.824000000000000199e+01,8.293890155682534515e-02
5.828000000000000114e+01,8.377597980036559366e-02
5.832000000000000028e+01,8.810103867770398278e-02
5.835999999999999943e+01,9.335413030180851612e-02
5.839999999999999858e+01,7.719393289046169726e-02
5.843999999999999773e+01,8.500123999672834496e-02
5.847999999999999687e+01,9.722739438829947067e-02
5.852000000000000313e+01,8.175674835827752285e-02
5.856000000000000227e+01,8.559914978050738033e-02
5.860000000000000142e+01,8.804233119355150960e-02
5.864000000000000057e+01,9.234439585602069456e-02
5.867999999999999972e+01,9.105823291854298063e-02
5.871999999999999886e+01,6.859145992784658474e-02
5.875999999999999801e+01,7.753925385759327660e-02
5.879999999999999716e+01,7.903702767193999945e-02
5.884000000000000341e+01,6.749944688812058169e-02
5.888000000000000256e+01,6.410421229332563531e-02
5.892000000000000171e+01,7.350575942112026750e-02
5.896000000000000085e+01,6.126122010634997561e-02
5.900000000000000000e+01,6.111528561079381666e-02
5.903999999999999915e+01,6.282818053517141843e-02
5.907999999999999829e+01,5.127296651786224929e-02
5.911999999999999744e+01,5.460900572082851012e-02
5.915999999999999659e+01,5.933841410322957671e-02
5.920000000000000284e+01,4.893792102849078146e-02
5.924000000000000199e+01,5.273049888770285631e-02
5.928000000000000114e+01,5.070204635690529066e-02
5.932000000000000028e+01,3.726722895333189206e-02
5.935999999999999943e+01,5.012701271779888140e-02
5.939999999999999858e+01,4.040976264395756273e-02
5.943999999999999773e+01,5.023816364331280121e-02
5.947999999999999687e+01,4.214396095497566219e-02
5.952000000000000313e+01,4.382107264925680368e-02
5.956000000000000227e+01,3.176456671481022592e-02
5.960000000000000142e+01,5.158795875052633872e-02
5.964000000000000057e+01,4.301623350459648359e-02
5.967999999999999972e+01,3.327786495567996994e-02
5.971999999999999886e+01,4.448144207427016938e-02
5.975999999999999801e+01,4.171865260356127231e-02
5.979999999999999716e+01,3.197115253537543417e-02
5.984000000000000341e+01,3.478758833612332485e-02
5.988000000000000256e+01,4.062635074400158114e-02
5.992000000000000171e+01,3.389505730573853098e-02
5.996000000000000085e+01,3.344418835026755077e-02
