2.003999999999999915e+01,5.635329026736532812e-03
2.007999999999999829e+01,5.416000108837294887e-03
2.012000000000000099e+01,5.196595567492387317e-03
2.016000000000000014e+01,3.931186629677926696e-03
2.019999999999999929e+01,2.427991066006691435e-03
2.023999999999999844e+01,3.634626505134810458e-03
2.028000000000000114e+01,6.505164174037808382e-03
2.032000000000000028e+01,6.332924431483983284e-03
2.035999999999999943e+01,4.211378362492036384e-03
2.039999999999999858e+01,5.084916796558398323e-03
2.044000000000000128e+01,3.296015711098831957e-03
2.048000000000000043e+01,4.739910316962304450e-03
2.051999999999999957e+01,5.660765354269623080e-03
2.055999999999999872e+01,5.392989802537342947e-03
2.060000000000000142e+01,5.553019156528026835e-03
2.064000000000000057e+01,6.521191215245992871e-03
2.067999999999999972e+01,4.874466252285462528e-03
2.071999999999999886e+01,6.222826164089608966e-03
2.076000000000000156e+01,3.910360327654064348e-03
2.080000000000000071e+01,3.404423982219149068e-03
2.083999999999999986e+01,4.562390517045276754e-03
2.087999999999999901e+01,3.580882453185642734e-03
2.092000000000000171e+01,3.692770733702134371e-03
2.096000000000000085e+01,5.706273129207699649e-03
2.100000000000000000e+01,7.291820951851928079e-03
2.103999999999999915e+01,5.834592199378704942e-03
2.107999999999999829e+01,5.898639948743435168e-03
2.112000000000000099e+01,4.393720007013698914e-03
2.116000000000000014e+01,5.836343232077296529e-03
2.119999999999999929e+01,5.234576668296775023e-03
2.123999999999999844e+01,3.776975838826075130e-03
2.128000000000000114e+01,5.647256068079609462e-03
2.132000000000000028e+01,6.186279933893312766e-03
2.135999999999999943e+01,5.726843016203849585e-03
2.139999999999999858e+01,3.698438732663018001e-03
2.144000000000000128e+01,4.712662379293854412e-03
2.148000000000000043e+01,6.154691953840216341e-03
2.151999999999999957e+01,5.457247673113579771e-03
2.155999999999999872e+01,6.613875985257839686e-03
2.160000000000000142e+01,6.486790478272982073e-03
2.164000000000000057e+01,4.172689036337393423e-03
2.167999999999999972e+01,5.614349089367640273e-03
2.171999999999999886e+01,4.060775576224120477e-03
2.176000000000000156e+01,5.169492612417636926e-03
2.180000000000000071e+01,2.712469546552442965e-03
2.183999999999999986e+01,4.011208161506292329e-03
2.187999999999999901e+01,4.549197692317989011e-03
2.192000000000000171e+01,6.275669167223494813e-03
2.196000000000000085e+01,4.769196259396876227e-03
2.200000000000000000e+01,7.303738532648244679e-03
2.203999999999999915e+01,6.985674268635092346e-03
2.207999999999999829e+01,3.577292418482578597e-03
2.212000000000000099e+01,5.873903556164871732e-03
2.216000000000000014e+01,4.794943886228639381e-03
2.219999999999999929e+01,3.478199913600515513e-03
2.223999999999999844e+01,4.538493733463251287e-03
2.228000000000000114e+01,2.460927980435497885e-03
2.232000000000000028e+01,6.135897666626650114e-03
2.235999999999999943e+01,4.248354700404957315e-03
2.239999999999999858e+01,2.313196540078388697e-03
2.244000000000000128e+01,5.322356234210957361e-03
2.248000000000000043e+01,6.144500969122051494e-03
2.251999999999999957e+01,5.207510762883597703e-03
2.255999999999999872e+01,4.413074424663947573e-03
2.260000000000000142e+01,7.136689554727856412e-03
2.264000000000000057e+01,5.486347834312674428e-03
2.267999999999999972e+01,5.167115597996830775e-03
2.271999999999999886e+01,6.036366235040755562e-03
2.276000000000000156e+01,3.910384513956640523e-03
2.280000000000000071e+01,3.876187921443790315e-03
2.283999999999999986e+01,6.409198694641753472e-03
2.287999999999999901e+01,6.565026096980707167e-03
2.292000000000000171e+01,4.581381270262085102e-03
2.296000000000000085e+01,4.356726224494531473e-03
2.300000000000000000e+01,8.410798616725527130e-03
2.303999999999999915e+01,5.095754821849954493e-03
2.307999999999999829e+01,7.533247348995939646e-03
2.312000000000000099e+01,2.791792658232460263e-03
2.316000000000000014e+01,6.084900897663190165e-03
2.319999999999999929e+01,5.004052937100997647e-03
2.323999999999999844e+01,5.587110644597691363e-03
2.328000000000000114e+01,5.979927522979170719e-03
2.332000000000000028e+01,4.803779265747555247e-03
2.335999999999999943e+01,5.719416787573367369e-03
2.339999999999999858e+01,3.307027161210512965e-03
2.344000000000000128e+01,4.602858855130971712e-03
2.348000000000000043e+01,4.757605570900162902e-03
2.351999999999999957e+01,6.386089403700838558e-03
2.355999999999999872e+01,4.543919616963148535e-03
2.360000000000000142e+01,4.650909230859808646e-03
2.364000000000000057e+01,3.759440709661267862e-03
2.367999999999999972e+01,5.054842777361779477e-03
2.371999999999999886e+01,5.018991269420315475e-03
2.376000000000000156e+01,3.509259575097292087e-03
2.380000000000000071e+01,3.283096446778313669e-03
2.383999999999999986e+01,5.006092997873448983e-03
2.387999999999999901e+01,4.589618435030163972e-03
2.392000000000000171e+01,8.499414597908887606e-03
2.396000000000000085e+01,3.899082384713867862e-03
2.400000000000000000e+01,5.384083095669620241e-03
2.403999999999999915e+01,4.491901783202007989e-03
2.407999999999999829e+01,4.598036047575774707e-03
2.412000000000000099e+01,5.464774839916086702e-03
2.416000000000000014e+01,3.906789529155285483e-03
2.419999999999999929e+01,5.724230888007060536e-03
2.423999999999999844e+01,4.166103855331807979e-03
2.428000000000000114e+01,5.175185861046083940e-03
2.432000000000000028e+01,5.756317150352725440e-03
2.435999999999999943e+01,4.863568950227283548e-03
2.439999999999999858e+01,5.729812203731609634e-03
2.444000000000000128e+01,5.217260498865692285e-03
2.448000000000000043e+01,4.086589387174838044e-03
2.451999999999999957e+01,5.618212030788554898e-03
2.455999999999999872e+01,3.441471121108222609e-03
2.460000000000000142e+01,5.115579536349715815e-03
2.464000000000000057e+01,2.653444519615122225e-03
2.467999999999999972e+01,3.566736730052685010e-03
2.471999999999999886e+01,5.193091946338625024e-03
2.476000000000000156e+01,5.725905890366459264e-03
2.480000000000000071e+01,3.786454255638310295e-03
2.483999999999999986e+01,3.605994585636212221e-03
2.487999999999999901e+01,5.897660212837865269e-03
2.492000000000000171e+01,4.766216019320912260e-03
2.496000000000000085e+01,6.106897215934293036e-03
2.500000000000000000e+01,4.214637561026159801e-03
2.503999999999999915e+01,4.271538979431086652e-03
2.507999999999999829e+01,2.807019525675627167e-03
2.512000000000000099e+01,5.003181124594364981e-03
2.516000000000000014e+01,4.584450905723922408e-03
2.519999999999999929e+01,4.213193183314665156e-03
2.523999999999999844e+01,6.599314490684586934e-03
2.528000000000000114e+01,4.136059823476793788e-03
2.532000000000000028e+01,5.000690907786293528e-03
2.535999999999999943e+01,5.294745826531023318e-03
2.539999999999999858e+01,4.305091340159902455e-03
2.544000000000000128e+01,3.743247381570757523e-03
2.548000000000000043e+01,5.130565007390934344e-03
2.551999999999999957e+01,5.186631148417519301e-03
2.555999999999999872e+01,3.958988070181445815e-03
2.560000000000000142e+01,5.060844468285583160e-03
2.564000000000000057e+01,4.498653987512646335e-03
2.567999999999999972e+01,5.124949818383493956e-03
2.571999999999999886e+01,5.941345406941272132e-03
2.576000000000000156e+01,4.998609817876613001e-03
2.580000000000000071e+01,4.959107365439871865e-03
2.583999999999999986e+01,7.201562449055520961e-03
2.587999999999999901e+01,5.355317760124925740e-03
2.592000000000000171e+01,3.936884156535891757e-03
2.596000000000000085e+01,5.941421486012163355e-03
2.600000000000000000e+01,4.142512496737848007e-03
2.603999999999999915e+01,3.769801332615128724e-03
2.607999999999999829e+01,5.156083573580692164e-03
2.612000000000000099e+01,4.355355083484850967e-03
2.616000000000000014e+01,5.741500063012521492e-03
2.619999999999999929e+01,5.606225471352147688e-03
2.623999999999999844e+01,2.760975878276390998e-03
2.628000000000000114e+01,3.148528713701803216e-03
2.632000000000000028e+01,4.724568604183767423e-03
2.635999999999999943e+01,4.541478013992758175e-03
2.639999999999999858e+01,5.023910162041005968e-03
2.644000000000000128e+01,4.507887427424877962e-03
2.648000000000000043e+01,3.421289828216328519e-03
2.651999999999999957e+01,4.996988307477232862e-03
2.655999999999999872e+01,6.334907548545681832e-03
2.660000000000000142e+01,4.677598891962649399e-03
2.664000000000000057e+01,4.351404319345431732e-03
2.667999999999999972e+01,3.407092895384643619e-03
2.671999999999999886e+01,4.459486715263030580e-03
2.676000000000000156e+01,3.657666080966162983e-03
2.680000000000000071e+01,4.329586373691164669e-03
2.683999999999999986e+01,4.716185534399182366e-03
2.687999999999999901e+01,4.674836952350622764e-03
2.692000000000000171e+01,6.677736065525336114e-03
2.696000000000000085e+01,3.688634498377957923e-03
2.700000000000000000e+01,4.930722796491274207e-03
2.703999999999999915e+01,4.080885870334282316e-03
2.707999999999999829e+01,4.562163539239372061e-03
2.712000000000000099e+01,4.900747058573426927e-03
2.716000000000000014e+01,4.383503188785355803e-03
2.719999999999999929e+01,5.102289615314004045e-03
2.723999999999999844e+01,5.155417621917630054e-03
2.728000000000000114e+01,3.877296188112756403e-03
2.732000000000000028e+01,4.643422914164133629e-03
2.735999999999999943e+01,4.934060235950886962e-03
2.739999999999999858e+01,3.608194942313285459e-03
2.744000000000000128e+01,3.613444661907435056e-03
2.748000000000000043e+01,4.997351660264270044e-03
2.751999999999999957e+01,1.864680819461437796e-03
2.755999999999999872e+01,5.150142571516260447e-03
2.760000000000000142e+01,4.632159863352402866e-03
2.764000000000000057e+01,3.686230295234630989e-03
2.767999999999999972e+01,3.976331580993148172e-03
2.771999999999999886e+01,5.407379328955998210e-03
2.776000000000000156e+01,1.466089573321705062e-03
2.780000000000000071e+01,5.179030385083123640e-03
2.783999999999999986e+01,5.040984796338025993e-03
2.787999999999999901e+01,4.997957036162681277e-03
2.792000000000000171e+01,2.007245130692311523e-03
2.796000000000000085e+01,3.342808643737024688e-03
2.800000000000000000e+01,4.963559001011875679e-03
2.803999999999999915e+01,4.587469733734121473e-03
2.807999999999999829e+01,3.022758612516705714e-03
2.812000000000000099e+01,2.171114446527964374e-03
2.816000000000000014e+01,4.885070426288768211e-03
2.819999999999999929e+01,6.077609158026410843e-03
2.823999999999999844e+01,3.847041925499155874e-03
2.828000000000000114e+01,4.373857253961689444e-03
2.832000000000000028e+01,5.185859798360750034e-03
2.835999999999999943e+01,5.474831881010002246e-03
2.839999999999999858e+01,4.147302509817324921e-03
2.844000000000000128e+01,2.677080522342437183e-03
2.848000000000000043e+01,4.201952423511963464e-03
2.851999999999999957e+01,4.870998515311479767e-03
2.855999999999999872e+01,5.349809911151050083e-03
2.860000000000000142e+01,4.640000057073825727e-03
2.864000000000000057e+01,4.690799981315767198e-03
2.867999999999999972e+01,3.457894310432249770e-03
2.871999999999999886e+01,4.221696206552790105e-03
2.876000000000000156e+01,3.321454847933454080e-03
2.880000000000000071e+01,4.940885558988653004e-03
2.883999999999999986e+01,4.563477574757194774e-03
2.887999999999999901e+01,4.851595209489441632e-03
2.892000000000000171e+01,4.854394128296169418e-03
2.896000000000000085e+01,4.619416596708302881e-03
2.900000000000000000e+01,4.431915975594883338e-03
2.903999999999999915e+01,3.864012339810592861e-03
2.907999999999999829e+01,3.153416831156849540e-03
2.912000000000000099e+01,3.678853849058110869e-03
2.916000000000000014e+01,5.107527906504300171e-03
2.919999999999999929e+01,2.685217143196072780e-03
2.923999999999999844e+01,2.735036741591033091e-03
2.928000000000000114e+01,3.497924642650306146e-03
2.932000000000000028e+01,3.880409854281774255e-03
2.935999999999999943e+01,3.787407984813497257e-03
2.939999999999999858e+01,3.741883490452650382e-03
2.944000000000000128e+01,4.409427484609302825e-03
2.948000000000000043e+01,3.650640155703574734e-03
2.951999999999999957e+01,3.985259160782943927e-03
2.955999999999999872e+01,3.178800250132288868e-03
2.960000000000000142e+01,3.180494451987572226e-03
2.964000000000000057e+01,3.800172936541590472e-03
2.967999999999999972e+01,4.182075807040368069e-03
2.971999999999999886e+01,4.373745329014827599e-03
2.976000000000000156e+01,4.280097110793018057e-03
2.980000000000000071e+01,4.233926732311620901e-03
2.983999999999999986e+01,1.953207724787866650e-03
2.987999999999999901e+01,3.618428613476469633e-03
2.992000000000000171e+01,4.332740880875228517e-03
2.996000000000000085e+01,3.383011287433040481e-03
3.000000000000000000e+01,4.620159624090932997e-03
3.003999999999999915e+01,4.478519507240230971e-03
3.007999999999999829e+01,2.910548764276607494e-03
3.012000000000000099e+01,4.242589376817353965e-03
3.016000000000000014e+01,5.099143837524293399e-03
3.019999999999999929e+01,2.912932363208915222e-03
3.023999999999999844e+01,4.054612355396432742e-03
3.028000000000000114e+01,3.532250858449387330e-03
3.032000000000000028e+01,4.721345472632538197e-03
3.035999999999999943e+01,3.913603157134335798e-03
3.039999999999999858e+01,2.820543844852626669e-03
3.044000000000000128e+01,2.297927525467973776e-03
3.048000000000000043e+01,4.675322979757365500e-03
3.051999999999999957e+01,5.483761661827226026e-03
3.055999999999999872e+01,4.295363646532227020e-03
3.060000000000000142e+01,4.533168753204754389e-03
3.064000000000000057e+01,2.013461750356988593e-03
3.067999999999999972e+01,4.390539954340058962e-03
3.071999999999999886e+01,3.772395046391298790e-03
3.076000000000000156e+01,3.724693503045978845e-03
3.080000000000000071e+01,4.580230904240790123e-03
3.083999999999999986e+01,3.771727466787195594e-03
3.087999999999999901e+01,2.725449809177290291e-03
3.092000000000000171e+01,4.531642217270076718e-03
3.096000000000000085e+01,4.816420583307231586e-03
3.100000000000000000e+01,4.102749363495950506e-03
3.103999999999999915e+01,3.674268519125439315e-03
3.107999999999999829e+01,2.580133715306463880e-03
3.112000000000000099e+01,2.341696008666371755e-03
3.116000000000000014e+01,2.626159912195053740e-03
3.119999999999999929e+01,2.910561062611945020e-03
3.123999999999999844e+01,4.003117230529977533e-03
3.128000000000000114e+01,3.954597480639771706e-03
3.132000000000000028e+01,2.432206325931256935e-03
3.135999999999999943e+01,2.383561395060535253e-03
3.139999999999999858e+01,3.285698324747019731e-03
3.144000000000000128e+01,2.523795112734579602e-03
3.148000000000000043e+01,2.807758292341191661e-03
3.151999999999999957e+01,4.185130129097789330e-03
3.155999999999999872e+01,0.000000000000000000e+00
3.160000000000000142e+01,2.708429347229185987e-03
3.164000000000000057e+01,3.942987661346424900e-03
3.167999999999999972e+01,4.749603808302806443e-03
3.171999999999999886e+01,4.510228986682475981e-03
3.176000000000000156e+01,3.082236585745861020e-03
3.180000000000000071e+01,3.936208643892953780e-03
3.183999999999999986e+01,3.506478777515108225e-03
3.187999999999999901e+01,4.027531329254044161e-03
3.192000000000000171e+01,4.215726430747150123e-03
3.196000000000000085e+01,2.074290927617429819e-03
3.200000000000000000e+01,3.593544468849072145e-03
3.203999999999999915e+01,3.496300784398875643e-03
3.207999999999999829e+01,3.256368711826545127e-03
3.211999999999999744e+01,5.108232593773811246e-03
3.215999999999999659e+01,4.202586131806098496e-03
3.220000000000000284e+01,3.439504735511904766e-03
3.224000000000000199e+01,3.389495080166041088e-03
3.228000000000000114e+01,4.670606060110935216e-03
3.232000000000000028e+01,3.241749101061679357e-03
3.235999999999999943e+01,3.999772813447051434e-03
3.239999999999999858e+01,5.090530700092930905e-03
3.243999999999999773e+01,3.376236348999297251e-03
3.247999999999999687e+01,3.468485056189177327e-03
3.252000000000000313e+01,3.798383638894206864e-03
3.256000000000000227e+01,3.985594391036672082e-03
3.260000000000000142e+01,4.410455111620885903e-03
3.264000000000000057e+01,3.931952589487114347e-03
3.267999999999999972e+01,4.118980100330319957e-03
3.271999999999999886e+01,3.782982213923143360e-03
3.275999999999999801e+01,3.494465605540396022e-03
3.279999999999999716e+01,3.015719226307249021e-03
3.284000000000000341e+01,4.771396295135926779e-03
3.288000000000000256e+01,2.961346132239344592e-03
3.292000000000000171e+01,3.670972824736943012e-03
3.296000000000000085e+01,3.429694427155308145e-03
3.300000000000000000e+01,3.806404215189407737e-03
3.303999999999999915e+01,4.706017797167280810e-03
3.307999999999999829e+01,4.797353085658694408e-03
3.311999999999999744e+01,2.606601336030536786e-03
3.315999999999999659e+01,3.125695596846849670e-03
3.320000000000000284e+01,4.500489370933516420e-03
3.324000000000000199e+01,3.355485150952370460e-03
3.328000000000000114e+01,4.302278232926443416e-03
3.332000000000000028e+01,3.157153385367939165e-03
3.335999999999999943e+01,4.389079247097014448e-03
3.339999999999999858e+01,3.814340586625857531e-03
3.343999999999999773e+01,4.475639470745849426e-03
3.347999999999999687e+01,2.997478392118818787e-03
3.352000000000000313e+01,4.609501494646953829e-03
3.356000000000000227e+01,4.367318041760420884e-03
3.360000000000000142e+01,5.456256757453471946e-03
3.364000000000000057e+01,4.881157886928968320e-03
3.367999999999999972e+01,5.542096839775383608e-03
3.371999999999999886e+01,3.160273946369678271e-03
3.375999999999999801e+01,3.868635512898918258e-03
3.379999999999999716e+01,3.103128555334285638e-03
3.384000000000000341e+01,4.334335112075793882e-03
3.388000000000000256e+01,4.329384332988159105e-03
3.392000000000000171e+01,2.803022950128915714e-03
3.396000000000000085e+01,3.891424068844848757e-03
3.400000000000000000e+01,3.220703581377645786e-03
3.403999999999999915e+01,4.927034593074076235e-03
3.407999999999999829e+01,3.828315272026186402e-03
3.411999999999999744e+01,3.157416561295852374e-03
3.415999999999999659e+01,2.438916316670113483e-03
3.420000000000000284e+01,4.240094414264083782e-03
3.424000000000000199e+01,3.569017898440308978e-03
3.428000000000000114e+01,1.994580044893741206e-03
3.432000000000000028e+01,3.843122835241676635e-03
3.435999999999999943e+01,3.837459999440898193e-03
3.439999999999999858e+01,3.451400375051115899e-03
3.443999999999999773e+01,3.207908418279510187e-03
3.447999999999999687e+01,4.675877404821059645e-03
3.452000000000000313e+01,2.530578845564905328e-03
3.456000000000000227e+01,4.759105590335563005e-03
3.460000000000000142e+01,3.421907101302747514e-03
3.464000000000000057e+01,5.127351875329797838e-03
3.467999999999999972e+01,4.408084766103002698e-03
3.471999999999999886e+01,3.783843430669849451e-03
3.475999999999999801e+01,3.872676763372765851e-03
3.479999999999999716e+01,5.102464782283700623e-03
3.484000000000000341e+01,4.810843266078869418e-03
3.488000000000000256e+01,4.138825518844610127e-03
3.492000000000000171e+01,3.514291558652849791e-03
3.496000000000000085e+01,5.076641290010066102e-03
3.500000000000000000e+01,4.261821728887441561e-03
3.503999999999999915e+01,3.399401656061953273e-03
3.507999999999999829e+01,3.963189909093322097e-03
3.511999999999999744e+01,2.672773418778628778e-03
3.515999999999999659e+01,4.520085233681925448e-03
3.520000000000000284e+01,4.275481302827626937e-03
3.524000000000000199e+01,3.698023778181200403e-03
3.528000000000000114e+01,2.977881582476442877e-03
3.532000000000000028e+01,3.826574648611206532e-03
3.535999999999999943e+01,2.821063250179692457e-03
3.539999999999999858e+01,3.717182739987670830e-03
3.543999999999999773e+01,5.136208811537282433e-03
3.547999999999999687e+01,4.463319462572380887e-03
3.552000000000000313e+01,4.931385636154846618e-03
3.556000000000000227e+01,3.735416453758032967e-03
3.560000000000000142e+01,3.823029544038054114e-03
3.564000000000000057e+01,3.482705067023677409e-03
3.567999999999999972e+01,4.235794079342223087e-03
3.571999999999999886e+01,4.798656712631100066e-03
3.575999999999999801e+01,4.981124137083085303e-03
3.579999999999999716e+01,4.593027522890974837e-03
3.584000000000000341e+01,4.204873545329584905e-03
3.588000000000000256e+01,5.480639918229128840e-03
3.592000000000000171e+01,5.995673515603967482e-03
3.596000000000000085e+01,3.753201183077097599e-03
3.600000000000000000e+01,6.027182484458628448e-03
3.603999999999999915e+01,6.589586768352819444e-03
3.607999999999999829e+01,4.679738576140951047e-03
3.611999999999999744e+01,5.955162023333840891e-03
3.615999999999999659e+01,4.282910896671006558e-03
3.620000000000000284e+01,6.128727035812909542e-03
3.624000000000000199e+01,7.071184113933606796e-03
3.628000000000000114e+01,4.685629005047458294e-03
3.632000000000000028e+01,6.198479053896956137e-03
3.635999999999999943e+01,4.668570323071959301e-03
3.639999999999999858e+01,5.753426928083289760e-03
3.643999999999999773e+01,6.030009142525155109e-03
3.647999999999999687e+01,6.211450298875251241e-03
3.652000000000000313e+01,6.773172634273133194e-03
3.656000000000000227e+01,5.861029651544675222e-03
3.660000000000000142e+01,6.280012322143127892e-03
3.664000000000000057e+01,5.557925301015219713e-03
3.667999999999999972e+01,7.498146160034349292e-03
3.671999999999999886e+01,5.825102028737146748e-03
3.675999999999999801e+01,6.909450308648833194e-03
3.679999999999999716e+01,6.044511358537702807e-03
3.684000000000000341e+01,6.225445026127508601e-03
3.688000000000000256e+01,7.785046891354930297e-03
3.692000000000000171e+01,5.969095093920642747e-03
3.696000000000000085e+01,8.431886950175769210e-03
3.700000000000000000e+01,9.468356218468448882e-03
3.703999999999999915e+01,7.937489687638970767e-03
3.707999999999999829e+01,7.072158300749198379e-03
3.711999999999999744e+01,8.488797552561724857e-03
3.715999999999999659e+01,8.621741059467882481e-03
3.720000000000000284e+01,8.707086563689250824e-03
3.724000000000000199e+01,8.221869701945237752e-03
3.728000000000000114e+01,9.780912569418580976e-03
3.732000000000000028e+01,1.181532198334091753e-02
3.735999999999999943e+01,1.075943156010357969e-02
3.739999999999999858e+01,1.155763212920298509e-02
3.743999999999999773e+01,1.278365716507365128e-02
3.747999999999999687e+01,1.324895123748821672e-02
3.752000000000000313e+01,1.243054998316608928e-02
3.756000000000000227e+01,1.465479538372455731e-02
3.760000000000000142e+01,1.711669656063696462e-02
3.764000000000000057e+01,1.867524030274358635e-02
3.767999999999999972e+01,1.999601772345448517e-02
3.771999999999999886e+01,2.145936662177396620e-02
3.775999999999999801e+01,2.582273575008765462e-02
3.779999999999999716e+01,2.918766319131347806e-02
3.784000000000000341e+01,3.231482449699677600e-02
3.788000000000000256e+01,3.981581496316058399e-02
3.792000000000000171e+01,4.841022152060198147e-02
3.796000000000000085e+01,5.534059550986195758e-02
3.800000000000000000e+01,7.496468713582693510e-02
3.803999999999999915e+01,1.003888746801543663e-01
3.807999999999999829e+01,1.382215266397076037e-01
3.811999999999999744e+01,2.090484239172321068e-01
3.815999999999999659e+01,3.494295330221957596e-01
3.820000000000000284e+01,5.644994136603654900e-01
3.824000000000000199e+01,8.181735216058761972e-01
3.828000000000000114e+01,9.821354076416681789e-01
3.832000000000000028e+01,1.000000000000000000e+00
3.835999999999999943e+01,8.890251242488831362e-01
3.839999999999999858e+01,7.018400169426435298e-01
3.843999999999999773e+01,5.041480248792034047e-01
3.847999999999999687e+01,3.269466749371184866e-01
3.852000000000000313e+01,2.111222755610107360e-01
3.856000000000000227e+01,1.373251436368194967e-01
3.860000000000000142e+01,9.752064418857922523e-02
3.864000000000000057e+01,7.378536067425815748e-02
3.867999999999999972e+01,5.851253808949941071e-02
3.871999999999999886e+01,4.951523440365546841e-02
3.875999999999999801e+01,4.018508121278958900e-02
3.879999999999999716e+01,3.632222928961545416e-02
3.884000000000000341e+01,3.112814135392582074e-02
3.888000000000000256e+01,2.740780837717394711e-02
3.892000000000000171e+01,2.649241253971664628e-02
3.896000000000000085e+01,2.348510532405171866e-02
3.900000000000000000e+01,2.004986444400938539e-02
3.903999999999999915e+01,1.851625868036662487e-02
3.907999999999999829e+01,1.693505709781406229e-02
3.911999999999999744e+01,1.754074403899342355e-02
3.915999999999999659e+01,1.405774663344135263e-02
3.920000000000000284e+01,1.380756666403557681e-02
3.924000000000000199e+01,1.303436887089692506e-02
3.928000000000000114e+01,1.283162433904409816e-02
3.932000000000000028e+01,1.110747547596484079e-02
3.935999999999999943e+01,1.299648198742608431e-02
3.939999999999999858e+01,1.093943108813855321e-02
3.943999999999999773e+01,1.068893133174832547e-02
3.947999999999999687e+01,1.077117397362227502e-02
3.952000000000000313e+01,9.664808050059663438e-03
3.956000000000000227e+01,9.889571218107979372e-03
3.960000000000000142e+01,9.543774761525476019e-03
3.964000000000000057e+01,7.676574345422918812e-03
3.967999999999999972e+01,7.568383131929820075e-03
3.971999999999999886e+01,7.840476814548313217e-03
3.975999999999999801e+01,8.778108754147459503e-03
3.979999999999999716e+01,9.287807958635145578e-03
3.984000000000000341e+01,6.279330235078968946e-03
3.988000000000000256e+01,7.026635147289037563e-03
3.992000000000000171e+01,7.013211930304159326e-03
3.996000000000000085e+01,6.857109478466771532e-03
4.000000000000000000e+01,7.223918905186941207e-03
4.003999999999999915e+01,8.351351352266094680e-03
4.007999999999999829e+01,6.055691588216421083e-03
4.011999999999999744e+01,7.848610272186161418e-03
4.015999999999999659e+01,7.692245629050089260e-03
4.020000000000000284e+01,7.583370906111795706e-03
4.024000000000000199e+01,6.285888454076299023e-03
4.028000000000000114e+01,7.935971378290376452e-03
4.032000000000000028e+01,6.685926779899306616e-03
4.035999999999999943e+01,6.862096640520366601e-03
4.039999999999999858e+01,5.707032300694535147e-03
4.043999999999999773e+01,6.881484675092328605e-03
4.047999999999999687e+01,6.011569655955435396e-03
4.052000000000000313e+01,4.761264957114064514e-03
4.056000000000000227e+01,5.412597140277577643e-03
4.060000000000000142e+01,5.826166393866090594e-03
4.064000000000000057e+01,5.051128382990375740e-03
4.067999999999999972e+01,6.035100736306558966e-03
4.071999999999999886e+01,6.496056985031876431e-03
4.075999999999999801e+01,5.815948327750484342e-03
4.079999999999999716e+01,4.707908096940075990e-03
4.084000000000000341e+01,5.406420635242383324e-03
4.088000000000000256e+01,5.724543912009893293e-03
4.092000000000000171e+01,5.186855783029640024e-03
4.096000000000000085e+01,4.458947361711695749e-03
4.100000000000000000e+01,4.824458609345257630e-03
4.103999999999999915e+01,5.522714067311607425e-03
4.107999999999999829e+01,6.506171563006418225e-03
4.111999999999999744e+01,5.302635751376422006e-03
4.115999999999999659e+01,4.669555384807237870e-03
4.120000000000000284e+01,6.318450396196707147e-03
4.124000000000000199e+01,5.637725582448382608e-03
4.128000000000000114e+01,4.909407505271624200e-03
4.132000000000000028e+01,6.938487136119670350e-03
4.135999999999999943e+01,6.352693766814061435e-03
4.139999999999999858e+01,5.909476149740413090e-03
4.143999999999999773e+01,4.848158826280007071e-03
4.147999999999999687e+01,6.734408272968101135e-03
4.152000000000000313e+01,6.528749315099616028e-03
4.156000000000000227e+01,4.896773066084620513e-03
4.160000000000000142e+01,4.976266030849740320e-03
4.164000000000000057e+01,6.196721627046750981e-03
4.167999999999999972e+01,5.610522318946134859e-03
4.171999999999999886e+01,5.024272477580984941e-03
4.175999999999999801e+01,5.246189873564237501e-03
4.179999999999999716e+01,5.515599048277174295e-03
4.184000000000000341e+01,5.880042267250720940e-03
4.188000000000000256e+01,4.342746376107875506e-03
4.192000000000000171e+01,5.277595575533543075e-03
4.196000000000000085e+01,5.641887891662939608e-03
4.200000000000000000e+01,5.625792247229876447e-03
4.203999999999999915e+01,5.419477564968153659e-03
4.207999999999999829e+01,6.639379339640355711e-03
4.211999999999999744e+01,4.816529025352922835e-03
4.215999999999999659e+01,5.751077394819542783e-03
4.220000000000000284e+01,5.401935873755293882e-03
4.224000000000000199e+01,4.815033328111243717e-03
4.228000000000000114e+01,4.988756404770843152e-03
4.232000000000000028e+01,5.495225178588751709e-03
4.235999999999999943e+01,4.860630904931857212e-03
4.239999999999999858e+01,5.271915707374258409e-03
4.243999999999999773e+01,5.160186403147595802e-03
4.247999999999999687e+01,5.428745201000054720e-03
4.252000000000000313e+01,5.316916642312922124e-03
4.256000000000000227e+01,5.395207402361006446e-03
4.260000000000000142e+01,6.519377470824878028e-03
4.264000000000000057e+01,4.933591587825364097e-03
4.267999999999999972e+01,4.869107296844490083e-03
4.271999999999999886e+01,5.327538043925410770e-03
4.275999999999999801e+01,6.879390504342931117e-03
4.279999999999999716e+01,6.196709389826520788e-03
4.284000000000000341e+01,5.418894604882654002e-03
4.288000000000000256e+01,5.259079481989018846e-03
4.292000000000000171e+01,6.002517382014675718e-03
4.296000000000000085e+01,5.652435150582617480e-03
4.300000000000000000e+01,5.207219434576289795e-03
4.303999999999999915e+01,5.427545785541014814e-03
4.307999999999999829e+01,6.313414249940085821e-03
4.311999999999999744e+01,6.628727178478520214e-03
4.315999999999999659e+01,6.088231303213862376e-03
4.320000000000000284e+01,5.785397709164809624e-03
4.324000000000000199e+01,5.767768661862284971e-03
4.328000000000000114e+01,7.651779656068872018e-03
4.332000000000000028e+01,7.158631022161518649e-03
4.335999999999999943e+01,7.426109265066850595e-03
4.339999999999999858e+01,8.359129993112912951e-03
4.343999999999999773e+01,8.008462270990321374e-03
4.347999999999999687e+01,7.420034964650159062e-03
4.352000000000000313e+01,8.400452445125515533e-03
4.356000000000000227e+01,9.143110434309896506e-03
4.360000000000000142e+01,8.697164597314066548e-03
4.364000000000000057e+01,9.249557057712137417e-03
4.367999999999999972e+01,9.754359042479622890e-03
4.371999999999999886e+01,1.101978832222947485e-02
4.375999999999999801e+01,1.109661396165230983e-02
4.379999999999999716e+01,1.136356036017258445e-02
4.384000000000000341e+01,1.234359197399749128e-02
4.388000000000000256e+01,1.203993564875002233e-02
4.392000000000000171e+01,1.525435555672371817e-02
4.396000000000000085e+01,1.613915879906386436e-02
4.400000000000000000e+01,1.569273202265390049e-02
4.403999999999999915e+01,1.748074170402908953e-02
4.407999999999999829e+01,2.079005460363833602e-02
4.411999999999999744e+01,2.405177753871328220e-02
4.415999999999999659e+01,2.802658606079922940e-02
4.420000000000000284e+01,3.128821364433070212e-02
4.424000000000000199e+01,3.744986898491057398e-02
4.428000000000000114e+01,4.874603642518059166e-02
4.432000000000000028e+01,6.161104958153209438e-02
4.435999999999999943e+01,7.770888616779526858e-02
4.439999999999999858e+01,1.008904659749111365e-01
4.443999999999999773e+01,1.320115489925602903e-01
4.447999999999999687e+01,1.640358868451973484e-01
4.452000000000000313e+01,2.042849813157000260e-01
4.456000000000000227e+01,2.251843453913084103e-01
4.460000000000000142e+01,2.360522540557405680e-01
4.464000000000000057e+01,2.233391749211863508e-01
4.467999999999999972e+01,1.927977165412917693e-01
4.471999999999999886e+01,1.565036026056971785e-01
4.475999999999999801e+01,1.265800990231105982e-01
4.479999999999999716e+01,9.846315280950317106e-02
4.484000000000000341e+01,7.034615968676843911e-02
4.488000000000000256e+01,5.373433671573520781e-02
4.492000000000000171e+01,4.411117313144230501e-02
4.496000000000000085e+01,3.372728727232995188e-02
4.500000000000000000e+01,2.795494993950320070e-02
4.503999999999999915e+01,2.603348567434334015e-02
4.507999999999999829e+01,2.016597059622296517e-02
4.511999999999999744e+01,1.881491974564283159e-02
4.515999999999999659e+01,1.741628013857413060e-02
4.520000000000000284e+01,1.463886968758661838e-02
4.524000000000000199e+01,1.371555933574218275e-02
4.528000000000000114e+01,1.260203370959618943e-02
4.532000000000000028e+01,1.125075063654430892e-02
4.535999999999999943e+01,1.051747010626711762e-02
4.539999999999999858e+01,8.975925593199115746e-03
4.543999999999999773e+01,9.763903602266936835e-03
4.547999999999999687e+01,8.412435587577017648e-03
4.552000000000000313e+01,8.201934711258858368e-03
4.556000000000000227e+01,7.040543380800208008e-03
4.560000000000000142e+01,7.828337005789564457e-03
4.564000000000000057e+01,7.665240269565018992e-03
4.567999999999999972e+01,6.931590971130882801e-03
4.571999999999999886e+01,5.912642471356210211e-03
4.575999999999999801e+01,6.177288045935963763e-03
4.579999999999999716e+01,5.681212321425516999e-03
4.584000000000000341e+01,5.708055259114069684e-03
4.588000000000000256e+01,5.829936933856292615e-03
4.592000000000000171e+01,5.143555229830574019e-03
4.596000000000000085e+01,5.550598956205264611e-03
4.600000000000000000e+01,5.624801587414880212e-03
4.603999999999999915e+01,4.938283198314076874e-03
4.607999999999999829e+01,4.394345997651053805e-03
4.611999999999999744e+01,3.897905593753851761e-03
4.615999999999999659e+01,5.350650795790820591e-03
4.620000000000000284e+01,5.234457439220916233e-03
4.624000000000000199e+01,5.260845456941978283e-03
4.628000000000000114e+01,4.811766047538167286e-03
4.632000000000000028e+01,4.838063638825307843e-03
4.635999999999999943e+01,4.721689429387546620e-03
4.639999999999999858e+01,4.795438999161578085e-03
4.643999999999999773e+01,4.393721327663916570e-03
4.647999999999999687e+01,5.085429690589537630e-03
4.652000000000000313e+01,5.159044247967190834e-03
4.656000000000000227e+01,4.471938389057295883e-03
4.660000000000000142e+01,4.783174265825319502e-03
4.664000000000000057e+01,3.715640971353245756e-03
4.667999999999999972e+01,3.171027314809427098e-03
4.671999999999999886e+01,3.719839971468674560e-03
4.675999999999999801e+01,5.171910111523774639e-03
4.679999999999999716e+01,3.771402475095561504e-03
4.684000000000000341e+01,4.985672301424341236e-03
4.688000000000000256e+01,3.632617758602158832e-03
4.692000000000000171e+01,4.656629676125434089e-03
4.696000000000000085e+01,3.683823946235854126e-03
4.700000000000000000e+01,3.756902635724799090e-03
4.703999999999999915e+01,4.067648066905915800e-03
4.707999999999999829e+01,4.283264752769117174e-03
4.711999999999999744e+01,3.833246110966188284e-03
4.715999999999999659e+01,3.335641035839569026e-03
4.720000000000000284e+01,4.406885022151845605e-03
4.724000000000000199e+01,4.527240505782131538e-03
4.728000000000000114e+01,3.696707533193713171e-03
4.732000000000000028e+01,3.056299408472932730e-03
4.735999999999999943e+01,3.556860559435595735e-03
4.739999999999999858e+01,4.913137718139256975e-03
4.743999999999999773e+01,4.652935539530641054e-03
4.747999999999999687e+01,4.345147299304713551e-03
4.752000000000000313e+01,4.370110796465784785e-03
4.756000000000000227e+01,3.776981696124622791e-03
4.760000000000000142e+01,3.896942178638065739e-03
4.764000000000000057e+01,3.208641280305366082e-03
4.767999999999999972e+01,3.756394467497751154e-03
4.771999999999999886e+01,3.020464176094331439e-03
4.775999999999999801e+01,3.187792529669203952e-03
4.779999999999999716e+01,2.214064154777743536e-03
4.784000000000000341e+01,3.332149994481832349e-03
4.788000000000000256e+01,3.404263636781434260e-03
4.792000000000000171e+01,3.428791728559997531e-03
4.796000000000000085e+01,3.690987630686578223e-03
4.800000000000000000e+01,3.382633665474830097e-03
4.803999999999999915e+01,4.643129737431224771e-03
4.807999999999999829e+01,2.813338424391698730e-03
4.811999999999999744e+01,3.408157184664183451e-03
4.815999999999999659e+01,4.145559549465916392e-03
4.820000000000000284e+01,3.599278993231423349e-03
4.824000000000000199e+01,3.148039915385145333e-03
4.828000000000000114e+01,2.696757924255137415e-03
4.832000000000000028e+01,4.765170676888879145e-03
4.835999999999999943e+01,4.836767408325181455e-03
4.839999999999999858e+01,3.577139231974114410e-03
4.843999999999999773e+01,3.791277119288917301e-03
4.847999999999999687e+01,3.006985725216316466e-03
4.852000000000000313e+01,3.839087144939066099e-03
4.856000000000000227e+01,3.197337185524753295e-03
4.860000000000000142e+01,3.744100161223739426e-03
4.864000000000000057e+01,3.958025108335289088e-03
4.867999999999999972e+01,4.647329797472340290e-03
4.871999999999999886e+01,3.434903321716887507e-03
4.875999999999999801e+01,4.409376567348074344e-03
4.879999999999999716e+01,3.862456493554362533e-03
4.884000000000000341e+01,3.363036376030707243e-03
4.888000000000000256e+01,3.766876204457677950e-03
4.892000000000000171e+01,3.600167234202165511e-03
4.896000000000000085e+01,4.146549426553374461e-03
4.900000000000000000e+01,3.646960722472425941e-03
4.903999999999999915e+01,3.622752178586661001e-03
4.907999999999999829e+01,3.598501650683113770e-03
4.911999999999999744e+01,3.907004718698468305e-03
4.915999999999999659e+01,2.979368199864353400e-03
4.920000000000000284e+01,3.953378599107399555e-03
4.924000000000000199e+01,4.024045037900953609e-03
4.928000000000000114e+01,2.953656467370187073e-03
4.932000000000000028e+01,3.642288297103591765e-03
4.935999999999999943e+01,3.284949648574523630e-03
4.939999999999999858e+01,3.593160454680821830e-03
4.943999999999999773e+01,3.616076380533258302e-03
4.947999999999999687e+01,3.734035225136139030e-03
4.952000000000000313e+01,2.806023777329738709e-03
4.956000000000000227e+01,2.686188627214775287e-03
4.960000000000000142e+01,3.802409792863176239e-03
4.964000000000000057e+01,2.874274205072037489e-03
4.967999999999999972e+01,3.277279464106113913e-03
4.971999999999999886e+01,3.299905729994159851e-03
4.975999999999999801e+01,3.132321925469979708e-03
4.979999999999999716e+01,3.487661383011261135e-03
4.984000000000000341e+01,4.556093025351808101e-03
4.988000000000000256e+01,3.817879288370726321e-03
4.992000000000000171e+01,3.840300048183135483e-03
4.996000000000000085e+01,3.102004341088291511e-03
5.000000000000000000e+01,3.362054319051657227e-03
5.003999999999999915e+01,3.669605647184011939e-03
5.007999999999999829e+01,4.500080562624912857e-03
5.011999999999999744e+01,3.714079253794477092e-03
5.015999999999999659e+01,3.308374967996304417e-03
5.020000000000000284e+01,2.902629999152678449e-03
5.024000000000000199e+01,2.877182146267919047e-03
5.028000000000000114e+01,3.184489236737683259e-03
5.032000000000000028e+01,3.967177974228154429e-03
5.035999999999999943e+01,4.131777366647228743e-03
5.039999999999999858e+01,4.106167432066830207e-03
5.043999999999999773e+01,3.557552683476885181e-03
5.047999999999999687e+01,2.866270919881693576e-03
5.052000000000000313e+01,3.315962102570459927e-03
5.056000000000000227e+01,4.336119649194976680e-03
5.060000000000000142e+01,3.359463776566709841e-03
5.064000000000000057e+01,4.427083151897201474e-03
5.067999999999999972e+01,3.117551448360498557e-03
5.071999999999999886e+01,3.709668428506268396e-03
5.075999999999999801e+01,2.590225489658210065e-03
5.079999999999999716e+01,2.849466917675326071e-03
5.084000000000000341e+01,3.156210625127380421e-03
5.088000000000000256e+01,3.985878849153932924e-03
5.092000000000000171e+01,3.199071778175099391e-03
5.096000000000000085e+01,3.315527069238373686e-03
5.100000000000000000e+01,3.099147073048762798e-03
5.103999999999999915e+01,4.118825065301233608e-03
5.107999999999999829e+01,3.997450139077774085e-03
5.111999999999999744e+01,4.826879979817232623e-03
5.115999999999999659e+01,4.134919242466345533e-03
5.120000000000000284e+01,4.869185555681236968e-03
5.124000000000000199e+01,4.224688040935251597e-03
5.128000000000000114e+01,3.770319973923358901e-03
5.132000000000000028e+01,3.981503591785116522e-03
5.135999999999999943e+01,3.812310121496047775e-03
5.139999999999999858e+01,4.023415114601462672e-03
5.143999999999999773e+01,3.996769769685521757e-03
5.147999999999999687e+01,3.399578599738145752e-03
5.152000000000000313e+01,2.469552746560751445e-03
5.156000000000000227e+01,3.869056524403709750e-03
5.160000000000000142e+01,3.794712454320226403e-03
5.164000000000000057e+01,4.100667126411014149e-03
5.167999999999999972e+01,3.598365110448714481e-03
5.171999999999999886e+01,3.856699682128300350e-03
5.175999999999999801e+01,3.496946534951897358e-03
5.179999999999999716e+01,3.137154563261946704e-03
5.184000000000000341e+01,3.728168194874277325e-03
5.188000000000000256e+01,4.509311971170155801e-03
5.192000000000000171e+01,4.006777147516476026e-03
5.196000000000000085e+01,3.789456999608194470e-03
5.200000000000000000e+01,3.952436012043872120e-03
5.203999999999999915e+01,4.971136421963054906e-03
5.207999999999999829e+01,3.993025131771474681e-03
5.211999999999999744e+01,4.298515303598640300e-03
5.215999999999999659e+01,3.843291563999914461e-03
5.220000000000000284e+01,4.148704969602639084e-03
5.224000000000000199e+01,3.978657871111832001e-03
5.228000000000000114e+01,4.664332448884321407e-03
5.232000000000000028e+01,3.163026729055324997e-03
5.235999999999999943e+01,2.897780530957228245e-03
5.239999999999999858e+01,3.155460615038943074e-03
5.243999999999999773e+01,3.413102618019869978e-03
5.247999999999999687e+01,4.431382091445327208e-03
5.252000000000000313e+01,3.405308156788674177e-03
5.256000000000000227e+01,2.711991813894507313e-03
5.260000000000000142e+01,5.108881815148450488e-03
5.264000000000000057e+01,3.844983099410882472e-03
5.267999999999999972e+01,4.197482029651601262e-03
5.271999999999999886e+01,4.549943204034619798e-03
5.275999999999999801e+01,4.854824449955607267e-03
5.279999999999999716e+01,3.923570337187213403e-03
5.284000000000000341e+01,4.513629618115042562e-03
5.288000000000000256e+01,3.677384757009576240e-03
5.292000000000000171e+01,5.313297763879462100e-03
5.296000000000000085e+01,4.714688997492995186e-03
5.300000000000000000e+01,3.593078390748023331e-03
5.303999999999999915e+01,3.802612533745266220e-03
5.307999999999999829e+01,4.202278215324987271e-03
5.311999999999999744e+01,3.603520005259832314e-03
5.315999999999999659e+01,2.957182331365627685e-03
5.320000000000000284e+01,4.164954002810710224e-03
5.324000000000000199e+01,2.948035349972023041e-03
5.328000000000000114e+01,2.872092849384832568e-03
5.332000000000000028e+01,3.746957671241928772e-03
5.335999999999999943e+01,4.336532166248323848e-03
5.339999999999999858e+01,4.308020847393935482e-03
5.343999999999999773e+01,3.994219294615448598e-03
5.347999999999999687e+01,4.155803059458174076e-03
5.352000000000000313e+01,3.699301149830005932e-03
5.356000000000000227e+01,3.337846898208643529e-03
5.360000000000000142e+01,4.307538046815656031e-03
5.364000000000000057e+01,4.516517003138792452e-03
5.367999999999999972e+01,3.822157156438469022e-03
5.371999999999999886e+01,3.698267344274405299e-03
5.375999999999999801e+01,2.671038822013476095e-03
5.379999999999999716e+01,4.781560256867205261e-03
5.384000000000000341e+01,4.182138749980879658e-03
5.388000000000000256e+01,4.105645244416364532e-03
5.392000000000000171e+01,4.409453129434085655e-03
5.396000000000000085e+01,3.952549193874312951e-03
5.400000000000000000e+01,4.161200056229125838e-03
5.403999999999999915e+01,4.227188038812178077e-03
5.407999999999999829e+01,4.293139845289646941e-03
5.411999999999999744e+01,4.216428864921954733e-03
5.415999999999999659e+01,3.854428486969512912e-03
5.420000000000000284e+01,3.920272043910015200e-03
5.424000000000000199e+01,4.461501801274393719e-03
5.428000000000000114e+01,4.669900081376286184e-03
5.432000000000000028e+01,3.642164768394097734e-03
5.435999999999999943e+01,4.706251243524969124e-03
5.439999999999999858e+01,4.866999751971732603e-03
5.443999999999999773e+01,3.839157025791935154e-03
5.447999999999999687e+01,4.047376283897810741e-03
5.452000000000000313e+01,4.635897629535390765e-03
5.456000000000000227e+01,4.130912318071551341e-03
5.460000000000000142e+01,5.527580197230043749e-03
5.464000000000000057e+01,3.976594968576298988e-03
5.467999999999999972e+01,4.232178585336226172e-03
5.471999999999999886e+01,3.869677921524192210e-03
5.475999999999999801e+01,4.553070690970412171e-03
5.479999999999999716e+01,4.618379272771259286e-03
5.484000000000000341e+01,4.731194780336802318e-03
5.488000000000000256e+01,4.321010631318829807e-03
5.492000000000000171e+01,3.815706843789265328e-03
5.496000000000000085e+01,4.308754502766816603e-03
5.500000000000000000e+01,4.659140397091748355e-03
5.503999999999999915e+01,4.296357944415849124e-03
5.507999999999999829e+01,4.171251572554932237e-03
5.511999999999999744e+01,4.901870175851441927e-03
5.515999999999999659e+01,4.206187285522618689e-03
5.520000000000000284e+01,4.128518367939684221e-03
5.524000000000000199e+01,4.526236812363056486e-03
5.528000000000000114e+01,3.877991655091997478e-03
5.532000000000000028e+01,5.416653839188380684e-03
5.535999999999999943e+01,4.388001504352891796e-03
5.539999999999999858e+01,4.310158908053159273e-03
5.543999999999999773e+01,4.374908372602846415e-03
5.547999999999999687e+01,4.582249944465238700e-03
5.552000000000000313e+01,4.789557012900758429e-03
5.556000000000000227e+01,4.141069681155440038e-03
5.560000000000000142e+01,4.728645634668121947e-03
5.564000000000000057e+01,4.745680595332309008e-03
5.567999999999999972e+01,4.524970143084694821e-03
5.571999999999999886e+01,4.114056543456184184e-03
5.575999999999999801e+01,3.940819814518723221e-03
5.579999999999999716e+01,3.672464469262215741e-03
5.584000000000000341e+01,3.499159430420479156e-03
5.588000000000000256e+01,4.466833563944571511e-03
5.592000000000000171e+01,5.339389220539519747e-03
5.596000000000000085e+01,4.595475436504581519e-03
5.600000000000000000e+01,3.756443268467089640e-03
5.603999999999999915e+01,4.866608182798268407e-03
5.607999999999999829e+01,5.025894862836224712e-03
5.611999999999999744e+01,4.044134478773733776e-03
5.615999999999999659e+01,4.203353592320168558e-03
5.620000000000000284e+01,4.362538992315798114e-03
5.624000000000000199e+01,4.188895191750521482e-03
5.628000000000000114e+01,4.300471084966785498e-03
5.632000000000000028e+01,4.602182280292633522e-03
5.635999999999999943e+01,5.331739919529503158e-03
5.639999999999999858e+01,4.397286410165123470e-03
5.643999999999999773e+01,5.126777133396638250e-03
5.647999999999999687e+01,4.049630143750632301e-03
5.652000000000000313e+01,4.256089727086097285e-03
5.656000000000000227e+01,4.842853767581437908e-03
5.660000000000000142e+01,5.239415682888444448e-03
5.664000000000000057e+01,3.971966728373984776e-03
5.667999999999999972e+01,4.083208970829454651e-03
5.671999999999999886e+01,4.241960322824597264e-03
5.675999999999999801e+01,3.735087544808337549e-03
5.679999999999999716e+01,5.320039389166276826e-03
5.684000000000000341e+01,5.668860567627885191e-03
5.688000000000000256e+01,6.350444355888122151e-03
5.692000000000000171e+01,4.845053189826101225e-03
5.696000000000000085e+01,4.338015793436068336e-03
5.700000000000000000e+01,5.067043308519461955e-03
5.703999999999999915e+01,4.655024828158257910e-03
5.707999999999999829e+01,5.241360256858945167e-03
5.711999999999999744e+01,4.116143154230118319e-03
5.715999999999999659e+01,3.941737834522150881e-03
5.720000000000000284e+01,4.908313220468831645e-03
5.724000000000000199e+01,4.924011719557918297e-03
5.728000000000000114e+01,4.464255568928969346e-03
5.732000000000000028e+01,4.527431415465420043e-03
5.735999999999999943e+01,6.016841467915478268e-03
5.739999999999999858e+01,4.606143837588457836e-03
5.743999999999999773e+01,5.572524887454155876e-03
5.747999999999999687e+01,4.637184947889518537e-03
5.752000000000000313e+01,5.365790495429810514e-03
5.756000000000000227e+01,4.810723994345492485e-03
5.760000000000000142e+01,5.111385349143053418e-03
5.764000000000000057e+01,5.221845786798013159e-03
5.767999999999999972e+01,4.381429848691646527e-03
5.771999999999999886e+01,4.159030810518916065e-03
5.775999999999999801e+01,4.412022061540238869e-03
5.779999999999999716e+01,4.094474828731144329e-03
5.784000000000000341e+01,4.062149101772188041e-03
5.788000000000000256e+01,4.029791612720920457e-03
5.792000000000000171e+01,4.567909036852157816e-03
5.796000000000000085e+01,5.153537010885294103e-03
5.800000000000000000e+01,4.550577885525363200e-03
5.803999999999999915e+01,4.137756060196805252e-03
5.807999999999999829e+01,4.770831524580206214e-03
5.811999999999999744e+01,5.308791067515826467e-03
5.815999999999999659e+01,5.609008078264081376e-03
5.820000000000000284e+01,5.005891536341507825e-03
5.824000000000000199e+01,4.165032555158165901e-03
5.828000000000000114e+01,4.702866629476647013e-03
5.832000000000000028e+01,4.670162823987577226e-03
5.835999999999999943e+01,4.827596690236265684e-03
5.839999999999999858e+01,4.937457179347882162e-03
5.843999999999999773e+01,5.047286556853350543e-03
5.847999999999999687e+01,5.299711526418854173e-03
5.852000000000000313e+01,5.409478820101920084e-03
5.856000000000000227e+01,4.901166293689595416e-03
5.860000000000000142e+01,4.915787251268206350e-03
5.864000000000000057e+01,4.027075167272250490e-03
5.867999999999999972e+01,4.517056603411097326e-03
5.871999999999999886e+01,3.675825119293347088e-03
5.875999999999999801e+01,5.401842724927642669e-03
5.879999999999999716e+01,4.798260902811784037e-03
5.884000000000000341e+01,5.240577253210530403e-03
5.888000000000000256e+01,5.064814155220270613e-03
5.892000000000000171e+01,4.984104941318675402e-03
5.896000000000000085e+01,5.473871848645319761e-03
5.900000000000000000e+01,4.679968380026083147e-03
5.903999999999999915e+01,5.787723259455201941e-03
5.907999999999999829e+01,5.183927884256394301e-03
5.911999999999999744e+01,4.104679996651240670e-03
5.915999999999999659e+01,4.974632815551966770e-03
5.920000000000000284e+01,5.226506557770056391e-03
5.924000000000000199e+01,5.858687870188962130e-03
5.928000000000000114e+01,5.207199131905063290e-03
5.932000000000000028e+01,4.936018056748568868e-03
5.935999999999999943e+01,6.423869044143945897e-03
5.939999999999999858e+01,4.821445795656613235e-03
5.943999999999999773e+01,4.740343607309609880e-03
5.947999999999999687e+01,5.372344801416593062e-03
5.952000000000000313e+01,5.196098414276818268e-03
5.956000000000000227e+01,5.114906654638476033e-03
5.960000000000000142e+01,5.461565102438257352e-03
5.964000000000000057e+01,5.808193832530819146e-03
5.967999999999999972e+01,5.441659605365059028e-03
5.971999999999999886e+01,5.978397915703572742e-03
5.975999999999999801e+01,5.516720047304614349e-03
5.979999999999999716e+01,6.481279219080413913e-03
5.984000000000000341e+01,5.686746799963305135e-03
5.988000000000000256e+01,5.272522694459782187e-03
5.992000000000000171e+01,5.523860263438884650e-03
5.996000000000000085e+01,6.916181744040173635e-03
