2.003999999999999915e+01,1.693232315800561050e-01
2.007999999999999829e+01,1.783313589788833309e-01
2.012000000000000099e+01,1.611413184929856302e-01
2.016000000000000014e+01,1.505896256791187104e-01
2.019999999999999929e+01,1.386418099882808230e-01
2.023999999999999844e+01,1.232019202201689728e-01
2.028000000000000114e+01,9.937940783391499555e-02
2.032000000000000028e+01,1.660331505571353838e-01
2.035999999999999943e+01,1.352264740419381328e-01
2.039999999999999858e+01,1.421480214432886413e-01
2.044000000000000128e+01,1.574545174903722866e-01
2.048000000000000043e+01,1.441175442258211536e-01
2.051999999999999957e+01,1.297337471928377561e-01
2.055999999999999872e+01,1.296734085696520100e-01
2.060000000000000142e+01,1.338061098018361594e-01
2.064000000000000057e+01,1.494676657134948183e-01
2.067999999999999972e+01,1.336911389985585841e-01
2.071999999999999886e+01,9.555896781898511050e-02
2.076000000000000156e+01,9.585364113719004042e-02
2.080000000000000071e+01,1.219994677257506682e-01
2.083999999999999986e+01,1.233443675920426752e-01
2.087999999999999901e+01,1.407593236469544262e-01
2.092000000000000171e+01,1.187017105518721610e-01
2.096000000000000085e+01,1.413587699964451716e-01
2.100000000000000000e+01,1.472493572933590567e-01
2.103999999999999915e+01,1.360241445801641802e-01
2.107999999999999829e+01,1.251493620405144114e-01
2.112000000000000099e+01,1.020493184469872111e-01
2.116000000000000014e+01,1.268078534268565205e-01
2.119999999999999929e+01,1.127924462277207773e-01
2.123999999999999844e+01,9.668218374961953798e-02
2.128000000000000114e+01,1.165534515628756373e-01
2.132000000000000028e+01,1.102264556450332361e-01
2.135999999999999943e+01,1.164762309015562186e-01
2.139999999999999858e+01,1.070074760643426048e-01
2.144000000000000128e+01,1.520344461202154107e-01
2.148000000000000043e+01,1.128752448487450183e-01
2.151999999999999957e+01,1.215745933967601888e-01
2.155999999999999872e+01,1.072195810525395088e-01
2.160000000000000142e+01,1.389764888001933929e-01
2.164000000000000057e+01,1.333567178954561672e-01
2.167999999999999972e+01,9.804540783000335880e-02
2.171999999999999886e+01,1.308534623287395671e-01
2.176000000000000156e+01,1.130104912227632152e-01
2.180000000000000071e+01,8.259288008239645817e-02
2.183999999999999986e+01,1.143561045728808540e-01
2.187999999999999901e+01,7.276219048192308914e-02
2.192000000000000171e+01,1.069727676673140754e-01
2.196000000000000085e+01,1.139370560008315242e-01
2.200000000000000000e+01,1.030868183120038500e-01
2.203999999999999915e+01,9.747747946561576005e-02
2.207999999999999829e+01,7.405360820712497683e-02
2.212000000000000099e+01,1.030294595233543914e-01
2.216000000000000014e+01,1.148894213728642727e-01
2.219999999999999929e+01,9.007130917681917259e-02
2.223999999999999844e+01,1.218448059817052037e-01
2.228000000000000114e+01,1.113510276701476787e-01
2.232000000000000028e+01,1.008582558233172832e-01
2.235999999999999943e+01,1.225043566628352260e-01
2.239999999999999858e+01,9.664330278771295080e-02
2.244000000000000128e+01,9.418799851991489780e-02
2.248000000000000043e+01,1.057066746401539720e-01
2.251999999999999957e+01,1.015067312100459973e-01
2.255999999999999872e+01,1.028969697565216418e-01
2.260000000000000142e+01,9.136317970345743389e-02
2.264000000000000057e+01,8.541956523721924710e-02
2.267999999999999972e+01,8.262085048993313141e-02
2.271999999999999886e+01,1.119609796750848929e-01
2.276000000000000156e+01,6.689592598874528895e-02
2.280000000000000071e+01,1.032244879725483511e-01
2.283999999999999986e+01,6.759313336809663619e-02
2.287999999999999901e+01,8.925198598165426378e-02
2.292000000000000171e+01,1.196449138260210765e-01
2.296000000000000085e+01,1.018319928923009793e-01
2.300000000000000000e+01,8.436934877793640652e-02
2.303999999999999915e+01,9.170970501799435848e-02
2.307999999999999829e+01,8.193409830911671521e-02
2.312000000000000099e+01,1.277020563111216367e-01
2.316000000000000014e+01,9.522222814956861348e-02
2.319999999999999929e+01,9.592917958461789907e-02
2.323999999999999844e+01,9.139719398861836930e-02
2.328000000000000114e+01,9.524993020194660875e-02
2.332000000000000028e+01,7.954141162407138421e-02
2.335999999999999943e+01,6.208719310621720749e-02
2.339999999999999858e+01,8.305960822413058220e-02
2.344000000000000128e+01,9.075860298247515057e-02
2.348000000000000043e+01,6.317672012942095183e-02
2.351999999999999957e+01,1.141937980981226064e-01
2.355999999999999872e+01,1.114157846844229943e-01
2.360000000000000142e+01,8.523392277208995116e-02
2.364000000000000057e+01,7.407392259901625364e-02
2.367999999999999972e+01,8.212767698117186266e-02
2.371999999999999886e+01,7.411339129904052914e-02
2.376000000000000156e+01,9.090204846351064571e-02
2.380000000000000071e+01,6.053276376014798954e-02
2.383999999999999986e+01,8.291238891928108534e-02
2.387999999999999901e+01,6.337393583438356848e-02
2.392000000000000171e+01,8.435802285725073346e-02
2.396000000000000085e+01,6.062942790576412999e-02
2.400000000000000000e+01,7.637539266957260597e-02
2.403999999999999915e+01,5.509381175582361845e-02
2.407999999999999829e+01,5.931379746478571136e-02
2.412000000000000099e+01,1.044056319746887451e-01
2.416000000000000014e+01,4.330362704340731672e-02
2.419999999999999929e+01,6.638972330207049133e-02
2.423999999999999844e+01,8.039423131443375337e-02
2.428000000000000114e+01,6.854956384222672672e-02
2.432000000000000028e+01,9.024091117758235858e-02
2.435999999999999943e+01,8.363780396561515396e-02
2.439999999999999858e+01,3.651387564647323725e-02
2.444000000000000128e+01,6.763950999930110064e-02
2.448000000000000043e+01,8.060109557971820160e-02
2.451999999999999957e+01,5.688442181160122818e-02
2.455999999999999872e+01,6.705306834934353366e-02
2.460000000000000142e+01,5.381778651647858153e-02
2.464000000000000057e+01,9.333135064853037566e-02
2.467999999999999972e+01,6.088485122789619175e-02
2.471999999999999886e+01,7.944056804456731125e-02
2.476000000000000156e+01,4.769434430817500598e-02
2.480000000000000071e+01,3.271651299740630653e-02
2.483999999999999986e+01,5.721317430947467364e-02
2.487999999999999901e+01,5.411398887593532603e-02
2.492000000000000171e+01,6.673521228067065547e-02
2.496000000000000085e+01,6.363762124744262727e-02
2.500000000000000000e+01,5.355432927063856485e-02
2.503999999999999915e+01,6.967117657459219460e-02
2.507999999999999829e+01,6.133608316667914923e-02
2.512000000000000099e+01,5.719366859281417581e-02
2.516000000000000014e+01,6.702502035009723358e-02
2.519999999999999929e+01,4.122603244861555022e-02
2.523999999999999844e+01,4.686703786705644081e-02
2.528000000000000114e+01,5.705003400760053078e-02
2.532000000000000028e+01,8.679597838090689910e-02
2.535999999999999943e+01,2.676624684248122762e-02
2.539999999999999858e+01,6.000696200446865858e-02
2.544000000000000128e+01,4.364433163559153228e-02
2.548000000000000043e+01,4.055679270368945516e-02
2.551999999999999957e+01,6.366935471399703950e-02
2.555999999999999872e+01,4.870627563863523524e-02
2.560000000000000142e+01,5.051152509131773272e-02
2.564000000000000057e+01,6.908509987716597578e-02
2.567999999999999972e+01,5.412424467112608717e-02
2.571999999999999886e+01,3.706817635967835783e-02
2.576000000000000156e+01,7.171289055382494559e-02
2.580000000000000071e+01,4.382921776308224687e-02
2.583999999999999986e+01,6.380374974489870510e-02
2.587999999999999901e+01,4.430531641173138940e-02
2.592000000000000171e+01,5.380154941254965129e-02
2.596000000000000085e+01,6.958634216038243892e-02
2.600000000000000000e+01,5.288465336000735401e-02
2.603999999999999915e+01,3.583434923304622266e-02
2.607999999999999829e+01,5.721046468496279042e-02
2.612000000000000099e+01,6.775821839341564234e-02
2.616000000000000014e+01,3.009986773346563088e-02
2.619999999999999929e+01,7.383486117894702550e-02
2.623999999999999844e+01,6.831576986355578085e-02
2.628000000000000114e+01,6.035209604688079876e-02
2.632000000000000028e+01,5.693032988545600886e-02
2.635999999999999943e+01,4.163220880858164302e-02
2.639999999999999858e+01,3.891045635132518027e-02
2.644000000000000128e+01,2.745626459699696334e-02
2.648000000000000043e+01,5.652440847818111097e-02
2.651999999999999957e+01,4.018101657761702361e-02
2.655999999999999872e+01,4.619507120913295128e-02
2.660000000000000142e+01,4.138072575863777081e-02
2.664000000000000057e+01,5.193732709905158479e-02
2.667999999999999972e+01,3.210334058373962712e-02
2.671999999999999886e+01,3.288016448313865053e-02
2.676000000000000156e+01,3.400696488327192846e-02
2.680000000000000071e+01,5.050469929479824149e-02
2.683999999999999986e+01,6.909902715515400806e-02
2.687999999999999901e+01,4.717233582584017676e-02
2.692000000000000171e+01,1.581451752576611483e-02
2.696000000000000085e+01,4.558915190932564393e-02
2.700000000000000000e+01,3.169883551044293951e-02
2.703999999999999915e+01,3.946727796995130877e-02
2.707999999999999829e+01,2.313294464121615213e-02
2.712000000000000099e+01,3.229993512439174874e-02
2.716000000000000014e+01,2.854253279182707853e-02
2.719999999999999929e+01,3.875873385158348089e-02
2.723999999999999844e+01,4.792757440324381391e-02
2.728000000000000114e+01,1.622603914887443127e-02
2.732000000000000028e+01,3.867043447281473534e-02
2.735999999999999943e+01,5.308096635260906720e-02
2.739999999999999858e+01,5.282046290953603535e-02
2.744000000000000128e+01,1.727876556204769459e-02
2.748000000000000043e+01,3.797893401877740910e-02
2.751999999999999957e+01,6.636483629252484806e-02
2.755999999999999872e+01,3.501680834727449038e-02
2.760000000000000142e+01,2.358087119425666608e-02
2.764000000000000057e+01,2.367322961689722130e-02
2.767999999999999972e+01,6.149323048811593945e-02
2.771999999999999886e+01,3.294211967697854154e-02
2.776000000000000156e+01,5.050243694635730973e-02
2.780000000000000071e+01,4.430924558724223805e-02
2.783999999999999986e+01,4.195919114283588880e-02
2.787999999999999901e+01,3.541780306413454954e-02
2.792000000000000171e+01,3.027427283738956185e-02
2.796000000000000085e+01,5.202929800037977420e-02
2.800000000000000000e+01,4.863349989019884190e-02
2.803999999999999915e+01,3.510783601750538940e-02
2.807999999999999829e+01,3.835030259036183858e-02
2.812000000000000099e+01,4.089466303535577857e-02
2.816000000000000014e+01,1.758953809252131531e-02
2.819999999999999929e+01,1.559375468901792738e-02
2.823999999999999844e+01,4.189380298137972136e-02
2.828000000000000114e+01,5.457071966624935100e-02
2.832000000000000028e+01,2.777447614851905403e-02
2.835999999999999943e+01,4.464434011512613543e-02
2.839999999999999858e+01,2.832888150564696894e-02
2.844000000000000128e+01,2.144570656882317100e-02
2.848000000000000043e+01,3.272792879904178054e-02
2.851999999999999957e+01,6.636744101227226578e-02
2.855999999999999872e+01,3.817699512910679993e-02
2.860000000000000142e+01,4.072762486089060580e-02
2.864000000000000057e+01,3.349766557454895988e-02
2.867999999999999972e+01,2.836415277260468867e-02
2.871999999999999886e+01,4.803318665227195722e-02
2.876000000000000156e+01,3.591416787222521251e-02
2.880000000000000071e+01,1.645981996753146867e-02
2.883999999999999986e+01,2.215733382738294815e-02
2.887999999999999901e+01,5.847876134861950716e-03
2.892000000000000171e+01,5.258507792720591364e-03
2.896000000000000085e+01,4.658857567387881399e-02
2.900000000000000000e+01,1.386228695000015464e-02
2.903999999999999915e+01,0.000000000000000000e+00
2.907999999999999829e+01,1.163888031284206724e-02
2.912000000000000099e+01,3.375796398810897853e-02
2.916000000000000014e+01,1.046530101961682356e-02
2.919999999999999929e+01,9.529873721193937372e-03
2.923999999999999844e+01,4.053679495020855172e-03
2.928000000000000114e+01,1.814011720859412535e-02
2.932000000000000028e+01,3.117902828036586693e-02
2.935999999999999943e+01,1.976565678822310435e-02
2.939999999999999858e+01,1.778449229164076259e-02
2.944000000000000128e+01,2.837945360387553531e-02
2.948000000000000043e+01,6.098230355445623252e-02
2.951999999999999957e+01,2.406997604499228754e-02
2.955999999999999872e+01,2.139189414908915579e-02
2.960000000000000142e+01,4.945480799616186474e-02
2.964000000000000057e+01,6.667167795687810880e-04
2.967999999999999972e+01,1.580545833540581910e-02
2.971999999999999886e+01,2.011555060867360745e-02
2.976000000000000156e+01,2.023415908833523999e-02
2.980000000000000071e+01,1.511330657680037999e-02
2.983999999999999986e+01,2.082192458743981414e-02
2.987999999999999901e+01,2.722959456582582649e-02
2.992000000000000171e+01,2.420589795753000026e-02
2.996000000000000085e+01,3.445693495976671905e-02
3.000000000000000000e+01,2.724213163143871658e-02
3.003999999999999915e+01,2.282231549676550647e-02
3.007999999999999829e+01,2.364275603386238947e-02
3.012000000000000099e+01,2.306628136400805731e-02
3.016000000000000014e+01,3.611384899786183184e-02
3.019999999999999929e+01,2.121582029963666946e-02
3.023999999999999844e+01,1.078295466546262292e-03
3.028000000000000114e+01,1.901753008247306781e-02
3.032000000000000028e+01,2.263482081693957843e-02
3.035999999999999943e+01,2.660180051303457846e-02
3.039999999999999858e+01,3.231576464616150307e-02
3.044000000000000128e+01,3.628346334573492871e-02
3.048000000000000043e+01,3.431299740602831994e-02
3.051999999999999957e+01,1.906854561317860783e-02
3.055999999999999872e+01,1.744810417524734689e-02
3.060000000000000142e+01,2.316382588108392704e-02
3.064000000000000057e+01,4.914072023592380711e-02
3.067999999999999972e+01,3.319899321731086678e-02
3.071999999999999886e+01,2.738801709839424475e-02
3.076000000000000156e+01,5.196861940339284752e-02
3.080000000000000071e+01,4.196640876928583314e-02
3.083999999999999986e+01,6.095847149905359030e-02
3.087999999999999901e+01,7.191638963532757944e-02
3.092000000000000171e+01,4.933945925057103832e-02
3.096000000000000085e+01,4.318110461250870835e-02
3.100000000000000000e+01,9.081906195632193091e-02
3.103999999999999915e+01,8.291470713751651622e-02
3.107999999999999829e+01,6.732551641839328027e-02
3.112000000000000099e+01,8.212787536927465548e-02
3.116000000000000014e+01,9.658121004906411455e-02
3.119999999999999929e+01,8.099292051937698189e-02
3.123999999999999844e+01,8.426845704522595293e-02
3.128000000000000114e+01,1.092024137722975852e-01
3.132000000000000028e+01,9.850554202412509230e-02
3.135999999999999943e+01,1.073711360819934180e-01
3.139999999999999858e+01,1.179836347049199319e-01
3.144000000000000128e+01,1.306923593655963112e-01
3.148000000000000043e+01,1.493398782124211732e-01
3.151999999999999957e+01,1.644944220261074785e-01
3.155999999999999872e+01,1.894303249794613286e-01
3.160000000000000142e+01,2.157637918559080770e-01
3.164000000000000057e+01,2.553718581579710878e-01
3.167999999999999972e+01,2.670342099174338180e-01
3.171999999999999886e+01,2.748542460017928124e-01
3.176000000000000156e+01,3.004900926055498189e-01
3.180000000000000071e+01,3.145984744578904091e-01
3.183999999999999986e+01,2.815482722717290165e-01
3.187999999999999901e+01,2.767936110474484845e-01
3.192000000000000171e+01,2.374560474274516053e-01
3.196000000000000085e+01,2.173315770227403632e-01
3.200000000000000000e+01,2.122283006275881567e-01
3.203999999999999915e+01,1.697475149115174053e-01
3.207999999999999829e+01,1.656926695424817131e-01
3.211999999999999744e+01,1.812002292767866951e-01
3.215999999999999659e+01,1.757485294813571075e-01
3.220000000000000284e+01,1.465429696207489751e-01
3.224000000000000199e+01,1.218788445733063747e-01
3.228000000000000114e+01,1.286541505470908953e-01
3.232000000000000028e+01,1.095796388656359449e-01
3.235999999999999943e+01,1.048276431046880341e-01
3.239999999999999858e+01,1.056650433801019084e-01
3.243999999999999773e+01,7.611139573722087992e-02
3.247999999999999687e+01,8.358635782230275368e-02
3.252000000000000313e+01,8.896556367255505082e-02
3.256000000000000227e+01,8.037197139569648985e-02
3.260000000000000142e+01,9.832723923504428643e-02
3.264000000000000057e+01,9.217928719797424675e-02
3.267999999999999972e+01,7.031190411130318341e-02
3.271999999999999886e+01,8.512378691575078760e-02
3.275999999999999801e+01,6.640067423473594577e-02
3.279999999999999716e+01,4.662975695745080057e-02
3.284000000000000341e+01,7.751108268947358437e-02
3.288000000000000256e+01,8.393984470823422084e-02
3.292000000000000171e+01,5.403900112145151174e-02
3.296000000000000085e+01,5.452956024024172010e-02
3.300000000000000000e+01,6.654798682091059292e-02
3.303999999999999915e+01,4.677801888981754364e-02
3.307999999999999829e+01,5.565282074180754462e-02
3.311999999999999744e+01,5.649329908708244224e-02
3.315999999999999659e+01,5.768324275245912541e-02
3.320000000000000284e+01,7.878482992701540955e-02
3.324000000000000199e+01,3.037094251778442097e-02
3.328000000000000114e+01,7.138430107453559714e-02
3.332000000000000028e+01,8.759573610678554612e-02
3.335999999999999943e+01,6.957347839524750943e-02
3.339999999999999858e+01,6.203108219408662999e-02
3.343999999999999773e+01,7.719490767339698412e-02
3.347999999999999687e+01,7.244734219467928449e-02
3.352000000000000313e+01,8.027557664712590968e-02
3.356000000000000227e+01,9.089851714387922610e-02
3.360000000000000142e+01,8.126073243039734495e-02
3.364000000000000057e+01,7.232169936604039562e-02
3.367999999999999972e+01,1.094936215401148411e-01
3.371999999999999886e+01,1.085892508732135553e-01
3.375999999999999801e+01,9.650658357339809978e-02
3.379999999999999716e+01,9.071184982432244082e-02
3.384000000000000341e+01,1.174043964989068267e-01
3.388000000000000256e+01,1.371105329667879902e-01
3.392000000000000171e+01,1.309667239842716990e-01
3.396000000000000085e+01,1.290148877675552919e-01
3.400000000000000000e+01,1.578036958571298054e-01
3.403999999999999915e+01,1.575986269035340726e-01
3.407999999999999829e+01,1.493591577661285974e-01
3.411999999999999744e+01,1.634765313286812849e-01
3.415999999999999659e+01,1.856284330259165838e-01
3.420000000000000284e+01,1.735465748869057523e-01
3.424000000000000199e+01,2.033837312471732939e-01
3.428000000000000114e+01,1.878087320191758891e-01
3.432000000000000028e+01,1.753777028003560556e-01
3.435999999999999943e+01,1.961325618069111043e-01
3.439999999999999858e+01,1.889414890190971863e-01
3.443999999999999773e+01,2.278613107670146298e-01
3.447999999999999687e+01,2.073959742494463632e-01
3.452000000000000313e+01,1.998556824586389946e-01
3.456000000000000227e+01,1.891714974914636971e-01
3.460000000000000142e+01,1.949055975369981819e-01
3.464000000000000057e+01,1.880640319919987813e-01
3.467999999999999972e+01,1.648042263183095435e-01
3.471999999999999886e+01,1.555174233996986788e-01
3.475999999999999801e+01,1.479772566763141173e-01
3.479999999999999716e+01,1.634925276750869294e-01
3.484000000000000341e+01,1.220678843274579928e-01
3.488000000000000256e+01,1.557480477802564156e-01
3.492000000000000171e+01,1.146727324507916534e-01
3.496000000000000085e+01,1.263454388074743417e-01
3.500000000000000000e+01,1.397647621901096093e-01
3.503999999999999915e+01,1.524854267308239919e-01
3.507999999999999829e+01,1.400547025047925720e-01
3.511999999999999744e+01,1.342611310660661028e-01
3.515999999999999659e+01,1.431391765738908584e-01
3.520000000000000284e+01,1.258178497276209451e-01
3.524000000000000199e+01,1.465728861653782245e-01
3.528000000000000114e+01,1.362379985132937676e-01
3.532000000000000028e+01,1.461639097093752060e-01
3.535999999999999943e+01,1.281438124339929208e-01
3.539999999999999858e+01,1.405149229765676189e-01
3.543999999999999773e+01,1.612697840852688469e-01
3.547999999999999687e+01,1.757367565272503762e-01
3.552000000000000313e+01,1.671482530642414699e-01
3.556000000000000227e+01,1.697380879232877060e-01
3.560000000000000142e+01,1.698825958742543607e-01
3.564000000000000057e+01,2.252203438714207306e-01
3.567999999999999972e+01,2.470228631569614253e-01
3.571999999999999886e+01,2.534550332496715574e-01
3.575999999999999801e+01,2.735107983630364892e-01
3.579999999999999716e+01,3.061421812994655212e-01
3.584000000000000341e+01,3.342322701531171836e-01
3.588000000000000256e+01,3.616236330723900938e-01
3.592000000000000171e+01,3.701513841487309997e-01
3.596000000000000085e+01,3.790283769036471018e-01
3.600000000000000000e+01,4.029262441802269890e-01
3.603999999999999915e+01,4.603591901648365070e-01
3.607999999999999829e+01,4.660919927753566783e-01
3.611999999999999744e+01,5.004693223581593298e-01
3.615999999999999659e+01,4.855917748501092923e-01
3.620000000000000284e+01,5.332432406789373580e-01
3.624000000000000199e+01,4.837823435699749597e-01
3.628000000000000114e+01,5.055835700973994040e-01
3.632000000000000028e+01,5.120143995088088928e-01
3.635999999999999943e+01,4.751288552036720403e-01
3.639999999999999858e+01,4.756209321959314895e-01
3.643999999999999773e+01,4.617905764902510146e-01
3.647999999999999687e+01,3.871776041048546890e-01
3.652000000000000313e+01,3.792855155081529261e-01
3.656000000000000227e+01,3.549750366234505350e-01
3.660000000000000142e+01,3.299657742965479423e-01
3.664000000000000057e+01,3.297584260652246524e-01
3.667999999999999972e+01,3.092901066179865599e-01
3.671999999999999886e+01,2.912669161520473615e-01
3.675999999999999801e+01,2.959496821916264842e-01
3.679999999999999716e+01,2.541721173628548880e-01
3.684000000000000341e+01,2.364978013201261553e-01
3.688000000000000256e+01,2.792564962959094288e-01
3.692000000000000171e+01,2.493555007509060117e-01
3.696000000000000085e+01,2.246942123584932394e-01
3.700000000000000000e+01,2.569726787242493371e-01
3.703999999999999915e+01,2.295164576846958904e-01
3.707999999999999829e+01,2.429310503053032089e-01
3.711999999999999744e+01,2.504069479367241335e-01
3.715999999999999659e+01,2.128197846161665741e-01
3.720000000000000284e+01,2.342683080848069477e-01
3.724000000000000199e+01,2.312639195983793305e-01
3.728000000000000114e+01,2.261633946865270750e-01
3.732000000000000028e+01,1.983565747677022151e-01
3.735999999999999943e+01,2.184070394962985273e-01
3.739999999999999858e+01,2.237856701822895644e-01
3.743999999999999773e+01,2.225269309849215726e-01
3.747999999999999687e+01,2.212679873931577834e-01
3.752000000000000313e+01,2.465575109474894278e-01
3.756000000000000227e+01,2.379623309633137895e-01
3.760000000000000142e+01,2.793203644627096360e-01
3.764000000000000057e+01,2.567517666227638329e-01
3.767999999999999972e+01,3.082397779390068093e-01
3.771999999999999886e+01,3.401653843076237194e-01
3.775999999999999801e+01,3.804745559393880594e-01
3.779999999999999716e+01,4.005226668986271998e-01
3.784000000000000341e+01,4.830996602047075705e-01
3.788000000000000256e+01,4.891743149696289872e-01
3.792000000000000171e+01,6.017927538055366510e-01
3.796000000000000085e+01,6.578203537620548325e-01
3.800000000000000000e+01,8.186451080619480125e-01
3.803999999999999915e+01,8.694323429543833193e-01
3.807999999999999829e+01,9.548024676187339965e-01
3.811999999999999744e+01,1.000000000000000000e+00
3.815999999999999659e+01,9.638046261299655360e-01
3.820000000000000284e+01,9.265610163550023204e-01
3.824000000000000199e+01,8.543846747258777574e-01
3.828000000000000114e+01,8.021195708563061411e-01
3.832000000000000028e+01,6.978048200318529570e-01
3.835999999999999943e+01,6.664986500479342935e-01
3.839999999999999858e+01,5.747590346976808595e-01
3.843999999999999773e+01,5.738435518443073535e-01
3.847999999999999687e+01,4.786101244804872867e-01
3.852000000000000313e+01,4.521933691668382771e-01
3.856000000000000227e+01,4.453385045810185350e-01
3.860000000000000142e+01,3.577893479353711492e-01
3.864000000000000057e+01,3.701467491690460521e-01
3.867999999999999972e+01,3.224200073398038047e-01
3.871999999999999886e+01,3.134680001752614964e-01
3.875999999999999801e+01,2.807616089853925412e-01
3.879999999999999716e+01,2.616785700053779196e-01
3.884000000000000341e+01,2.817195807729969692e-01
3.888000000000000256e+01,2.249088484599127413e-01
3.892000000000000171e+01,2.194485228696770873e-01
3.896000000000000085e+01,2.405365494098944401e-01
3.900000000000000000e+01,2.238971860526851598e-01
3.903999999999999915e+01,2.163399350576382107e-01
3.907999999999999829e+01,2.042411311946190910e-01
3.911999999999999744e+01,1.785183299119117439e-01
3.915999999999999659e+01,1.845837347988225352e-01
3.920000000000000284e+01,2.171974726469126094e-01
3.924000000000000199e+01,1.858844513605031057e-01
3.928000000000000114e+01,1.905515226699228126e-01
3.932000000000000028e+01,1.952182426205150700e-01
3.935999999999999943e+01,1.928981146659879409e-01
3.939999999999999858e+01,1.773032915951904820e-01
3.943999999999999773e+01,1.844142109730215195e-01
3.947999999999999687e+01,1.925727402152213330e-01
3.952000000000000313e+01,1.947923827754977910e-01
3.956000000000000227e+01,1.851346161102708221e-01
3.960000000000000142e+01,1.754764757220638460e-01
3.964000000000000057e+01,1.703591790944164741e-01
3.967999999999999972e+01,2.141469558139229290e-01
3.971999999999999886e+01,2.167140384524750274e-01
3.975999999999999801e+01,2.004172025397158441e-01
3.979999999999999716e+01,2.124152750028051040e-01
3.984000000000000341e+01,2.156798378843741149e-01
3.988000000000000256e+01,2.028750699705602345e-01
3.992000000000000171e+01,2.078854608208381693e-01
3.996000000000000085e+01,2.170873452050734176e-01
4.000000000000000000e+01,2.189530058985552086e-01
4.003999999999999915e+01,2.319966470876494713e-01
4.007999999999999829e+01,2.307175648448194505e-01
4.011999999999999744e+01,2.462056513889745446e-01
4.015999999999999659e+01,2.333980214086210925e-01
4.020000000000000284e+01,2.265284891308044224e-01
4.024000000000000199e+01,2.381727393931893089e-01
4.028000000000000114e+01,2.512138602899345874e-01
4.032000000000000028e+01,2.359592518826555130e-01
4.035999999999999943e+01,2.444582864445009884e-01
4.039999999999999858e+01,2.595940520696297660e-01
4.043999999999999773e+01,2.583111175034997209e-01
4.047999999999999687e+01,2.482946222377862833e-01
4.052000000000000313e+01,2.442161991155780976e-01
4.056000000000000227e+01,2.803096623639204643e-01
4.060000000000000142e+01,2.671478938898464994e-01
4.064000000000000057e+01,2.372180845825481721e-01
4.067999999999999972e+01,2.656250347748377871e-01
4.071999999999999886e+01,2.381395749762316716e-01
4.075999999999999801e+01,2.693401929550262031e-01
4.079999999999999716e+01,2.551281345802867140e-01
4.084000000000000341e+01,2.541899408090047552e-01
4.088000000000000256e+01,2.577924917570347807e-01
4.092000000000000171e+01,2.585999662105141206e-01
4.096000000000000085e+01,2.974833470803304736e-01
4.100000000000000000e+01,2.780290229221040188e-01
4.103999999999999915e+01,2.508890673387008663e-01
4.107999999999999829e+01,2.443587752084651343e-01
4.111999999999999744e+01,2.689178833636375332e-01
4.115999999999999659e+01,2.505095590843600672e-01
4.120000000000000284e+01,2.394365513059284190e-01
4.124000000000000199e+01,2.416373761821645205e-01
4.128000000000000114e+01,2.375498491342327989e-01
4.132000000000000028e+01,2.432429016755045248e-01
4.135999999999999943e+01,1.682414417103007542e-01
4.139999999999999858e+01,1.962902411859077101e-01
4.143999999999999773e+01,1.991871439090155960e-01
4.147999999999999687e+01,2.090700161012457314e-01
4.152000000000000313e+01,2.227949325595834917e-01
4.156000000000000227e+01,1.907577872941165764e-01
4.160000000000000142e+01,2.006390686702007875e-01
4.164000000000000057e+01,1.651076066002931941e-01
4.167999999999999972e+01,1.826729541444396809e-01
4.171999999999999886e+01,1.307221497904611784e-01
4.175999999999999801e+01,1.573688493934368993e-01
4.179999999999999716e+01,1.623568701657095992e-01
4.184000000000000341e+01,1.530220269313840309e-01
4.188000000000000256e+01,1.800163932933264432e-01
4.192000000000000171e+01,1.542621758261404907e-01
4.196000000000000085e+01,1.519121488653503438e-01
4.200000000000000000e+01,1.355885697860167161e-01
4.203999999999999915e+01,1.395252528151852134e-01
4.207999999999999829e+01,1.259951306603458998e-01
4.211999999999999744e+01,1.425063549162288723e-01
4.215999999999999659e+01,1.516811829578952053e-01
4.220000000000000284e+01,1.231283655118187437e-01
4.224000000000000199e+01,1.305554042405290827e-01
4.228000000000000114e+01,1.226115698162606321e-01
4.232000000000000028e+01,9.859820970899331460e-02
4.235999999999999943e+01,9.729035882419100056e-02
4.239999999999999858e+01,1.015711052560124561e-01
4.243999999999999773e+01,1.009607057824591925e-01
4.247999999999999687e+01,1.069868712384837300e-01
4.252000000000000313e+01,9.135430035598421372e-02
4.256000000000000227e+01,9.877654738912557131e-02
4.260000000000000142e+01,9.012924637511517123e-02
4.264000000000000057e+01,1.167631202519608391e-01
4.267999999999999972e+01,1.234848683486197557e-01
4.271999999999999886e+01,8.898568274840293335e-02
4.275999999999999801e+01,8.522644177598667770e-02
4.279999999999999716e+01,1.024260515445135911e-01
4.284000000000000341e+01,7.770606869638670144e-02
4.288000000000000256e+01,1.011922542699562749e-01
4.292000000000000171e+01,8.869736018581518555e-02
4.296000000000000085e+01,9.646265472796031193e-02
4.300000000000000000e+01,6.650023988478354076e-02
4.303999999999999915e+01,8.229870801079289255e-02
4.307999999999999829e+01,7.818501840782605961e-02
4.311999999999999744e+01,8.105716728394453396e-02
4.315999999999999659e+01,1.034908394768130763e-01
4.320000000000000284e+01,1.014711236776499326e-01
4.324000000000000199e+01,8.792302939169048537e-02
4.328000000000000114e+01,8.729928015400173491e-02
4.332000000000000028e+01,7.270187336676423029e-02
4.335999999999999943e+01,8.709773994628981775e-02
4.339999999999999858e+01,1.000956306190522171e-01
4.343999999999999773e+01,6.837928341141125133e-02
4.347999999999999687e+01,1.093217834322284532e-01
4.352000000000000313e+01,9.611827315847669417e-02
4.356000000000000227e+01,1.181958642933649273e-01
4.360000000000000142e+01,7.949027006008370366e-02
4.364000000000000057e+01,8.200429019438593148e-02
4.367999999999999972e+01,1.264365708365336738e-01
4.371999999999999886e+01,9.157144914463050123e-02
4.375999999999999801e+01,8.884349087883663953e-02
4.379999999999999716e+01,9.100536877376207145e-02
4.384000000000000341e+01,9.246788495339719471e-02
4.388000000000000256e+01,1.236222823015103583e-01
4.392000000000000171e+01,1.058705074198248025e-01
4.396000000000000085e+01,1.384207627035279331e-01
4.400000000000000000e+01,1.185715926919680280e-01
4.403999999999999915e+01,1.441339011100496448e-01
4.407999999999999829e+01,1.529278939353172773e-01
4.411999999999999744e+01,1.550839833324408612e-01
4.415999999999999659e+01,1.523487894443946999e-01
4.420000000000000284e+01,1.793054511657948547e-01
4.424000000000000199e+01,1.622464604443538683e-01
4.428000000000000114e+01,1.741806696074600647e-01
4.432000000000000028e+01,1.944979200735655889e-01
4.435999999999999943e+01,1.582238204796496128e-01
4.439999999999999858e+01,1.722517159074539173e-01
4.443999999999999773e+01,1.597301762965551986e-01
4.447999999999999687e+01,1.332348864846180092e-01
4.452000000000000313e+01,1.430685954069380317e-01
4.456000000000000227e+01,1.368325997330378518e-01
4.460000000000000142e+01,1.183694676113157818e-01
4.464000000000000057e+01,1.156251692525452068e-01
4.467999999999999972e+01,1.010030527237654602e-01
4.471999999999999886e+01,1.195659969467122302e-01
4.475999999999999801e+01,9.236662385553834342e-02
4.479999999999999716e+01,1.067360971480286885e-01
4.484000000000000341e+01,9.001488277460790999e-02
4.488000000000000256e+01,1.043827683679739854e-01
4.492000000000000171e+01,8.731063523810041194e-02
4.496000000000000085e+01,7.966946629587494388e-02
4.500000000000000000e+01,7.726736233557089661e-02
4.503999999999999915e+01,7.276850214332543365e-02
4.507999999999999829e+01,7.944721989194462874e-02
4.511999999999999744e+01,7.494673366202742049e-02
4.515999999999999659e+01,4.913662489914594200e-02
4.520000000000000284e+01,4.603179852232374553e-02
4.524000000000000199e+01,5.130993996628523124e-02
4.528000000000000114e+01,5.309400733874888867e-02
4.532000000000000028e+01,6.989820482608075092e-02
4.535999999999999943e+01,6.958465981690133140e-02
4.539999999999999858e+01,3.852970708107619074e-02
4.543999999999999773e+01,4.659827693785759117e-02
4.547999999999999687e+01,6.444709411643144426e-02
4.552000000000000313e+01,4.386935129716827697e-02
4.556000000000000227e+01,4.599686211005391684e-02
4.560000000000000142e+01,4.987014330597009520e-02
4.564000000000000057e+01,3.173511429523315219e-02
4.567999999999999972e+01,3.176410865358974406e-02
4.571999999999999886e+01,4.122400649689447055e-02
4.575999999999999801e+01,4.509384392472996078e-02
4.579999999999999716e+01,4.267496840707626221e-02
4.584000000000000341e+01,2.453561072464650189e-02
4.588000000000000256e+01,4.202649381544828339e-02
4.592000000000000171e+01,5.043405703555861597e-02
4.596000000000000085e+01,3.857990782783754513e-02
4.600000000000000000e+01,4.314313309232494648e-02
4.603999999999999915e+01,4.246560024476138395e-02
4.607999999999999829e+01,5.436286413637127918e-02
4.611999999999999744e+01,4.320380548006872573e-02
4.615999999999999659e+01,5.998982254629054572e-02
4.620000000000000284e+01,2.891745927732542951e-02
4.624000000000000199e+01,3.242733402496929956e-02
4.628000000000000114e+01,5.584780755637563238e-02
4.632000000000000028e+01,4.328692986536043091e-02
4.635999999999999943e+01,3.526635919524106350e-02
4.639999999999999858e+01,4.680705305667653277e-02
4.643999999999999773e+01,3.808599615173319936e-02
4.647999999999999687e+01,3.879578202903796041e-02
4.652000000000000313e+01,4.649113482071708103e-02
4.656000000000000227e+01,7.409706403200609637e-02
4.660000000000000142e+01,4.336484093219893782e-02
4.664000000000000057e+01,3.952968121365683929e-02
4.667999999999999972e+01,3.569358227856023885e-02
4.671999999999999886e+01,4.687750163756838201e-02
4.675999999999999801e+01,3.151180065489447152e-02
4.679999999999999716e+01,4.374179960911096093e-02
4.684000000000000341e+01,4.584043120770819879e-02
4.688000000000000256e+01,5.457527629919870643e-02
4.692000000000000171e+01,5.422672164802402189e-02
4.696000000000000085e+01,4.444543939173443980e-02
4.700000000000000000e+01,4.758820505997312517e-02
4.703999999999999915e+01,6.086041811729576978e-02
4.707999999999999829e+01,4.408973859819804303e-02
4.711999999999999744e+01,5.316811011910595186e-02
4.715999999999999659e+01,4.652589404423242841e-02
4.720000000000000284e+01,5.734893059791089376e-02
4.724000000000000199e+01,4.581420448220762526e-02
4.728000000000000114e+01,6.851230864868995685e-02
4.732000000000000028e+01,6.046885173433690780e-02
4.735999999999999943e+01,5.731494663647625221e-02
4.739999999999999858e+01,7.057830419006097533e-02
4.743999999999999773e+01,6.008658442958652451e-02
4.747999999999999687e+01,8.941687365803334397e-02
4.752000000000000313e+01,6.879272911486404574e-02
4.756000000000000227e+01,6.248988643820015815e-02
4.760000000000000142e+01,7.819348511971718763e-02
4.764000000000000057e+01,7.922443186961757033e-02
4.767999999999999972e+01,6.837732083358726010e-02
4.771999999999999886e+01,6.940622621155206895e-02
4.775999999999999801e+01,6.519423609767094341e-02
4.779999999999999716e+01,6.063189264305407500e-02
4.784000000000000341e+01,6.724690668265410898e-02
4.788000000000000256e+01,6.058654829164620420e-02
4.792000000000000171e+01,7.034341101865718149e-02
4.796000000000000085e+01,7.066746626857964286e-02
4.800000000000000000e+01,6.505195752224098016e-02
4.803999999999999915e+01,5.838742693075164164e-02
4.807999999999999829e+01,5.242049463708577800e-02
4.811999999999999744e+01,4.051398876252210179e-02
4.815999999999999659e+01,4.991523018269273387e-02
4.820000000000000284e+01,4.813702161864785029e-02
4.824000000000000199e+01,5.264559325404118140e-02
4.828000000000000114e+01,3.689226715862394673e-02
4.832000000000000028e+01,5.711831161639283755e-02
4.835999999999999943e+01,7.280206199427276259e-02
4.839999999999999858e+01,5.180564568088447119e-02
4.843999999999999773e+01,3.744531826011025799e-02
4.847999999999999687e+01,4.334473857232686023e-02
4.852000000000000313e+01,4.819509870084531106e-02
4.856000000000000227e+01,4.081800608852558659e-02
4.860000000000000142e+01,5.998849564083155728e-02
4.864000000000000057e+01,3.339635797575857962e-02
4.867999999999999972e+01,3.859166609911324902e-02
4.871999999999999886e+01,4.762844341036417961e-02
4.875999999999999801e+01,4.443775200638221817e-02
4.879999999999999716e+01,3.845135471669609839e-02
4.884000000000000341e+01,4.364223504925317937e-02
4.888000000000000256e+01,5.511984446318524133e-02
4.892000000000000171e+01,2.642399897671608364e-02
4.896000000000000085e+01,3.580342093079382643e-02
4.900000000000000000e+01,3.924319901663676780e-02
4.903999999999999915e+01,5.141496607733354873e-02
4.907999999999999829e+01,2.970110947438506580e-02
4.911999999999999744e+01,3.278817016478273449e-02
4.915999999999999659e+01,4.041531423454949173e-02
4.920000000000000284e+01,4.245212312925734921e-02
4.924000000000000199e+01,4.693306100815244908e-02
4.928000000000000114e+01,3.080269661669248274e-02
4.932000000000000028e+01,2.829484418192291031e-02
4.935999999999999943e+01,4.499869519009529195e-02
4.939999999999999858e+01,3.375541632429192307e-02
4.943999999999999773e+01,4.591573052252045234e-02
4.947999999999999687e+01,4.584851849769491783e-02
4.952000000000000313e+01,4.997203643075734392e-02
4.956000000000000227e+01,3.802545040773054608e-02
4.960000000000000142e+01,4.878379533407852658e-02
4.964000000000000057e+01,3.788283523344900677e-02
4.967999999999999972e+01,5.457734503842540108e-02
4.971999999999999886e+01,6.044160812135681432e-02
4.975999999999999801e+01,5.792089396035870336e-02
4.979999999999999716e+01,4.352195268484558566e-02
4.984000000000000341e+01,3.575898848118335555e-02
4.988000000000000256e+01,6.642054290342268297e-02
4.992000000000000171e+01,4.049030317746624141e-02
4.996000000000000085e+01,4.879267967680562396e-02
5.000000000000000000e+01,3.264112505469165398e-02
5.003999999999999915e+01,4.233838824641981968e-02
5.007999999999999829e+01,4.365064863518697269e-02
5.011999999999999744e+01,4.007114970182065750e-02
5.015999999999999659e+01,4.173030361099089314e-02
5.020000000000000284e+01,4.758013316510686236e-02
5.024000000000000199e+01,4.155170046103942583e-02
5.028000000000000114e+01,4.844705370142616402e-02
5.032000000000000028e+01,5.813577433183909210e-02
5.035999999999999943e+01,5.943946979513832496e-02
5.039999999999999858e+01,5.620070823972198037e-02
5.043999999999999773e+01,4.248096712201015340e-02
5.047999999999999687e+01,4.028769730407515820e-02
5.052000000000000313e+01,3.809318156120631432e-02
5.056000000000000227e+01,3.659606603366610117e-02
5.060000000000000142e+01,3.894026953471136504e-02
5.064000000000000057e+01,3.115280216663696145e-02
5.067999999999999972e+01,5.934451685389049297e-02
5.071999999999999886e+01,5.399980155503255469e-02
5.075999999999999801e+01,4.201665247812463172e-02
5.079999999999999716e+01,5.413563717450551455e-02
5.084000000000000341e+01,5.088306501381214403e-02
5.088000000000000256e+01,4.623191950399178213e-02
5.092000000000000171e+01,4.542206746372533244e-02
5.096000000000000085e+01,3.028862298445971282e-02
5.100000000000000000e+01,4.868906232849590926e-02
5.103999999999999915e+01,3.425169546253016561e-02
5.107999999999999829e+01,4.077251799756481665e-02
5.111999999999999744e+01,3.366838464922573132e-02
5.115999999999999659e+01,5.800217433924868826e-02
5.120000000000000284e+01,5.299139171546054378e-02
5.124000000000000199e+01,3.715024096422714361e-02
5.128000000000000114e+01,4.541118564773522631e-02
5.132000000000000028e+01,3.655391179776829730e-02
5.135999999999999943e+01,4.655885697922498845e-02
5.139999999999999858e+01,5.656248594841097738e-02
5.143999999999999773e+01,4.490666612106660599e-02
5.147999999999999687e+01,4.861980906480248971e-02
5.152000000000000313e+01,7.992827494971263547e-02
5.156000000000000227e+01,6.267928305051499727e-02
5.160000000000000142e+01,3.704516694295618279e-02
5.164000000000000057e+01,3.970501352707607456e-02
5.167999999999999972e+01,5.354191089703354278e-02
5.171999999999999886e+01,4.956190844958526659e-02
5.175999999999999801e+01,4.837515837652092004e-02
5.179999999999999716e+01,3.635799544770601521e-02
5.184000000000000341e+01,3.481922119007158783e-02
5.188000000000000256e+01,4.445748174388002710e-02
5.192000000000000171e+01,3.627882650588786645e-02
5.196000000000000085e+01,4.346909570042858939e-02
5.200000000000000000e+01,4.856205275409030547e-02
5.203999999999999915e+01,4.771512312871701439e-02
5.207999999999999829e+01,4.057897896185893444e-02
5.211999999999999744e+01,4.566782443988203627e-02
5.215999999999999659e+01,4.900866966508100192e-02
5.220000000000000284e+01,4.920421277229428125e-02
5.224000000000000199e+01,5.184364524777355238e-02
5.228000000000000114e+01,3.457018517211769143e-02
5.232000000000000028e+01,5.083050348875823438e-02
5.235999999999999943e+01,5.206846821049497531e-02
5.239999999999999858e+01,5.400368618312859081e-02
5.243999999999999773e+01,4.650573885223097115e-02
5.247999999999999687e+01,4.669153173388537054e-02
5.252000000000000313e+01,3.080698423840824013e-02
5.256000000000000227e+01,6.277850733635069458e-02
5.260000000000000142e+01,6.819994364028399148e-02
5.264000000000000057e+01,5.370845863917168839e-02
5.267999999999999972e+01,6.681220392774403494e-02
5.271999999999999886e+01,7.118141088377386017e-02
5.275999999999999801e+01,6.472012830695826613e-02
5.279999999999999716e+01,5.266822301597822581e-02
5.284000000000000341e+01,5.598517187019398655e-02
5.288000000000000256e+01,7.012975099630819331e-02
5.292000000000000171e+01,4.549785440440865664e-02
5.296000000000000085e+01,4.601589306504653282e-02
5.300000000000000000e+01,6.539601976707105913e-02
5.303999999999999915e+01,5.647940119356477384e-02
5.307999999999999829e+01,4.930795556072502944e-02
5.311999999999999744e+01,5.820399104406983465e-02
5.315999999999999659e+01,6.395464773233416889e-02
5.320000000000000284e+01,6.446397442521506482e-02
5.324000000000000199e+01,5.344412391156182912e-02
5.328000000000000114e+01,5.534781972644148285e-02
5.332000000000000028e+01,7.506560402096421059e-02
5.335999999999999943e+01,4.902038410239158844e-02
5.339999999999999858e+01,5.720750564952496731e-02
5.343999999999999773e+01,7.028369339155036977e-02
5.347999999999999687e+01,5.541242538194696837e-02
5.352000000000000313e+01,6.045117788301584277e-02
5.356000000000000227e+01,5.151545494552443871e-02
5.360000000000000142e+01,5.480460344239285186e-02
5.364000000000000057e+01,5.844158148133996034e-02
5.367999999999999972e+01,5.963178852692152532e-02
5.371999999999999886e+01,5.488197470855203652e-02
5.375999999999999801e+01,6.550094155316259215e-02
5.379999999999999716e+01,6.284406312508036829e-02
5.384000000000000341e+01,6.088432293225266856e-02
5.388000000000000256e+01,5.193657509324614563e-02
5.392000000000000171e+01,6.289881581612236094e-02
5.396000000000000085e+01,4.172166643797461938e-02
5.400000000000000000e+01,5.652343394020184486e-02
5.403999999999999915e+01,6.468650568430510395e-02
5.407999999999999829e+01,4.734734642658995629e-02
5.411999999999999744e+01,6.633641913218370212e-02
5.415999999999999659e+01,5.248743642721734326e-02
5.420000000000000284e+01,6.553491327139421285e-02
5.424000000000000199e+01,6.530650969920988314e-02
5.428000000000000114e+01,5.529546919149191941e-02
5.432000000000000028e+01,6.379708662658452323e-02
5.435999999999999943e+01,7.544107343650002795e-02
5.439999999999999858e+01,6.996659570726117272e-02
5.443999999999999773e+01,5.890136427382082485e-02
5.447999999999999687e+01,6.879405067666981288e-02
5.452000000000000313e+01,6.226691229086909335e-02
5.456000000000000227e+01,7.530038668131722179e-02
5.460000000000000142e+01,6.911943255279234810e-02
5.464000000000000057e+01,7.062204611335624882e-02
5.467999999999999972e+01,7.037645814372199549e-02
5.471999999999999886e+01,6.873199011658155666e-02
5.475999999999999801e+01,5.416092480722416169e-02
5.479999999999999716e+01,6.858221912924952757e-02
5.484000000000000341e+01,6.798096177387617789e-02
5.488000000000000256e+01,7.261798026532320649e-02
5.492000000000000171e+01,6.747231070317340207e-02
5.496000000000000085e+01,6.616761192780339085e-02
5.500000000000000000e+01,4.879237469280682526e-02
5.503999999999999915e+01,7.403313995517504797e-02
5.507999999999999829e+01,6.713442565990861144e-02
5.511999999999999744e+01,6.966586405303669405e-02
5.515999999999999659e+01,7.079838724499003255e-02
5.520000000000000284e+01,7.577186205444948197e-02
5.524000000000000199e+01,7.061329858370979373e-02
5.528000000000000114e+01,7.767947236241407039e-02
5.532000000000000028e+01,7.775752347929726360e-02
5.535999999999999943e+01,6.455960472320856902e-02
5.539999999999999858e+01,5.659992028051390178e-02
5.543999999999999773e+01,7.693389501599753877e-02
5.547999999999999687e+01,8.783446163714968280e-02
5.552000000000000313e+01,6.764348755971065497e-02
5.556000000000000227e+01,7.784211108123713363e-02
5.560000000000000142e+01,7.197014821995272038e-02
5.564000000000000057e+01,7.587762118120718047e-02
5.567999999999999972e+01,8.607128009441496197e-02
5.571999999999999886e+01,7.739974569960970940e-02
5.575999999999999801e+01,8.898737756982615099e-02
5.579999999999999716e+01,7.751791373142381814e-02
5.584000000000000341e+01,9.119815511427449561e-02
5.588000000000000256e+01,8.636251507716705134e-02
5.592000000000000171e+01,8.292249647675006829e-02
5.596000000000000085e+01,1.000909528345305527e-01
5.600000000000000000e+01,9.385297284172690324e-02
5.603999999999999915e+01,1.082234614173629567e-01
5.607999999999999829e+01,8.207059854169476698e-02
5.611999999999999744e+01,8.735526253939866759e-02
5.615999999999999659e+01,1.146456841911879659e-01
5.620000000000000284e+01,1.059539654854548679e-01
5.624000000000000199e+01,1.196173227116198029e-01
5.628000000000000114e+01,1.189566625798850613e-01
5.632000000000000028e+01,1.270274099550349756e-01
5.635999999999999943e+01,1.235687309230925207e-01
5.639999999999999858e+01,1.501502577300868613e-01
5.643999999999999773e+01,1.337631316588718811e-01
5.647999999999999687e+01,1.428749843584172785e-01
5.652000000000000313e+01,1.540810599066100850e-01
5.656000000000000227e+01,1.509630957327504630e-01
5.660000000000000142e+01,1.667069320611719307e-01
5.664000000000000057e+01,1.758118649643375664e-01
5.667999999999999972e+01,1.667501772175367658e-01
5.671999999999999886e+01,1.555908003341407719e-01
5.675999999999999801e+01,1.311553417570095470e-01
5.679999999999999716e+01,1.392053297430202452e-01
5.684000000000000341e+01,1.381711256563857571e-01
5.688000000000000256e+01,1.273540769670858663e-01
5.692000000000000171e+01,1.340015045507526870e-01
5.696000000000000085e+01,1.057147050769089436e-01
5.700000000000000000e+01,1.322701149163343082e-01
5.703999999999999915e+01,1.162061486219367196e-01
5.707999999999999829e+01,1.025856851154518662e-01
5.711999999999999744e+01,1.064296819075390699e-01
5.715999999999999659e+01,1.008401364003788658e-01
5.720000000000000284e+01,1.102697721290381572e-01
5.724000000000000199e+01,9.838882047128978681e-02
5.728000000000000114e+01,1.036229916650269756e-01
5.732000000000000028e+01,1.039648284584194643e-01
5.735999999999999943e+01,9.277715897274574353e-02
5.739999999999999858e+01,1.046431221026219438e-01
5.743999999999999773e+01,6.515656046061930884e-02
5.747999999999999687e+01,9.483448116373523196e-02
5.752000000000000313e+01,1.004071947757255584e-01
5.756000000000000227e+01,8.431997077470597401e-02
5.760000000000000142e+01,7.521742870659135771e-02
5.764000000000000057e+01,7.275024070893205963e-02
5.767999999999999972e+01,8.076097493012632245e-02
5.771999999999999886e+01,9.121516082117009372e-02
5.775999999999999801e+01,8.909183448164623154e-02
5.779999999999999716e+01,9.535047277091525386e-02
5.784000000000000341e+01,1.023059298075435775e-01
5.788000000000000256e+01,8.585480033427710100e-02
5.792000000000000171e+01,6.276466519962840829e-02
5.796000000000000085e+01,8.438624734160495022e-02
5.800000000000000000e+01,7.980663604848443893e-02
5.803999999999999915e+01,8.360897021488312986e-02
5.807999999999999829e+01,6.610064990241612537e-02
5.811999999999999744e+01,6.989928135982463597e-02
5.815999999999999659e+01,8.382647202996863778e-02
5.820000000000000284e+01,8.832003733401244672e-02
5.824000000000000199e+01,8.477727274735971652e-02
5.828000000000000114e+01,6.691033105885972609e-02
5.832000000000000028e+01,7.873411718753620114e-02
5.835999999999999943e+01,7.099384981104764347e-02
5.839999999999999858e+01,6.988887580231428753e-02
5.843999999999999773e+01,7.926176330973447315e-02
5.847999999999999687e+01,6.697463972192888026e-02
5.852000000000000313e+01,6.656266993080148242e-02
5.856000000000000227e+01,6.510083804135909091e-02
5.860000000000000142e+01,7.900740023454363992e-02
5.864000000000000057e+01,6.531541920428531045e-02
5.867999999999999972e+01,6.419722852633075183e-02
5.871999999999999886e+01,6.482376031111068693e-02
5.875999999999999801e+01,6.719501136374604611e-02
5.879999999999999716e+01,7.096165382178730441e-02
5.884000000000000341e+01,7.263043781464895154e-02
5.888000000000000256e+01,7.359865881773465512e-02
5.892000000000000171e+01,7.351698896859477916e-02
5.896000000000000085e+01,7.657732108319828535e-02
5.900000000000000000e+01,6.740936659355725724e-02
5.903999999999999915e+01,6.906855036445616602e-02
5.907999999999999829e+01,6.653390849547777264e-02
5.911999999999999744e+01,6.399733380259114979e-02
5.915999999999999659e+01,8.137032914244454740e-02
5.920000000000000284e+01,6.869946385755518192e-02
5.924000000000000199e+01,7.384221421022417464e-02
5.928000000000000114e+01,6.920192826749058113e-02
5.932000000000000028e+01,6.805294020216044737e-02
5.935999999999999943e+01,8.646418152760501630e-02
5.939999999999999858e+01,8.042074093504265886e-02
5.943999999999999773e+01,8.450575731908929744e-02
5.947999999999999687e+01,5.784824137909925362e-02
5.952000000000000313e+01,8.393678546958056874e-02
5.956000000000000227e+01,6.076858346502239661e-02
5.960000000000000142e+01,5.785924101710665512e-02
5.964000000000000057e+01,6.298239156598119115e-02
5.967999999999999972e+01,5.971977254094635451e-02
5.971999999999999886e+01,8.370249683933003726e-02
5.975999999999999801e+01,8.602510780636146714e-02
5.979999999999999716e+01,8.170856295269991743e-02
5.984000000000000341e+01,7.704070309973821973e-02
5.988000000000000256e+01,4.163027897395033677e-02
5.992000000000000171e+01,6.665102561639860146e-02
5.996000000000000085e+01,7.105961695581179682e-02
