2.003999999999999915e+01,1.531580810162727971e-02
2.007999999999999829e+01,1.188738699924342737e-02
2.012000000000000099e+01,1.429132975737938335e-02
2.016000000000000014e+01,1.523668995635197448e-02
2.019999999999999929e+01,2.434751743555571904e-02
2.023999999999999844e+01,2.023703555940296536e-02
2.028000000000000114e+01,1.320978252253946980e-02
2.032000000000000028e+01,1.600061207407680805e-02
2.035999999999999943e+01,8.680936911106747547e-03
2.039999999999999858e+01,1.205425842356714662e-02
2.044000000000000128e+01,2.096830787970162605e-02
2.048000000000000043e+01,1.335582028867196916e-02
2.051999999999999957e+01,1.488092814934764176e-02
2.055999999999999872e+01,1.572515686539797952e-02
2.060000000000000142e+01,1.268049014863904984e-02
2.064000000000000057e+01,5.941353487139137968e-03
2.067999999999999972e+01,1.397814533854912881e-02
2.071999999999999886e+01,1.423753760113749371e-02
2.076000000000000156e+01,1.430211504854867963e-02
2.080000000000000071e+01,1.213041285874210534e-02
2.083999999999999986e+01,1.647156727150574096e-02
2.087999999999999901e+01,1.663219009090109377e-02
2.092000000000000171e+01,1.115409222795968498e-02
2.096000000000000085e+01,2.152126342786997090e-02
2.100000000000000000e+01,4.182449198316156441e-03
2.103999999999999915e+01,1.649309686840160286e-02
2.107999999999999829e+01,2.092913452088564566e-02
2.112000000000000099e+01,1.233829342401190909e-02
2.116000000000000014e+01,3.552639949070580169e-03
2.119999999999999929e+01,1.800041628482268799e-02
2.123999999999999844e+01,1.310249416073893877e-02
2.128000000000000114e+01,1.034286332200770077e-02
2.132000000000000028e+01,2.119261342941835408e-02
2.135999999999999943e+01,1.697402118398578380e-02
2.139999999999999858e+01,1.061636557917892791e-02
2.144000000000000128e+01,2.690886551425962850e-02
2.148000000000000043e+01,1.452325672262170728e-02
2.151999999999999957e+01,2.119093693768392753e-02
2.155999999999999872e+01,2.416415281335769147e-02
2.160000000000000142e+01,1.547146957470616271e-02
2.164000000000000057e+01,2.213799643109974277e-02
2.167999999999999972e+01,1.830517612673360564e-02
2.171999999999999886e+01,1.252771965703822557e-02
2.176000000000000156e+01,1.997079632559097331e-02
2.180000000000000071e+01,1.623403820926649574e-02
2.183999999999999986e+01,1.648261461164220870e-02
2.187999999999999901e+01,1.984161217682144790e-02
2.192000000000000171e+01,2.533890492672879677e-02
2.196000000000000085e+01,2.500305808642750913e-02
2.200000000000000000e+01,1.786194567784233841e-02
2.203999999999999915e+01,1.305355442947548315e-02
2.207999999999999829e+01,2.195176137993774118e-02
2.212000000000000099e+01,1.782309567381662116e-02
2.216000000000000014e+01,9.125055684364020286e-03
2.219999999999999929e+01,1.209214955912221549e-02
2.223999999999999844e+01,2.837699211883887990e-02
2.228000000000000114e+01,1.676143180348557693e-02
2.232000000000000028e+01,1.010333515315051632e-02
2.235999999999999943e+01,8.499915033723276156e-03
2.239999999999999858e+01,1.311772315505838581e-02
2.244000000000000128e+01,6.847338257427774098e-03
2.248000000000000043e+01,2.099122492606168497e-02
2.251999999999999957e+01,1.724761026629037172e-02
2.255999999999999872e+01,1.710048402330232448e-02
2.260000000000000142e+01,1.724461728673503877e-02
2.264000000000000057e+01,1.758279767812093858e-02
2.267999999999999972e+01,1.753174970809912719e-02
2.271999999999999886e+01,1.670262313166604590e-02
2.276000000000000156e+01,2.481668041039578054e-02
2.280000000000000071e+01,2.165369637484411414e-02
2.283999999999999986e+01,1.401855482122622842e-02
2.287999999999999901e+01,1.659036194222627061e-02
2.292000000000000171e+01,1.780081594229819889e-02
2.296000000000000085e+01,1.415026266672226446e-02
2.300000000000000000e+01,1.224916066735627987e-02
2.303999999999999915e+01,1.627765294159255749e-02
2.307999999999999829e+01,1.583398916002828200e-02
2.312000000000000099e+01,9.362767611516494698e-03
2.316000000000000014e+01,2.233369555056945871e-02
2.319999999999999929e+01,1.537566123855269203e-02
2.323999999999999844e+01,1.347230881908522727e-02
2.328000000000000114e+01,1.992886768995149466e-02
2.332000000000000028e+01,1.724706610270898555e-02
2.335999999999999943e+01,1.757848207339741606e-02
2.339999999999999858e+01,1.159070411657931593e-02
2.344000000000000128e+01,1.522660251326110256e-02
2.348000000000000043e+01,4.183021962495955641e-03
2.351999999999999957e+01,2.065024073352073400e-02
2.355999999999999872e+01,1.252229358230021530e-02
2.360000000000000142e+01,1.090721984970736101e-02
2.364000000000000057e+01,1.240257800320090920e-02
2.367999999999999972e+01,1.555017895381247475e-02
2.371999999999999886e+01,5.768129618458410664e-03
2.376000000000000156e+01,1.824739946951398073e-02
2.380000000000000071e+01,1.371408939052340403e-02
2.383999999999999986e+01,9.763684239529774392e-03
2.387999999999999901e+01,2.642198442904206829e-02
2.392000000000000171e+01,2.004052284456596389e-02
2.396000000000000085e+01,1.054788727643181379e-02
2.400000000000000000e+01,1.447022373871780301e-02
2.403999999999999915e+01,1.848940323666243418e-02
2.407999999999999829e+01,8.509595798075328052e-03
2.412000000000000099e+01,8.347894100431992384e-03
2.416000000000000014e+01,1.051892647968869464e-02
2.419999999999999929e+01,1.035648731498228434e-02
2.423999999999999844e+01,8.249427338738284099e-03
2.428000000000000114e+01,1.382179639035194772e-02
2.432000000000000028e+01,2.065756164974474896e-02
2.435999999999999943e+01,1.543859412215527194e-02
2.439999999999999858e+01,1.634365439869832695e-02
2.444000000000000128e+01,1.112395232857749279e-02
2.448000000000000043e+01,1.125057757258223629e-02
2.451999999999999957e+01,1.633467988570890331e-02
2.455999999999999872e+01,1.412746911716103101e-02
2.460000000000000142e+01,1.328086888454771408e-02
2.464000000000000057e+01,1.126735125493561612e-02
2.467999999999999972e+01,1.353082331403893807e-02
2.471999999999999886e+01,5.489391978774118760e-03
2.476000000000000156e+01,1.202948877058157041e-02
2.480000000000000071e+01,2.148559927173655099e-02
2.483999999999999986e+01,8.485229337327464955e-03
2.487999999999999901e+01,1.317719217083975630e-02
2.492000000000000171e+01,7.369827584181546688e-03
2.496000000000000085e+01,1.225548745600516833e-02
2.500000000000000000e+01,1.500210590244252518e-02
2.503999999999999915e+01,1.473476956759682197e-02
2.507999999999999829e+01,1.874442535857634082e-02
2.512000000000000099e+01,1.662932294597857519e-02
2.516000000000000014e+01,1.052814026144437837e-02
2.519999999999999929e+01,7.440186345546134783e-03
2.523999999999999844e+01,1.300379352835545795e-02
2.528000000000000114e+01,9.623477439251045332e-03
2.532000000000000028e+01,1.275604524834634407e-02
2.535999999999999943e+01,8.888942716522484078e-03
2.539999999999999858e+01,1.134029932596293012e-02
2.544000000000000128e+01,1.349965701223178154e-02
2.548000000000000043e+01,7.201155756035007051e-03
2.551999999999999957e+01,1.120683188155931036e-02
2.555999999999999872e+01,9.087752484327089875e-03
2.560000000000000142e+01,1.659236260098752302e-02
2.564000000000000057e+01,6.889978753949409576e-03
2.567999999999999972e+01,9.338813084870379450e-03
2.571999999999999886e+01,9.065334644130706651e-03
2.576000000000000156e+01,1.472146704933965933e-02
2.580000000000000071e+01,1.386399490534340369e-02
2.583999999999999986e+01,9.992572854283650677e-03
2.587999999999999901e+01,1.380058957952077538e-02
2.592000000000000171e+01,1.138664035322151623e-02
2.596000000000000085e+01,1.431902745835395355e-02
2.600000000000000000e+01,1.307091416512320449e-02
2.603999999999999915e+01,1.493324738063759455e-02
2.607999999999999829e+01,1.718407392760645802e-02
2.612000000000000099e+01,1.467112507427325088e-02
2.616000000000000014e+01,1.410207199467448588e-02
2.619999999999999929e+01,9.741370223982023097e-03
2.623999999999999844e+01,1.344895991169976421e-02
2.628000000000000114e+01,1.900323348210629371e-02
2.632000000000000028e+01,1.308606194044015236e-02
2.635999999999999943e+01,9.501637879777901849e-03
2.639999999999999858e+01,9.999788743045837439e-03
2.644000000000000128e+01,1.496936526266952512e-02
2.648000000000000043e+01,1.507795595321144780e-02
2.651999999999999957e+01,1.674159412217205226e-02
2.655999999999999872e+01,1.159999450590010542e-02
2.660000000000000142e+01,1.647094098500982359e-02
2.664000000000000057e+01,1.268961034491500155e-02
2.667999999999999972e+01,1.678214859969377401e-02
2.671999999999999886e+01,9.403244179509722897e-03
2.676000000000000156e+01,1.495326549491012187e-02
2.680000000000000071e+01,2.128063501727699494e-02
2.683999999999999986e+01,1.224805770866877093e-02
2.687999999999999901e+01,1.624161948895649216e-02
2.692000000000000171e+01,2.344284576180949778e-02
2.696000000000000085e+01,1.440921233521253071e-02
2.700000000000000000e+01,1.188847304267628101e-02
2.703999999999999915e+01,1.014508341937238670e-02
2.707999999999999829e+01,9.665106819905081026e-03
2.712000000000000099e+01,6.560038600840087560e-03
2.716000000000000014e+01,1.268981891168130885e-02
2.719999999999999929e+01,1.697220906777580779e-02
2.723999999999999844e+01,1.697689375836878081e-02
2.728000000000000114e+01,1.698122860303103235e-02
2.732000000000000028e+01,1.455489829100771980e-02
2.735999999999999943e+01,1.601672350762083433e-02
2.739999999999999858e+01,1.329805685575505443e-02
2.744000000000000128e+01,2.166128026116623945e-02
2.748000000000000043e+01,1.155375682526174272e-02
2.751999999999999957e+01,1.262533655623487849e-02
2.755999999999999872e+01,1.758507303439936845e-02
2.760000000000000142e+01,1.885038197353285441e-02
2.764000000000000057e+01,1.525471215120285766e-02
2.767999999999999972e+01,1.700538913987660605e-02
2.771999999999999886e+01,1.545048980936684045e-02
2.776000000000000156e+01,1.885308728856825711e-02
2.780000000000000071e+01,1.078424867300321367e-02
2.783999999999999986e+01,1.603319286193341867e-02
2.787999999999999901e+01,2.099015299406168170e-02
2.792000000000000171e+01,1.797533216098711265e-02
2.796000000000000085e+01,1.321033842585304582e-02
2.800000000000000000e+01,1.301399247398139433e-02
2.803999999999999915e+01,9.803710019150015109e-03
2.807999999999999829e+01,4.648830149034860471e-03
2.812000000000000099e+01,1.115912021235508124e-02
2.816000000000000014e+01,1.436383663731263631e-02
2.819999999999999929e+01,1.251315246840314574e-02
2.823999999999999844e+01,1.027327381391174646e-02
2.828000000000000114e+01,1.308810775955287532e-02
2.832000000000000028e+01,1.191688068642476547e-02
2.835999999999999943e+01,1.648085505610152879e-02
2.839999999999999858e+01,1.180928729678492467e-02
2.844000000000000128e+01,1.977501764237791365e-02
2.848000000000000043e+01,9.270007239429620474e-03
2.851999999999999957e+01,6.930514808595859139e-03
2.855999999999999872e+01,1.343702894883801700e-02
2.860000000000000142e+01,1.070800217864173280e-02
2.864000000000000057e+01,1.779710868872959317e-02
2.867999999999999972e+01,1.322035922133523410e-02
2.871999999999999886e+01,1.185128521350010261e-02
2.876000000000000156e+01,1.806445490697362183e-02
2.880000000000000071e+01,1.999992863967369958e-02
2.883999999999999986e+01,1.386641439034481081e-02
2.887999999999999901e+01,1.074615133106178975e-02
2.892000000000000171e+01,1.219454166039372900e-02
2.896000000000000085e+01,1.791994775551574923e-02
2.900000000000000000e+01,4.688553159445984012e-03
2.903999999999999915e+01,1.332965943092036948e-02
2.907999999999999829e+01,6.416407274877106159e-03
2.912000000000000099e+01,9.418503945828327062e-03
2.916000000000000014e+01,1.378123893576558602e-02
2.919999999999999929e+01,8.811224048750400731e-03
2.923999999999999844e+01,8.895927610931187238e-03
2.928000000000000114e+01,4.119662403798554987e-03
2.932000000000000028e+01,9.550385108751191857e-03
2.935999999999999943e+01,1.352258130806445989e-02
2.939999999999999858e+01,9.328580315123759931e-03
2.944000000000000128e+01,1.077257472300565191e-02
2.948000000000000043e+01,3.562927832676046082e-04
2.951999999999999957e+01,1.239579036867723832e-02
2.955999999999999872e+01,1.199173636081708738e-02
2.960000000000000142e+01,7.504416510760364423e-03
2.964000000000000057e+01,1.390457487772715946e-02
2.967999999999999972e+01,1.466606593506127043e-02
2.971999999999999886e+01,1.008052779300955965e-02
2.976000000000000156e+01,1.677131908782881001e-02
2.980000000000000071e+01,1.150462336253734418e-02
2.983999999999999986e+01,1.469509151835851450e-02
2.987999999999999901e+01,1.973226549085642725e-02
2.992000000000000171e+01,1.514505610666366103e-02
2.996000000000000085e+01,1.123800156042602597e-02
3.000000000000000000e+01,1.277452058260740431e-02
3.003999999999999915e+01,1.188039102044970846e-02
3.007999999999999829e+01,1.011101507252197031e-02
3.012000000000000099e+01,1.213259884710944821e-02
3.016000000000000014e+01,8.709943480953228137e-03
3.019999999999999929e+01,1.053643765741365916e-02
3.023999999999999844e+01,1.100162331205482499e-02
3.028000000000000114e+01,1.049435117730222917e-02
3.032000000000000028e+01,1.095887394043942691e-02
3.035999999999999943e+01,6.465221892280992311e-03
3.039999999999999858e+01,9.067760426688064451e-03
3.044000000000000128e+01,1.594732374419129822e-02
3.048000000000000043e+01,9.605640096348230100e-03
3.051999999999999957e+01,2.231730029017514952e-02
3.055999999999999872e+01,1.257251489910778640e-02
3.060000000000000142e+01,7.979668865588214477e-03
3.064000000000000057e+01,1.096907798779315525e-02
3.067999999999999972e+01,1.036129095889109543e-02
3.071999999999999886e+01,7.322859488736519276e-03
3.076000000000000156e+01,1.944926843537262556e-02
3.080000000000000071e+01,1.864607023288613122e-02
3.083999999999999986e+01,6.371454457667379175e-03
3.087999999999999901e+01,1.178920800701665529e-02
3.092000000000000171e+01,1.798433486556314659e-02
3.096000000000000085e+01,1.047215457240184382e-02
3.100000000000000000e+01,1.112550736143566414e-02
3.103999999999999915e+01,1.420884876783637743e-02
3.107999999999999829e+01,8.542727484772401000e-03
3.112000000000000099e+01,1.075050214850060623e-02
3.116000000000000014e+01,9.361083585653467640e-03
3.119999999999999929e+01,1.603998670137772933e-02
3.123999999999999844e+01,9.983710593157351168e-03
3.128000000000000114e+01,8.107251763785079668e-03
3.132000000000000028e+01,9.244058990828349365e-03
3.135999999999999943e+01,5.519910121528940825e-03
3.139999999999999858e+01,1.005850939371309878e-02
3.144000000000000128e+01,3.320119993186948330e-03
3.148000000000000043e+01,1.709326961607376960e-02
3.151999999999999957e+01,1.725632812138514285e-02
3.155999999999999872e+01,1.916889005705564239e-02
3.160000000000000142e+01,1.116544100536062852e-02
3.164000000000000057e+01,8.022299781162907026e-03
3.167999999999999972e+01,1.673877542503490398e-02
3.171999999999999886e+01,9.317632993241909897e-03
3.176000000000000156e+01,2.026935360290882740e-02
3.180000000000000071e+01,1.061167600411574118e-02
3.183999999999999986e+01,1.223034051516444336e-02
3.187999999999999901e+01,8.988052098113256949e-03
3.192000000000000171e+01,1.682768103396855772e-02
3.196000000000000085e+01,1.445966330932126585e-02
3.200000000000000000e+01,8.397244853850575202e-03
3.203999999999999915e+01,8.556113373487748280e-03
3.207999999999999829e+01,1.017285062519095173e-02
3.211999999999999744e+01,1.198369276434890947e-02
3.215999999999999659e+01,1.437749052338710420e-02
3.220000000000000284e+01,6.952493572903069297e-03
3.224000000000000199e+01,8.179100370547604665e-03
3.228000000000000114e+01,1.154406547406343179e-02
3.232000000000000028e+01,1.422822308398120732e-02
3.235999999999999943e+01,1.175979282379493313e-02
3.239999999999999858e+01,8.027279824360803590e-03
3.243999999999999773e+01,9.155079526643530863e-03
3.247999999999999687e+01,1.319893973078147854e-02
3.252000000000000313e+01,1.452052859412503692e-02
3.256000000000000227e+01,1.302263373820654671e-02
3.260000000000000142e+01,1.016344473941643844e-02
3.264000000000000057e+01,1.449767259318525056e-02
3.267999999999999972e+01,9.888022261571200247e-03
3.271999999999999886e+01,8.583284382792755879e-03
3.275999999999999801e+01,1.233328639977625089e-02
3.279999999999999716e+01,1.579133433640797848e-02
3.284000000000000341e+01,1.176369439518021830e-02
3.288000000000000256e+01,6.471974639236345410e-03
3.292000000000000171e+01,4.096318065968411991e-03
3.296000000000000085e+01,1.542732598091547773e-02
3.300000000000000000e+01,9.551384774983866580e-03
3.303999999999999915e+01,1.145213859179272479e-02
3.307999999999999829e+01,8.589159414009615509e-03
3.311999999999999744e+01,1.534991556778289058e-02
3.315999999999999659e+01,1.734693921438616032e-02
3.320000000000000284e+01,1.040008784384930871e-02
3.324000000000000199e+01,1.385467351343082874e-02
3.328000000000000114e+01,9.240298252901792478e-03
3.332000000000000028e+01,1.259704496544734875e-02
3.335999999999999943e+01,2.178623620684853185e-02
3.339999999999999858e+01,1.046325161040737375e-02
3.343999999999999773e+01,8.277941184317296267e-03
3.347999999999999687e+01,9.786398330285930522e-03
3.352000000000000313e+01,1.207224462666526762e-02
3.356000000000000227e+01,1.046927445259211199e-02
3.360000000000000142e+01,6.338464762278172258e-03
3.364000000000000057e+01,3.762745930937007668e-03
3.367999999999999972e+01,5.366859001102578831e-03
3.371999999999999886e+01,7.845575062412396897e-03
3.375999999999999801e+01,7.310389471432247877e-03
3.379999999999999716e+01,7.941445225554209092e-03
3.384000000000000341e+01,6.979687058766234110e-04
3.388000000000000256e+01,4.828059347479358651e-03
3.392000000000000171e+01,5.003424696326790738e-04
3.396000000000000085e+01,9.393233061882234544e-03
3.400000000000000000e+01,8.078489422889002791e-03
3.403999999999999915e+01,8.124413835621025967e-03
3.407999999999999829e+01,6.711840500608953763e-03
3.411999999999999744e+01,2.868643439777504058e-03
3.415999999999999659e+01,7.677061825201531020e-03
3.420000000000000284e+01,1.365172399283747125e-02
3.424000000000000199e+01,9.224328147139200518e-03
3.428000000000000114e+01,1.072659505782770466e-02
3.432000000000000028e+01,6.493010307178219941e-03
3.435999999999999943e+01,1.052219173262458965e-02
3.439999999999999858e+01,9.301585095048137131e-03
3.443999999999999773e+01,1.284409072255876874e-02
3.447999999999999687e+01,6.859453398608738629e-03
3.452000000000000313e+01,6.415629804596799726e-03
3.456000000000000227e+01,1.404014836087835554e-02
3.460000000000000142e+01,1.252637518554671620e-02
3.464000000000000057e+01,7.901493097387971704e-03
3.467999999999999972e+01,1.017840242451205010e-02
3.471999999999999886e+01,1.313549559119757924e-02
3.475999999999999801e+01,2.968580491789977408e-03
3.479999999999999716e+01,6.216703224766375289e-03
3.484000000000000341e+01,9.853372661901282914e-03
3.488000000000000256e+01,8.337469582723666325e-03
3.492000000000000171e+01,1.265402053712984774e-02
3.496000000000000085e+01,1.512322861671895960e-02
3.500000000000000000e+01,9.815124112305425100e-03
3.503999999999999915e+01,1.364470352668207750e-02
3.507999999999999829e+01,1.436317670905234642e-02
3.511999999999999744e+01,9.151377859946947455e-03
3.515999999999999659e+01,1.589642970394491983e-02
3.520000000000000284e+01,1.019796431792091042e-02
3.524000000000000199e+01,7.804426738524094902e-03
3.528000000000000114e+01,1.027121916432350603e-02
3.532000000000000028e+01,1.264049810791998199e-02
3.535999999999999943e+01,1.296801136945190981e-02
3.539999999999999858e+01,1.553111456848998116e-02
3.543999999999999773e+01,8.761505909488096974e-03
3.547999999999999687e+01,8.796480917809977942e-03
3.552000000000000313e+01,1.174753495002137452e-02
3.556000000000000227e+01,1.061535945297181933e-02
3.560000000000000142e+01,7.246994491766313960e-03
3.564000000000000057e+01,7.766835507369506363e-03
3.567999999999999972e+01,1.373028469835053597e-02
3.571999999999999886e+01,8.416771293695854070e-03
3.575999999999999801e+01,1.117160735066399270e-02
3.579999999999999716e+01,8.482238630136187604e-03
3.584000000000000341e+01,1.590268492440442133e-02
3.588000000000000256e+01,1.564303661849015398e-02
3.592000000000000171e+01,1.081409786582063909e-02
3.596000000000000085e+01,1.006779228400492623e-02
3.600000000000000000e+01,8.154638519107951580e-03
3.603999999999999915e+01,1.528196214359690309e-02
3.607999999999999829e+01,1.268772732070706094e-02
3.611999999999999744e+01,1.281514993301411005e-02
3.615999999999999659e+01,1.673356906819398193e-02
3.620000000000000284e+01,1.190255670891426747e-02
3.624000000000000199e+01,9.987627760321646578e-03
3.628000000000000114e+01,1.925185535131071490e-02
3.632000000000000028e+01,1.237849289339721000e-02
3.635999999999999943e+01,1.415675928584295140e-02
3.639999999999999858e+01,1.671243237588981162e-02
3.643999999999999773e+01,1.139358903335063039e-02
3.647999999999999687e+01,1.492080051666089778e-02
3.652000000000000313e+01,1.835050582909753675e-02
3.656000000000000227e+01,1.478060903968876280e-02
3.660000000000000142e+01,1.237697065515048871e-02
3.664000000000000057e+01,1.502809580633901465e-02
3.667999999999999972e+01,1.826220411674821242e-02
3.671999999999999886e+01,1.653817636590713958e-02
3.675999999999999801e+01,1.160583999674213128e-02
3.679999999999999716e+01,1.493628467004260753e-02
3.684000000000000341e+01,1.797479987780000940e-02
3.688000000000000256e+01,1.770779457618777697e-02
3.692000000000000171e+01,1.374641852020236539e-02
3.696000000000000085e+01,2.300566821263649864e-02
3.700000000000000000e+01,1.991862426422125881e-02
3.703999999999999915e+01,1.848390451239048660e-02
3.707999999999999829e+01,1.947921017828414467e-02
3.711999999999999744e+01,1.561359484221595643e-02
3.715999999999999659e+01,1.913584914240436599e-02
3.720000000000000284e+01,1.653341883973065418e-02
3.724000000000000199e+01,1.918018097280560150e-02
3.728000000000000114e+01,1.881306290015659702e-02
3.732000000000000028e+01,2.155646006274833035e-02
3.735999999999999943e+01,2.391071830586107699e-02
3.739999999999999858e+01,2.723681458370664707e-02
3.743999999999999773e+01,1.986923447856031241e-02
3.747999999999999687e+01,2.173656578075237530e-02
3.752000000000000313e+01,2.671441353674008229e-02
3.756000000000000227e+01,2.702576821594392109e-02
3.760000000000000142e+01,2.947551361457905264e-02
3.764000000000000057e+01,2.881416837871037320e-02
3.767999999999999972e+01,3.729052314655634942e-02
3.771999999999999886e+01,3.205961194984972146e-02
3.775999999999999801e+01,3.713295271042325874e-02
3.779999999999999716e+01,4.288649607630351523e-02
3.784000000000000341e+01,4.582058789277072136e-02
3.788000000000000256e+01,4.768505560275123484e-02
3.792000000000000171e+01,4.828547420559879677e-02
3.796000000000000085e+01,5.141313620999093253e-02
3.800000000000000000e+01,5.045758355149177615e-02
3.803999999999999915e+01,6.845820793014775751e-02
3.807999999999999829e+01,6.701602382911070466e-02
3.811999999999999744e+01,7.335056570210823912e-02
3.815999999999999659e+01,8.017088712945398543e-02
3.820000000000000284e+01,8.475503493385731779e-02
3.824000000000000199e+01,1.008099890862161202e-01
3.828000000000000114e+01,1.148231953474116718e-01
3.832000000000000028e+01,1.173650296098277951e-01
3.835999999999999943e+01,1.441125244567330044e-01
3.839999999999999858e+01,1.642492789012121590e-01
3.843999999999999773e+01,1.969261797561666638e-01
3.847999999999999687e+01,2.385463602446981357e-01
3.852000000000000313e+01,2.960119167852002797e-01
3.856000000000000227e+01,3.868211216135377106e-01
3.860000000000000142e+01,4.888094971166934144e-01
3.864000000000000057e+01,6.191836776639960682e-01
3.867999999999999972e+01,7.759994110555842317e-01
3.871999999999999886e+01,8.969434067186662363e-01
3.875999999999999801e+01,1.000000000000000000e+00
3.879999999999999716e+01,9.843597019440565310e-01
3.884000000000000341e+01,9.217654279623758162e-01
3.888000000000000256e+01,8.087175239002386551e-01
3.892000000000000171e+01,6.788515572751617766e-01
3.896000000000000085e+01,5.504435013004391752e-01
3.900000000000000000e+01,4.336034689263590924e-01
3.903999999999999915e+01,3.535095295408981486e-01
3.907999999999999829e+01,3.153139523632346175e-01
3.911999999999999744e+01,2.673968352602264509e-01
3.915999999999999659e+01,2.444630845933560559e-01
3.920000000000000284e+01,2.295977043472524903e-01
3.924000000000000199e+01,2.292167278294162946e-01
3.928000000000000114e+01,2.262107337801195772e-01
3.932000000000000028e+01,2.299121341722217549e-01
3.935999999999999943e+01,2.592773905742668528e-01
3.939999999999999858e+01,2.791155340013016795e-01
3.943999999999999773e+01,3.102300658432638469e-01
3.947999999999999687e+01,3.471770795018613298e-01
3.952000000000000313e+01,3.677920973640770863e-01
3.956000000000000227e+01,3.971559761957089707e-01
3.960000000000000142e+01,4.037718266545914370e-01
3.964000000000000057e+01,3.818068916537178392e-01
3.967999999999999972e+01,3.710211339078589021e-01
3.971999999999999886e+01,3.300019766126289777e-01
3.975999999999999801e+01,2.830525755563967905e-01
3.979999999999999716e+01,2.644889866119300437e-01
3.984000000000000341e+01,2.164696998266542050e-01
3.988000000000000256e+01,1.978083518623519887e-01
3.992000000000000171e+01,1.553296386310233368e-01
3.996000000000000085e+01,1.483332599053439893e-01
4.000000000000000000e+01,1.295738815502103236e-01
4.003999999999999915e+01,1.111058689594836141e-01
4.007999999999999829e+01,1.018727836173088097e-01
4.011999999999999744e+01,8.836207128456724513e-02
4.015999999999999659e+01,8.418349930997813535e-02
4.020000000000000284e+01,7.310256003342122111e-02
4.024000000000000199e+01,7.407571502344043046e-02
4.028000000000000114e+01,5.881409146976519786e-02
4.032000000000000028e+01,5.949506755723323742e-02
4.035999999999999943e+01,5.725939482690123317e-02
4.039999999999999858e+01,4.753808028008445208e-02
4.043999999999999773e+01,4.569071846471756126e-02
4.047999999999999687e+01,4.345423673932793940e-02
4.052000000000000313e+01,3.723176832701718258e-02
4.056000000000000227e+01,4.150799417611228392e-02
4.060000000000000142e+01,3.713202796113397597e-02
4.064000000000000057e+01,3.557495934287162320e-02
4.067999999999999972e+01,3.275385843353374044e-02
4.071999999999999886e+01,3.586245951804998416e-02
4.075999999999999801e+01,3.469343751137506787e-02
4.079999999999999716e+01,3.206595870040027108e-02
4.084000000000000341e+01,3.410441852609036317e-02
4.088000000000000256e+01,2.914330257072055702e-02
4.092000000000000171e+01,3.225056751568963070e-02
4.096000000000000085e+01,2.388647654680379345e-02
4.100000000000000000e+01,2.534059416489412714e-02
4.103999999999999915e+01,2.348921661955648277e-02
4.107999999999999829e+01,2.037380922025305158e-02
4.111999999999999744e+01,2.688218589470149633e-02
4.115999999999999659e+01,2.600213800535240358e-02
4.120000000000000284e+01,1.792809104027397529e-02
4.124000000000000199e+01,2.093601821275981392e-02
4.128000000000000114e+01,2.442974394905012697e-02
4.132000000000000028e+01,2.403470049481751247e-02
4.135999999999999943e+01,1.936203760505841170e-02
4.139999999999999858e+01,2.266054591799128784e-02
4.143999999999999773e+01,2.780583048007337008e-02
4.147999999999999687e+01,2.109091180782871749e-02
4.152000000000000313e+01,2.234716506940896685e-02
4.156000000000000227e+01,2.292266713462697697e-02
4.160000000000000142e+01,1.572089682815367220e-02
4.164000000000000057e+01,1.610144869792368497e-02
4.167999999999999972e+01,2.299498414368304072e-02
4.171999999999999886e+01,1.744504208430974063e-02
4.175999999999999801e+01,1.665825688913239247e-02
4.179999999999999716e+01,1.626006080382359775e-02
4.184000000000000341e+01,1.197309869623456105e-02
4.188000000000000256e+01,1.594894858240512858e-02
4.192000000000000171e+01,2.070223879829169097e-02
4.196000000000000085e+01,1.962251127945837531e-02
4.200000000000000000e+01,2.340315470926549596e-02
4.203999999999999915e+01,2.416994693495495838e-02
4.207999999999999829e+01,1.793717069091389435e-02
4.211999999999999744e+01,2.939683225422543358e-02
4.215999999999999659e+01,1.791405579793296787e-02
4.220000000000000284e+01,1.955472439401942722e-02
4.224000000000000199e+01,1.672335367186368257e-02
4.228000000000000114e+01,1.855793035996796889e-02
4.232000000000000028e+01,1.728144492775278082e-02
4.235999999999999943e+01,1.503257530685899769e-02
4.239999999999999858e+01,1.375557418457023715e-02
4.243999999999999773e+01,1.879713602442212653e-02
4.247999999999999687e+01,1.917223476394038645e-02
4.252000000000000313e+01,1.449202015812145299e-02
4.256000000000000227e+01,1.272792746932406224e-02
4.260000000000000142e+01,1.533814627393860312e-02
4.264000000000000057e+01,1.921187290595990915e-02
4.267999999999999972e+01,1.773864930095208139e-02
4.271999999999999886e+01,1.393206699016356735e-02
4.275999999999999801e+01,1.848551465695484272e-02
4.279999999999999716e+01,1.934462739488656061e-02
4.284000000000000341e+01,2.068954820135091716e-02
4.288000000000000256e+01,2.320076567530921646e-02
4.292000000000000171e+01,1.764308095350258093e-02
4.296000000000000085e+01,1.743183614029300901e-02
4.300000000000000000e+01,2.237260623503421753e-02
4.303999999999999915e+01,1.827234864335708364e-02
4.307999999999999829e+01,2.467080066687737591e-02
4.311999999999999744e+01,2.795819544429777731e-02
4.315999999999999659e+01,1.782999526839437396e-02
4.320000000000000284e+01,2.131130934853752920e-02
4.324000000000000199e+01,1.769584940438986148e-02
4.328000000000000114e+01,2.360697407220816585e-02
4.332000000000000028e+01,1.619971738372523451e-02
4.335999999999999943e+01,2.531835459149168674e-02
4.339999999999999858e+01,2.549317892841723374e-02
4.343999999999999773e+01,2.022384503664355349e-02
4.347999999999999687e+01,2.934172808432231397e-02
4.352000000000000313e+01,2.698827081564869265e-02
4.356000000000000227e+01,2.657881533498470533e-02
4.360000000000000142e+01,2.791893664168411393e-02
4.364000000000000057e+01,2.916159515806383482e-02
4.367999999999999972e+01,2.097437939868637344e-02
4.371999999999999886e+01,3.164616266124421762e-02
4.375999999999999801e+01,3.172152066932320408e-02
4.379999999999999716e+01,3.617119748214350783e-02
4.384000000000000341e+01,3.819030979091186939e-02
4.388000000000000256e+01,3.719558210626756206e-02
4.392000000000000171e+01,4.154730017928376373e-02
4.396000000000000085e+01,4.113535154709387770e-02
4.400000000000000000e+01,3.751513840826694451e-02
4.403999999999999915e+01,4.478249122241542701e-02
4.407999999999999829e+01,4.991091886131379662e-02
4.411999999999999744e+01,5.474746139006693435e-02
4.415999999999999659e+01,5.307051123295353917e-02
4.420000000000000284e+01,6.092015129315862115e-02
4.424000000000000199e+01,5.720124280163028929e-02
4.428000000000000114e+01,6.048139683819799689e-02
4.432000000000000028e+01,7.299650395668125236e-02
4.435999999999999943e+01,6.694375445770257838e-02
4.439999999999999858e+01,7.595871585877925214e-02
4.443999999999999773e+01,8.594555818772076083e-02
4.447999999999999687e+01,8.523876702680240058e-02
4.452000000000000313e+01,9.036448839010238765e-02
4.456000000000000227e+01,1.029753370983683830e-01
4.460000000000000142e+01,1.075172938467305050e-01
4.464000000000000057e+01,1.080732890104021682e-01
4.467999999999999972e+01,1.174753889606736101e-01
4.471999999999999886e+01,1.160866442611724059e-01
4.475999999999999801e+01,1.284046359446245344e-01
4.479999999999999716e+01,1.342091388415857511e-01
4.484000000000000341e+01,1.302921366638721268e-01
4.488000000000000256e+01,1.328881375590260927e-01
4.492000000000000171e+01,1.209020027579956885e-01
4.496000000000000085e+01,1.284553628891913490e-01
4.500000000000000000e+01,1.268704946536279299e-01
4.503999999999999915e+01,1.259658731350580818e-01
4.507999999999999829e+01,1.287550898647304431e-01
4.511999999999999744e+01,1.128792419852707729e-01
4.515999999999999659e+01,1.162512523900561395e-01
4.520000000000000284e+01,1.150540288890330026e-01
4.524000000000000199e+01,1.068572561714464797e-01
4.528000000000000114e+01,1.021598976762997796e-01
4.532000000000000028e+01,8.978250209676125193e-02
4.535999999999999943e+01,9.169512228891246730e-02
4.539999999999999858e+01,8.145592526387684940e-02
4.543999999999999773e+01,7.860464832327010432e-02
4.547999999999999687e+01,7.079528869411716441e-02
4.552000000000000313e+01,7.017942439245783426e-02
4.556000000000000227e+01,6.635530508888953793e-02
4.560000000000000142e+01,5.611491449522852670e-02
4.564000000000000057e+01,6.201158120062807977e-02
4.567999999999999972e+01,5.954772465978422358e-02
4.571999999999999886e+01,5.727805586812743932e-02
4.575999999999999801e+01,4.888375462775768066e-02
4.579999999999999716e+01,4.437772126678494328e-02
4.584000000000000341e+01,5.105090269231746941e-02
4.588000000000000256e+01,4.780816013530340275e-02
4.592000000000000171e+01,4.174601525849373079e-02
4.596000000000000085e+01,4.064147807988990890e-02
4.600000000000000000e+01,3.049593124948007938e-02
4.603999999999999915e+01,3.852890922099181520e-02
4.607999999999999829e+01,3.382679838533156347e-02
4.611999999999999744e+01,3.097149231300485792e-02
4.615999999999999659e+01,2.831037667068596678e-02
4.620000000000000284e+01,2.701000316822944891e-02
4.624000000000000199e+01,2.969511284816932564e-02
4.628000000000000114e+01,2.994967289042692674e-02
4.632000000000000028e+01,2.670434469474828459e-02
4.635999999999999943e+01,2.297271979238194040e-02
4.639999999999999858e+01,2.643459557915069438e-02
4.643999999999999773e+01,2.600773337040163113e-02
4.647999999999999687e+01,2.441408683084737852e-02
4.652000000000000313e+01,2.583379895788003380e-02
4.656000000000000227e+01,2.443411266449272909e-02
4.660000000000000142e+01,1.778471263993067902e-02
4.664000000000000057e+01,2.649467502977459477e-02
4.667999999999999972e+01,3.005213679804432172e-02
4.671999999999999886e+01,2.126336414723223323e-02
4.675999999999999801e+01,1.393254967041477298e-02
4.679999999999999716e+01,1.564227814123621621e-02
4.684000000000000341e+01,2.007372936179648015e-02
4.688000000000000256e+01,1.526975104783498752e-02
4.692000000000000171e+01,1.736763872471541389e-02
4.696000000000000085e+01,1.654891779610701344e-02
4.700000000000000000e+01,1.300801375007804191e-02
4.703999999999999915e+01,1.111949482837787558e-02
4.707999999999999829e+01,1.156384962996787058e-02
4.711999999999999744e+01,1.842400853006152112e-02
4.715999999999999659e+01,1.721529106775380319e-02
4.720000000000000284e+01,1.202062761825822314e-02
4.724000000000000199e+01,1.878288846258116887e-02
4.728000000000000114e+01,1.592087172077759349e-02
4.732000000000000028e+01,1.772483309681720937e-02
4.735999999999999943e+01,1.913971648112216054e-02
4.739999999999999858e+01,1.676308034115140538e-02
4.743999999999999773e+01,1.108098803150905573e-02
4.747999999999999687e+01,1.191191463594775020e-02
4.752000000000000313e+01,1.488129240014010764e-02
4.756000000000000227e+01,6.573779707146101305e-03
4.760000000000000142e+01,7.792877946903639837e-03
4.764000000000000057e+01,1.027551447794011405e-02
4.767999999999999972e+01,1.324398856653742282e-02
4.771999999999999886e+01,1.280979556926135736e-02
4.775999999999999801e+01,9.361786218537377843e-03
4.779999999999999716e+01,1.164909675415327570e-02
4.784000000000000341e+01,1.646371088792516688e-02
4.788000000000000256e+01,1.136241322469931474e-02
4.792000000000000171e+01,1.082988471280266728e-02
4.796000000000000085e+01,5.436501244619033196e-03
4.800000000000000000e+01,3.834186437757514977e-03
4.803999999999999915e+01,8.550468712573519592e-03
4.807999999999999829e+01,5.781155963412399831e-03
4.811999999999999744e+01,5.636361140562790896e-03
4.815999999999999659e+01,9.768699064772352891e-03
4.820000000000000284e+01,1.185934953814108371e-02
4.824000000000000199e+01,1.093618658259365266e-02
4.828000000000000114e+01,1.156820368423667166e-02
4.832000000000000028e+01,1.025574668835040754e-02
4.835999999999999943e+01,9.429131393111625167e-03
4.839999999999999858e+01,1.044933475273212425e-02
4.843999999999999773e+01,8.358513279812724781e-03
4.847999999999999687e+01,9.475487659675355459e-03
4.852000000000000313e+01,9.231264893635413374e-03
4.856000000000000227e+01,1.063943651294140327e-02
4.860000000000000142e+01,8.158883297122335870e-03
4.864000000000000057e+01,1.180250557428816696e-02
4.867999999999999972e+01,7.571685994427026709e-03
4.871999999999999886e+01,1.364518514865388499e-02
4.875999999999999801e+01,9.025076890095457341e-03
4.879999999999999716e+01,1.004308198847265500e-02
4.884000000000000341e+01,1.086644335677867251e-02
4.888000000000000256e+01,1.139794861654580202e-02
4.892000000000000171e+01,1.105432227841325263e-02
4.896000000000000085e+01,7.891312142519407019e-03
4.900000000000000000e+01,8.811014627258004911e-03
4.903999999999999915e+01,5.550357091156416303e-03
4.907999999999999829e+01,1.035813017243307488e-02
4.911999999999999744e+01,1.166603207554193361e-02
4.915999999999999659e+01,1.083503975469478180e-02
4.920000000000000284e+01,1.272578456253412212e-02
4.924000000000000199e+01,1.257484825601805530e-02
4.928000000000000114e+01,1.203484565589424231e-02
4.932000000000000028e+01,1.139741487240959056e-02
4.935999999999999943e+01,4.343735707664061509e-03
4.939999999999999858e+01,9.052568752772565189e-03
4.943999999999999773e+01,8.414492748007111958e-03
4.947999999999999687e+01,8.845541000868258757e-03
4.952000000000000313e+01,1.180390308774648817e-02
4.956000000000000227e+01,8.832081122811885968e-03
4.960000000000000142e+01,1.023461330071027270e-02
4.964000000000000057e+01,1.047038040097070070e-02
4.967999999999999972e+01,1.002544577819725231e-02
4.971999999999999886e+01,9.871935897887290645e-03
4.975999999999999801e+01,8.746086915429518785e-03
4.979999999999999716e+01,9.661490362072484850e-03
4.984000000000000341e+01,1.300699697024173748e-02
4.988000000000000256e+01,7.117092322212509488e-03
4.992000000000000171e+01,7.740221454633980890e-03
4.996000000000000085e+01,1.293213216764451355e-02
5.000000000000000000e+01,4.222426491015226352e-03
5.003999999999999915e+01,8.539001011937857877e-03
5.007999999999999829e+01,8.383583981969790211e-03
5.011999999999999744e+01,1.075548444168344768e-02
5.015999999999999659e+01,9.627520059714718068e-03
5.020000000000000284e+01,9.082621211277036588e-03
5.024000000000000199e+01,1.057897747276086500e-02
5.028000000000000114e+01,6.436791935765338347e-03
5.032000000000000028e+01,6.377327061864521661e-03
5.035999999999999943e+01,8.456330651196766399e-03
5.039999999999999858e+01,1.160446410350810323e-02
5.043999999999999773e+01,9.794545087434432945e-03
5.047999999999999687e+01,6.526228245117411848e-03
5.052000000000000313e+01,9.770948838915763032e-03
5.056000000000000227e+01,1.311267404875079978e-02
5.060000000000000142e+01,9.066032210578944817e-03
5.064000000000000057e+01,4.144269254079457031e-03
5.067999999999999972e+01,0.000000000000000000e+00
5.071999999999999886e+01,1.102069277448897502e-02
5.075999999999999801e+01,1.212549129917053423e-02
5.079999999999999716e+01,6.619624971829152042e-03
5.084000000000000341e+01,8.404499007720009698e-03
5.088000000000000256e+01,9.411466009727696355e-03
5.092000000000000171e+01,1.275133013127938662e-02
5.096000000000000085e+01,1.550771295072717222e-02
5.100000000000000000e+01,1.456981080206576698e-02
5.103999999999999915e+01,9.257135573755822036e-03
5.107999999999999829e+01,6.277358439833793761e-03
5.111999999999999744e+01,1.068553599729943522e-02
5.115999999999999659e+01,9.941240228820411029e-03
5.120000000000000284e+01,1.104378017496905617e-02
5.124000000000000199e+01,1.195169101370513812e-02
5.128000000000000114e+01,1.130399627823882626e-02
5.132000000000000028e+01,6.670380657815251982e-03
5.135999999999999943e+01,1.185503674551105502e-02
5.139999999999999858e+01,5.373975283559721296e-03
5.143999999999999773e+01,8.127910284077895231e-03
5.147999999999999687e+01,8.548539951519520258e-03
5.152000000000000313e+01,1.003830630584758021e-02
5.156000000000000227e+01,1.152787074680815781e-02
5.160000000000000142e+01,8.448240275716596345e-03
5.164000000000000057e+01,1.411754437475624784e-02
5.167999999999999972e+01,6.079667564374387038e-03
5.171999999999999886e+01,1.787296473990965945e-02
5.175999999999999801e+01,1.177893873976424560e-02
5.179999999999999716e+01,9.573217175662455253e-03
5.184000000000000341e+01,4.450916738811088770e-03
5.188000000000000256e+01,9.535741667036270325e-03
5.192000000000000171e+01,9.954161010718469080e-03
5.196000000000000085e+01,6.192238124461841089e-03
5.200000000000000000e+01,3.596667471802054896e-03
5.203999999999999915e+01,6.833655161024338939e-03
5.207999999999999829e+01,9.778806238585929789e-03
5.211999999999999744e+01,9.224104416303040982e-03
5.215999999999999659e+01,6.919377137101947843e-03
5.220000000000000284e+01,6.850342154017503328e-03
5.224000000000000199e+01,8.919787088582091517e-03
5.228000000000000114e+01,7.683805342503330534e-03
5.232000000000000028e+01,8.294666134959605142e-03
5.235999999999999943e+01,9.683030865696988509e-03
5.239999999999999858e+01,9.126946357424827946e-03
5.243999999999999773e+01,9.056728408319791174e-03
5.247999999999999687e+01,1.083335397259374208e-02
5.252000000000000313e+01,8.332428096703918541e-03
5.256000000000000227e+01,8.553259821222680692e-03
5.260000000000000142e+01,1.198191250075419240e-02
5.264000000000000057e+01,6.758446473216472503e-03
5.267999999999999972e+01,6.298203842971503846e-03
5.271999999999999886e+01,1.205937418640978462e-02
5.275999999999999801e+01,1.120989161966298893e-02
5.279999999999999716e+01,8.804812739730943569e-03
5.284000000000000341e+01,6.788390233897174247e-03
5.288000000000000256e+01,9.146341855196556472e-03
5.292000000000000171e+01,6.740681362548791439e-03
5.296000000000000085e+01,1.055643530585009295e-02
5.300000000000000000e+01,8.636451400839878501e-03
5.303999999999999915e+01,1.225739406395030644e-02
5.307999999999999829e+01,1.286455278717281263e-02
5.311999999999999744e+01,1.006907732550386091e-02
5.315999999999999659e+01,1.125912720823041106e-02
5.320000000000000284e+01,7.005078327736186800e-03
5.324000000000000199e+01,1.062506016620461471e-02
5.328000000000000114e+01,1.113404666116142409e-02
5.332000000000000028e+01,6.684998234923583346e-03
5.335999999999999943e+01,6.901964726886477240e-03
5.339999999999999858e+01,7.313165760544108537e-03
5.343999999999999773e+01,1.141825597803815782e-02
5.347999999999999687e+01,7.843358828179814585e-03
5.352000000000000313e+01,1.214249410326093646e-02
5.356000000000000227e+01,1.478882507348675164e-02
5.360000000000000142e+01,9.755169407493062897e-03
5.364000000000000057e+01,6.568364322496696162e-03
5.367999999999999972e+01,5.228410062208622977e-03
5.371999999999999886e+01,1.108200109016454007e-02
5.375999999999999801e+01,8.380692857137198373e-03
5.379999999999999716e+01,9.567701245702327911e-03
5.384000000000000341e+01,1.104615947896158724e-02
5.388000000000000256e+01,9.802476513088357463e-03
5.392000000000000171e+01,8.169755524080793418e-03
5.396000000000000085e+01,9.550438531901931857e-03
5.400000000000000000e+01,1.063929662618930648e-02
5.403999999999999915e+01,6.186848453007840441e-03
5.407999999999999829e+01,1.213596429336394160e-02
5.411999999999999744e+01,1.264098697585179509e-02
5.415999999999999659e+01,1.596498962936597141e-02
5.420000000000000284e+01,5.387401482892961724e-03
5.424000000000000199e+01,1.289117547691330176e-02
5.428000000000000114e+01,9.409737823727302997e-03
5.432000000000000028e+01,1.069153355998416453e-02
5.435999999999999943e+01,8.667915288568526708e-03
5.439999999999999858e+01,9.852128939159585097e-03
5.443999999999999773e+01,1.074452035703763082e-02
5.447999999999999687e+01,9.789687831055549072e-03
5.452000000000000313e+01,1.340366466871397745e-02
5.456000000000000227e+01,9.046022852680475623e-03
5.460000000000000142e+01,1.402060937446230476e-02
5.464000000000000057e+01,9.857026263830646201e-03
5.467999999999999972e+01,1.220650593525597280e-02
5.471999999999999886e+01,1.300040099162293530e-02
5.475999999999999801e+01,1.505787771982281149e-02
5.479999999999999716e+01,6.421783835594952958e-03
5.484000000000000341e+01,8.478896461949138319e-03
5.488000000000000256e+01,1.277171771305547592e-02
5.492000000000000171e+01,1.210651379140625060e-02
5.496000000000000085e+01,1.114949080528671206e-02
5.500000000000000000e+01,1.019228686494373648e-02
5.503999999999999915e+01,1.283176923469766563e-02
5.507999999999999829e+01,8.471762340788682732e-03
5.511999999999999744e+01,5.861402423004536712e-03
5.515999999999999659e+01,1.413867620984755186e-02
5.520000000000000284e+01,1.619416244158962057e-02
5.524000000000000199e+01,1.241671185065627153e-02
5.528000000000000114e+01,1.330528787605061644e-02
5.532000000000000028e+01,1.341598391948028643e-02
5.535999999999999943e+01,1.187388662504860505e-02
5.539999999999999858e+01,7.998507881216105481e-03
5.543999999999999773e+01,1.442748881491580024e-02
5.547999999999999687e+01,1.414862078859825852e-02
5.552000000000000313e+01,1.134204679965558800e-02
5.556000000000000227e+01,1.359035162173198759e-02
5.560000000000000142e+01,1.185276163592572339e-02
5.564000000000000057e+01,1.303137326063057849e-02
5.567999999999999972e+01,1.469587118509181438e-02
5.571999999999999886e+01,9.069245878729858060e-03
5.575999999999999801e+01,9.955689934621312839e-03
5.579999999999999716e+01,1.161965888793790869e-02
5.584000000000000341e+01,1.396394036021203836e-02
5.588000000000000256e+01,1.504428215158200820e-02
5.592000000000000171e+01,9.222352419398243198e-03
5.596000000000000085e+01,1.321872242209624210e-02
5.600000000000000000e+01,1.439575152016490771e-02
5.603999999999999915e+01,1.372556617910156325e-02
5.607999999999999829e+01,1.188865499786763598e-02
5.611999999999999744e+01,1.345401146256969271e-02
5.615999999999999659e+01,1.151953964223594376e-02
5.620000000000000284e+01,1.444552528793966589e-02
5.624000000000000199e+01,1.270513166988593116e-02
5.628000000000000114e+01,9.117525074966046847e-03
5.632000000000000028e+01,1.486215729743355085e-02
5.635999999999999943e+01,1.681532458688426990e-02
5.639999999999999858e+01,1.497702718702913910e-02
5.643999999999999773e+01,1.187479351822354548e-02
5.647999999999999687e+01,1.693824817550570322e-02
5.652000000000000313e+01,2.064055442908069998e-02
5.656000000000000227e+01,1.432978914876142061e-02
5.660000000000000142e+01,1.793454012487815524e-02
5.664000000000000057e+01,1.677570165216861822e-02
5.667999999999999972e+01,1.581111770545394826e-02
5.671999999999999886e+01,1.640176523894595895e-02
5.675999999999999801e+01,1.553405320881809729e-02
5.679999999999999716e+01,1.865188870078460584e-02
5.684000000000000341e+01,1.817268742862332420e-02
5.688000000000000256e+01,2.051248269983484487e-02
5.692000000000000171e+01,2.207440773752078478e-02
5.696000000000000085e+01,2.256682491885623684e-02
5.700000000000000000e+01,2.267022284280262312e-02
5.703999999999999915e+01,2.384279108575034986e-02
5.707999999999999829e+01,2.773714446844711967e-02
5.711999999999999744e+01,2.609021034942028694e-02
5.715999999999999659e+01,2.667899874667135907e-02
5.720000000000000284e+01,2.678155648290955412e-02
5.724000000000000199e+01,3.641078388624486434e-02
5.728000000000000114e+01,2.377815374797602466e-02
5.732000000000000028e+01,2.835199091633805804e-02
5.735999999999999943e+01,2.592635271256291118e-02
5.739999999999999858e+01,3.137477057369208316e-02
5.743999999999999773e+01,2.593520866296078128e-02
5.747999999999999687e+01,2.525889939483955474e-02
5.752000000000000313e+01,1.913851768428315864e-02
5.756000000000000227e+01,2.273923283486892905e-02
5.760000000000000142e+01,2.808961007166014406e-02
5.764000000000000057e+01,2.167709515553811750e-02
5.767999999999999972e+01,2.284700014376137359e-02
5.771999999999999886e+01,2.139199995128458417e-02
5.775999999999999801e+01,2.431140361868019961e-02
5.779999999999999716e+01,2.217558703833201125e-02
5.784000000000000341e+01,2.062288254031154761e-02
5.788000000000000256e+01,2.227803116715282306e-02
5.792000000000000171e+01,1.430896703498760192e-02
5.796000000000000085e+01,1.713034104503926430e-02
5.800000000000000000e+01,1.752123682472501998e-02
5.803999999999999915e+01,2.024507310450875813e-02
5.807999999999999829e+01,1.878860444213323322e-02
5.811999999999999744e+01,1.674869810191869854e-02
5.815999999999999659e+01,1.743058348164958776e-02
5.820000000000000284e+01,1.577920447174813168e-02
5.824000000000000199e+01,1.704404291357130424e-02
5.828000000000000114e+01,1.587840483100540906e-02
5.832000000000000028e+01,1.626800797708533725e-02
5.835999999999999943e+01,1.587974966323484755e-02
5.839999999999999858e+01,1.947704861991785691e-02
5.843999999999999773e+01,1.383898847455156816e-02
5.847999999999999687e+01,1.597777835210735520e-02
5.852000000000000313e+01,1.286692712435964087e-02
5.856000000000000227e+01,1.179738169841671944e-02
5.860000000000000142e+01,1.811583653781432060e-02
5.864000000000000057e+01,1.490729562718154898e-02
5.867999999999999972e+01,1.101810782848485805e-02
5.871999999999999886e+01,1.422528315972569624e-02
5.875999999999999801e+01,1.568247324635960518e-02
5.879999999999999716e+01,1.577852882081209537e-02
5.884000000000000341e+01,1.441623750461550925e-02
5.888000000000000256e+01,1.606738016169787994e-02
5.892000000000000171e+01,1.839885410348298875e-02
5.896000000000000085e+01,1.305037406631958698e-02
5.900000000000000000e+01,1.800627539696538285e-02
5.903999999999999915e+01,1.761532616837175116e-02
5.907999999999999829e+01,1.625209462228804566e-02
5.911999999999999744e+01,1.226396642538859529e-02
5.915999999999999659e+01,1.828858270460629806e-02
5.920000000000000284e+01,1.527226975664051044e-02
5.924000000000000199e+01,1.215858906563629070e-02
5.928000000000000114e+01,1.205834478502075362e-02
5.932000000000000028e+01,1.224958373750322654e-02
5.935999999999999943e+01,1.895391398622706461e-02
5.939999999999999858e+01,1.778386769246590240e-02
5.943999999999999773e+01,1.612760438550661299e-02
5.947999999999999687e+01,1.622101461916872905e-02
5.952000000000000313e+01,1.573099570487608220e-02
5.956000000000000227e+01,1.456033526416098192e-02
5.960000000000000142e+01,1.397279762905663872e-02
5.964000000000000057e+01,1.289904419930910061e-02
5.967999999999999972e+01,1.240841406259423664e-02
5.971999999999999886e+01,1.648662497194692059e-02
5.975999999999999801e+01,1.589847806410820547e-02
5.979999999999999716e+01,1.181052504893265881e-02
5.984000000000000341e+01,1.734647016424634494e-02
5.988000000000000256e+01,1.646623099428624545e-02
5.992000000000000171e+01,1.364158840298030154e-02
5.996000000000000085e+01,2.034363205111792972e-02
