2.003999999999999915e+01,4.753092685110311272e-02
2.007999999999999829e+01,5.333724596335536611e-02
2.012000000000000099e+01,5.796766942447825754e-02
2.016000000000000014e+01,5.818618921954217538e-02
2.019999999999999929e+01,4.928588557549520160e-02
2.023999999999999844e+01,4.568169157497416893e-02
2.028000000000000114e+01,5.516943738903107991e-02
2.032000000000000028e+01,4.450651513688801825e-02
2.035999999999999943e+01,5.517263425077586353e-02
2.039999999999999858e+01,5.451355155316912893e-02
2.044000000000000128e+01,4.914836780861529114e-02
2.048000000000000043e+01,5.702220431926404570e-02
2.051999999999999957e+01,5.004064435779273512e-02
2.055999999999999872e+01,5.438591507187950230e-02
2.060000000000000142e+01,5.564307908481177373e-02
2.064000000000000057e+01,4.572211957983619152e-02
2.067999999999999972e+01,4.286234021072837796e-02
2.071999999999999886e+01,5.132938292902780586e-02
2.076000000000000156e+01,3.846900455720903000e-02
2.080000000000000071e+01,5.032074097770591892e-02
2.083999999999999986e+01,4.908215785953763677e-02
2.087999999999999901e+01,3.651834716542258497e-02
2.092000000000000171e+01,4.748991541600618843e-02
2.096000000000000085e+01,3.713405184128311387e-02
2.100000000000000000e+01,5.001938056555729761e-02
2.103999999999999915e+01,5.452129664199424630e-02
2.107999999999999829e+01,5.431707731888153756e-02
2.112000000000000099e+01,3.616851462601053391e-02
2.116000000000000014e+01,5.082206207183179170e-02
2.119999999999999929e+01,3.473432955808772316e-02
2.123999999999999844e+01,4.159359410948886698e-02
2.128000000000000114e+01,4.595308016334708617e-02
2.132000000000000028e+01,4.928369733075479292e-02
2.135999999999999943e+01,4.673143466284492703e-02
2.139999999999999858e+01,4.771012526461256703e-02
2.144000000000000128e+01,2.133062006828798443e-02
2.148000000000000043e+01,4.628669598679335806e-02
2.151999999999999957e+01,4.623803062613936893e-02
2.155999999999999872e+01,4.310120703542671960e-02
2.160000000000000142e+01,4.290696127595104714e-02
2.164000000000000057e+01,4.094837357465849065e-02
2.167999999999999972e+01,3.560743885056815577e-02
2.171999999999999886e+01,3.865144902168312496e-02
2.176000000000000156e+01,5.140422252328275682e-02
2.180000000000000071e+01,4.238824558434555606e-02
2.183999999999999986e+01,3.646192477023240536e-02
2.187999999999999901e+01,3.539035204366162979e-02
2.192000000000000171e+01,4.093861936735163770e-02
2.196000000000000085e+01,3.663251290320789638e-02
2.200000000000000000e+01,3.012077164646903560e-02
2.203999999999999915e+01,3.375905221839024112e-02
2.207999999999999829e+01,3.842769957152734200e-02
2.212000000000000099e+01,3.147687043892367920e-02
2.216000000000000014e+01,5.247408896724124056e-02
2.219999999999999929e+01,4.228870033261261652e-02
2.223999999999999844e+01,3.357494341848816372e-02
2.228000000000000114e+01,4.692558069165136958e-02
2.232000000000000028e+01,3.321215728351965824e-02
2.235999999999999943e+01,3.759166202164912485e-02
2.239999999999999858e+01,3.049876642058724913e-02
2.244000000000000128e+01,4.238134172658928472e-02
2.248000000000000043e+01,3.161258303753586990e-02
2.251999999999999957e+01,2.260962339134896942e-02
2.255999999999999872e+01,3.625940760643819871e-02
2.260000000000000142e+01,3.475950135182245132e-02
2.264000000000000057e+01,3.061265242456985558e-02
2.267999999999999972e+01,3.911634096219576695e-02
2.271999999999999886e+01,4.158998548941025136e-02
2.276000000000000156e+01,2.435410450856582282e-02
2.280000000000000071e+01,3.668423976998297364e-02
2.283999999999999986e+01,3.813031577804634059e-02
2.287999999999999901e+01,3.472306859405170643e-02
2.292000000000000171e+01,2.866886370815658475e-02
2.296000000000000085e+01,3.394136067555907077e-02
2.300000000000000000e+01,3.436052800979062100e-02
2.303999999999999915e+01,3.478037236564275603e-02
2.307999999999999829e+01,4.181999450766320930e-02
2.312000000000000099e+01,3.017971004897677598e-02
2.316000000000000014e+01,3.707358432323710346e-02
2.319999999999999929e+01,2.852355357060142732e-02
2.323999999999999844e+01,2.571074496110534874e-02
2.328000000000000114e+01,3.054734163328032270e-02
2.332000000000000028e+01,2.964804444110486284e-02
2.335999999999999943e+01,2.889649827006156302e-02
2.339999999999999858e+01,2.446833040197469999e-02
2.344000000000000128e+01,3.445575331480656839e-02
2.348000000000000043e+01,3.635381496212915231e-02
2.351999999999999957e+01,3.634034258105122567e-02
2.355999999999999872e+01,3.088514580502272830e-02
2.360000000000000142e+01,3.293224595855100828e-02
2.364000000000000057e+01,3.012598212630546515e-02
2.367999999999999972e+01,3.055636683096396924e-02
2.371999999999999886e+01,3.642976556268403415e-02
2.376000000000000156e+01,3.568469975776116659e-02
2.380000000000000071e+01,2.935080549984880535e-02
2.383999999999999986e+01,4.140394229942980647e-02
2.387999999999999901e+01,3.139403466088881711e-02
2.392000000000000171e+01,4.021242731320493619e-02
2.396000000000000085e+01,3.623451530954330257e-02
2.400000000000000000e+01,3.769960230367951776e-02
2.403999999999999915e+01,2.460328623800671008e-02
2.407999999999999829e+01,4.401474122564994623e-02
2.412000000000000099e+01,3.415567127810789638e-02
2.416000000000000014e+01,2.517976529000969660e-02
2.419999999999999929e+01,2.297066814683799973e-02
2.423999999999999844e+01,3.458875414057960285e-02
2.428000000000000114e+01,2.929196537927797328e-02
2.432000000000000028e+01,2.826142903296858383e-02
2.435999999999999943e+01,3.017332237229692141e-02
2.439999999999999858e+01,5.032512553477815759e-02
2.444000000000000128e+01,3.488146602581321254e-02
2.448000000000000043e+01,5.297519433047870319e-02
2.451999999999999957e+01,4.724074973466357852e-02
2.455999999999999872e+01,3.106342709031379920e-02
2.460000000000000142e+01,3.268473000648951937e-02
2.464000000000000057e+01,3.445371523859201007e-02
2.467999999999999972e+01,2.783909244242893308e-02
2.471999999999999886e+01,3.196271232665405526e-02
2.476000000000000156e+01,3.358636692105862465e-02
2.480000000000000071e+01,1.770675414567816214e-02
2.483999999999999986e+01,3.227559516851589289e-02
2.487999999999999901e+01,3.140044098887540686e-02
2.492000000000000171e+01,3.243804820565402564e-02
2.496000000000000085e+01,2.420948531002541787e-02
2.500000000000000000e+01,2.848424417527722213e-02
2.503999999999999915e+01,3.128866095213603954e-02
2.507999999999999829e+01,2.438562764803546556e-02
2.512000000000000099e+01,2.366098910374296246e-02
2.516000000000000014e+01,2.705546671083865901e-02
2.519999999999999929e+01,2.015412309261012044e-02
2.523999999999999844e+01,1.972535014470251299e-02
2.528000000000000114e+01,2.356277808288310613e-02
2.532000000000000028e+01,3.269604299080546006e-02
2.535999999999999943e+01,2.329637223972423621e-02
2.539999999999999858e+01,1.227924890109778448e-02
2.544000000000000128e+01,2.523853541935214273e-02
2.548000000000000043e+01,2.010615336492896366e-02
2.551999999999999957e+01,3.115434455522171284e-02
2.555999999999999872e+01,2.278704229644457069e-02
2.560000000000000142e+01,2.192192961534045192e-02
2.564000000000000057e+01,1.693880147564396851e-02
2.567999999999999972e+01,1.931076744373216164e-02
2.571999999999999886e+01,2.403672539492504243e-02
2.576000000000000156e+01,1.684882912832316379e-02
2.580000000000000071e+01,2.245839403347428195e-02
2.583999999999999986e+01,3.189285623874715120e-02
2.587999999999999901e+01,2.044089606051852775e-02
2.592000000000000171e+01,2.781712882126339062e-02
2.596000000000000085e+01,2.607422896947220528e-02
2.600000000000000000e+01,1.903656492924553356e-02
2.603999999999999915e+01,2.759108151899298741e-02
2.607999999999999829e+01,6.139512089644135612e-03
2.612000000000000099e+01,2.087288361001539763e-02
2.616000000000000014e+01,1.516109124506050988e-02
2.619999999999999929e+01,1.945200624103472775e-02
2.623999999999999844e+01,2.344924414398980722e-02
2.628000000000000114e+01,2.994753514733509633e-02
2.632000000000000028e+01,2.585576245667528528e-02
2.635999999999999943e+01,2.853068267090770604e-02
2.639999999999999858e+01,2.193935547937667790e-02
2.644000000000000128e+01,1.711361692102018883e-02
2.648000000000000043e+01,2.449693833152432124e-02
2.651999999999999957e+01,1.378853534637139618e-02
2.655999999999999872e+01,8.375902772792294740e-03
2.660000000000000142e+01,1.561359725439966789e-02
2.664000000000000057e+01,1.520303438196071201e-02
2.667999999999999972e+01,2.273587664461665034e-02
2.671999999999999886e+01,2.497391607215905182e-02
2.676000000000000156e+01,3.647917692303805776e-02
2.680000000000000071e+01,2.489159837135409420e-02
2.683999999999999986e+01,3.948672216742744878e-02
2.687999999999999901e+01,1.510315527905755316e-02
2.692000000000000171e+01,2.881667168522334538e-02
2.696000000000000085e+01,2.664480771551288457e-02
2.700000000000000000e+01,1.535375531028691787e-02
2.703999999999999915e+01,1.362409165075990566e-02
2.707999999999999829e+01,1.292452639273964331e-02
2.712000000000000099e+01,8.695230938985254107e-03
2.716000000000000014e+01,3.197244123900383483e-02
2.719999999999999929e+01,3.406897595165184200e-02
2.723999999999999844e+01,2.763467404981038641e-02
2.728000000000000114e+01,2.090663923197019769e-02
2.732000000000000028e+01,2.506379871288232780e-02
2.735999999999999943e+01,2.745630922559037790e-02
2.739999999999999858e+01,2.514234510679646400e-02
2.744000000000000128e+01,3.518448060377198788e-02
2.748000000000000043e+01,3.448939896683683726e-02
2.751999999999999957e+01,3.776621563025421568e-02
2.755999999999999872e+01,3.413018143682376021e-02
2.760000000000000142e+01,3.858459417243479544e-02
2.764000000000000057e+01,5.127654286586266763e-02
2.767999999999999972e+01,4.764179900929713801e-02
2.771999999999999886e+01,5.268586034391207346e-02
2.776000000000000156e+01,5.537688653669418926e-02
2.780000000000000071e+01,6.924726361540256558e-02
2.783999999999999986e+01,6.899730719316196637e-02
2.787999999999999901e+01,8.448652381297563907e-02
2.792000000000000171e+01,1.012999760981308645e-01
2.796000000000000085e+01,1.123772854625657708e-01
2.800000000000000000e+01,1.147766262429823353e-01
2.803999999999999915e+01,1.493893431683594730e-01
2.807999999999999829e+01,1.689991666556835692e-01
2.812000000000000099e+01,1.716939092723478721e-01
2.816000000000000014e+01,1.876272599129814589e-01
2.819999999999999929e+01,2.281252369681485148e-01
2.823999999999999844e+01,2.256729885926401225e-01
2.828000000000000114e+01,2.135131183731586724e-01
2.832000000000000028e+01,2.115029328974226963e-01
2.835999999999999943e+01,1.934602007236789767e-01
2.839999999999999858e+01,1.760062225717597129e-01
2.844000000000000128e+01,1.645833697997088063e-01
2.848000000000000043e+01,1.391872403499190280e-01
2.851999999999999957e+01,1.289418848863287947e-01
2.855999999999999872e+01,1.201678219112904955e-01
2.860000000000000142e+01,1.071284934210590262e-01
2.864000000000000057e+01,9.423663254298714209e-02
2.867999999999999972e+01,7.722659303145973375e-02
2.871999999999999886e+01,5.859892272826036641e-02
2.876000000000000156e+01,5.335691941927823978e-02
2.880000000000000071e+01,4.693855455198796961e-02
2.883999999999999986e+01,3.787291422122154166e-02
2.887999999999999901e+01,3.689765211429107961e-02
2.892000000000000171e+01,4.298312785346786874e-02
2.896000000000000085e+01,3.480111879882782921e-02
2.900000000000000000e+01,3.132638448321153901e-02
2.903999999999999915e+01,3.138219335307721597e-02
2.907999999999999829e+01,2.879071387724079986e-02
2.912000000000000099e+01,1.325556160175404320e-02
2.916000000000000014e+01,9.635143091977759269e-03
2.919999999999999929e+01,1.822363855250028891e-02
2.923999999999999844e+01,2.328229002429199959e-02
2.928000000000000114e+01,2.054545126173786679e-02
2.932000000000000028e+01,6.924205425727270394e-03
2.935999999999999943e+01,2.242735019036064953e-02
2.939999999999999858e+01,1.616133657729956763e-02
2.944000000000000128e+01,1.960367406349004110e-02
2.948000000000000043e+01,1.333832529457731550e-02
2.951999999999999957e+01,1.457495569364570046e-02
2.955999999999999872e+01,1.581191314719410448e-02
2.960000000000000142e+01,2.455084547464839867e-02
2.964000000000000057e+01,1.608043299238521087e-02
2.967999999999999972e+01,1.275853227694438013e-02
2.971999999999999886e+01,8.407311797141847967e-03
2.976000000000000156e+01,9.057507614273194174e-03
2.980000000000000071e+01,0.000000000000000000e+00
2.983999999999999986e+01,1.903721899122777506e-02
2.987999999999999901e+01,1.351052149986175545e-02
2.992000000000000171e+01,1.033759055264477610e-02
2.996000000000000085e+01,6.723691662092138449e-03
3.000000000000000000e+01,1.061174617506852567e-02
3.003999999999999915e+01,1.185246081343874734e-02
3.007999999999999829e+01,2.191894514357973708e-02
3.012000000000000099e+01,5.362223647518712423e-03
3.016000000000000014e+01,2.146003803086060993e-02
3.019999999999999929e+01,1.034627759067309992e-02
3.023999999999999844e+01,1.320646940756102158e-02
3.028000000000000114e+01,1.650822315968992343e-02
3.032000000000000028e+01,1.333825143681072363e-02
3.035999999999999943e+01,1.208074911322711345e-02
3.039999999999999858e+01,1.126480228377145683e-02
3.044000000000000128e+01,1.177295585628409733e-02
3.048000000000000043e+01,1.360520768372736229e-02
3.051999999999999957e+01,6.465173312153031995e-03
3.055999999999999872e+01,8.886338746962447327e-03
3.060000000000000142e+01,1.145486658908538395e-02
3.064000000000000057e+01,8.875472362215901939e-03
3.067999999999999972e+01,1.394508621504806506e-02
3.071999999999999886e+01,9.748220782048138203e-03
3.076000000000000156e+01,2.099619145276410137e-02
3.080000000000000071e+01,2.121258443381647540e-02
3.083999999999999986e+01,4.513750545647387050e-03
3.087999999999999901e+01,1.929268448369900538e-02
3.092000000000000171e+01,5.536184369226036447e-03
3.096000000000000085e+01,1.178433607348371159e-02
3.100000000000000000e+01,1.744437283561321023e-02
3.103999999999999915e+01,1.707391900349553363e-02
3.107999999999999829e+01,2.464663413232879088e-02
3.112000000000000099e+01,2.898358671328664718e-02
3.116000000000000014e+01,1.640529524872155753e-02
3.119999999999999929e+01,2.280200448997010687e-02
3.123999999999999844e+01,3.125822707149857743e-02
3.128000000000000114e+01,2.015155800175688627e-02
3.132000000000000028e+01,2.772570084508981306e-02
3.135999999999999943e+01,2.618042122580097747e-02
3.139999999999999858e+01,4.022703453343810798e-02
3.144000000000000128e+01,4.500712990856516049e-02
3.148000000000000043e+01,3.625506110556701855e-02
3.151999999999999957e+01,4.662506700789421921e-02
3.155999999999999872e+01,3.463743388924042654e-02
3.160000000000000142e+01,4.706715351110489498e-02
3.164000000000000057e+01,5.964417971730331947e-02
3.167999999999999972e+01,6.810286626222097905e-02
3.171999999999999886e+01,7.494376098764120309e-02
3.176000000000000156e+01,7.075302649449377590e-02
3.180000000000000071e+01,7.568215172212333641e-02
3.183999999999999986e+01,6.619654639341061853e-02
3.187999999999999901e+01,8.068700524851341038e-02
3.192000000000000171e+01,8.708764981315808562e-02
3.196000000000000085e+01,7.936773973197357168e-02
3.200000000000000000e+01,6.532310517601162825e-02
3.203999999999999915e+01,6.348723215067386683e-02
3.207999999999999829e+01,6.474046560851583199e-02
3.211999999999999744e+01,4.613657997567063157e-02
3.215999999999999659e+01,5.165583467319019573e-02
3.220000000000000284e+01,5.026198945749198177e-02
3.224000000000000199e+01,5.092760390613185195e-02
3.228000000000000114e+01,5.012248765255992999e-02
3.232000000000000028e+01,5.520119734038900910e-02
3.235999999999999943e+01,3.527458390184949610e-02
3.239999999999999858e+01,3.549963616449752779e-02
3.243999999999999773e+01,3.469522266422207790e-02
3.247999999999999687e+01,3.433225301211556557e-02
3.252000000000000313e+01,2.220215746866060352e-02
3.256000000000000227e+01,3.846082488377099151e-02
3.260000000000000142e+01,2.780197100471759261e-02
3.264000000000000057e+01,2.287983471495088489e-02
3.267999999999999972e+01,2.972515207576638049e-02
3.271999999999999886e+01,2.965734161187442985e-02
3.275999999999999801e+01,9.732377704692426329e-03
3.279999999999999716e+01,1.701943446734566559e-02
3.284000000000000341e+01,2.724846574364995708e-02
3.288000000000000256e+01,2.365107534388465396e-02
3.292000000000000171e+01,2.005383164743483604e-02
3.296000000000000085e+01,3.866750005502727489e-02
3.300000000000000000e+01,1.108224988677951328e-01
3.303999999999999915e+01,1.016362177181715787e-01
3.307999999999999829e+01,4.479253372029800423e-02
3.311999999999999744e+01,2.016195319360049309e-02
3.315999999999999659e+01,1.450626816787070096e-02
3.320000000000000284e+01,1.944127947472934145e-02
3.324000000000000199e+01,1.452131152913056084e-02
3.328000000000000114e+01,2.607568265456529019e-02
3.332000000000000028e+01,2.571579377208508405e-02
3.335999999999999943e+01,2.535602797550601945e-02
3.339999999999999858e+01,1.764182432713999604e-02
3.343999999999999773e+01,1.316374533848595728e-02
3.347999999999999687e+01,1.515779473039243104e-02
3.352000000000000313e+01,2.259433212513069222e-02
3.356000000000000227e+01,1.841077898135397295e-02
3.360000000000000142e+01,2.834808891930130914e-02
3.364000000000000057e+01,2.975421871673148561e-02
3.367999999999999972e+01,2.998372501725741698e-02
3.371999999999999886e+01,3.653825564030477313e-02
3.375999999999999801e+01,2.397103502318542398e-02
3.379999999999999716e+01,2.905485497211385965e-02
3.384000000000000341e+01,3.428586341830441170e-02
3.388000000000000256e+01,3.598677881939415374e-02
3.392000000000000171e+01,3.106868433627216902e-02
3.396000000000000085e+01,3.115178071112858701e-02
3.400000000000000000e+01,2.593968349001502319e-02
3.403999999999999915e+01,4.220298452386149479e-02
3.407999999999999829e+01,4.066833772355694238e-02
3.411999999999999744e+01,3.369139971035641640e-02
3.415999999999999659e+01,3.936438296222235372e-02
3.420000000000000284e+01,4.577290009126334241e-02
3.424000000000000199e+01,5.012221660999460066e-02
3.428000000000000114e+01,4.270431276771977092e-02
3.432000000000000028e+01,5.940943331577546588e-02
3.435999999999999943e+01,6.214096157155460376e-02
3.439999999999999858e+01,5.089889538801954660e-02
3.443999999999999773e+01,4.965909427565311229e-02
3.447999999999999687e+01,5.724482668091348397e-02
3.452000000000000313e+01,5.865279052383615827e-02
3.456000000000000227e+01,4.035059548258661949e-02
3.460000000000000142e+01,5.735033916419250005e-02
3.464000000000000057e+01,4.699117852527430472e-02
3.467999999999999972e+01,6.752121704074599828e-02
3.471999999999999886e+01,5.113142051377272956e-02
3.475999999999999801e+01,5.592280124345533343e-02
3.479999999999999716e+01,4.585801900856894403e-02
3.484000000000000341e+01,5.094367152792977915e-02
3.488000000000000256e+01,5.323463320531305470e-02
3.492000000000000171e+01,5.008326072904686205e-02
3.496000000000000085e+01,4.810865486367901789e-02
3.500000000000000000e+01,5.113518403331004936e-02
3.503999999999999915e+01,3.489280208175579712e-02
3.507999999999999829e+01,5.306978603372688313e-02
3.511999999999999744e+01,3.300309289055920053e-02
3.515999999999999659e+01,2.337989969932100995e-02
3.520000000000000284e+01,3.626168072964144201e-02
3.524000000000000199e+01,4.826093688021436401e-02
3.528000000000000114e+01,4.555109547757919819e-02
3.532000000000000028e+01,4.078199549461716117e-02
3.535999999999999943e+01,3.880764358611978743e-02
3.539999999999999858e+01,5.492551988960238385e-02
3.543999999999999773e+01,5.045064301920589717e-02
3.547999999999999687e+01,4.494613721102284215e-02
3.552000000000000313e+01,3.032198564830005522e-02
3.556000000000000227e+01,4.246843308237408660e-02
3.560000000000000142e+01,5.417360984080058645e-02
3.564000000000000057e+01,5.734749910682633567e-02
3.567999999999999972e+01,5.757956341430809505e-02
3.571999999999999886e+01,6.148890352779354945e-02
3.575999999999999801e+01,6.054422910309047168e-02
3.579999999999999716e+01,5.253917035596611385e-02
3.584000000000000341e+01,5.247702507230971036e-02
3.588000000000000256e+01,7.315472340081531633e-02
3.592000000000000171e+01,6.559090164871331230e-02
3.596000000000000085e+01,8.847493681835666424e-02
3.600000000000000000e+01,8.473545054726010217e-02
3.603999999999999915e+01,8.996850523513416631e-02
3.607999999999999829e+01,8.343424294530694951e-02
3.611999999999999744e+01,9.749272020960272900e-02
3.615999999999999659e+01,1.024315173667560280e-01
3.620000000000000284e+01,1.044284616538756066e-01
3.624000000000000199e+01,1.033364597481106345e-01
3.628000000000000114e+01,1.201895476436838500e-01
3.632000000000000028e+01,1.145376498449801328e-01
3.635999999999999943e+01,1.234477405098399205e-01
3.639999999999999858e+01,1.222084999546401846e-01
3.643999999999999773e+01,1.181744848229936695e-01
3.647999999999999687e+01,1.082567782757894864e-01
3.652000000000000313e+01,1.101063192635510085e-01
3.656000000000000227e+01,1.060721645416795450e-01
3.660000000000000142e+01,9.483049138082029483e-02
3.664000000000000057e+01,9.300260050080561003e-02
3.667999999999999972e+01,9.088047215093929265e-02
3.671999999999999886e+01,8.728737477767951891e-02
3.675999999999999801e+01,7.604547684984230838e-02
3.679999999999999716e+01,8.098354670209736983e-02
3.684000000000000341e+01,8.665700872704111546e-02
3.688000000000000256e+01,6.997254617499348850e-02
3.692000000000000171e+01,7.182150377493327909e-02
3.696000000000000085e+01,7.528839416132682150e-02
3.700000000000000000e+01,6.919428582534768724e-02
3.703999999999999915e+01,6.618901773987709292e-02
3.707999999999999829e+01,6.215403483511300342e-02
3.711999999999999744e+01,5.488296732682264312e-02
3.715999999999999659e+01,5.629019830882206477e-02
3.720000000000000284e+01,6.152171683224434001e-02
3.724000000000000199e+01,5.881022668501103418e-02
3.728000000000000114e+01,6.286484330138540633e-02
3.732000000000000028e+01,5.779971754652481197e-02
3.735999999999999943e+01,5.920651190957052640e-02
3.739999999999999858e+01,6.546722130954171770e-02
3.743999999999999773e+01,5.319434664513236766e-02
3.747999999999999687e+01,5.974904442580905584e-02
3.752000000000000313e+01,7.733548018644460786e-02
3.756000000000000227e+01,6.153211668447268468e-02
3.760000000000000142e+01,6.440922801066077674e-02
3.764000000000000057e+01,7.081642090923123689e-02
3.767999999999999972e+01,6.854512564066674030e-02
3.771999999999999886e+01,7.495209880386458079e-02
3.775999999999999801e+01,7.018002951703097847e-02
3.779999999999999716e+01,7.408622436788435406e-02
3.784000000000000341e+01,7.578593419922448338e-02
3.788000000000000256e+01,8.204535095141202161e-02
3.792000000000000171e+01,8.212681664305968021e-02
3.796000000000000085e+01,1.011829201911542964e-01
3.800000000000000000e+01,1.099425154618694500e-01
3.803999999999999915e+01,1.220850796587772819e-01
3.807999999999999829e+01,1.330507841846368666e-01
3.811999999999999744e+01,1.471052709909877187e-01
3.815999999999999659e+01,1.645427202824182866e-01
3.820000000000000284e+01,1.741842005501021140e-01
3.824000000000000199e+01,2.248639800169205394e-01
3.828000000000000114e+01,2.762790743630714752e-01
3.832000000000000028e+01,3.349014931772896775e-01
3.835999999999999943e+01,4.117630724985130719e-01
3.839999999999999858e+01,4.783281220719802773e-01
3.843999999999999773e+01,5.428337455961820268e-01
3.847999999999999687e+01,5.515916617523323184e-01
3.852000000000000313e+01,5.321079182704265831e-01
3.856000000000000227e+01,4.743803130481419883e-01
3.860000000000000142e+01,3.937063262229942850e-01
3.864000000000000057e+01,3.189158261072952971e-01
3.867999999999999972e+01,2.695719369371374352e-01
3.871999999999999886e+01,2.228755243144668052e-01
3.875999999999999801e+01,1.864753272345222590e-01
3.879999999999999716e+01,1.578707935614448166e-01
3.884000000000000341e+01,1.452990269937254331e-01
3.888000000000000256e+01,1.259608931333099369e-01
3.892000000000000171e+01,1.241264338423072600e-01
3.896000000000000085e+01,1.289108999635169284e-01
3.900000000000000000e+01,1.179564306263239937e-01
3.903999999999999915e+01,1.136208824072681284e-01
3.907999999999999829e+01,1.151687972802466070e-01
3.911999999999999744e+01,1.212763525159047118e-01
3.915999999999999659e+01,1.198820695505379841e-01
3.920000000000000284e+01,1.165754109180031223e-01
3.924000000000000199e+01,1.140040156358966134e-01
3.928000000000000114e+01,1.130504286120587454e-01
3.932000000000000028e+01,1.204808417868504095e-01
3.935999999999999943e+01,1.149670325203475951e-01
3.939999999999999858e+01,1.253388691248623621e-01
3.943999999999999773e+01,1.229135701698202965e-01
3.947999999999999687e+01,1.281368069461919224e-01
3.952000000000000313e+01,1.439504008231997922e-01
3.956000000000000227e+01,1.477023085786028089e-01
3.960000000000000142e+01,1.601323838549977008e-01
3.964000000000000057e+01,1.732977010114441774e-01
3.967999999999999972e+01,1.944057255157420339e-01
3.971999999999999886e+01,2.047758758926014611e-01
3.975999999999999801e+01,2.411809439482370809e-01
3.979999999999999716e+01,2.514035601219929417e-01
3.984000000000000341e+01,2.783943456042300424e-01
3.988000000000000256e+01,3.189172923800245862e-01
3.992000000000000171e+01,3.744433100604688813e-01
3.996000000000000085e+01,4.109943348857201806e-01
4.000000000000000000e+01,4.965264879343509463e-01
4.003999999999999915e+01,5.724974790857462192e-01
4.007999999999999829e+01,6.415549473575018480e-01
4.011999999999999744e+01,7.575342609501420910e-01
4.015999999999999659e+01,8.236494240316691862e-01
4.020000000000000284e+01,9.068269194499645192e-01
4.024000000000000199e+01,9.761775981372582400e-01
4.028000000000000114e+01,9.952228463448870022e-01
4.032000000000000028e+01,1.000000000000000000e+00
4.035999999999999943e+01,9.441753365744616211e-01
4.039999999999999858e+01,8.923218801031452818e-01
4.043999999999999773e+01,8.273770520447042420e-01
4.047999999999999687e+01,7.203638886169384525e-01
4.052000000000000313e+01,6.498290755569563482e-01
4.056000000000000227e+01,5.591425080297122152e-01
4.060000000000000142e+01,4.772811455233310629e-01
4.064000000000000057e+01,4.238081122739054130e-01
4.067999999999999972e+01,3.616564298295192881e-01
4.071999999999999886e+01,3.123014077118343446e-01
4.075999999999999801e+01,2.766255908286910925e-01
4.079999999999999716e+01,2.281525653867101100e-01
4.084000000000000341e+01,2.164520554878377745e-01
4.088000000000000256e+01,1.797457651435726000e-01
4.092000000000000171e+01,1.739283390158204157e-01
4.096000000000000085e+01,1.482533193020553752e-01
4.100000000000000000e+01,1.271378390401993463e-01
4.103999999999999915e+01,1.286741107082147728e-01
4.107999999999999829e+01,1.212375293592669462e-01
4.111999999999999744e+01,1.221848515922534101e-01
4.115999999999999659e+01,1.060693018444858055e-01
4.120000000000000284e+01,9.863183373620314220e-02
4.124000000000000199e+01,1.031084509882538580e-01
4.128000000000000114e+01,9.670001920258392003e-02
4.132000000000000028e+01,1.014702126041070046e-01
4.135999999999999943e+01,8.373514978460636082e-02
4.139999999999999858e+01,7.511943139684129633e-02
4.143999999999999773e+01,7.385796118401798116e-02
4.147999999999999687e+01,6.744798705499303881e-02
4.152000000000000313e+01,7.089280679565564125e-02
4.156000000000000227e+01,6.624729480978105989e-02
4.160000000000000142e+01,7.027984299301465176e-02
4.164000000000000057e+01,6.033840812311531271e-02
4.167999999999999972e+01,6.951850261097246297e-02
4.171999999999999886e+01,5.428113626889772420e-02
4.175999999999999801e+01,5.301710383704880819e-02
4.179999999999999716e+01,5.557711203729034932e-02
4.184000000000000341e+01,4.725204114128384036e-02
4.188000000000000256e+01,4.937010949487791178e-02
4.192000000000000171e+01,5.442966498457140617e-02
4.196000000000000085e+01,4.301467025600945460e-02
4.200000000000000000e+01,4.983864065402455329e-02
4.203999999999999915e+01,4.107060359458689774e-02
4.207999999999999829e+01,4.642297444488672348e-02
4.211999999999999744e+01,3.515369531296739375e-02
4.215999999999999659e+01,4.477101388410854171e-02
4.220000000000000284e+01,4.365032521147558381e-02
4.224000000000000199e+01,5.017802412465699469e-02
4.228000000000000114e+01,4.096661152234660347e-02
4.232000000000000028e+01,3.219611459693783040e-02
4.235999999999999943e+01,3.445709585992952351e-02
4.239999999999999858e+01,3.833571791225152264e-02
4.243999999999999773e+01,4.030179038735393765e-02
4.247999999999999687e+01,3.756057879775186875e-02
4.252000000000000313e+01,2.452261631551338333e-02
4.256000000000000227e+01,4.060833591148711730e-02
4.260000000000000142e+01,3.095272686038311877e-02
4.264000000000000057e+01,3.453494860561110574e-02
4.267999999999999972e+01,3.370405790257226947e-02
4.271999999999999886e+01,4.052152902089571629e-02
4.275999999999999801e+01,3.998405988061684568e-02
4.279999999999999716e+01,2.326617778591749675e-02
4.284000000000000341e+01,2.258084809280883759e-02
4.288000000000000256e+01,2.513113635852154762e-02
4.292000000000000171e+01,3.032867573276581963e-02
4.296000000000000085e+01,3.331945526667475649e-02
4.300000000000000000e+01,2.616054931930815106e-02
4.303999999999999915e+01,3.621091444484799554e-02
4.307999999999999829e+01,3.772959272898013250e-02
4.311999999999999744e+01,3.042239967304077169e-02
4.315999999999999659e+01,2.252643897552083704e-02
4.320000000000000284e+01,3.154555841113059617e-02
4.324000000000000199e+01,3.997590591108442920e-02
4.328000000000000114e+01,2.957817352753150386e-02
4.332000000000000028e+01,3.447751190205221999e-02
4.335999999999999943e+01,2.760914253801528828e-02
4.339999999999999858e+01,3.530238375891158603e-02
4.343999999999999773e+01,2.607972179371958674e-02
4.347999999999999687e+01,3.994995431653999146e-02
4.352000000000000313e+01,2.749044410716415532e-02
4.356000000000000227e+01,2.856289766387986109e-02
4.360000000000000142e+01,3.345929523599076166e-02
4.364000000000000057e+01,4.203254350064628692e-02
4.367999999999999972e+01,2.295221986263774189e-02
4.371999999999999886e+01,3.328969839037500961e-02
4.375999999999999801e+01,4.156746531283646989e-02
4.379999999999999716e+01,4.057805086814701701e-02
4.384000000000000341e+01,3.988237933711458183e-02
4.388000000000000256e+01,3.492062212249815584e-02
4.392000000000000171e+01,2.937005647258533747e-02
4.396000000000000085e+01,2.882014492123279731e-02
4.400000000000000000e+01,3.209415591489878095e-02
4.403999999999999915e+01,3.933917848235858605e-02
4.407999999999999829e+01,4.217101345523311534e-02
4.411999999999999744e+01,3.720656164278541428e-02
4.415999999999999659e+01,3.783111789696166904e-02
4.420000000000000284e+01,5.125214768556161926e-02
4.424000000000000199e+01,5.143451074264504541e-02
4.428000000000000114e+01,5.470532543641819928e-02
4.432000000000000028e+01,5.223911907106292690e-02
4.435999999999999943e+01,6.198101294872863237e-02
4.439999999999999858e+01,7.186952850571091955e-02
4.443999999999999773e+01,7.734483714476884930e-02
4.447999999999999687e+01,6.458036619244184040e-02
4.452000000000000313e+01,9.167712794783085262e-02
4.456000000000000227e+01,9.317954702710917747e-02
4.460000000000000142e+01,9.526985057795472889e-02
4.464000000000000057e+01,1.269249980884925855e-01
4.467999999999999972e+01,1.331328876576197973e-01
4.471999999999999886e+01,1.305148200051686469e-01
4.475999999999999801e+01,1.377513723123535427e-01
4.479999999999999716e+01,1.441048865977873350e-01
4.484000000000000341e+01,1.323656931443101259e-01
4.488000000000000256e+01,1.234207367703316072e-01
4.492000000000000171e+01,1.172700153288140784e-01
4.496000000000000085e+01,9.832186203654090517e-02
4.500000000000000000e+01,9.246432168956403297e-02
4.503999999999999915e+01,8.234063339491068390e-02
4.507999999999999829e+01,6.853915970879524699e-02
4.511999999999999744e+01,7.062302486731027173e-02
4.515999999999999659e+01,5.152525041853979471e-02
4.520000000000000284e+01,5.169590756402358406e-02
4.524000000000000199e+01,4.421730898294334855e-02
4.528000000000000114e+01,4.879967008720463573e-02
4.532000000000000028e+01,3.146492711696467770e-02
4.535999999999999943e+01,3.634043066908849984e-02
4.539999999999999858e+01,3.842067870832693854e-02
4.543999999999999773e+01,3.667603085695118198e-02
4.547999999999999687e+01,3.640176729719193233e-02
4.552000000000000313e+01,2.921368886067005760e-02
4.556000000000000227e+01,3.261564332209580808e-02
4.560000000000000142e+01,2.895668743687061439e-02
4.564000000000000057e+01,3.073956900206239323e-02
4.567999999999999972e+01,2.810917709116197288e-02
4.571999999999999886e+01,2.091841838131868608e-02
4.575999999999999801e+01,2.387640830679569476e-02
4.579999999999999716e+01,2.653967123783173079e-02
4.584000000000000341e+01,2.302455799486872318e-02
4.588000000000000256e+01,2.068562522151950675e-02
4.592000000000000171e+01,2.687742956139683656e-02
4.596000000000000085e+01,2.424321012152792429e-02
4.600000000000000000e+01,2.881590291849310190e-02
4.603999999999999915e+01,2.147365294956361109e-02
4.607999999999999829e+01,2.722195795591325282e-02
4.611999999999999744e+01,3.282260996733350061e-02
4.615999999999999659e+01,2.489030983780290279e-02
4.620000000000000284e+01,3.328456411032460621e-02
4.624000000000000199e+01,1.829075316834851903e-02
4.628000000000000114e+01,1.829967175203232876e-02
4.632000000000000028e+01,1.992602071535454211e-02
4.635999999999999943e+01,2.199306850477335262e-02
4.639999999999999858e+01,1.744043653422674631e-02
4.643999999999999773e+01,2.141851376541692095e-02
4.647999999999999687e+01,2.157163928301341835e-02
4.652000000000000313e+01,2.054745210461284347e-02
4.656000000000000227e+01,1.775758537992539604e-02
4.660000000000000142e+01,3.202970746597857965e-02
4.664000000000000057e+01,1.894228112020597543e-02
4.667999999999999972e+01,1.968083342321248763e-02
4.671999999999999886e+01,1.924206229503347410e-02
4.675999999999999801e+01,2.498052437928174538e-02
4.679999999999999716e+01,2.880620285920409973e-02
4.684000000000000341e+01,2.512963090686855250e-02
4.688000000000000256e+01,1.762808577056268131e-02
4.692000000000000171e+01,2.248159464267975721e-02
4.696000000000000085e+01,2.615776720138524719e-02
4.700000000000000000e+01,2.836241894801554489e-02
4.703999999999999915e+01,3.130191537272807023e-02
4.707999999999999829e+01,2.732751318620871284e-02
4.711999999999999744e+01,3.541397192129791538e-02
4.715999999999999659e+01,2.187741016977895817e-02
4.720000000000000284e+01,1.495933154071193635e-02
4.724000000000000199e+01,2.525029854559576389e-02
4.728000000000000114e+01,2.730353562174224480e-02
4.732000000000000028e+01,3.156251410483737474e-02
4.735999999999999943e+01,2.405357014560756748e-02
4.739999999999999858e+01,2.728165149640555259e-02
4.743999999999999773e+01,2.903818841771388728e-02
4.747999999999999687e+01,3.108827287225106317e-02
4.752000000000000313e+01,2.843080273533706362e-02
4.756000000000000227e+01,3.150924934265784266e-02
4.760000000000000142e+01,3.208650470164728374e-02
4.764000000000000057e+01,3.310439018152785268e-02
4.767999999999999972e+01,4.132909772266026016e-02
4.771999999999999886e+01,3.602076938837259212e-02
4.775999999999999801e+01,2.100377360276542080e-02
4.779999999999999716e+01,2.481379632652485831e-02
4.784000000000000341e+01,1.920932965651546767e-02
4.788000000000000256e+01,2.846041545484599006e-02
4.792000000000000171e+01,3.623993105923482144e-02
4.796000000000000085e+01,3.269276554317272071e-02
4.800000000000000000e+01,2.811529906653259178e-02
4.803999999999999915e+01,2.736153828410605587e-02
4.807999999999999829e+01,3.087275457629452130e-02
4.811999999999999744e+01,2.717583408264557729e-02
4.815999999999999659e+01,2.936188930347932019e-02
4.820000000000000284e+01,3.493036810293702332e-02
4.824000000000000199e+01,2.696578311548485443e-02
4.828000000000000114e+01,2.664926151115852224e-02
4.832000000000000028e+01,2.280187178113165375e-02
4.835999999999999943e+01,2.439617350296008000e-02
4.839999999999999858e+01,2.201832927757364083e-02
4.843999999999999773e+01,2.184616634208096098e-02
4.847999999999999687e+01,2.034949432993219190e-02
4.852000000000000313e+01,3.179615514795152559e-02
4.856000000000000227e+01,2.514990855255639507e-02
4.860000000000000142e+01,2.232733759284743699e-02
4.864000000000000057e+01,2.847663127524233465e-02
4.867999999999999972e+01,3.035958162953259626e-02
4.871999999999999886e+01,3.591911000258302122e-02
4.875999999999999801e+01,2.353281140284367232e-02
4.879999999999999716e+01,2.261891884587858767e-02
4.884000000000000341e+01,2.405777728424358247e-02
4.888000000000000256e+01,2.108319048350254868e-02
4.892000000000000171e+01,3.237573562486998485e-02
4.896000000000000085e+01,2.160389013549499776e-02
4.900000000000000000e+01,2.568753699740515886e-02
4.903999999999999915e+01,2.197463298835940909e-02
4.907999999999999829e+01,2.796902588306815485e-02
4.911999999999999744e+01,2.807904889831475473e-02
4.915999999999999659e+01,2.098087930474447013e-02
4.920000000000000284e+01,2.535509428357175798e-02
4.924000000000000199e+01,1.899092413999461937e-02
4.928000000000000114e+01,3.204205776864216260e-02
4.932000000000000028e+01,2.685315201434649093e-02
4.935999999999999943e+01,2.740006638759035287e-02
4.939999999999999858e+01,3.118224875251491418e-02
4.943999999999999773e+01,3.584623814907438033e-02
4.947999999999999687e+01,4.198039713348308832e-02
4.952000000000000313e+01,3.252214716439440212e-02
4.956000000000000227e+01,4.659773886103096147e-02
4.960000000000000142e+01,4.213909379383450060e-02
4.964000000000000057e+01,5.180045084625544555e-02
4.967999999999999972e+01,5.440067855418272841e-02
4.971999999999999886e+01,6.111870413236744626e-02
4.975999999999999801e+01,6.268778135755227743e-02
4.979999999999999716e+01,6.425609923615489827e-02
4.984000000000000341e+01,6.405856151138154819e-02
4.988000000000000256e+01,6.591953660733279596e-02
4.992000000000000171e+01,6.954484002534488951e-02
4.996000000000000085e+01,6.110789909195737946e-02
5.000000000000000000e+01,5.502364688980743157e-02
5.003999999999999915e+01,5.879373123832084408e-02
5.007999999999999829e+01,4.270573247623212637e-02
5.011999999999999744e+01,3.867843360792656143e-02
5.015999999999999659e+01,4.568219425567542069e-02
5.020000000000000284e+01,3.753478297772541022e-02
5.024000000000000199e+01,3.218132107622598964e-02
5.028000000000000114e+01,2.976889757995246702e-02
5.032000000000000028e+01,3.471024561625745547e-02
5.035999999999999943e+01,3.523806897306252378e-02
5.039999999999999858e+01,3.002854492101296111e-02
5.043999999999999773e+01,2.864259774091667057e-02
5.047999999999999687e+01,2.622621648390669608e-02
5.052000000000000313e+01,2.351485488201037269e-02
5.056000000000000227e+01,2.492124606258034822e-02
5.060000000000000142e+01,2.264955556048943094e-02
5.064000000000000057e+01,2.508397825004147694e-02
5.067999999999999972e+01,2.251649438054021193e-02
5.071999999999999886e+01,2.612603116673666362e-02
5.075999999999999801e+01,1.914419241891013659e-02
5.079999999999999716e+01,2.775320528473852397e-02
5.084000000000000341e+01,2.209355892714335440e-02
5.088000000000000256e+01,2.011037464827404239e-02
5.092000000000000171e+01,2.474547381735310927e-02
5.096000000000000085e+01,2.481992492555420635e-02
5.100000000000000000e+01,2.254009346303475700e-02
5.103999999999999915e+01,2.423089784271650893e-02
5.107999999999999829e+01,2.871560651105773201e-02
5.111999999999999744e+01,2.525656148667103362e-02
5.115999999999999659e+01,1.650140178715300138e-02
5.120000000000000284e+01,2.598471339554728199e-02
5.124000000000000199e+01,2.678880899103565014e-02
5.128000000000000114e+01,2.950425108511706834e-02
5.132000000000000028e+01,2.442301992709522418e-02
5.135999999999999943e+01,2.213567802846915997e-02
5.139999999999999858e+01,2.058294678081901488e-02
5.143999999999999773e+01,2.285373872918030833e-02
5.147999999999999687e+01,2.806550467163735144e-02
5.152000000000000313e+01,2.077366900078652517e-02
5.156000000000000227e+01,2.760173239174475157e-02
5.160000000000000142e+01,2.060236929300270428e-02
5.164000000000000057e+01,2.228052745691303654e-02
5.167999999999999972e+01,3.013565474761689678e-02
5.171999999999999886e+01,2.769353732701971063e-02
5.175999999999999801e+01,3.084002003588866281e-02
5.179999999999999716e+01,2.383634491519422138e-02
5.184000000000000341e+01,2.506890679452476733e-02
5.188000000000000256e+01,1.629839772602950654e-02
5.192000000000000171e+01,2.091231251693922988e-02
5.196000000000000085e+01,2.876135788911863070e-02
5.200000000000000000e+01,2.822532880630234872e-02
5.203999999999999915e+01,2.592332603303810004e-02
5.207999999999999829e+01,2.244371212554023901e-02
5.211999999999999744e+01,2.440558784835650599e-02
5.215999999999999659e+01,2.283638932985570039e-02
5.220000000000000284e+01,2.935631731222779900e-02
5.224000000000000199e+01,2.646151972668715074e-02
5.228000000000000114e+01,2.224200909591152533e-02
5.232000000000000028e+01,2.287561265700958565e-02
5.235999999999999943e+01,2.115486064810629535e-02
5.239999999999999858e+01,2.575813029513148236e-02
5.243999999999999773e+01,2.462394303438072279e-02
5.247999999999999687e+01,2.393012610296274198e-02
5.252000000000000313e+01,2.323540382640083141e-02
5.256000000000000227e+01,2.548159757391749852e-02
5.260000000000000142e+01,2.331414640782462563e-02
5.264000000000000057e+01,2.026323640059676107e-02
5.267999999999999972e+01,2.691943006373286040e-02
5.271999999999999886e+01,2.018941064755283912e-02
5.275999999999999801e+01,2.566704059648261885e-02
5.279999999999999716e+01,2.790774430311859788e-02
5.284000000000000341e+01,1.808604907164249043e-02
5.288000000000000256e+01,2.208999969810625588e-02
5.292000000000000171e+01,2.638720586067541327e-02
5.296000000000000085e+01,2.627074778629594209e-02
5.300000000000000000e+01,2.394699096512535250e-02
5.303999999999999915e+01,2.132811853569507171e-02
5.307999999999999829e+01,1.885540187840646989e-02
5.311999999999999744e+01,1.991193588992105565e-02
5.315999999999999659e+01,2.493899195064021648e-02
5.320000000000000284e+01,2.378727678242863186e-02
5.324000000000000199e+01,1.866315587544377722e-02
5.328000000000000114e+01,2.339319760907083295e-02
5.332000000000000028e+01,2.679847047448341221e-02
5.335999999999999943e+01,2.887897232464389091e-02
5.339999999999999858e+01,2.831088043019745759e-02
5.343999999999999773e+01,2.744765145711463433e-02
5.347999999999999687e+01,2.511255385185363551e-02
5.352000000000000313e+01,2.130558546737680234e-02
5.356000000000000227e+01,3.338350290258158132e-02
5.360000000000000142e+01,2.722115122181210239e-02
5.364000000000000057e+01,2.738275463880327637e-02
5.367999999999999972e+01,2.651375221586696820e-02
5.371999999999999886e+01,2.446705063015249329e-02
5.375999999999999801e+01,2.109555655880917049e-02
5.379999999999999716e+01,2.581310310683189793e-02
5.384000000000000341e+01,2.596984700726422124e-02
5.388000000000000256e+01,2.803779784884086537e-02
5.392000000000000171e+01,1.804329178228831695e-02
5.396000000000000085e+01,2.819929416361788288e-02
5.400000000000000000e+01,3.026429708969413310e-02
5.403999999999999915e+01,2.732721310555258354e-02
5.407999999999999829e+01,2.953733119525320597e-02
5.411999999999999744e+01,2.468608161927858188e-02
5.415999999999999659e+01,2.645294158120087974e-02
5.420000000000000284e+01,2.277643251731566176e-02
5.424000000000000199e+01,2.865985221351222828e-02
5.428000000000000114e+01,3.160044857864705015e-02
5.432000000000000028e+01,2.850930477360932164e-02
5.435999999999999943e+01,3.203625977128016222e-02
5.439999999999999858e+01,3.217911146933725292e-02
5.443999999999999773e+01,2.584894302866973942e-02
5.447999999999999687e+01,2.701941400447582103e-02
5.452000000000000313e+01,2.936560168975845334e-02
5.456000000000000227e+01,2.847476866308962934e-02
5.460000000000000142e+01,2.581782453556182022e-02
5.464000000000000057e+01,2.198313186338938033e-02
5.467999999999999972e+01,2.756125315807127565e-02
5.471999999999999886e+01,3.093198338334214245e-02
5.475999999999999801e+01,2.753549394196100342e-02
5.479999999999999716e+01,2.943325910355693367e-02
5.484000000000000341e+01,2.765271499649869444e-02
5.488000000000000256e+01,3.087223884671620039e-02
5.492000000000000171e+01,2.761871679375699912e-02
5.496000000000000085e+01,2.201069961334773187e-02
5.500000000000000000e+01,2.949275861881664809e-02
5.503999999999999915e+01,2.211756825865437287e-02
5.507999999999999829e+01,2.724408508704288800e-02
5.511999999999999744e+01,2.148481000267612323e-02
5.515999999999999659e+01,2.410868489002054513e-02
5.520000000000000284e+01,2.982042527277022417e-02
5.524000000000000199e+01,2.170454378539139750e-02
5.528000000000000114e+01,2.947345579507418614e-02
5.532000000000000028e+01,3.194602983770767485e-02
5.535999999999999943e+01,3.088735787601025809e-02
5.539999999999999858e+01,3.409327008103377882e-02
5.543999999999999773e+01,2.582500849374858715e-02
5.547999999999999687e+01,2.991134144882446125e-02
5.552000000000000313e+01,3.414369920674400344e-02
5.556000000000000227e+01,2.881406201681091517e-02
5.560000000000000142e+01,3.422100999418281608e-02
5.564000000000000057e+01,2.888922932312265254e-02
5.567999999999999972e+01,3.267602659134903609e-02
5.571999999999999886e+01,3.557919969653962344e-02
5.575999999999999801e+01,2.759654653637213725e-02
5.579999999999999716e+01,3.226265309389039077e-02
5.584000000000000341e+01,2.810220555335735809e-02
5.588000000000000256e+01,3.541378402993060337e-02
5.592000000000000171e+01,3.213371000462113963e-02
5.596000000000000085e+01,2.708745187917181718e-02
5.600000000000000000e+01,2.718829276975636908e-02
5.603999999999999915e+01,3.096531877120705864e-02
5.607999999999999829e+01,3.768307185742118121e-02
5.611999999999999744e+01,3.748644110188942280e-02
5.615999999999999659e+01,3.581779786265544552e-02
5.620000000000000284e+01,4.091424583821013511e-02
5.624000000000000199e+01,4.144976234391403724e-02
5.628000000000000114e+01,3.198197172764821045e-02
5.632000000000000028e+01,4.001692171940766235e-02
5.635999999999999943e+01,3.701892206443096328e-02
5.639999999999999858e+01,3.372562645003008425e-02
5.643999999999999773e+01,4.146305326676907183e-02
5.647999999999999687e+01,4.655172101700039144e-02
5.652000000000000313e+01,4.796198932299531453e-02
5.656000000000000227e+01,4.907695308141540869e-02
5.660000000000000142e+01,4.504260134339366922e-02
5.664000000000000057e+01,5.218605247713643119e-02
5.667999999999999972e+01,4.388380151345141339e-02
5.671999999999999886e+01,6.352774317013852590e-02
5.675999999999999801e+01,4.669194029406226187e-02
5.679999999999999716e+01,5.044776695363233782e-02
5.684000000000000341e+01,5.626173284937203978e-02
5.688000000000000256e+01,5.104272118688581161e-02
5.692000000000000171e+01,4.494002095023365978e-02
5.696000000000000085e+01,5.354529462855683181e-02
5.700000000000000000e+01,5.111758430754111820e-02
5.703999999999999915e+01,4.839454367449846223e-02
5.707999999999999829e+01,4.861217645027739176e-02
5.711999999999999744e+01,4.235664523580769808e-02
5.715999999999999659e+01,4.036560371840136607e-02
5.720000000000000284e+01,4.190359387195561475e-02
5.724000000000000199e+01,4.270496945085557050e-02
5.728000000000000114e+01,5.115392532940502696e-02
5.732000000000000028e+01,4.106823006585075264e-02
5.735999999999999943e+01,4.627885195014710962e-02
5.739999999999999858e+01,4.457502128749212672e-02
5.743999999999999773e+01,3.801601239223018069e-02
5.747999999999999687e+01,4.616494950045382795e-02
5.752000000000000313e+01,4.695815409317406763e-02
5.756000000000000227e+01,4.319035636380039178e-02
5.760000000000000142e+01,3.898010708805935837e-02
5.764000000000000057e+01,4.756560994208413468e-02
5.767999999999999972e+01,3.938153644042220042e-02
5.771999999999999886e+01,5.061231368603610892e-02
5.775999999999999801e+01,4.772115144652214203e-02
5.779999999999999716e+01,4.247534163988338912e-02
5.784000000000000341e+01,5.414382615058626474e-02
5.788000000000000256e+01,4.977817944947915407e-02
5.792000000000000171e+01,5.055952870659765480e-02
5.796000000000000085e+01,4.633858064380650538e-02
5.800000000000000000e+01,5.844355360695428075e-02
5.803999999999999915e+01,6.392822202217393612e-02
5.807999999999999829e+01,6.367513079730587056e-02
5.811999999999999744e+01,5.768427778531238365e-02
5.815999999999999659e+01,6.272405488183883937e-02
5.820000000000000284e+01,6.011388061159544244e-02
5.824000000000000199e+01,6.117977336514616310e-02
5.828000000000000114e+01,6.165608689687608612e-02
5.832000000000000028e+01,7.007410725690210729e-02
5.835999999999999943e+01,7.304853529920267430e-02
5.839999999999999858e+01,7.160900710743119124e-02
5.843999999999999773e+01,7.311007932520048602e-02
5.847999999999999687e+01,7.005009983900939430e-02
5.852000000000000313e+01,6.492961649064135643e-02
5.856000000000000227e+01,6.951592119809948955e-02
5.860000000000000142e+01,6.615807071678499185e-02
5.864000000000000057e+01,6.677044814051394384e-02
5.867999999999999972e+01,5.752648079582580593e-02
5.871999999999999886e+01,5.563583410580499183e-02
5.875999999999999801e+01,5.492067653926738235e-02
5.879999999999999716e+01,5.773446476218351692e-02
5.884000000000000341e+01,5.319244961735305338e-02
5.888000000000000256e+01,4.850209657257574525e-02
5.892000000000000171e+01,5.072377991983836182e-02
5.896000000000000085e+01,4.926693285356655710e-02
5.900000000000000000e+01,4.707337674298284896e-02
5.903999999999999915e+01,4.017164769409833219e-02
5.907999999999999829e+01,4.091740232816809542e-02
5.911999999999999744e+01,4.460372087213820141e-02
5.915999999999999659e+01,3.505057183953989158e-02
5.920000000000000284e+01,3.755763532317310527e-02
5.924000000000000199e+01,3.976925040770745018e-02
5.928000000000000114e+01,3.124194146338155759e-02
5.932000000000000028e+01,3.389229153929613353e-02
5.935999999999999943e+01,2.197934272113691301e-02
5.939999999999999858e+01,3.448225445231357933e-02
5.943999999999999773e+01,3.786423650042246986e-02
5.947999999999999687e+01,3.006601025704373417e-02
5.952000000000000313e+01,1.976595294810727654e-02
5.956000000000000227e+01,2.991028585340477219e-02
5.960000000000000142e+01,2.637385403728054883e-02
5.964000000000000057e+01,3.342669936184331642e-02
5.967999999999999972e+01,2.488659038533985388e-02
5.971999999999999886e+01,3.046594247496028224e-02
5.975999999999999801e+01,2.560052712289448418e-02
5.979999999999999716e+01,2.382273035690153987e-02
5.984000000000000341e+01,2.027854122811451748e-02
5.988000000000000256e+01,1.629177817181281032e-02
5.992000000000000171e+01,2.362973310599953206e-02
5.996000000000000085e+01,2.420018925863680684e-02
