2.003999999999999915e+01,4.371520872212553144e-02
2.007999999999999829e+01,4.965287426767290430e-02
2.012000000000000099e+01,5.201971109403373539e-02
2.016000000000000014e+01,4.646272627029133379e-02
2.019999999999999929e+01,4.760350205627691955e-02
2.023999999999999844e+01,4.461536692659237580e-02
2.028000000000000114e+01,4.453007306477098359e-02
2.032000000000000028e+01,3.998101853902030767e-02
2.035999999999999943e+01,4.782208857278558850e-02
2.039999999999999858e+01,4.282825752534363123e-02
2.044000000000000128e+01,5.178715880823234891e-02
2.048000000000000043e+01,4.512077600167679892e-02
2.051999999999999957e+01,3.611130958733579921e-02
2.055999999999999872e+01,3.502735104598644900e-02
2.060000000000000142e+01,2.512662599864754973e-02
2.064000000000000057e+01,3.587553141319679839e-02
2.067999999999999972e+01,4.350003857526155843e-02
2.071999999999999886e+01,4.007546981214556853e-02
2.076000000000000156e+01,3.218711671465852853e-02
2.080000000000000071e+01,3.456817669081029692e-02
2.083999999999999986e+01,4.375857799513700047e-02
2.087999999999999901e+01,4.692257643498628367e-02
2.092000000000000171e+01,3.892587304218230598e-02
2.096000000000000085e+01,3.874304085560571764e-02
2.100000000000000000e+01,3.688679012802855567e-02
2.103999999999999915e+01,3.425003989303922886e-02
2.107999999999999829e+01,3.105601829514078802e-02
2.112000000000000099e+01,3.266225029515428674e-02
2.116000000000000014e+01,2.846529466404372835e-02
2.119999999999999929e+01,3.777456988523217318e-02
2.123999999999999844e+01,3.994127139341008964e-02
2.128000000000000114e+01,3.407247585127243933e-02
2.132000000000000028e+01,2.686508999781018689e-02
2.135999999999999943e+01,4.220475339185982000e-02
2.139999999999999858e+01,3.153887442290728010e-02
2.144000000000000128e+01,3.683474665508176121e-02
2.148000000000000043e+01,3.041181118768214453e-02
2.151999999999999957e+01,3.515117124591767006e-02
2.155999999999999872e+01,3.821708263713592679e-02
2.160000000000000142e+01,3.391717065225699490e-02
2.164000000000000057e+01,2.682765421483604418e-02
2.167999999999999972e+01,2.933781262108545868e-02
2.171999999999999886e+01,3.129066523469245520e-02
2.176000000000000156e+01,3.458366742287267287e-02
2.180000000000000071e+01,3.787743525559790492e-02
2.183999999999999986e+01,3.927450906193595548e-02
2.187999999999999901e+01,4.547179558087754286e-02
2.192000000000000171e+01,3.079780857897624485e-02
2.196000000000000085e+01,3.242039024858597851e-02
2.200000000000000000e+01,2.868619969076991946e-02
2.203999999999999915e+01,3.298905253536765086e-02
2.207999999999999829e+01,3.773911655422535621e-02
2.212000000000000099e+01,3.992278059460269840e-02
2.216000000000000014e+01,3.217344272470717970e-02
2.219999999999999929e+01,2.342031264714596744e-02
2.223999999999999844e+01,2.940112410355606026e-02
2.228000000000000114e+01,2.913222708408536379e-02
2.232000000000000028e+01,3.332867366223403460e-02
2.235999999999999943e+01,3.149863775714687592e-02
2.239999999999999858e+01,2.855318373692156825e-02
2.244000000000000128e+01,2.159031559699842867e-02
2.248000000000000043e+01,3.750928189709622912e-02
2.251999999999999957e+01,3.646347258480472225e-02
2.255999999999999872e+01,3.474869714266499293e-02
2.260000000000000142e+01,3.236495341881864135e-02
2.264000000000000057e+01,2.964708470594982007e-02
2.267999999999999972e+01,2.849254637127407799e-02
2.271999999999999886e+01,3.448209367197397485e-02
2.276000000000000156e+01,4.091881556534199965e-02
2.280000000000000071e+01,3.184174370966314643e-02
2.283999999999999986e+01,3.247589944194365086e-02
2.287999999999999901e+01,2.261893878959720522e-02
2.292000000000000171e+01,3.207210416504388539e-02
2.296000000000000085e+01,3.572198507574133458e-02
2.300000000000000000e+01,2.720651592352456294e-02
2.303999999999999915e+01,2.204020015366894847e-02
2.307999999999999829e+01,2.446441124518719534e-02
2.312000000000000099e+01,3.258168952714706607e-02
2.316000000000000014e+01,2.473869410061157667e-02
2.319999999999999929e+01,3.040182193345832701e-02
2.323999999999999844e+01,3.294041379488713006e-02
2.328000000000000114e+01,3.012216456942322720e-02
2.332000000000000028e+01,2.529552655063287830e-02
2.335999999999999943e+01,2.582709736659168434e-02
2.339999999999999858e+01,2.278766301097586919e-02
2.344000000000000128e+01,2.689227555728563798e-02
2.348000000000000043e+01,3.222533000007931497e-02
2.351999999999999957e+01,2.550462155398122016e-02
2.355999999999999872e+01,3.429908966779505325e-02
2.360000000000000142e+01,1.541366984368597662e-02
2.364000000000000057e+01,2.063778868569508818e-02
2.367999999999999972e+01,1.291521484593253187e-02
2.371999999999999886e+01,2.394464825589226117e-02
2.376000000000000156e+01,1.745116360495010607e-02
2.380000000000000071e+01,2.613799715822741343e-02
2.383999999999999986e+01,2.076197794049160217e-02
2.387999999999999901e+01,2.308805769514370165e-02
2.392000000000000171e+01,2.072695282225467395e-02
2.396000000000000085e+01,2.093364580171930972e-02
2.400000000000000000e+01,2.549397685257234758e-02
2.403999999999999915e+01,2.492065622758593904e-02
2.407999999999999829e+01,1.865560603399775072e-02
2.412000000000000099e+01,1.306088756625593990e-02
2.416000000000000014e+01,1.494502271153207683e-02
2.419999999999999929e+01,2.910746068974303866e-02
2.423999999999999844e+01,2.608180022929452654e-02
2.428000000000000114e+01,2.495422951724814847e-02
2.432000000000000028e+01,1.913945265907724194e-02
2.435999999999999943e+01,3.006757595364051641e-02
2.439999999999999858e+01,3.206711316749146640e-02
2.444000000000000128e+01,2.692390451966496234e-02
2.448000000000000043e+01,2.133485674915162889e-02
2.451999999999999957e+01,2.869378548579135102e-02
2.455999999999999872e+01,2.310597419977600264e-02
2.460000000000000142e+01,2.968482907993126932e-02
2.464000000000000057e+01,2.097302152191760083e-02
2.467999999999999972e+01,1.159213378556388924e-02
2.471999999999999886e+01,2.319550246609036401e-02
2.476000000000000156e+01,2.162889006830845048e-02
2.480000000000000071e+01,1.939319103661149568e-02
2.483999999999999986e+01,2.552923022178727949e-02
2.487999999999999901e+01,2.005789394761109748e-02
2.492000000000000171e+01,1.302454339849827905e-02
2.496000000000000085e+01,1.693007301884207061e-02
2.500000000000000000e+01,2.485434146957338566e-02
2.503999999999999915e+01,2.485452574348646568e-02
2.507999999999999829e+01,3.177543839677166027e-02
2.512000000000000099e+01,1.615067815783472263e-02
2.516000000000000014e+01,1.124155703270107720e-02
2.519999999999999929e+01,1.503900020225768137e-02
2.523999999999999844e+01,1.147042417660832335e-02
2.528000000000000114e+01,1.203218706651904696e-02
2.532000000000000028e+01,1.717074731285472139e-02
2.535999999999999943e+01,2.833709969010761789e-02
2.539999999999999858e+01,1.952491252028885210e-02
2.544000000000000128e+01,1.852635554856383801e-02
2.548000000000000043e+01,2.712726899396706789e-02
2.551999999999999957e+01,2.657630581026309419e-02
2.555999999999999872e+01,2.747690292277112437e-02
2.560000000000000142e+01,2.089984632516738230e-02
2.564000000000000057e+01,1.543950027551657667e-02
2.567999999999999972e+01,1.355139588193837383e-02
2.571999999999999886e+01,1.121738565806488196e-02
2.576000000000000156e+01,1.368337941653629923e-02
2.580000000000000071e+01,2.016806896822849124e-02
2.583999999999999986e+01,2.397454327043418640e-02
2.587999999999999901e+01,1.985688820679643724e-02
2.592000000000000171e+01,2.411091325985641534e-02
2.596000000000000085e+01,1.206966852979505199e-02
2.600000000000000000e+01,1.933838413443478635e-02
2.603999999999999915e+01,1.522289217219255884e-02
2.607999999999999829e+01,2.104168379374613332e-02
2.612000000000000099e+01,1.268588484018051687e-02
2.616000000000000014e+01,2.218904068753202452e-02
2.619999999999999929e+01,1.461560780334650485e-02
2.623999999999999844e+01,2.278043760092590686e-02
2.628000000000000114e+01,2.770895273767298717e-02
2.632000000000000028e+01,2.471331483813496779e-02
2.635999999999999943e+01,1.256575512046459280e-02
2.639999999999999858e+01,2.240689777525163920e-02
2.644000000000000128e+01,1.505982363917074754e-02
2.648000000000000043e+01,1.865154790192960141e-02
2.651999999999999957e+01,2.123924755632243533e-02
2.655999999999999872e+01,2.539006885864977109e-02
2.660000000000000142e+01,2.485356135892731119e-02
2.664000000000000057e+01,2.654986209250757845e-02
2.667999999999999972e+01,2.143814190488595520e-02
2.671999999999999886e+01,2.670713146404994631e-02
2.676000000000000156e+01,1.657372938837243376e-02
2.680000000000000071e+01,1.949979631210356154e-02
2.683999999999999986e+01,1.796175181899655610e-02
2.687999999999999901e+01,1.274089979445894999e-02
2.692000000000000171e+01,1.622651953470298156e-02
2.696000000000000085e+01,1.614094258798051684e-02
2.700000000000000000e+01,1.929269084146308100e-02
2.703999999999999915e+01,1.931969869698556969e-02
2.707999999999999829e+01,2.024010933719932320e-02
2.712000000000000099e+01,1.658477834938578213e-02
2.716000000000000014e+01,2.241721225246961352e-02
2.719999999999999929e+01,2.412036081653287298e-02
2.723999999999999844e+01,2.214068248244042969e-02
2.728000000000000114e+01,2.440285061917190843e-02
2.732000000000000028e+01,2.354026329493510983e-02
2.735999999999999943e+01,3.015635743504933852e-02
2.739999999999999858e+01,2.315586788148174188e-02
2.744000000000000128e+01,2.195982826583619055e-02
2.748000000000000043e+01,2.310816684264912005e-02
2.751999999999999957e+01,3.798562657450547247e-02
2.755999999999999872e+01,3.333089115166337074e-02
2.760000000000000142e+01,3.347606072568261315e-02
2.764000000000000057e+01,5.036395400005237027e-02
2.767999999999999972e+01,3.856720351332158098e-02
2.771999999999999886e+01,5.099138735133946360e-02
2.776000000000000156e+01,5.214288624074758099e-02
2.780000000000000071e+01,7.349716981667832327e-02
2.783999999999999986e+01,6.292996172683136546e-02
2.787999999999999901e+01,8.238766705970225479e-02
2.792000000000000171e+01,7.226779453487595928e-02
2.796000000000000085e+01,9.585613101901788169e-02
2.800000000000000000e+01,9.790317601076484189e-02
2.803999999999999915e+01,1.120050869606845911e-01
2.807999999999999829e+01,1.330275649006012750e-01
2.812000000000000099e+01,1.653235984577083872e-01
2.816000000000000014e+01,1.821055499167513192e-01
2.819999999999999929e+01,2.151837343574048711e-01
2.823999999999999844e+01,2.280599961726832436e-01
2.828000000000000114e+01,2.573441018140362746e-01
2.832000000000000028e+01,2.462239387055695228e-01
2.835999999999999943e+01,2.549716847130661934e-01
2.839999999999999858e+01,2.422897328577652554e-01
2.844000000000000128e+01,2.048296265423840690e-01
2.848000000000000043e+01,1.787546716256490642e-01
2.851999999999999957e+01,1.652926325856909351e-01
2.855999999999999872e+01,1.333028809282032490e-01
2.860000000000000142e+01,1.096846652129046668e-01
2.864000000000000057e+01,8.673653806346051653e-02
2.867999999999999972e+01,7.082056077431903018e-02
2.871999999999999886e+01,5.713727982184665238e-02
2.876000000000000156e+01,4.914676264779044984e-02
2.880000000000000071e+01,5.421560688022603741e-02
2.883999999999999986e+01,4.633748084116461746e-02
2.887999999999999901e+01,3.566936086320222909e-02
2.892000000000000171e+01,2.913138398169114532e-02
2.896000000000000085e+01,2.404478448843353974e-02
2.900000000000000000e+01,3.179430534601435099e-02
2.903999999999999915e+01,2.336000587556276084e-02
2.907999999999999829e+01,3.590972826943267249e-02
2.912000000000000099e+01,2.736455951159749017e-02
2.916000000000000014e+01,2.495859360631835777e-02
2.919999999999999929e+01,1.552124091640045243e-02
2.923999999999999844e+01,1.501346547984237778e-02
2.928000000000000114e+01,2.209588336661611960e-02
2.932000000000000028e+01,1.980298990137882922e-02
2.935999999999999943e+01,1.818014626854592281e-02
2.939999999999999858e+01,1.711573516807815207e-02
2.944000000000000128e+01,1.348453029905426898e-02
2.948000000000000043e+01,1.197436573321039067e-02
2.951999999999999957e+01,2.151445117315359257e-02
2.955999999999999872e+01,1.609845494089484283e-02
2.960000000000000142e+01,1.726809848347380869e-02
2.964000000000000057e+01,8.392722570090230261e-03
2.967999999999999972e+01,1.257666072231502716e-02
2.971999999999999886e+01,1.397055974661381983e-02
2.976000000000000156e+01,1.023049937933102373e-02
2.980000000000000071e+01,8.611462100361459010e-03
2.983999999999999986e+01,1.636843038959999441e-02
2.987999999999999901e+01,1.218290879265206302e-02
2.992000000000000171e+01,4.314416123039863625e-03
2.996000000000000085e+01,1.352336779053715105e-02
3.000000000000000000e+01,1.938418952619593363e-02
3.003999999999999915e+01,2.424079728995507180e-02
3.007999999999999829e+01,7.221156220143272811e-03
3.012000000000000099e+01,1.587331728993059479e-02
3.016000000000000014e+01,1.459204607777782325e-02
3.019999999999999929e+01,1.721761880624793697e-02
3.023999999999999844e+01,1.504405176537900075e-02
3.028000000000000114e+01,8.182957951493393875e-03
3.032000000000000028e+01,4.893856178113256163e-03
3.035999999999999943e+01,1.778925603781268683e-02
3.039999999999999858e+01,1.037100192360600366e-02
3.044000000000000128e+01,1.277518169245558770e-02
3.048000000000000043e+01,0.000000000000000000e+00
3.051999999999999957e+01,1.055268081676289521e-02
3.055999999999999872e+01,1.094867753664075481e-02
3.060000000000000142e+01,1.625603301218557506e-02
3.064000000000000057e+01,1.843845442252009179e-02
3.067999999999999972e+01,1.425910031854238195e-02
3.071999999999999886e+01,1.633048029282639299e-02
3.076000000000000156e+01,1.103554411545407468e-02
3.080000000000000071e+01,2.214831619708130736e-02
3.083999999999999986e+01,1.674232567250842976e-02
3.087999999999999901e+01,1.970774843419957276e-02
3.092000000000000171e+01,1.541846158498179180e-02
3.096000000000000085e+01,2.117481094102355993e-02
3.100000000000000000e+01,1.297953749159078476e-02
3.103999999999999915e+01,2.498687442815521534e-02
3.107999999999999829e+01,1.355529666015897923e-02
3.112000000000000099e+01,1.451326460178602694e-02
3.116000000000000014e+01,2.250324898849887997e-02
3.119999999999999929e+01,3.116318422213260400e-02
3.123999999999999844e+01,3.524715618633041114e-02
3.128000000000000114e+01,2.883955987565061177e-02
3.132000000000000028e+01,3.470988336712163558e-02
3.135999999999999943e+01,3.991076731991032717e-02
3.139999999999999858e+01,4.243313691490373241e-02
3.144000000000000128e+01,4.428606266749809950e-02
3.148000000000000043e+01,5.495683002120468202e-02
3.151999999999999957e+01,5.714508885613829581e-02
3.155999999999999872e+01,6.558403658030866057e-02
3.160000000000000142e+01,6.676823811197840630e-02
3.164000000000000057e+01,7.732834837823110430e-02
3.167999999999999972e+01,8.442862318641432273e-02
3.171999999999999886e+01,9.923057520275155308e-02
3.176000000000000156e+01,1.053267754928041977e-01
3.180000000000000071e+01,1.096373610919246649e-01
3.183999999999999986e+01,1.102648723291806826e-01
3.187999999999999901e+01,8.622565919472020834e-02
3.192000000000000171e+01,7.926378495631072885e-02
3.196000000000000085e+01,8.971409290663630298e-02
3.200000000000000000e+01,8.788695147774119865e-02
3.203999999999999915e+01,6.608091329329056351e-02
3.207999999999999829e+01,6.291481747198901520e-02
3.211999999999999744e+01,6.041862300486656318e-02
3.215999999999999659e+01,5.502064299827869043e-02
3.220000000000000284e+01,5.977984763752276082e-02
3.224000000000000199e+01,5.371258691274673203e-02
3.228000000000000114e+01,4.619453111928084610e-02
3.232000000000000028e+01,3.566306603073545606e-02
3.235999999999999943e+01,3.763269509238581501e-02
3.239999999999999858e+01,2.665516236714712828e-02
3.243999999999999773e+01,2.594641652477120905e-02
3.247999999999999687e+01,2.367524970623298072e-02
3.252000000000000313e+01,2.653856865052320324e-02
3.256000000000000227e+01,2.929045924128508352e-02
3.260000000000000142e+01,2.389462865764141117e-02
3.264000000000000057e+01,1.838736541675279473e-02
3.267999999999999972e+01,2.214433981394947626e-02
3.271999999999999886e+01,2.400403487929142834e-02
3.275999999999999801e+01,2.285029697911209259e-02
3.279999999999999716e+01,2.359419048150913564e-02
3.284000000000000341e+01,2.590086779008175799e-02
3.288000000000000256e+01,2.407795419574994267e-02
3.292000000000000171e+01,1.834867784301695212e-02
3.296000000000000085e+01,1.808870902721315330e-02
3.300000000000000000e+01,2.608842430100065043e-02
3.303999999999999915e+01,1.578341624548651456e-02
3.307999999999999829e+01,2.043499686669601745e-02
3.311999999999999744e+01,1.794336467296901369e-02
3.315999999999999659e+01,2.069779896051786652e-02
3.320000000000000284e+01,1.597417068487102035e-02
3.324000000000000199e+01,1.805921666131485304e-02
3.328000000000000114e+01,1.813533803170637101e-02
3.332000000000000028e+01,1.720706897781464420e-02
3.335999999999999943e+01,1.996224357137564923e-02
3.339999999999999858e+01,1.981556591786284502e-02
3.343999999999999773e+01,2.167810038537379067e-02
3.347999999999999687e+01,2.253623582116814211e-02
3.352000000000000313e+01,2.428742759246148991e-02
3.356000000000000227e+01,2.068122524926961289e-02
3.360000000000000142e+01,2.109329908692293004e-02
3.364000000000000057e+01,1.692928054364013085e-02
3.367999999999999972e+01,1.957391258200626150e-02
3.371999999999999886e+01,1.808890852844287009e-02
3.375999999999999801e+01,2.854684756912934801e-02
3.379999999999999716e+01,3.018730999057530826e-02
3.384000000000000341e+01,3.874802953441770087e-02
3.388000000000000256e+01,3.960741963711102848e-02
3.392000000000000171e+01,3.868108100038031988e-02
3.396000000000000085e+01,4.288915065957790707e-02
3.400000000000000000e+01,4.453018123836910425e-02
3.403999999999999915e+01,4.650616443759678781e-02
3.407999999999999829e+01,4.167372862183026799e-02
3.411999999999999744e+01,5.246751642355561990e-02
3.415999999999999659e+01,5.143019923843328289e-02
3.420000000000000284e+01,5.976865306896036317e-02
3.424000000000000199e+01,5.359723405258343121e-02
3.428000000000000114e+01,6.260556945354180114e-02
3.432000000000000028e+01,5.855502463023010834e-02
3.435999999999999943e+01,6.555446943784677682e-02
3.439999999999999858e+01,5.603496012387137321e-02
3.443999999999999773e+01,6.660626313975384627e-02
3.447999999999999687e+01,5.351523824675530339e-02
3.452000000000000313e+01,6.285893949169511774e-02
3.456000000000000227e+01,6.193412630573533889e-02
3.460000000000000142e+01,6.045131442874888267e-02
3.464000000000000057e+01,6.265187733974832140e-02
3.467999999999999972e+01,7.389333999955460808e-02
3.471999999999999886e+01,6.136084669114913459e-02
3.475999999999999801e+01,5.340464290060105423e-02
3.479999999999999716e+01,4.857372954970159279e-02
3.484000000000000341e+01,4.876556200566620897e-02
3.488000000000000256e+01,4.884584130031896509e-02
3.492000000000000171e+01,4.077827461278266119e-02
3.496000000000000085e+01,3.806829272107789541e-02
3.500000000000000000e+01,3.837197536154916822e-02
3.503999999999999915e+01,4.001509315962587660e-02
3.507999999999999829e+01,4.656932870523586288e-02
3.511999999999999744e+01,4.218532880484464342e-02
3.515999999999999659e+01,3.367161534562379543e-02
3.520000000000000284e+01,3.252454643833919273e-02
3.524000000000000199e+01,3.550728063388874922e-02
3.528000000000000114e+01,4.485211874403052107e-02
3.532000000000000028e+01,3.801279868438099674e-02
3.535999999999999943e+01,3.876334486559602360e-02
3.539999999999999858e+01,4.040684624496816008e-02
3.543999999999999773e+01,4.305491581881990687e-02
3.547999999999999687e+01,5.106054221434484786e-02
3.552000000000000313e+01,4.723499045983867162e-02
3.556000000000000227e+01,4.441400044423710058e-02
3.560000000000000142e+01,4.873640316562678765e-02
3.564000000000000057e+01,5.294721184039623274e-02
3.567999999999999972e+01,5.749288490941035362e-02
3.571999999999999886e+01,6.203857477626834732e-02
3.575999999999999801e+01,7.316957303178016347e-02
3.579999999999999716e+01,6.409824196069117963e-02
3.584000000000000341e+01,6.864396930993089951e-02
3.588000000000000256e+01,7.988661374043018459e-02
3.592000000000000171e+01,9.358479746945970457e-02
3.596000000000000085e+01,9.556339452619723451e-02
3.600000000000000000e+01,1.001091417259290933e-01
3.603999999999999915e+01,9.862767050687401560e-02
3.607999999999999829e+01,1.202505323923670488e-01
3.611999999999999744e+01,1.226755840700200079e-01
3.615999999999999659e+01,1.335833801368173090e-01
3.620000000000000284e+01,1.232842890248030537e-01
3.624000000000000199e+01,1.338572194462872844e-01
3.628000000000000114e+01,1.361706155742181401e-01
3.632000000000000028e+01,1.393769174075644435e-01
3.635999999999999943e+01,1.287429232345998487e-01
3.639999999999999858e+01,1.301633452814157099e-01
3.643999999999999773e+01,1.294630575771898995e-01
3.647999999999999687e+01,1.255259064882558173e-01
3.652000000000000313e+01,1.144453596764266612e-01
3.656000000000000227e+01,8.963612124717570961e-02
3.660000000000000142e+01,9.953916335911960900e-02
3.664000000000000057e+01,8.511007047274732340e-02
3.667999999999999972e+01,8.820452100400726081e-02
3.671999999999999886e+01,7.634250468042312610e-02
3.675999999999999801e+01,7.318643076446988693e-02
3.679999999999999716e+01,6.299856121079398796e-02
3.684000000000000341e+01,6.921807498550872073e-02
3.688000000000000256e+01,5.177513173984226585e-02
3.692000000000000171e+01,5.944554907695358270e-02
3.696000000000000085e+01,5.707055316802677608e-02
3.700000000000000000e+01,4.889151749207457792e-02
3.703999999999999915e+01,4.562349412259713438e-02
3.707999999999999829e+01,4.894070813044839457e-02
3.711999999999999744e+01,4.399834265572127867e-02
3.715999999999999659e+01,4.318567699462817072e-02
3.720000000000000284e+01,4.438202117987523343e-02
3.724000000000000199e+01,3.642585824152234225e-02
3.728000000000000114e+01,2.947416451216560221e-02
3.732000000000000028e+01,3.837175254799538721e-02
3.735999999999999943e+01,3.789359670828860993e-02
3.739999999999999858e+01,4.813042151373406186e-02
3.743999999999999773e+01,2.722654424466681988e-02
3.747999999999999687e+01,3.132438228417978865e-02
3.752000000000000313e+01,3.698475236244298109e-02
3.756000000000000227e+01,4.018950699308863200e-02
3.760000000000000142e+01,3.011197465071903043e-02
3.764000000000000057e+01,3.465594022868027230e-02
3.767999999999999972e+01,4.734772298062662338e-02
3.771999999999999886e+01,2.968009463231761555e-02
3.775999999999999801e+01,3.902323919683523684e-02
3.779999999999999716e+01,3.329824365815283599e-02
3.784000000000000341e+01,2.656861453519516678e-02
3.788000000000000256e+01,3.624631279231139980e-02
3.792000000000000171e+01,4.324514593872340329e-02
3.796000000000000085e+01,3.405967889269385929e-02
3.800000000000000000e+01,2.811094528582679455e-02
3.803999999999999915e+01,3.622561233980307188e-02
3.807999999999999829e+01,3.083473630210247646e-02
3.811999999999999744e+01,4.129309899242170762e-02
3.815999999999999659e+01,4.148275358459107415e-02
3.820000000000000284e+01,3.307792514946447660e-02
3.824000000000000199e+01,3.750871998590061401e-02
3.828000000000000114e+01,5.064537545935087620e-02
3.832000000000000028e+01,4.458410237275255844e-02
3.835999999999999943e+01,4.521961295219694560e-02
3.839999999999999858e+01,4.150200537592479977e-02
3.843999999999999773e+01,4.738317101467998116e-02
3.847999999999999687e+01,3.975877204317486424e-02
3.852000000000000313e+01,4.407706009477763837e-02
3.856000000000000227e+01,5.062751512589873382e-02
3.860000000000000142e+01,5.115061401929930918e-02
3.864000000000000057e+01,5.457556647758651791e-02
3.867999999999999972e+01,6.157206123798683595e-02
3.871999999999999886e+01,6.287603884963410827e-02
3.875999999999999801e+01,6.886770594148607094e-02
3.879999999999999716e+01,7.474760898990916169e-02
3.884000000000000341e+01,7.504660358218503968e-02
3.888000000000000256e+01,6.864853608464713264e-02
3.892000000000000171e+01,7.352344320254880494e-02
3.896000000000000085e+01,6.969221125966530705e-02
3.900000000000000000e+01,6.318205610590249544e-02
3.903999999999999915e+01,6.671710248201526139e-02
3.907999999999999829e+01,6.679191530626626960e-02
3.911999999999999744e+01,7.289378002216667651e-02
3.915999999999999659e+01,6.727588591710824406e-02
3.920000000000000284e+01,7.438194829083161208e-02
3.924000000000000199e+01,7.479092920801619360e-02
3.928000000000000114e+01,7.274420214767472748e-02
3.932000000000000028e+01,7.471544355243631141e-02
3.935999999999999943e+01,8.048142097408095275e-02
3.939999999999999858e+01,8.479622029625190349e-02
3.943999999999999773e+01,9.480320885066315095e-02
3.947999999999999687e+01,9.878279392647049129e-02
3.952000000000000313e+01,1.104636365980561502e-01
3.956000000000000227e+01,1.190190653400224757e-01
3.960000000000000142e+01,1.292485293722863415e-01
3.964000000000000057e+01,1.276465936131104817e-01
3.967999999999999972e+01,1.433448095858298743e-01
3.971999999999999886e+01,1.554711424287734400e-01
3.975999999999999801e+01,1.722851109554631166e-01
3.979999999999999716e+01,1.885408010495423503e-01
3.984000000000000341e+01,2.196411010081055493e-01
3.988000000000000256e+01,2.505179636748839922e-01
3.992000000000000171e+01,2.874218351961451701e-01
3.996000000000000085e+01,3.111549079329301026e-01
4.000000000000000000e+01,3.816545143064794532e-01
4.003999999999999915e+01,4.340722510718798555e-01
4.007999999999999829e+01,5.047946543842196654e-01
4.011999999999999744e+01,6.081084610587850214e-01
4.015999999999999659e+01,6.965772309668702977e-01
4.020000000000000284e+01,7.989976701872676390e-01
4.024000000000000199e+01,8.774206261866415169e-01
4.028000000000000114e+01,9.588569626728906670e-01
4.032000000000000028e+01,1.000000000000000000e+00
4.035999999999999943e+01,9.967199755334207323e-01
4.039999999999999858e+01,9.702237652756499076e-01
4.043999999999999773e+01,9.071175492931308204e-01
4.047999999999999687e+01,8.299475853665306824e-01
4.052000000000000313e+01,7.244271323768464166e-01
4.056000000000000227e+01,6.316305627027604119e-01
4.060000000000000142e+01,5.302393808898783201e-01
4.064000000000000057e+01,4.441392264970367987e-01
4.067999999999999972e+01,3.597130492943176328e-01
4.071999999999999886e+01,2.931450436160811801e-01
4.075999999999999801e+01,2.610658643894109288e-01
4.079999999999999716e+01,2.222895197837266579e-01
4.084000000000000341e+01,1.780437742771591725e-01
4.088000000000000256e+01,1.659429306547856586e-01
4.092000000000000171e+01,1.481494515314505656e-01
4.096000000000000085e+01,1.374990767960896365e-01
4.100000000000000000e+01,1.149056139579246461e-01
4.103999999999999915e+01,1.096122296884715630e-01
4.107999999999999829e+01,1.088947949432587381e-01
4.111999999999999744e+01,1.003640261223571889e-01
4.115999999999999659e+01,9.272590263201227478e-02
4.120000000000000284e+01,9.423994328574621104e-02
4.124000000000000199e+01,9.061940696455593469e-02
4.128000000000000114e+01,8.242236725748727788e-02
4.132000000000000028e+01,7.534119456990355512e-02
4.135999999999999943e+01,7.808186830805023682e-02
4.139999999999999858e+01,6.887943242480953909e-02
4.143999999999999773e+01,7.307052340536868140e-02
4.147999999999999687e+01,6.476042471991970417e-02
4.152000000000000313e+01,6.180755792553503658e-02
4.156000000000000227e+01,6.376546027763310698e-02
4.160000000000000142e+01,6.058876628808197717e-02
4.164000000000000057e+01,5.964407358495730366e-02
4.167999999999999972e+01,5.122086212466957222e-02
4.171999999999999886e+01,5.072202020431329506e-02
4.175999999999999801e+01,4.754410659485245466e-02
4.179999999999999716e+01,5.206732792524480791e-02
4.184000000000000341e+01,4.743779466832846736e-02
4.188000000000000256e+01,3.253935319043698565e-02
4.192000000000000171e+01,3.940554886760666564e-02
4.196000000000000085e+01,3.845836528006248839e-02
4.200000000000000000e+01,3.550178798134863423e-02
4.203999999999999915e+01,3.154035115323415572e-02
4.207999999999999829e+01,3.472195846106033990e-02
4.211999999999999744e+01,2.573718711768748640e-02
4.215999999999999659e+01,3.449889468371634266e-02
4.220000000000000284e+01,3.377298285116904497e-02
4.224000000000000199e+01,2.802405539541998059e-02
4.228000000000000114e+01,2.986462190904321662e-02
4.232000000000000028e+01,3.349069253477790498e-02
4.235999999999999943e+01,2.751752000632225886e-02
4.239999999999999858e+01,2.187885035991076962e-02
4.243999999999999773e+01,2.762458111358603863e-02
4.247999999999999687e+01,2.901697422199441684e-02
4.252000000000000313e+01,3.331101216503074697e-02
4.256000000000000227e+01,3.358655360362595987e-02
4.260000000000000142e+01,2.604868134777391098e-02
4.264000000000000057e+01,2.297505954550626769e-02
4.267999999999999972e+01,2.682121930494264436e-02
4.271999999999999886e+01,2.419334069252655067e-02
4.275999999999999801e+01,2.625293637448149892e-02
4.279999999999999716e+01,2.485209838174939553e-02
4.284000000000000341e+01,2.501350623060873135e-02
4.288000000000000256e+01,2.952753647372161408e-02
4.292000000000000171e+01,2.700944184478622570e-02
4.296000000000000085e+01,2.929042589911102709e-02
4.300000000000000000e+01,2.074436573952313095e-02
4.303999999999999915e+01,2.235490707215795347e-02
4.307999999999999829e+01,2.496960559433008750e-02
4.311999999999999744e+01,2.300770174514031596e-02
4.315999999999999659e+01,1.992926296633565353e-02
4.320000000000000284e+01,1.517621136515365059e-02
4.324000000000000199e+01,2.337012920142317318e-02
4.328000000000000114e+01,1.883953024169770368e-02
4.332000000000000028e+01,2.301452078483598104e-02
4.335999999999999943e+01,1.245591756100794707e-02
4.339999999999999858e+01,2.042503257623887875e-02
4.343999999999999773e+01,2.482206433886857688e-02
4.347999999999999687e+01,1.761072002801985711e-02
4.352000000000000313e+01,1.943979990528562490e-02
4.356000000000000227e+01,2.461692926158583899e-02
4.360000000000000142e+01,2.532904557240489921e-02
4.364000000000000057e+01,1.867415283318327179e-02
4.367999999999999972e+01,1.860414241466478574e-02
4.371999999999999886e+01,1.819887297778042048e-02
4.375999999999999801e+01,2.493655729878665323e-02
4.379999999999999716e+01,1.984261803508610353e-02
4.384000000000000341e+01,1.910124952103899737e-02
4.388000000000000256e+01,1.835945882573509699e-02
4.392000000000000171e+01,1.772885894549698291e-02
4.396000000000000085e+01,2.055790217389068947e-02
4.400000000000000000e+01,2.070775320911302786e-02
4.403999999999999915e+01,1.829002504748642247e-02
4.407999999999999829e+01,1.453248216714158811e-02
4.411999999999999744e+01,2.126632812338678097e-02
4.415999999999999659e+01,1.661499172092346238e-02
4.420000000000000284e+01,2.256665499951437948e-02
4.424000000000000199e+01,3.063856454555900083e-02
4.428000000000000114e+01,2.219098846100246714e-02
4.432000000000000028e+01,2.066310571195816709e-02
4.435999999999999943e+01,1.946962040389951104e-02
4.439999999999999858e+01,1.883376068132978573e-02
4.443999999999999773e+01,1.585353053968940537e-02
4.447999999999999687e+01,1.465868830981030893e-02
4.452000000000000313e+01,2.049514380433255234e-02
4.456000000000000227e+01,2.175491946059275247e-02
4.460000000000000142e+01,2.357230994305023475e-02
4.464000000000000057e+01,1.846909817173186460e-02
4.467999999999999972e+01,1.258411514472426024e-02
4.471999999999999886e+01,1.562787660190020564e-02
4.475999999999999801e+01,1.755501705512782507e-02
4.479999999999999716e+01,2.416952205795126415e-02
4.484000000000000341e+01,1.995688386137851877e-02
4.488000000000000256e+01,2.020837561432331161e-02
4.492000000000000171e+01,2.213361646040688108e-02
4.496000000000000085e+01,2.896944354501453447e-02
4.500000000000000000e+01,1.839282508012441211e-02
4.503999999999999915e+01,3.013875166624932489e-02
4.507999999999999829e+01,1.498494080379028301e-02
4.511999999999999744e+01,2.527889483769247062e-02
4.515999999999999659e+01,2.530376419823589934e-02
4.520000000000000284e+01,2.276099195803864966e-02
4.524000000000000199e+01,1.809703655796562546e-02
4.528000000000000114e+01,1.823203503336920037e-02
4.532000000000000028e+01,2.037560652787064400e-02
4.535999999999999943e+01,2.318836711144174265e-02
4.539999999999999858e+01,1.762948762957793764e-02
4.543999999999999773e+01,1.329786867397126510e-02
4.547999999999999687e+01,1.666718668725075334e-02
4.552000000000000313e+01,1.657592469947632291e-02
4.556000000000000227e+01,1.994421974600033010e-02
4.560000000000000142e+01,1.583378515324429872e-02
4.564000000000000057e+01,1.819651229195209940e-02
4.567999999999999972e+01,2.055872041577804302e-02
4.571999999999999886e+01,2.492948004011837429e-02
4.575999999999999801e+01,2.349572864045765264e-02
4.579999999999999716e+01,2.328921840032895790e-02
4.584000000000000341e+01,2.274733509334253903e-02
4.588000000000000256e+01,1.695901004768411713e-02
4.592000000000000171e+01,2.210843759771388001e-02
4.596000000000000085e+01,2.368564632806719611e-02
4.600000000000000000e+01,2.090932804962001776e-02
4.603999999999999915e+01,9.761335276004550268e-03
4.607999999999999829e+01,2.406105575415025746e-02
4.611999999999999744e+01,3.121686406339998013e-02
4.615999999999999659e+01,3.145198834825706224e-02
4.620000000000000284e+01,2.420835071595903859e-02
4.624000000000000199e+01,3.080444231718383261e-02
4.628000000000000114e+01,2.668492840029308352e-02
4.632000000000000028e+01,2.803400329964716303e-02
4.635999999999999943e+01,2.201592282259360461e-02
4.639999999999999858e+01,2.648910852620493458e-02
4.643999999999999773e+01,2.404159514241525214e-02
4.647999999999999687e+01,2.371420752201246207e-02
4.652000000000000313e+01,2.483725262405329925e-02
4.656000000000000227e+01,2.127189514673445692e-02
4.660000000000000142e+01,3.266239901802156509e-02
4.664000000000000057e+01,2.597067822453417302e-02
4.667999999999999972e+01,3.155605091959642894e-02
4.671999999999999886e+01,3.133686094605746958e-02
4.675999999999999801e+01,2.799186970839860622e-02
4.679999999999999716e+01,2.699021731562156051e-02
4.684000000000000341e+01,2.676928954133656752e-02
4.688000000000000256e+01,2.386901464007993093e-02
4.692000000000000171e+01,2.420499331357666220e-02
4.696000000000000085e+01,2.710753252088349968e-02
4.700000000000000000e+01,2.855848477563265389e-02
4.703999999999999915e+01,2.811138733324257746e-02
4.707999999999999829e+01,3.201668633998071972e-02
4.711999999999999744e+01,2.643410126956727280e-02
4.715999999999999659e+01,2.219029934368327295e-02
4.720000000000000284e+01,2.654026304222351432e-02
4.724000000000000199e+01,2.430433006073847921e-02
4.728000000000000114e+01,2.787177969544057596e-02
4.732000000000000028e+01,2.362556171641172487e-02
4.735999999999999943e+01,2.730340986528888292e-02
4.739999999999999858e+01,2.941803439484416346e-02
4.743999999999999773e+01,2.829520593050702248e-02
4.747999999999999687e+01,3.018537061854490930e-02
4.752000000000000313e+01,2.783354167534627180e-02
4.756000000000000227e+01,3.295930750803872239e-02
4.760000000000000142e+01,2.982493007126856693e-02
4.764000000000000057e+01,2.680154332673882062e-02
4.767999999999999972e+01,2.467045115985686335e-02
4.771999999999999886e+01,3.436993594048452089e-02
4.775999999999999801e+01,3.313050528787658822e-02
4.779999999999999716e+01,2.742583564466220120e-02
4.784000000000000341e+01,2.964520630705378204e-02
4.788000000000000256e+01,3.387301226960963418e-02
4.792000000000000171e+01,2.280890341244468447e-02
4.796000000000000085e+01,2.971419174158428794e-02
4.800000000000000000e+01,2.623862746724240497e-02
4.803999999999999915e+01,2.778509888651355120e-02
4.807999999999999829e+01,2.263401328855348116e-02
4.811999999999999744e+01,2.250495908048977950e-02
4.815999999999999659e+01,2.326817362777383255e-02
4.820000000000000284e+01,2.905341526123756540e-02
4.824000000000000199e+01,2.713655493640940164e-02
4.828000000000000114e+01,2.678164780043888402e-02
4.832000000000000028e+01,2.620284933057459575e-02
4.835999999999999943e+01,2.562338767131983747e-02
4.839999999999999858e+01,2.894979085714489975e-02
4.843999999999999773e+01,2.356954499175901302e-02
4.847999999999999687e+01,2.209515966773627563e-02
4.852000000000000313e+01,2.363371154777181918e-02
4.856000000000000227e+01,2.907811966545378532e-02
4.860000000000000142e+01,2.603910042085312224e-02
4.864000000000000057e+01,2.846854518471372136e-02
4.867999999999999972e+01,2.542816728345708224e-02
4.871999999999999886e+01,3.008855205056135823e-02
4.875999999999999801e+01,2.191251006889776212e-02
4.879999999999999716e+01,2.947351712089726211e-02
4.884000000000000341e+01,2.442132341677388449e-02
4.888000000000000256e+01,2.818603525538623811e-02
4.892000000000000171e+01,3.228489922313386440e-02
4.896000000000000085e+01,2.231955905283292477e-02
4.900000000000000000e+01,2.518926330420220155e-02
4.903999999999999915e+01,2.102651344919772777e-02
4.907999999999999829e+01,1.943021007951153609e-02
4.911999999999999744e+01,2.475334182233719649e-02
4.915999999999999659e+01,2.248593726231002884e-02
4.920000000000000284e+01,2.122236065749467590e-02
4.924000000000000199e+01,2.587367637598880429e-02
4.928000000000000114e+01,2.561321289239472734e-02
4.932000000000000028e+01,2.356619220391700104e-02
4.935999999999999943e+01,2.263460601139858502e-02
4.939999999999999858e+01,2.371137334842765912e-02
4.943999999999999773e+01,2.400611335862543744e-02
4.947999999999999687e+01,2.474659052012259317e-02
4.952000000000000313e+01,1.968235438293500922e-02
4.956000000000000227e+01,3.013189609774048761e-02
4.960000000000000142e+01,3.399541417287882394e-02
4.964000000000000057e+01,3.160775190103413956e-02
4.967999999999999972e+01,3.803695213475846021e-02
4.971999999999999886e+01,3.877304345868718555e-02
4.975999999999999801e+01,4.419623250177796142e-02
4.979999999999999716e+01,5.475297770489577498e-02
4.984000000000000341e+01,5.548684705995272914e-02
4.988000000000000256e+01,6.046134708587344586e-02
4.992000000000000171e+01,6.688609692627922598e-02
4.996000000000000085e+01,5.478198290494531303e-02
5.000000000000000000e+01,6.544660769691595936e-02
5.003999999999999915e+01,5.490360076709060316e-02
5.007999999999999829e+01,5.105674700881540629e-02
5.011999999999999744e+01,5.055758982480743069e-02
5.015999999999999659e+01,3.744516087335140325e-02
5.020000000000000284e+01,3.917678445507018908e-02
5.024000000000000199e+01,3.599657719010072865e-02
5.028000000000000114e+01,3.683374878105007133e-02
5.032000000000000028e+01,3.722369114882715518e-02
5.035999999999999943e+01,2.946495691709727707e-02
5.039999999999999858e+01,3.074627675384795228e-02
5.043999999999999773e+01,2.711575498461868405e-02
5.047999999999999687e+01,3.286012842469579476e-02
5.052000000000000313e+01,2.699574706422723167e-02
5.056000000000000227e+01,2.347450227395684111e-02
5.060000000000000142e+01,2.296608279111121698e-02
5.064000000000000057e+01,2.547048646383200804e-02
5.067999999999999972e+01,2.228172958215706226e-02
5.071999999999999886e+01,2.322194303414008842e-02
5.075999999999999801e+01,2.873758526064595226e-02
5.079999999999999716e+01,2.543483632811819814e-02
5.084000000000000341e+01,3.039081175636364207e-02
5.088000000000000256e+01,3.132784309363394193e-02
5.092000000000000171e+01,3.170599778167614013e-02
5.096000000000000085e+01,2.840004951956900600e-02
5.100000000000000000e+01,2.319583852634727814e-02
5.103999999999999915e+01,2.703164717187276148e-02
5.107999999999999829e+01,2.707173126349308664e-02
5.111999999999999744e+01,2.856200061384833733e-02
5.115999999999999659e+01,2.893530466292137948e-02
5.120000000000000284e+01,2.551287770251423753e-02
5.124000000000000199e+01,2.454516587889438162e-02
5.128000000000000114e+01,2.145594596478995336e-02
5.132000000000000028e+01,2.696027003370109199e-02
5.135999999999999943e+01,2.375778796574274515e-02
5.139999999999999858e+01,2.267516698259586932e-02
5.143999999999999773e+01,2.337755948785968235e-02
5.147999999999999687e+01,2.385589066242113990e-02
5.152000000000000313e+01,2.868637942983542216e-02
5.156000000000000227e+01,2.101513626294071804e-02
5.160000000000000142e+01,2.115611597878752290e-02
5.164000000000000057e+01,1.995687427469042957e-02
5.167999999999999972e+01,2.545369966780997376e-02
5.171999999999999886e+01,2.335985103914320696e-02
5.175999999999999801e+01,2.416715016582855757e-02
5.179999999999999716e+01,2.117868600515874361e-02
5.184000000000000341e+01,2.377012885246403487e-02
5.188000000000000256e+01,2.569102825776031079e-02
5.192000000000000171e+01,2.270000643831820292e-02
5.196000000000000085e+01,2.473080943037208462e-02
5.200000000000000000e+01,2.140322630124764230e-02
5.203999999999999915e+01,2.443684545807234959e-02
5.207999999999999829e+01,2.624183467269228590e-02
5.211999999999999744e+01,2.514396457053687597e-02
5.215999999999999659e+01,1.545086044252603173e-02
5.220000000000000284e+01,2.194108303294296791e-02
5.224000000000000199e+01,1.838507036743719167e-02
5.228000000000000114e+01,2.096701678036894112e-02
5.232000000000000028e+01,2.187385974722259874e-02
5.235999999999999943e+01,1.931975474524677897e-02
5.239999999999999858e+01,2.033645395797467614e-02
5.243999999999999773e+01,1.722251000907148999e-02
5.247999999999999687e+01,2.538081119563174656e-02
5.252000000000000313e+01,1.802371980240086505e-02
5.256000000000000227e+01,2.048787231456613775e-02
5.260000000000000142e+01,2.016075483583679856e-02
5.264000000000000057e+01,2.139535599340644176e-02
5.267999999999999972e+01,1.961545256000315346e-02
5.271999999999999886e+01,2.531286631276549043e-02
5.275999999999999801e+01,2.576346820722190054e-02
5.279999999999999716e+01,2.409248024057696752e-02
5.284000000000000341e+01,2.007666996461064321e-02
5.288000000000000256e+01,2.152909560012188778e-02
5.292000000000000171e+01,2.320384303075393589e-02
5.296000000000000085e+01,1.784592547289527015e-02
5.300000000000000000e+01,2.800160070721273778e-02
5.303999999999999915e+01,2.264185538758072339e-02
5.307999999999999829e+01,2.531748362829336005e-02
5.311999999999999744e+01,2.419727757032567525e-02
5.315999999999999659e+01,2.508522276722184932e-02
5.320000000000000284e+01,2.630708984441127232e-02
5.324000000000000199e+01,2.775126150185477578e-02
5.328000000000000114e+01,3.019904162495977776e-02
5.332000000000000028e+01,2.092630116925471920e-02
5.335999999999999943e+01,2.683228869445829917e-02
5.339999999999999858e+01,2.213390281894330250e-02
5.343999999999999773e+01,1.866234709801809291e-02
5.347999999999999687e+01,2.601652212337464062e-02
5.352000000000000313e+01,2.042239918064042356e-02
5.356000000000000227e+01,1.851063319689897485e-02
5.360000000000000142e+01,1.883022509394130864e-02
5.364000000000000057e+01,2.149278786808990829e-02
5.367999999999999972e+01,2.292663462570027413e-02
5.371999999999999886e+01,1.788585125041562349e-02
5.375999999999999801e+01,1.976425337207577890e-02
5.379999999999999716e+01,1.985585728071857445e-02
5.384000000000000341e+01,2.519241515987724611e-02
5.388000000000000256e+01,2.193364648327198602e-02
5.392000000000000171e+01,2.034814273167974419e-02
5.396000000000000085e+01,1.876167453052991416e-02
5.400000000000000000e+01,1.985300328430377251e-02
5.403999999999999915e+01,2.094336328480333326e-02
5.407999999999999829e+01,2.147467663926621792e-02
5.411999999999999744e+01,2.446055019671615136e-02
5.415999999999999659e+01,2.331568806262654045e-02
5.420000000000000284e+01,2.094208193784032057e-02
5.424000000000000199e+01,2.057656896774288230e-02
5.428000000000000114e+01,2.389337422318811577e-02
5.432000000000000028e+01,2.107036251240574504e-02
5.435999999999999943e+01,2.137158898254531633e-02
5.439999999999999858e+01,2.100213644360066773e-02
5.443999999999999773e+01,2.319884204095718980e-02
5.447999999999999687e+01,2.338548254734302417e-02
5.452000000000000313e+01,2.178528610726147147e-02
5.456000000000000227e+01,1.795178997613089411e-02
5.460000000000000142e+01,1.858190089294205205e-02
5.464000000000000057e+01,1.530448059227528315e-02
5.467999999999999972e+01,1.861135085126907132e-02
5.471999999999999886e+01,1.879199162633400644e-02
5.475999999999999801e+01,1.740901284014317180e-02
5.479999999999999716e+01,2.428454538075012700e-02
5.484000000000000341e+01,1.765363320103716105e-02
5.488000000000000256e+01,2.475037030526543863e-02
5.492000000000000171e+01,2.135426738633917562e-02
5.496000000000000085e+01,1.996621888865158720e-02
5.500000000000000000e+01,1.947007117853621211e-02
5.503999999999999915e+01,2.477688862409067883e-02
5.507999999999999829e+01,2.070700892086542108e-02
5.511999999999999744e+01,2.065424769870024407e-02
5.515999999999999659e+01,2.160499380485473089e-02
5.520000000000000284e+01,2.333601479110893398e-02
5.524000000000000199e+01,2.182916317109502569e-02
5.528000000000000114e+01,2.300003964653803482e-02
5.532000000000000028e+01,2.495118454650573775e-02
5.535999999999999943e+01,2.567352305188504505e-02
5.539999999999999858e+01,2.505543786263681946e-02
5.543999999999999773e+01,2.119946930782885472e-02
5.547999999999999687e+01,2.258836649734491386e-02
5.552000000000000313e+01,2.710143946389114919e-02
5.556000000000000227e+01,2.502816816387806384e-02
5.560000000000000142e+01,2.462807141082786963e-02
5.564000000000000057e+01,2.511984101561645644e-02
5.567999999999999972e+01,2.505247790003490779e-02
5.571999999999999886e+01,2.330982843041666530e-02
5.575999999999999801e+01,2.435649638213610579e-02
5.579999999999999716e+01,2.283495249065567792e-02
5.584000000000000341e+01,2.477241260588118610e-02
5.588000000000000256e+01,2.894110794596526162e-02
5.592000000000000171e+01,2.763959113457320482e-02
5.596000000000000085e+01,2.912738098522714078e-02
5.600000000000000000e+01,2.659595130703888352e-02
5.603999999999999915e+01,2.562605735719097541e-02
5.607999999999999829e+01,2.934292113288797590e-02
5.611999999999999744e+01,3.283547396231556448e-02
5.615999999999999659e+01,3.253202895182921717e-02
5.620000000000000284e+01,3.033004146864456962e-02
5.624000000000000199e+01,3.091734558449752215e-02
5.628000000000000114e+01,3.474039974025307925e-02
5.632000000000000028e+01,3.487906259684219606e-02
5.635999999999999943e+01,3.267271378057635262e-02
5.639999999999999858e+01,3.917125080949815374e-02
5.643999999999999773e+01,3.919501137915807482e-02
5.647999999999999687e+01,4.334743241487543780e-02
5.652000000000000313e+01,4.225283931760320799e-02
5.656000000000000227e+01,4.383590545632114199e-02
5.660000000000000142e+01,4.608755601191616424e-02
5.664000000000000057e+01,4.677548586891359245e-02
5.667999999999999972e+01,4.456031109728526146e-02
5.671999999999999886e+01,4.892931714054236936e-02
5.675999999999999801e+01,4.470284169423532905e-02
5.679999999999999716e+01,4.706054275909705292e-02
5.684000000000000341e+01,4.294344584611350935e-02
5.688000000000000256e+01,3.971814858336034093e-02
5.692000000000000171e+01,4.050987296804210019e-02
5.696000000000000085e+01,3.717071103110073521e-02
5.700000000000000000e+01,3.807179673423928545e-02
5.703999999999999915e+01,4.120405525834466842e-02
5.707999999999999829e+01,4.221449367250666024e-02
5.711999999999999744e+01,3.541073726764518148e-02
5.715999999999999659e+01,3.374014108087686897e-02
5.720000000000000284e+01,3.430070910764199815e-02
5.724000000000000199e+01,2.927937882342503823e-02
5.728000000000000114e+01,2.704728418992900091e-02
5.732000000000000028e+01,3.005995631527351442e-02
5.735999999999999943e+01,3.429924771309080661e-02
5.739999999999999858e+01,2.625972330164361157e-02
5.743999999999999773e+01,3.563101034517106996e-02
5.747999999999999687e+01,2.825887134848468693e-02
5.752000000000000313e+01,3.048447913039904755e-02
5.756000000000000227e+01,2.936047435008098602e-02
5.760000000000000142e+01,3.203022433924450352e-02
5.764000000000000057e+01,3.146197261063975875e-02
5.767999999999999972e+01,3.212032293964107998e-02
5.771999999999999886e+01,3.902795484252695457e-02
5.775999999999999801e+01,3.209413949489185042e-02
5.779999999999999716e+01,3.699035882646551504e-02
5.784000000000000341e+01,3.161681134558771283e-02
5.788000000000000256e+01,3.260415197934191101e-02
5.792000000000000171e+01,3.169285761048930283e-02
5.796000000000000085e+01,3.468691379257404089e-02
5.800000000000000000e+01,4.415346678189661922e-02
5.803999999999999915e+01,4.703354208944300618e-02
5.807999999999999829e+01,4.198775578518507134e-02
5.811999999999999744e+01,4.743260516709939950e-02
5.815999999999999659e+01,5.276464900614997316e-02
5.820000000000000284e+01,4.514814310968441602e-02
5.824000000000000199e+01,4.947326337016670628e-02
5.828000000000000114e+01,4.966742629770080908e-02
5.832000000000000028e+01,5.521791733579788780e-02
5.835999999999999943e+01,5.507483466269858657e-02
5.839999999999999858e+01,5.325632146105410691e-02
5.843999999999999773e+01,5.299921487624977001e-02
5.847999999999999687e+01,5.988427016546812864e-02
5.852000000000000313e+01,5.493690998611181625e-02
5.856000000000000227e+01,5.657363163615746621e-02
5.860000000000000142e+01,6.524089355647000321e-02
5.864000000000000057e+01,5.571367010632621158e-02
5.867999999999999972e+01,5.210083114092446677e-02
5.871999999999999886e+01,4.937969284026962752e-02
5.875999999999999801e+01,5.915822846330835022e-02
5.879999999999999716e+01,4.850996714484110545e-02
5.884000000000000341e+01,4.611999981547972027e-02
5.888000000000000256e+01,4.417526395070861533e-02
5.892000000000000171e+01,4.970751173406092599e-02
5.896000000000000085e+01,4.318409008203526883e-02
5.900000000000000000e+01,3.978465699536447991e-02
5.903999999999999915e+01,4.296927991579559125e-02
5.907999999999999829e+01,3.621891476070924348e-02
5.911999999999999744e+01,3.672229219809305251e-02
5.915999999999999659e+01,2.974621051622070370e-02
5.920000000000000284e+01,3.125163375309077812e-02
5.924000000000000199e+01,2.639374504879623412e-02
5.928000000000000114e+01,2.789666914409192483e-02
5.932000000000000028e+01,2.828218895900473998e-02
5.935999999999999943e+01,2.621092056350651442e-02
5.939999999999999858e+01,2.715200406659899410e-02
5.943999999999999773e+01,2.206461031377758911e-02
5.947999999999999687e+01,2.467740037942457373e-02
5.952000000000000313e+01,2.159655432998345073e-02
5.956000000000000227e+01,2.096997583079560773e-02
5.960000000000000142e+01,2.592288687906558683e-02
5.964000000000000057e+01,2.228016150397120823e-02
5.967999999999999972e+01,1.662709129632238339e-02
5.971999999999999886e+01,1.766965566236451332e-02
5.975999999999999801e+01,1.391149218761511368e-02
5.979999999999999716e+01,1.908126194645634599e-02
5.984000000000000341e+01,1.465084818901420810e-02
5.988000000000000256e+01,1.323276050786270988e-02
5.992000000000000171e+01,1.962644812291870419e-02
5.996000000000000085e+01,1.641994576611630410e-02
