2.003999999999999915e+01,3.913413260675981109e-02
2.007999999999999829e+01,4.025957625256513378e-02
2.012000000000000099e+01,3.783618077744183711e-02
2.016000000000000014e+01,2.432354568592579730e-02
2.019999999999999929e+01,3.564946116235147289e-02
2.023999999999999844e+01,3.499903094730268810e-02
2.028000000000000114e+01,3.612239691909310824e-02
2.032000000000000028e+01,1.876397355346934304e-02
2.035999999999999943e+01,1.796444510252566060e-02
2.039999999999999858e+01,4.111636093018277566e-02
2.044000000000000128e+01,3.647187491763652367e-02
2.048000000000000043e+01,3.330548275741567615e-02
2.051999999999999957e+01,3.117363141197974918e-02
2.055999999999999872e+01,2.209236741974089993e-02
2.060000000000000142e+01,1.715051486228996031e-02
2.064000000000000057e+01,2.462772903578827610e-02
2.067999999999999972e+01,2.323346749503514899e-02
2.071999999999999886e+01,4.342503384221350210e-02
2.076000000000000156e+01,2.147865187326787953e-02
2.080000000000000071e+01,3.605104750880167713e-02
2.083999999999999986e+01,2.888893112691137341e-02
2.087999999999999901e+01,3.725075181029330329e-02
2.092000000000000171e+01,2.476516626565193266e-02
2.096000000000000085e+01,2.366368995965204697e-02
2.100000000000000000e+01,2.108328680338110092e-02
2.103999999999999915e+01,2.264229429627793999e-02
2.107999999999999829e+01,2.745360643468164677e-02
2.112000000000000099e+01,2.294988910709319999e-02
2.116000000000000014e+01,1.474947981295144511e-02
2.119999999999999929e+01,8.175014074281564819e-03
2.123999999999999844e+01,2.880471286594191854e-02
2.128000000000000114e+01,2.873485577550561124e-02
2.132000000000000028e+01,2.600326335378361567e-02
2.135999999999999943e+01,2.474976321314662983e-02
2.139999999999999858e+01,2.896633197725848735e-02
2.144000000000000128e+01,2.978191025229056516e-02
2.148000000000000043e+01,2.290881929432540473e-02
2.151999999999999957e+01,2.061869109460820124e-02
2.155999999999999872e+01,3.666166753145235629e-02
2.160000000000000142e+01,3.289219344708067816e-02
2.164000000000000057e+01,2.986155620031990740e-02
2.167999999999999972e+01,1.160184893941422837e-02
2.171999999999999886e+01,2.202481523886672121e-02
2.176000000000000156e+01,1.751441335874805508e-02
2.180000000000000071e+01,2.867579788994807644e-02
2.183999999999999986e+01,2.194679432460068177e-02
2.187999999999999901e+01,2.793255725359571409e-02
2.192000000000000171e+01,3.155228575741845370e-02
2.196000000000000085e+01,2.792689713732412690e-02
2.200000000000000000e+01,2.326613284757882150e-02
2.203999999999999915e+01,3.545996245028658345e-02
2.207999999999999829e+01,1.660466553302064954e-02
2.212000000000000099e+01,3.101542211182387390e-02
2.216000000000000014e+01,1.659481685841541349e-02
2.219999999999999929e+01,2.124657004238213881e-02
2.223999999999999844e+01,2.057526845568040386e-02
2.228000000000000114e+01,3.468864649101617570e-02
2.232000000000000028e+01,3.519931424526182712e-02
2.235999999999999943e+01,1.855884791803407569e-02
2.239999999999999858e+01,2.734833218547418413e-02
2.244000000000000128e+01,1.676891739799859712e-02
2.248000000000000043e+01,1.550369529330850385e-02
2.251999999999999957e+01,2.473547370963856754e-02
2.255999999999999872e+01,2.967915370488746415e-02
2.260000000000000142e+01,1.924591105462444829e-02
2.264000000000000057e+01,2.596296320292795778e-02
2.267999999999999972e+01,3.977644284631475652e-02
2.271999999999999886e+01,2.815913239786643069e-02
2.276000000000000156e+01,3.221360664665643553e-02
2.280000000000000071e+01,2.148256184766174706e-02
2.283999999999999986e+01,2.243132490798137660e-02
2.287999999999999901e+01,2.456247555801181759e-02
2.292000000000000171e+01,2.358833505383555254e-02
2.296000000000000085e+01,2.039600925627339453e-02
2.300000000000000000e+01,2.622217323562297739e-02
2.303999999999999915e+01,4.017972098822344268e-02
2.307999999999999829e+01,2.648871317560645006e-02
2.312000000000000099e+01,2.536461865460467105e-02
2.316000000000000014e+01,2.364869935889178654e-02
2.319999999999999929e+01,3.435184222324729614e-02
2.323999999999999844e+01,2.405972372851174906e-02
2.328000000000000114e+01,2.189898857850705247e-02
2.332000000000000028e+01,3.053095449853562501e-02
2.335999999999999943e+01,3.236135376106709372e-02
2.339999999999999858e+01,2.221540168994291103e-02
2.344000000000000128e+01,1.546960103925154595e-02
2.348000000000000043e+01,3.578010993066263468e-02
2.351999999999999957e+01,2.075381105848202179e-02
2.355999999999999872e+01,2.805258994694580579e-02
2.360000000000000142e+01,2.988046064775373364e-02
2.364000000000000057e+01,3.614343933284202420e-02
2.367999999999999972e+01,1.904554005391015381e-02
2.371999999999999886e+01,2.057644353227241693e-02
2.376000000000000156e+01,2.816881565642992760e-02
2.380000000000000071e+01,1.816649816187294528e-02
2.383999999999999986e+01,2.487092035716151686e-02
2.387999999999999901e+01,2.891360265028340357e-02
2.392000000000000171e+01,3.177305485688673714e-02
2.396000000000000085e+01,2.132549583159302001e-02
2.400000000000000000e+01,3.320301378132357178e-02
2.403999999999999915e+01,3.887036781424396681e-02
2.407999999999999829e+01,3.034360446876635878e-02
2.412000000000000099e+01,1.043189245890021634e-02
2.416000000000000014e+01,1.875929668665072408e-02
2.419999999999999929e+01,1.644100705070657489e-02
2.423999999999999844e+01,2.417616189860157666e-02
2.428000000000000114e+01,2.407479152539124603e-02
2.432000000000000028e+01,2.515580617077116388e-02
2.435999999999999943e+01,2.653209983108041625e-02
2.439999999999999858e+01,1.859335816895640175e-02
2.444000000000000128e+01,2.765705710279126386e-02
2.448000000000000043e+01,2.356159486497570385e-02
2.451999999999999957e+01,2.271843113054562713e-02
2.455999999999999872e+01,2.350120495230627327e-02
2.460000000000000142e+01,2.384000241694204242e-02
2.464000000000000057e+01,2.935316102389183557e-02
2.467999999999999972e+01,1.934154228278207530e-02
2.471999999999999886e+01,2.914153242312069250e-02
2.476000000000000156e+01,2.016402332100984338e-02
2.480000000000000071e+01,2.109210671415090443e-02
2.483999999999999986e+01,2.290687222000839518e-02
2.487999999999999901e+01,1.865932329794215902e-02
2.492000000000000171e+01,1.588986030057962587e-02
2.496000000000000085e+01,2.731366818528644519e-02
2.500000000000000000e+01,2.676112187953703578e-02
2.503999999999999915e+01,2.384253557785429023e-02
2.507999999999999829e+01,2.062782305071318018e-02
2.512000000000000099e+01,1.120294467842157179e-02
2.516000000000000014e+01,3.504411437427791542e-02
2.519999999999999929e+01,3.419374449379222053e-02
2.523999999999999844e+01,1.722719231053954081e-02
2.528000000000000114e+01,3.204817809410655249e-02
2.532000000000000028e+01,2.454323990638050679e-02
2.535999999999999943e+01,3.152727386393736064e-02
2.539999999999999858e+01,2.875271774743999240e-02
2.544000000000000128e+01,4.091068659950587022e-02
2.548000000000000043e+01,3.340404899132119049e-02
2.551999999999999957e+01,1.717377801577000401e-02
2.555999999999999872e+01,2.164222035408772116e-02
2.560000000000000142e+01,1.723917819349183450e-02
2.564000000000000057e+01,2.895146855401372829e-02
2.567999999999999972e+01,1.878138726658285657e-02
2.571999999999999886e+01,3.093637988311563267e-02
2.576000000000000156e+01,1.973049082178747124e-02
2.580000000000000071e+01,1.946514939115854062e-02
2.583999999999999986e+01,1.565095862654136347e-02
2.587999999999999901e+01,1.331485207254740587e-02
2.592000000000000171e+01,2.384135578818115733e-02
2.596000000000000085e+01,2.401786447505332989e-02
2.600000000000000000e+01,1.754065277941403711e-02
2.603999999999999915e+01,1.446358786190654958e-02
2.607999999999999829e+01,1.478666965111085155e-02
2.612000000000000099e+01,2.205832180457026337e-02
2.616000000000000014e+01,2.459831614302680075e-02
2.619999999999999929e+01,1.590120909196068508e-02
2.623999999999999844e+01,1.607473504407842119e-02
2.628000000000000114e+01,3.014582754399126874e-02
2.632000000000000028e+01,1.390704089694291823e-02
2.635999999999999943e+01,2.472455864975589210e-02
2.639999999999999858e+01,1.617317027707162666e-02
2.644000000000000128e+01,2.078009322296849731e-02
2.648000000000000043e+01,2.169031470344998103e-02
2.651999999999999957e+01,2.378291727442094494e-02
2.655999999999999872e+01,2.691004987575443957e-02
2.660000000000000142e+01,2.116569619267415561e-02
2.664000000000000057e+01,1.261174669073944141e-02
2.667999999999999972e+01,2.150378675136313533e-02
2.671999999999999886e+01,2.451562770134434101e-03
2.676000000000000156e+01,1.503902312447824054e-02
2.680000000000000071e+01,2.289482452109875554e-02
2.683999999999999986e+01,1.759146053228794609e-02
2.687999999999999901e+01,2.263723829100864476e-02
2.692000000000000171e+01,2.369061182128024204e-02
2.696000000000000085e+01,1.424613754858302349e-02
2.700000000000000000e+01,1.426369887691649775e-02
2.703999999999999915e+01,2.196908387037871391e-02
2.707999999999999829e+01,2.006372677885303116e-02
2.712000000000000099e+01,1.253960422600315129e-02
2.716000000000000014e+01,2.453138422056705056e-02
2.719999999999999929e+01,2.144193533373086810e-02
2.723999999999999844e+01,2.293543899208045495e-02
2.728000000000000114e+01,2.088009074532129472e-02
2.732000000000000028e+01,1.350167865755137059e-02
2.735999999999999943e+01,6.566391216916583201e-03
2.739999999999999858e+01,3.674127355128595229e-02
2.744000000000000128e+01,2.137762290213206240e-02
2.748000000000000043e+01,8.379159539041718119e-03
2.751999999999999957e+01,1.977568070790975199e-02
2.755999999999999872e+01,1.165544269139323977e-02
2.760000000000000142e+01,2.526887126727243513e-02
2.764000000000000057e+01,1.980909348104743783e-02
2.767999999999999972e+01,2.928183666386489567e-02
2.771999999999999886e+01,1.554154565794747637e-02
2.776000000000000156e+01,2.176070909426402675e-02
2.780000000000000071e+01,2.797944342597500147e-02
2.783999999999999986e+01,2.029975564322010137e-02
2.787999999999999901e+01,1.912508211611921652e-02
2.792000000000000171e+01,1.040957884610545225e-02
2.796000000000000085e+01,9.973301553387501142e-03
2.800000000000000000e+01,1.574633632464989344e-02
2.803999999999999915e+01,1.870977277735713998e-02
2.807999999999999829e+01,2.448194841094828572e-02
2.812000000000000099e+01,1.354653264470403497e-02
2.816000000000000014e+01,2.671039829028422352e-02
2.819999999999999929e+01,2.405377832542988578e-02
2.823999999999999844e+01,1.962251660586811219e-02
2.828000000000000114e+01,1.933065260845132777e-02
2.832000000000000028e+01,2.776156691167055296e-02
2.835999999999999943e+01,1.120523401895301766e-02
2.839999999999999858e+01,1.653041727893763205e-02
2.844000000000000128e+01,1.461047184496272293e-02
2.848000000000000043e+01,1.875198662922121853e-02
2.851999999999999957e+01,1.727473345245502875e-02
2.855999999999999872e+01,1.550134783668940738e-02
2.860000000000000142e+01,1.683240245076094571e-02
2.864000000000000057e+01,1.520600668627031422e-02
2.867999999999999972e+01,5.890928833179574949e-03
2.871999999999999886e+01,2.230149226780806654e-02
2.876000000000000156e+01,1.283770186005868744e-02
2.880000000000000071e+01,1.934138734253893280e-02
2.883999999999999986e+01,1.859994341685951638e-02
2.887999999999999901e+01,1.223973088737522613e-02
2.892000000000000171e+01,1.711576239524261606e-02
2.896000000000000085e+01,1.933004493060138523e-02
2.900000000000000000e+01,2.627512785737204370e-02
2.903999999999999915e+01,3.307192847680985592e-02
2.907999999999999829e+01,2.848377157577718088e-02
2.912000000000000099e+01,2.788715990836230715e-02
2.916000000000000014e+01,3.113424241443837892e-02
2.919999999999999929e+01,2.417917509543844254e-02
2.923999999999999844e+01,1.278814643950802570e-02
2.928000000000000114e+01,1.115485129108102248e-02
2.932000000000000028e+01,2.489762714959616735e-02
2.935999999999999943e+01,2.681189202158029347e-02
2.939999999999999858e+01,4.262371787059842515e-02
2.944000000000000128e+01,3.359614558404614565e-02
2.948000000000000043e+01,2.161112141911142662e-02
2.951999999999999957e+01,1.953168132186680964e-02
2.955999999999999872e+01,1.419908722598613171e-02
2.960000000000000142e+01,1.655431222435333263e-02
2.964000000000000057e+01,2.275323053917130758e-02
2.967999999999999972e+01,2.215057091212973076e-02
2.971999999999999886e+01,1.740765106853108674e-02
2.976000000000000156e+01,2.242246387539567620e-02
2.980000000000000071e+01,2.477552620993134225e-02
2.983999999999999986e+01,1.293446088158679667e-02
2.987999999999999901e+01,1.883508137961323325e-02
2.992000000000000171e+01,1.660346460889860001e-02
2.996000000000000085e+01,2.132041134611771180e-02
3.000000000000000000e+01,1.465239892020593800e-02
3.003999999999999915e+01,0.000000000000000000e+00
3.007999999999999829e+01,2.881535858405000206e-02
3.012000000000000099e+01,1.637985807193327245e-02
3.016000000000000014e+01,2.671297650227898168e-02
3.019999999999999929e+01,1.885998993188040332e-02
3.023999999999999844e+01,2.475671184998876062e-02
3.028000000000000114e+01,2.030343102597383792e-02
3.032000000000000028e+01,1.215344188022206978e-02
3.035999999999999943e+01,1.671820408776952468e-02
3.039999999999999858e+01,1.847336376298103211e-02
3.044000000000000128e+01,1.712321885702288229e-02
3.048000000000000043e+01,2.804427212398342278e-02
3.051999999999999957e+01,2.624970640099159522e-02
3.055999999999999872e+01,1.484439237947047033e-02
3.060000000000000142e+01,1.585812730531480780e-02
3.064000000000000057e+01,1.701927904443924569e-02
3.067999999999999972e+01,5.908364474051763272e-03
3.071999999999999886e+01,1.963598168814179729e-02
3.076000000000000156e+01,3.498952538832002940e-02
3.080000000000000071e+01,2.372945666016561261e-02
3.083999999999999986e+01,1.749588701551599984e-02
3.087999999999999901e+01,1.924583615708739398e-02
3.092000000000000171e+01,7.688761639679065479e-03
3.096000000000000085e+01,2.082236748952141780e-02
3.100000000000000000e+01,1.902258866176897642e-02
3.103999999999999915e+01,1.219544132835821866e-02
3.107999999999999829e+01,1.808304406268633480e-02
3.112000000000000099e+01,1.997823506946373034e-02
3.116000000000000014e+01,1.965522614175208710e-02
3.119999999999999929e+01,3.160341410139891338e-02
3.123999999999999844e+01,1.826864774545408979e-02
3.128000000000000114e+01,2.282341570488652729e-02
3.132000000000000028e+01,3.639665858586754038e-02
3.135999999999999943e+01,2.187777815156751599e-02
3.139999999999999858e+01,1.948224325881901461e-02
3.144000000000000128e+01,2.477452417499772033e-02
3.148000000000000043e+01,2.060390613869354445e-02
3.151999999999999957e+01,3.092224924898985192e-02
3.155999999999999872e+01,2.379373987379544003e-02
3.160000000000000142e+01,2.583155590891627468e-02
3.164000000000000057e+01,3.555718739586425509e-02
3.167999999999999972e+01,2.606175431857970376e-02
3.171999999999999886e+01,3.282949389527734657e-02
3.176000000000000156e+01,2.155897667455690045e-02
3.180000000000000071e+01,2.078544340541293306e-02
3.183999999999999986e+01,3.952780432754091772e-02
3.187999999999999901e+01,2.736887222049827831e-02
3.192000000000000171e+01,2.467196692982433215e-02
3.196000000000000085e+01,2.079181719720878466e-02
3.200000000000000000e+01,2.267741942045166728e-02
3.203999999999999915e+01,3.432075022321687957e-02
3.207999999999999829e+01,2.792582365720390133e-02
3.211999999999999744e+01,3.158432750528690491e-02
3.215999999999999659e+01,2.341431536743771719e-02
3.220000000000000284e+01,1.672237615584939649e-02
3.224000000000000199e+01,2.304088691823316312e-02
3.228000000000000114e+01,2.122715619809508250e-02
3.232000000000000028e+01,1.763877643840789863e-02
3.235999999999999943e+01,1.848548909343773750e-02
3.239999999999999858e+01,1.859250948702620074e-02
3.243999999999999773e+01,2.372602610731889064e-02
3.247999999999999687e+01,1.717887715902611384e-02
3.252000000000000313e+01,1.388401243011582603e-02
3.256000000000000227e+01,2.685231885536732907e-02
3.260000000000000142e+01,2.414798280268945843e-02
3.264000000000000057e+01,1.464206352307083521e-02
3.267999999999999972e+01,1.045834201904998796e-02
3.271999999999999886e+01,1.588449689170440965e-02
3.275999999999999801e+01,2.071880984884408999e-02
3.279999999999999716e+01,1.209824480155646288e-02
3.284000000000000341e+01,1.486176778116578279e-02
3.288000000000000256e+01,2.516525300987494315e-02
3.292000000000000171e+01,1.595196948291750100e-02
3.296000000000000085e+01,1.339154212997905984e-02
3.300000000000000000e+01,2.546792426980727664e-02
3.303999999999999915e+01,2.556793786375625641e-02
3.307999999999999829e+01,1.472653976135357423e-02
3.311999999999999744e+01,2.236607664383468558e-02
3.315999999999999659e+01,2.113411552901949333e-02
3.320000000000000284e+01,1.797965281470815038e-02
3.324000000000000199e+01,1.038922162146480033e-02
3.328000000000000114e+01,2.039261919518424102e-02
3.332000000000000028e+01,2.448153826006362749e-02
3.335999999999999943e+01,2.472589258657816730e-02
3.339999999999999858e+01,8.558348063228976219e-03
3.343999999999999773e+01,2.639609176761859369e-02
3.347999999999999687e+01,2.427351275034097394e-02
3.352000000000000313e+01,1.741926277677763660e-02
3.356000000000000227e+01,2.475826832998032773e-02
3.360000000000000142e+01,3.561593602260681481e-03
3.364000000000000057e+01,2.760688188689747191e-02
3.367999999999999972e+01,2.577780754449445974e-02
3.371999999999999886e+01,2.838382318852796654e-02
3.375999999999999801e+01,2.344899866232621685e-02
3.379999999999999716e+01,1.895728728463703591e-02
3.384000000000000341e+01,2.304049336291499883e-02
3.388000000000000256e+01,2.416623970660881915e-02
3.392000000000000171e+01,1.568123175249205858e-02
3.396000000000000085e+01,1.148346236758481659e-02
3.400000000000000000e+01,2.694943430597553785e-02
3.403999999999999915e+01,1.861095681644168651e-02
3.407999999999999829e+01,2.091731019625026403e-02
3.411999999999999744e+01,1.804843858235244056e-02
3.415999999999999659e+01,1.754474232737558703e-02
3.420000000000000284e+01,1.984977432602013508e-02
3.424000000000000199e+01,1.919734594730037811e-02
3.428000000000000114e+01,2.519777138573911501e-02
3.432000000000000028e+01,1.685621017354906742e-02
3.435999999999999943e+01,2.536922085644736230e-02
3.439999999999999858e+01,3.195972779724904483e-02
3.443999999999999773e+01,1.888561227971676318e-02
3.447999999999999687e+01,2.163111152206510443e-02
3.452000000000000313e+01,2.201055384193630060e-02
3.456000000000000227e+01,2.889499849031903350e-02
3.460000000000000142e+01,2.498587971709633274e-02
3.464000000000000057e+01,1.397947216851853913e-02
3.467999999999999972e+01,2.751588735642316111e-02
3.471999999999999886e+01,1.916991475545153784e-02
3.475999999999999801e+01,2.176447378709566935e-02
3.479999999999999716e+01,1.903595562218636864e-02
3.484000000000000341e+01,2.665656499222554543e-02
3.488000000000000256e+01,1.402114716348331139e-02
3.492000000000000171e+01,1.779674726382882155e-02
3.496000000000000085e+01,1.595356790452718068e-02
3.500000000000000000e+01,1.588415844949895780e-02
3.503999999999999915e+01,2.586817419490549871e-02
3.507999999999999829e+01,2.594573159390732228e-02
3.511999999999999744e+01,2.557929385232039776e-02
3.515999999999999659e+01,2.166399013588155703e-02
3.520000000000000284e+01,2.514079353747490295e-02
3.524000000000000199e+01,1.664122446508807529e-02
3.528000000000000114e+01,2.129995092745898960e-02
3.532000000000000028e+01,2.640178782438186433e-02
3.535999999999999943e+01,1.671808324763525075e-02
3.539999999999999858e+01,2.507175661871101011e-02
3.543999999999999773e+01,2.233616309094747093e-02
3.547999999999999687e+01,2.019153070076262074e-02
3.552000000000000313e+01,2.381264398147488193e-02
3.556000000000000227e+01,3.083388704235528674e-02
3.560000000000000142e+01,2.750511786225030147e-02
3.564000000000000057e+01,2.964639216136878003e-02
3.567999999999999972e+01,3.178722328613864390e-02
3.571999999999999886e+01,2.904852853781512978e-02
3.575999999999999801e+01,2.970996321255967368e-02
3.579999999999999716e+01,2.889244461162743596e-02
3.584000000000000341e+01,2.970084342644142492e-02
3.588000000000000256e+01,3.494432837101114214e-02
3.592000000000000171e+01,3.235126731125113897e-02
3.596000000000000085e+01,4.291650057210864150e-02
3.600000000000000000e+01,3.130364178123574287e-02
3.603999999999999915e+01,3.610179891969016175e-02
3.607999999999999829e+01,3.942100228252772010e-02
3.611999999999999744e+01,3.845208301289895769e-02
3.615999999999999659e+01,3.984833553119041666e-02
3.620000000000000284e+01,5.233296809968388669e-02
3.624000000000000199e+01,2.918506821560709272e-02
3.628000000000000114e+01,3.590262380465734232e-02
3.632000000000000028e+01,3.995841727991609332e-02
3.635999999999999943e+01,4.268310746832471719e-02
3.639999999999999858e+01,4.318958836622232428e-02
3.643999999999999773e+01,3.600737332003680485e-02
3.647999999999999687e+01,3.074677652429097519e-02
3.652000000000000313e+01,3.154762559135547428e-02
3.656000000000000227e+01,4.018413231429201343e-02
3.660000000000000142e+01,2.812105580126607329e-02
3.664000000000000057e+01,4.385352027669162794e-02
3.667999999999999972e+01,3.726004049753972591e-02
3.671999999999999886e+01,3.776296314504578450e-02
3.675999999999999801e+01,3.856114266727641432e-02
3.679999999999999716e+01,3.344483746712562100e-02
3.684000000000000341e+01,3.764269930997485997e-02
3.688000000000000256e+01,4.657134747449301337e-02
3.692000000000000171e+01,4.012304742513370798e-02
3.696000000000000085e+01,4.224965926098037811e-02
3.700000000000000000e+01,3.890533898346592440e-02
3.703999999999999915e+01,2.521100389384560436e-02
3.707999999999999829e+01,3.472882835714546229e-02
3.711999999999999744e+01,3.448804182032666477e-02
3.715999999999999659e+01,4.607488856316355880e-02
3.720000000000000284e+01,4.775527317433494318e-02
3.724000000000000199e+01,3.583292086475053234e-02
3.728000000000000114e+01,4.342645303331591627e-02
3.732000000000000028e+01,5.663787667017095018e-02
3.735999999999999943e+01,5.166318252209897016e-02
3.739999999999999858e+01,5.777686628162854304e-02
3.743999999999999773e+01,5.679325626640192165e-02
3.747999999999999687e+01,6.320174929826659349e-02
3.752000000000000313e+01,6.443501126572355464e-02
3.756000000000000227e+01,6.625923065691842473e-02
3.760000000000000142e+01,7.251853310680830833e-02
3.764000000000000057e+01,7.922094184888929524e-02
3.767999999999999972e+01,8.961917856329118526e-02
3.771999999999999886e+01,1.082966238285050786e-01
3.775999999999999801e+01,1.346618736182837728e-01
3.779999999999999716e+01,1.394404320972586764e-01
3.784000000000000341e+01,1.637348740545031545e-01
3.788000000000000256e+01,2.131635369894560872e-01
3.792000000000000171e+01,2.664358784569166860e-01
3.796000000000000085e+01,3.418854209851093784e-01
3.800000000000000000e+01,4.758835077244898404e-01
3.803999999999999915e+01,6.656209698182083967e-01
3.807999999999999829e+01,8.664468086053885854e-01
3.811999999999999744e+01,1.000000000000000000e+00
3.815999999999999659e+01,9.756478878533478838e-01
3.820000000000000284e+01,8.757434728037053473e-01
3.824000000000000199e+01,7.150718536503343215e-01
3.828000000000000114e+01,5.199505063116264258e-01
3.832000000000000028e+01,4.045203939978202490e-01
3.835999999999999943e+01,3.059448464371009035e-01
3.839999999999999858e+01,2.493585316382061490e-01
3.843999999999999773e+01,1.805001366743164692e-01
3.847999999999999687e+01,1.591014609115634915e-01
3.852000000000000313e+01,1.351888700956249967e-01
3.856000000000000227e+01,1.160070626017147832e-01
3.860000000000000142e+01,1.003732304487583438e-01
3.864000000000000057e+01,9.390571113619439192e-02
3.867999999999999972e+01,8.655063736053984769e-02
3.871999999999999886e+01,7.845586003908150419e-02
3.875999999999999801e+01,6.415089251824729333e-02
3.879999999999999716e+01,5.546381382316212250e-02
3.884000000000000341e+01,5.476023970171494532e-02
3.888000000000000256e+01,5.716108745516096379e-02
3.892000000000000171e+01,6.340561195561422725e-02
3.896000000000000085e+01,4.688063516442871753e-02
3.900000000000000000e+01,4.750592396102345377e-02
3.903999999999999915e+01,4.739150864045423017e-02
3.907999999999999829e+01,4.816375000707595611e-02
3.911999999999999744e+01,4.967479700076183474e-02
3.915999999999999659e+01,4.142722935190825545e-02
3.920000000000000284e+01,4.530299331770323151e-02
3.924000000000000199e+01,3.971584447553233588e-02
3.928000000000000114e+01,3.782452074888177640e-02
3.932000000000000028e+01,3.253217460840452518e-02
3.935999999999999943e+01,4.394654044680691707e-02
3.939999999999999858e+01,3.155644728700274237e-02
3.943999999999999773e+01,3.705587387289260154e-02
3.947999999999999687e+01,2.614339075307641272e-02
3.952000000000000313e+01,3.164191734904620718e-02
3.956000000000000227e+01,2.826893452051721170e-02
3.960000000000000142e+01,3.908919643433197977e-02
3.964000000000000057e+01,2.152161827150891535e-02
3.967999999999999972e+01,2.879255589508001104e-02
3.971999999999999886e+01,3.059255654872888863e-02
3.975999999999999801e+01,2.529525928526071832e-02
3.979999999999999716e+01,2.487659411850710184e-02
3.984000000000000341e+01,2.652739219161866571e-02
3.988000000000000256e+01,2.418576289619614461e-02
3.992000000000000171e+01,1.918236505918077470e-02
3.996000000000000085e+01,2.319742671699063716e-02
4.000000000000000000e+01,2.233295485976546230e-02
4.003999999999999915e+01,2.353794588530540993e-02
4.007999999999999829e+01,3.450065113494461128e-02
4.011999999999999744e+01,3.156491234417322517e-02
4.015999999999999659e+01,2.848087139130475731e-02
4.020000000000000284e+01,2.524852820491912259e-02
4.024000000000000199e+01,2.881687918281647734e-02
4.028000000000000114e+01,2.055669967651853336e-02
4.032000000000000028e+01,3.166454823174248007e-02
4.035999999999999943e+01,2.133355189398847968e-02
4.039999999999999858e+01,2.741356370078004007e-02
4.043999999999999773e+01,2.639627637631425730e-02
4.047999999999999687e+01,2.301292148778906477e-02
4.052000000000000313e+01,2.702166421843398697e-02
4.056000000000000227e+01,2.334170364873426259e-02
4.060000000000000142e+01,3.134151922786212324e-02
4.064000000000000057e+01,3.475750212664831945e-02
4.067999999999999972e+01,3.565956611556819755e-02
4.071999999999999886e+01,2.074112213958882733e-02
4.075999999999999801e+01,2.533855642821794887e-02
4.079999999999999716e+01,3.318826015228631271e-02
4.084000000000000341e+01,2.506960470848854441e-02
4.088000000000000256e+01,1.857685768151508265e-02
4.092000000000000171e+01,2.893867083674743837e-02
4.096000000000000085e+01,3.264673689838276660e-02
4.100000000000000000e+01,3.620649929810057510e-02
4.103999999999999915e+01,1.566609779397754032e-02
4.107999999999999829e+01,2.085131550878895415e-02
4.111999999999999744e+01,2.056559375397769285e-02
4.115999999999999659e+01,2.323643881441196310e-02
4.120000000000000284e+01,2.797674468643084403e-02
4.124000000000000199e+01,2.709825988586020418e-02
4.128000000000000114e+01,2.267089818317531355e-02
4.132000000000000028e+01,1.883448719074693606e-02
4.135999999999999943e+01,2.741710593369991317e-02
4.139999999999999858e+01,2.446689417011082071e-02
4.143999999999999773e+01,2.787382146208383649e-02
4.147999999999999687e+01,2.270493787881093864e-02
4.152000000000000313e+01,1.650064377291952586e-02
4.156000000000000227e+01,2.892512057099548214e-02
4.160000000000000142e+01,2.020645223948656921e-02
4.164000000000000057e+01,3.218646851100031431e-02
4.167999999999999972e+01,2.819812411482759684e-02
4.171999999999999886e+01,3.174972618393132051e-02
4.175999999999999801e+01,2.258568919405832751e-02
4.179999999999999716e+01,2.051804556050135925e-02
4.184000000000000341e+01,2.214622247158366114e-02
4.188000000000000256e+01,1.490288581580637671e-02
4.192000000000000171e+01,1.017256165217387230e-02
4.196000000000000085e+01,2.392315668960173086e-02
4.200000000000000000e+01,2.776728102496223149e-02
4.203999999999999915e+01,2.865393105605545596e-02
4.207999999999999829e+01,2.451319286956609930e-02
4.211999999999999744e+01,2.125910594234649287e-02
4.215999999999999659e+01,2.791058051409218282e-02
4.220000000000000284e+01,2.716905083468619531e-02
4.224000000000000199e+01,2.598351330192865197e-02
4.228000000000000114e+01,2.524107377664043875e-02
4.232000000000000028e+01,2.952511283731263161e-02
4.235999999999999943e+01,2.345912758701692094e-02
4.239999999999999858e+01,2.567234253139142469e-02
4.243999999999999773e+01,1.842263895419885694e-02
4.247999999999999687e+01,2.285270816909314509e-02
4.252000000000000313e+01,2.048117651630289304e-02
4.256000000000000227e+01,2.062265621293720222e-02
4.260000000000000142e+01,2.800837882619397826e-02
4.264000000000000057e+01,2.119995092216566887e-02
4.267999999999999972e+01,2.267072271286748458e-02
4.271999999999999886e+01,1.497427745947566349e-02
4.275999999999999801e+01,2.058396537400557919e-02
4.279999999999999716e+01,2.708030333366497761e-02
4.284000000000000341e+01,3.209767544772496040e-02
4.288000000000000256e+01,2.853923418683854824e-02
4.292000000000000171e+01,3.015512142931913581e-02
4.296000000000000085e+01,2.792642679263124608e-02
4.300000000000000000e+01,2.362736206983662504e-02
4.303999999999999915e+01,1.740577817822198947e-02
4.307999999999999829e+01,2.996081346532091308e-02
4.311999999999999744e+01,1.945063805568593776e-02
4.315999999999999659e+01,3.422252518502414548e-02
4.320000000000000284e+01,2.637275444090876608e-02
4.324000000000000199e+01,3.582109270275876667e-02
4.328000000000000114e+01,4.024204060442568981e-02
4.332000000000000028e+01,3.756568423259416117e-02
4.335999999999999943e+01,3.400176504153024082e-02
4.339999999999999858e+01,3.250730273395009695e-02
4.343999999999999773e+01,3.988344271894704585e-02
4.347999999999999687e+01,3.217832475459768415e-02
4.352000000000000313e+01,4.221486826239401885e-02
4.356000000000000227e+01,4.751972288748081835e-02
4.360000000000000142e+01,4.957139844550609298e-02
4.364000000000000057e+01,5.132691463918612890e-02
4.367999999999999972e+01,4.790718876977608648e-02
4.371999999999999886e+01,4.640906822378294827e-02
4.375999999999999801e+01,4.062281140410053254e-02
4.379999999999999716e+01,5.228251357921010617e-02
4.384000000000000341e+01,6.098473823615178230e-02
4.388000000000000256e+01,7.234782287436429538e-02
4.392000000000000171e+01,7.069956261950566256e-02
4.396000000000000085e+01,8.472304920927727079e-02
4.400000000000000000e+01,8.470023384218998419e-02
4.403999999999999915e+01,9.561793353827489905e-02
4.407999999999999829e+01,1.121535126326668602e-01
4.411999999999999744e+01,1.255837627202439355e-01
4.415999999999999659e+01,1.506937826002672232e-01
4.420000000000000284e+01,1.722549203645152016e-01
4.424000000000000199e+01,1.797697557433842741e-01
4.428000000000000114e+01,1.909804073102716604e-01
4.432000000000000028e+01,2.082524908130664043e-01
4.435999999999999943e+01,1.987630866874364743e-01
4.439999999999999858e+01,1.990313890725440849e-01
4.443999999999999773e+01,1.780086902685389105e-01
4.447999999999999687e+01,1.429396886506348052e-01
4.452000000000000313e+01,1.307871313241143474e-01
4.456000000000000227e+01,1.209997307873109246e-01
4.460000000000000142e+01,1.017494078722594869e-01
4.464000000000000057e+01,8.589919852503272168e-02
4.467999999999999972e+01,7.507546354998552440e-02
4.471999999999999886e+01,6.913035188699095945e-02
4.475999999999999801e+01,6.392403578083841187e-02
4.479999999999999716e+01,5.162041275864679563e-02
4.484000000000000341e+01,5.129226029217478361e-02
4.488000000000000256e+01,4.179688692492834756e-02
4.492000000000000171e+01,4.294632507220016299e-02
4.496000000000000085e+01,4.379960149826622046e-02
4.500000000000000000e+01,3.119797813680028759e-02
4.503999999999999915e+01,4.254775505920552897e-02
4.507999999999999829e+01,4.206899292701368753e-02
4.511999999999999744e+01,3.345796638647507981e-02
4.515999999999999659e+01,3.815306872865718152e-02
4.520000000000000284e+01,3.752507530508183975e-02
4.524000000000000199e+01,2.802556231536560555e-02
4.528000000000000114e+01,3.360638985859176753e-02
4.532000000000000028e+01,3.149850560249146253e-02
4.535999999999999943e+01,2.303256837400595794e-02
4.539999999999999858e+01,2.831631256584159206e-02
4.543999999999999773e+01,3.167753330365635084e-02
4.547999999999999687e+01,3.474259139180508466e-02
4.552000000000000313e+01,2.538770568490936533e-02
4.556000000000000227e+01,1.839797498223018010e-02
4.560000000000000142e+01,2.101809765898136201e-02
4.564000000000000057e+01,1.875867675047532962e-02
4.567999999999999972e+01,2.463059919149147153e-02
4.571999999999999886e+01,2.148315022061969559e-02
4.575999999999999801e+01,1.375185942764431749e-02
4.579999999999999716e+01,2.612784185518271865e-02
4.584000000000000341e+01,2.120479728899177588e-02
4.588000000000000256e+01,2.589160560229106234e-02
4.592000000000000171e+01,2.288970104496361457e-02
4.596000000000000085e+01,2.491426857437520001e-02
4.600000000000000000e+01,2.279854681928351195e-02
4.603999999999999915e+01,2.290012822266141584e-02
4.607999999999999829e+01,2.240984392765952432e-02
4.611999999999999744e+01,2.310190572733949663e-02
4.615999999999999659e+01,1.580955225045904688e-02
4.620000000000000284e+01,2.418894161868793274e-02
4.624000000000000199e+01,1.763491909829627627e-02
4.628000000000000114e+01,1.832513292388568069e-02
4.632000000000000028e+01,2.226760632895224620e-02
4.635999999999999943e+01,2.280904475026945127e-02
4.639999999999999858e+01,2.039300108253773100e-02
4.643999999999999773e+01,2.137706776872993000e-02
4.647999999999999687e+01,2.280422496328983820e-02
4.652000000000000313e+01,1.669051920462963703e-02
4.656000000000000227e+01,2.255228093062831493e-02
4.660000000000000142e+01,1.909896769608518396e-02
4.664000000000000057e+01,2.362914510827696102e-02
4.667999999999999972e+01,2.032275730415498624e-02
4.671999999999999886e+01,1.627665167022611034e-02
4.675999999999999801e+01,1.326503999955204981e-02
4.679999999999999716e+01,2.577731911398029735e-02
4.684000000000000341e+01,1.965991055081747763e-02
4.688000000000000256e+01,1.975178034138782429e-02
4.692000000000000171e+01,2.013888886599889474e-02
4.696000000000000085e+01,2.599602065796901076e-02
4.700000000000000000e+01,1.721544118175193788e-02
4.703999999999999915e+01,1.937537141220592105e-02
4.707999999999999829e+01,1.458584164438677701e-02
4.711999999999999744e+01,1.970186451945102335e-02
4.715999999999999659e+01,1.786842725340211102e-02
4.720000000000000284e+01,1.411246339085166050e-02
4.724000000000000199e+01,1.094743966839541519e-02
4.728000000000000114e+01,6.746995138838449840e-03
4.732000000000000028e+01,1.821829145463039340e-02
4.735999999999999943e+01,1.697393871264349721e-02
4.739999999999999858e+01,1.720763175731162067e-02
4.743999999999999773e+01,1.729300964143983682e-02
4.747999999999999687e+01,1.131603274533563193e-02
4.752000000000000313e+01,1.731452161981003254e-02
4.756000000000000227e+01,2.301684413077763336e-02
4.760000000000000142e+01,1.792558000863484977e-02
4.764000000000000057e+01,1.342525531238614525e-02
4.767999999999999972e+01,2.045684313491547696e-02
4.771999999999999886e+01,2.630515837601711537e-02
4.775999999999999801e+01,1.722005901453759272e-02
4.779999999999999716e+01,1.759695811568074558e-02
4.784000000000000341e+01,9.989438940622839824e-03
4.788000000000000256e+01,1.317457698370882654e-02
4.792000000000000171e+01,1.133231638188997824e-02
4.796000000000000085e+01,2.383113658433848661e-02
4.800000000000000000e+01,2.834553822490588557e-02
4.803999999999999915e+01,1.733512080812476749e-02
4.807999999999999829e+01,2.761478045057107894e-02
4.811999999999999744e+01,1.512492244619512670e-02
4.815999999999999659e+01,1.564548599062514506e-02
4.820000000000000284e+01,1.941830575779162835e-02
4.824000000000000199e+01,1.579811048938413801e-02
4.828000000000000114e+01,2.400552864586811067e-02
4.832000000000000028e+01,1.683597823377025113e-02
4.835999999999999943e+01,2.090263714889657731e-02
4.839999999999999858e+01,2.526453215552307285e-02
4.843999999999999773e+01,1.720647815344394232e-02
4.847999999999999687e+01,1.668835854665864579e-02
4.852000000000000313e+01,2.297091832021315796e-02
4.856000000000000227e+01,2.126905853200631094e-02
4.860000000000000142e+01,1.453979888475433017e-02
4.864000000000000057e+01,1.579402631323659212e-02
4.867999999999999972e+01,1.852629724293337540e-02
4.871999999999999886e+01,1.519621117837729150e-02
4.875999999999999801e+01,1.970176098658860467e-02
4.879999999999999716e+01,1.873635761253425805e-02
4.884000000000000341e+01,1.895329547660075734e-02
4.888000000000000256e+01,1.517778990262969377e-02
4.892000000000000171e+01,1.243677443523262538e-02
4.896000000000000085e+01,1.930560634798458505e-02
4.900000000000000000e+01,2.321695152938662091e-02
4.903999999999999915e+01,1.943957826940074032e-02
4.907999999999999829e+01,2.497635019789023331e-02
4.911999999999999744e+01,2.267655255344497994e-02
4.915999999999999659e+01,2.200264854188089397e-02
4.920000000000000284e+01,1.600564162255780146e-02
4.924000000000000199e+01,1.400014401258484198e-02
4.928000000000000114e+01,2.411796001941652473e-02
4.932000000000000028e+01,2.713846103974746141e-02
4.935999999999999943e+01,2.424445491181212789e-02
4.939999999999999858e+01,1.898436529315392432e-02
4.943999999999999773e+01,1.431521188648912125e-02
4.947999999999999687e+01,2.043871284116758821e-02
4.952000000000000313e+01,2.478753404569046179e-02
4.956000000000000227e+01,1.124591765959526840e-02
4.960000000000000142e+01,1.929007759618054166e-02
4.964000000000000057e+01,1.565354132499380269e-02
4.967999999999999972e+01,2.000049027262086609e-02
4.971999999999999886e+01,1.651086857601297142e-02
4.975999999999999801e+01,2.026547701184482422e-02
4.979999999999999716e+01,1.618351466060164931e-02
4.984000000000000341e+01,1.520595461516748709e-02
4.988000000000000256e+01,1.895915767989721570e-02
4.992000000000000171e+01,2.345114708828695618e-02
4.996000000000000085e+01,1.360112192082197843e-02
5.000000000000000000e+01,1.927498182485803263e-02
5.003999999999999915e+01,1.770367446812623133e-02
5.007999999999999829e+01,2.263734172893999350e-02
5.011999999999999744e+01,1.574246093623475617e-02
5.015999999999999659e+01,1.505685264082140887e-02
5.020000000000000284e+01,1.392722227947346646e-02
5.024000000000000199e+01,1.457133461137309627e-02
5.028000000000000114e+01,1.373646781355038378e-02
5.032000000000000028e+01,2.103293608052808628e-02
5.035999999999999943e+01,1.960572662830968246e-02
5.039999999999999858e+01,2.350068331262223156e-02
5.043999999999999773e+01,1.630634631558970649e-02
5.047999999999999687e+01,2.241812870241588831e-02
5.052000000000000313e+01,1.492715045704117068e-02
5.056000000000000227e+01,1.556750684794674759e-02
5.060000000000000142e+01,2.256498593923088325e-02
5.064000000000000057e+01,1.965597890172433512e-02
5.067999999999999972e+01,1.807716080572471101e-02
5.071999999999999886e+01,1.250589598636686096e-02
5.075999999999999801e+01,2.171925993799572047e-02
5.079999999999999716e+01,1.452069397205412934e-02
5.084000000000000341e+01,1.353139928926423187e-02
5.088000000000000256e+01,1.712501494243100220e-02
5.092000000000000171e+01,1.790899142479393177e-02
5.096000000000000085e+01,1.854464646165561795e-02
5.100000000000000000e+01,1.770132108323466472e-02
5.103999999999999915e+01,1.892743894707460406e-02
5.107999999999999829e+01,1.542185450124209864e-02
5.111999999999999744e+01,1.649917996284619090e-02
5.115999999999999659e+01,2.215941526046691368e-02
5.120000000000000284e+01,2.382720297768914711e-02
5.124000000000000199e+01,2.682517863653812590e-02
5.128000000000000114e+01,1.459403143043098636e-02
5.132000000000000028e+01,2.040023374698018629e-02
5.135999999999999943e+01,2.295324314098495105e-02
5.139999999999999858e+01,2.121810262007755438e-02
5.143999999999999773e+01,1.933463979662868384e-02
5.147999999999999687e+01,2.691316886516110715e-02
5.152000000000000313e+01,1.734051178702872287e-02
5.156000000000000227e+01,1.737769744674436817e-02
5.160000000000000142e+01,1.475309371022275225e-02
5.164000000000000057e+01,1.730280290750476485e-02
5.167999999999999972e+01,1.689502058829582196e-02
5.171999999999999886e+01,2.432286885677313951e-02
5.175999999999999801e+01,2.465339778212872340e-02
5.179999999999999716e+01,2.143503102190608828e-02
5.184000000000000341e+01,1.836404322235548128e-02
5.188000000000000256e+01,2.697281143118808802e-02
5.192000000000000171e+01,2.286592244036013064e-02
5.196000000000000085e+01,2.097632603783948502e-02
5.200000000000000000e+01,2.647880675694454580e-02
5.203999999999999915e+01,2.384901071204011819e-02
5.207999999999999829e+01,1.515685167360152769e-02
5.211999999999999744e+01,2.361493479717815744e-02
5.215999999999999659e+01,2.127942314576262983e-02
5.220000000000000284e+01,2.249186255249562699e-02
5.224000000000000199e+01,2.266887229604601720e-02
5.228000000000000114e+01,1.456575385836000706e-02
5.232000000000000028e+01,2.080370844015968362e-02
5.235999999999999943e+01,2.260566040426004175e-02
5.239999999999999858e+01,1.982375869053424125e-02
5.243999999999999773e+01,2.073765859514367302e-02
5.247999999999999687e+01,1.987687346451632101e-02
5.252000000000000313e+01,1.798065817076627271e-02
5.256000000000000227e+01,1.948454230367776055e-02
5.260000000000000142e+01,1.803093327743795701e-02
5.264000000000000057e+01,1.923816859148566941e-02
5.267999999999999972e+01,2.014922840026460438e-02
5.271999999999999886e+01,2.608674822579997929e-02
5.275999999999999801e+01,1.324671881487521352e-02
5.279999999999999716e+01,1.282569871320742884e-02
5.284000000000000341e+01,2.378873092842887990e-02
5.288000000000000256e+01,2.514097499275241149e-02
5.292000000000000171e+01,2.324002334915091852e-02
5.296000000000000085e+01,2.858329612438792813e-02
5.300000000000000000e+01,2.342867460222607112e-02
5.303999999999999915e+01,1.576011210141323865e-02
5.307999999999999829e+01,1.888419753414227742e-02
5.311999999999999744e+01,1.638947108253722626e-02
5.315999999999999659e+01,2.054756473784339482e-02
5.320000000000000284e+01,2.100890921916390153e-02
5.324000000000000199e+01,2.546175586783300596e-02
5.328000000000000114e+01,1.586828399019973163e-02
5.332000000000000028e+01,2.224224422232667572e-02
5.335999999999999943e+01,1.900541544651549244e-02
5.339999999999999858e+01,2.582197908935207967e-02
5.343999999999999773e+01,1.859222392020624948e-02
5.347999999999999687e+01,1.934594718497269911e-02
5.352000000000000313e+01,2.335191717361358513e-02
5.356000000000000227e+01,2.706171008574544123e-02
5.360000000000000142e+01,2.219567048236672016e-02
5.364000000000000057e+01,2.605236397075436777e-02
5.367999999999999972e+01,2.177677776691188880e-02
5.371999999999999886e+01,1.838782211053482940e-02
5.375999999999999801e+01,2.061672856882099461e-02
5.379999999999999716e+01,2.447152037526654014e-02
5.384000000000000341e+01,2.758658163914249478e-02
5.388000000000000256e+01,1.532466440705448733e-02
5.392000000000000171e+01,2.864049247936917980e-02
5.396000000000000085e+01,2.214381225167562015e-02
5.400000000000000000e+01,2.407416249555463170e-02
5.403999999999999915e+01,2.171635811080048148e-02
5.407999999999999829e+01,1.950592868719750253e-02
5.411999999999999744e+01,1.759072514203247409e-02
5.415999999999999659e+01,2.528535969241444900e-02
5.420000000000000284e+01,2.115143890443585417e-02
5.424000000000000199e+01,2.219182640795996225e-02
5.428000000000000114e+01,1.953546280915801139e-02
5.432000000000000028e+01,1.421730495755770159e-02
5.435999999999999943e+01,1.924823978793844398e-02
5.439999999999999858e+01,2.856637669190088130e-02
5.443999999999999773e+01,2.620380881768943904e-02
5.447999999999999687e+01,2.029234047275874780e-02
5.452000000000000313e+01,2.073798782904514096e-02
5.456000000000000227e+01,2.118315830073564873e-02
5.460000000000000142e+01,2.532412653408053563e-02
5.464000000000000057e+01,2.399413115783762332e-02
5.467999999999999972e+01,2.148085077308428681e-02
5.471999999999999886e+01,2.606394067598200026e-02
5.475999999999999801e+01,1.881847424063893062e-02
5.479999999999999716e+01,1.748657004045232194e-02
5.484000000000000341e+01,2.694731063132697196e-02
5.488000000000000256e+01,2.576230257935529025e-02
5.492000000000000171e+01,1.836707547432153351e-02
5.496000000000000085e+01,2.501721469763883154e-02
5.500000000000000000e+01,2.442217780410638542e-02
5.503999999999999915e+01,1.776477263195868489e-02
5.507999999999999829e+01,1.820373710468184414e-02
5.511999999999999744e+01,1.819867072680850933e-02
5.515999999999999659e+01,2.395931495260476135e-02
5.520000000000000284e+01,2.277048468186480476e-02
5.524000000000000199e+01,2.054621939144104029e-02
5.528000000000000114e+01,2.541832338878810896e-02
5.532000000000000028e+01,1.994037993508226275e-02
5.535999999999999943e+01,2.215020958113442934e-02
5.539999999999999858e+01,2.095898810251376615e-02
5.543999999999999773e+01,2.065439410029781819e-02
5.547999999999999687e+01,2.581980815297767878e-02
5.552000000000000313e+01,1.235551902992310970e-02
5.556000000000000227e+01,2.003344262184634725e-02
5.560000000000000142e+01,2.283180484492852366e-02
5.564000000000000057e+01,1.838498980844072844e-02
5.567999999999999972e+01,2.458296707448711163e-02
5.571999999999999886e+01,2.279651199458932950e-02
5.575999999999999801e+01,2.396659766163147798e-02
5.579999999999999716e+01,2.321414137686876600e-02
5.584000000000000341e+01,2.645318261715366021e-02
5.588000000000000256e+01,2.362985407900287937e-02
5.592000000000000171e+01,2.184100314892344769e-02
5.596000000000000085e+01,2.862703017954271179e-02
5.600000000000000000e+01,2.831573029651862292e-02
5.603999999999999915e+01,2.519478210092868792e-02
5.607999999999999829e+01,2.118624837454149978e-02
5.611999999999999744e+01,1.939499980878000782e-02
5.615999999999999659e+01,2.617862884661710868e-02
5.620000000000000284e+01,2.335146380569506214e-02
5.624000000000000199e+01,2.584645447398169552e-02
5.628000000000000114e+01,2.434898849152790021e-02
5.632000000000000028e+01,2.728657214320193494e-02
5.635999999999999943e+01,2.948442075284540137e-02
5.639999999999999858e+01,2.724625953136795842e-02
5.643999999999999773e+01,2.781678685398336279e-02
5.647999999999999687e+01,2.306419827039702178e-02
5.652000000000000313e+01,2.407731786219970485e-02
5.656000000000000227e+01,2.789912578383514988e-02
5.660000000000000142e+01,2.447575473182028380e-02
5.664000000000000057e+01,2.312181692326409008e-02
5.667999999999999972e+01,2.516797118510793671e-02
5.671999999999999886e+01,2.203886010093667261e-02
5.675999999999999801e+01,2.467545676363442839e-02
5.679999999999999716e+01,2.657231759868135604e-02
5.684000000000000341e+01,2.699018759112346844e-02
5.688000000000000256e+01,2.533766271471353526e-02
5.692000000000000171e+01,2.383250772863360761e-02
5.696000000000000085e+01,2.484033838077272932e-02
5.700000000000000000e+01,2.466487988204060441e-02
5.703999999999999915e+01,2.729810885610106305e-02
5.707999999999999829e+01,2.593887975102081300e-02
5.711999999999999744e+01,2.472702017917054532e-02
5.715999999999999659e+01,2.203616919335538854e-02
5.720000000000000284e+01,2.318896231560040738e-02
5.724000000000000199e+01,2.803754848577884318e-02
5.728000000000000114e+01,2.638020941170072034e-02
5.732000000000000028e+01,2.058256084125495433e-02
5.735999999999999943e+01,2.409904267534136030e-02
5.739999999999999858e+01,2.598868167823598779e-02
5.743999999999999773e+01,1.797182241093725139e-02
5.747999999999999687e+01,2.533098387088990669e-02
5.752000000000000313e+01,2.189654098556844189e-02
5.756000000000000227e+01,2.792407913638582026e-02
5.760000000000000142e+01,2.434082070874350051e-02
5.764000000000000057e+01,2.031352693104370583e-02
5.767999999999999972e+01,2.486110804298195462e-02
5.771999999999999886e+01,2.556408092176601712e-02
5.775999999999999801e+01,2.966714394260967780e-02
5.779999999999999716e+01,3.066485353099324476e-02
5.784000000000000341e+01,3.018357049127157188e-02
5.788000000000000256e+01,2.704048684237015179e-02
5.792000000000000171e+01,2.685394008372788896e-02
5.796000000000000085e+01,2.518840048272032173e-02
5.800000000000000000e+01,2.248742093404792336e-02
5.803999999999999915e+01,2.703065673387208823e-02
5.807999999999999829e+01,2.373730696267809664e-02
5.811999999999999744e+01,2.162628186016137682e-02
5.815999999999999659e+01,2.188038926455639771e-02
5.820000000000000284e+01,2.627384096892492610e-02
5.824000000000000199e+01,2.682268351167904630e-02
5.828000000000000114e+01,2.101345001338303028e-02
5.832000000000000028e+01,1.490803093959618304e-02
5.835999999999999943e+01,2.166516421380451987e-02
5.839999999999999858e+01,2.516909199554571638e-02
5.843999999999999773e+01,2.615906915693378201e-02
5.847999999999999687e+01,2.108667189758527821e-02
5.852000000000000313e+01,2.281493616357269452e-02
5.856000000000000227e+01,2.025503773046522654e-02
5.860000000000000142e+01,2.213018486054474376e-02
5.864000000000000057e+01,2.666616561790938200e-02
5.867999999999999972e+01,2.410481467648967202e-02
5.871999999999999886e+01,2.642206205011732659e-02
5.875999999999999801e+01,2.238123252565462143e-02
5.879999999999999716e+01,2.085338535409022101e-02
5.884000000000000341e+01,2.183852046400412347e-02
5.888000000000000256e+01,2.430168086302868236e-02
5.892000000000000171e+01,2.927782340069148143e-02
5.896000000000000085e+01,1.769417046239390306e-02
5.900000000000000000e+01,2.754842607436642360e-02
5.903999999999999915e+01,1.892082321434995773e-02
5.907999999999999829e+01,1.857239076685735998e-02
5.911999999999999744e+01,2.458106580728006488e-02
5.915999999999999659e+01,2.423166323541224923e-02
5.920000000000000284e+01,2.225541461845186378e-02
5.924000000000000199e+01,2.338355152359693559e-02
5.928000000000000114e+01,2.510260707141155623e-02
5.932000000000000028e+01,2.179424361961691814e-02
5.935999999999999943e+01,2.927851688842182665e-02
5.939999999999999858e+01,2.449067256814372803e-02
5.943999999999999773e+01,2.798199801760932123e-02
5.947999999999999687e+01,2.511524528342429924e-02
5.952000000000000313e+01,2.195230483114793754e-02
5.956000000000000227e+01,2.337225921668491940e-02
5.960000000000000142e+01,1.799058223819086436e-02
5.964000000000000057e+01,2.029667071751316970e-02
5.967999999999999972e+01,2.008880636246188067e-02
5.971999999999999886e+01,2.047185986445996392e-02
5.975999999999999801e+01,2.499425488105096876e-02
5.979999999999999716e+01,2.434137905228573803e-02
5.984000000000000341e+01,2.309661295665537198e-02
5.988000000000000256e+01,2.140780751144672617e-02
5.992000000000000171e+01,1.957066462265339216e-02
5.996000000000000085e+01,2.039435300428466338e-02
