2.003999999999999915e+01,4.318376596467456835e-02
2.007999999999999829e+01,3.614510156892711268e-02
2.012000000000000099e+01,4.575442231358513995e-02
2.016000000000000014e+01,2.268202929444782662e-02
2.019999999999999929e+01,5.567241251565207411e-02
2.023999999999999844e+01,3.517202471936850539e-02
2.028000000000000114e+01,3.499180001716453020e-02
2.032000000000000028e+01,3.101771584803238863e-02
2.035999999999999943e+01,4.161069960769417375e-02
2.039999999999999858e+01,3.127295252195542302e-02
2.044000000000000128e+01,2.999399059140607504e-02
2.048000000000000043e+01,3.948749857743041186e-02
2.051999999999999957e+01,4.702323013220768150e-02
2.055999999999999872e+01,5.027546555437820142e-02
2.060000000000000142e+01,4.385833024656449891e-02
2.064000000000000057e+01,2.899588418678764740e-02
2.067999999999999972e+01,3.518801859227488338e-02
2.071999999999999886e+01,4.615470743582479607e-02
2.076000000000000156e+01,4.365742555678416015e-02
2.080000000000000071e+01,3.100113826246663623e-02
2.083999999999999986e+01,3.536001904912551563e-02
2.087999999999999901e+01,4.290216580637376542e-02
2.092000000000000171e+01,3.722514631116916051e-02
2.096000000000000085e+01,3.203845251728615340e-02
2.100000000000000000e+01,4.496857464540223587e-02
2.103999999999999915e+01,3.709034043778298984e-02
2.107999999999999829e+01,3.141611273209757305e-02
2.112000000000000099e+01,4.997900479928918394e-02
2.116000000000000014e+01,3.096388575940913629e-02
2.119999999999999929e+01,2.161954522658871697e-02
2.123999999999999844e+01,4.067412918407199013e-02
2.128000000000000114e+01,3.328965991483098796e-02
2.132000000000000028e+01,2.676271711096007977e-02
2.135999999999999943e+01,4.508491317685397320e-02
2.139999999999999858e+01,3.292864561212209551e-02
2.144000000000000128e+01,4.415263860629456416e-02
2.148000000000000043e+01,3.542509685137096992e-02
2.151999999999999957e+01,4.089734700652594701e-02
2.155999999999999872e+01,3.339521161473398003e-02
2.160000000000000142e+01,2.724021360897298585e-02
2.164000000000000057e+01,4.385343528098297611e-02
2.167999999999999972e+01,2.851930510957662382e-02
2.171999999999999886e+01,1.710283649569868669e-02
2.176000000000000156e+01,2.600645770161929410e-02
2.180000000000000071e+01,4.751857640898724672e-02
2.183999999999999986e+01,3.512483621794359329e-02
2.187999999999999901e+01,3.644124533014180684e-02
2.192000000000000171e+01,1.131856952944029077e-02
2.196000000000000085e+01,3.601586684422067308e-02
2.200000000000000000e+01,1.444427155913297241e-02
2.203999999999999915e+01,2.274043550671820887e-02
2.207999999999999829e+01,2.112234305835669276e-02
2.212000000000000099e+01,2.097376844684943273e-02
2.216000000000000014e+01,4.861204179756494631e-02
2.219999999999999929e+01,3.928428353037703019e-02
2.223999999999999844e+01,2.812106987118610096e-02
2.228000000000000114e+01,3.164723527810314740e-02
2.232000000000000028e+01,1.975085359392536599e-02
2.235999999999999943e+01,2.756250104455301719e-02
2.239999999999999858e+01,2.117565940172116620e-02
2.244000000000000128e+01,3.400721814955988409e-02
2.248000000000000043e+01,4.010706178945098316e-02
2.251999999999999957e+01,4.241293704118574009e-02
2.255999999999999872e+01,3.149956484464280781e-02
2.260000000000000142e+01,2.609509118306615680e-02
2.264000000000000057e+01,2.362898396341478469e-02
2.267999999999999972e+01,3.218005013079006799e-02
2.271999999999999886e+01,1.172146166489106307e-02
2.276000000000000156e+01,3.177993582285997681e-02
2.280000000000000071e+01,2.331837617014554873e-02
2.283999999999999986e+01,3.933866352539296118e-02
2.287999999999999901e+01,3.552975301387616830e-02
2.292000000000000171e+01,2.768204191866188713e-02
2.296000000000000085e+01,2.301749381396649141e-02
2.300000000000000000e+01,2.031204476099680162e-02
2.303999999999999915e+01,3.082706279671305893e-02
2.307999999999999829e+01,1.881993675523938730e-02
2.312000000000000099e+01,3.325314299247726646e-02
2.316000000000000014e+01,2.394013923334607080e-02
2.319999999999999929e+01,2.258412822020603589e-02
2.323999999999999844e+01,3.457098058966270177e-02
2.328000000000000114e+01,2.648380289681401961e-02
2.332000000000000028e+01,3.492204571764886273e-02
2.335999999999999943e+01,2.671362799894648130e-02
2.339999999999999858e+01,2.364685061996882678e-02
2.344000000000000128e+01,3.526939487590594752e-02
2.348000000000000043e+01,2.412496285911204172e-02
2.351999999999999957e+01,1.530682273654841719e-02
2.355999999999999872e+01,2.962402582075128118e-02
2.360000000000000142e+01,2.386718299956104225e-02
2.364000000000000057e+01,3.757349354914366057e-02
2.367999999999999972e+01,3.034891086167625443e-02
2.371999999999999886e+01,4.185304040916554280e-02
2.376000000000000156e+01,1.969602839139808145e-02
2.380000000000000071e+01,1.381960073100100585e-02
2.383999999999999986e+01,1.541050934705666918e-02
2.387999999999999901e+01,2.679446998015265827e-02
2.392000000000000171e+01,2.777445833618451612e-02
2.396000000000000085e+01,9.904444921756766496e-03
2.400000000000000000e+01,2.459503000958499982e-02
2.403999999999999915e+01,1.688582968680086421e-02
2.407999999999999829e+01,7.311482988602194906e-04
2.412000000000000099e+01,2.203330730564655518e-02
2.416000000000000014e+01,3.660366802827436788e-02
2.419999999999999929e+01,2.485723715184288973e-02
2.423999999999999844e+01,2.890174406517326613e-02
2.428000000000000114e+01,3.931190970814427144e-02
2.432000000000000028e+01,2.462933976930513358e-02
2.435999999999999943e+01,4.005922659243404960e-02
2.439999999999999858e+01,3.443577833572462887e-02
2.444000000000000128e+01,3.199541979525326318e-02
2.448000000000000043e+01,3.335017996983748872e-02
2.451999999999999957e+01,1.230513096917767307e-02
2.455999999999999872e+01,3.373555460846851956e-02
2.460000000000000142e+01,1.526207910652061309e-02
2.464000000000000057e+01,3.889685369622931932e-02
2.467999999999999972e+01,2.421900572985661443e-02
2.471999999999999886e+01,2.447522841772909602e-02
2.476000000000000156e+01,2.975061791636261430e-02
2.480000000000000071e+01,2.462199156944068837e-02
2.483999999999999986e+01,2.365568470162275963e-02
2.487999999999999901e+01,3.480809806216960539e-02
2.492000000000000171e+01,3.139467897741859276e-02
2.496000000000000085e+01,4.095681953114552187e-02
2.500000000000000000e+01,2.995522008260744981e-02
2.503999999999999915e+01,3.315323827018253761e-02
2.507999999999999829e+01,2.300947804932305246e-02
2.512000000000000099e+01,2.314833323690178996e-02
2.516000000000000014e+01,3.234573989412545952e-02
2.519999999999999929e+01,3.040467372688971867e-02
2.523999999999999844e+01,3.801177985188990832e-02
2.528000000000000114e+01,2.872731798714485071e-02
2.532000000000000028e+01,2.654290053704946514e-02
2.535999999999999943e+01,2.876558921272200434e-02
2.539999999999999858e+01,9.934893298906994838e-03
2.544000000000000128e+01,1.742200860557643546e-02
2.548000000000000043e+01,3.800706400154686693e-02
2.551999999999999957e+01,2.517570308695933970e-02
2.555999999999999872e+01,2.654393406346726783e-02
2.560000000000000142e+01,4.162213016732185800e-02
2.564000000000000057e+01,2.438555978202698246e-02
2.567999999999999972e+01,1.914526382153674752e-02
2.571999999999999886e+01,2.014814910095145614e-02
2.576000000000000156e+01,2.090668526032695915e-02
2.580000000000000071e+01,8.813032147683435083e-03
2.583999999999999986e+01,2.879026165617845981e-02
2.587999999999999901e+01,1.314774550550879169e-02
2.592000000000000171e+01,1.586661408104531393e-02
2.596000000000000085e+01,3.045933702284404562e-02
2.600000000000000000e+01,1.897999163989614463e-02
2.603999999999999915e+01,2.586202504199652460e-02
2.607999999999999829e+01,1.499560747574735751e-02
2.612000000000000099e+01,2.873328072165108604e-02
2.616000000000000014e+01,1.174744227931708192e-02
2.619999999999999929e+01,1.116447556703599291e-02
2.623999999999999844e+01,2.184331837911164531e-02
2.628000000000000114e+01,1.183595162073054763e-02
2.632000000000000028e+01,9.418204550712782133e-03
2.635999999999999943e+01,1.495729377619443683e-02
2.639999999999999858e+01,1.719184729944343848e-02
2.644000000000000128e+01,8.655085193790060250e-03
2.648000000000000043e+01,1.199215170938119045e-02
2.651999999999999957e+01,2.206198464052070568e-02
2.655999999999999872e+01,1.511778001372322475e-02
2.660000000000000142e+01,2.029221045869380666e-02
2.664000000000000057e+01,1.383847200194706847e-02
2.667999999999999972e+01,2.782698597336536947e-02
2.671999999999999886e+01,2.969770229893143113e-02
2.676000000000000156e+01,2.018505617330388843e-02
2.680000000000000071e+01,6.633417366539562550e-03
2.683999999999999986e+01,1.866508329170655373e-02
2.687999999999999901e+01,2.225112952469911892e-02
2.692000000000000171e+01,1.788117886849416305e-02
2.696000000000000085e+01,1.779584892677745986e-02
2.700000000000000000e+01,1.660926510217164420e-02
2.703999999999999915e+01,1.456623780597194120e-02
2.707999999999999829e+01,1.631820049973982042e-02
2.712000000000000099e+01,2.663899284087729163e-02
2.716000000000000014e+01,1.345818953873016699e-02
2.719999999999999929e+01,2.194367487813759371e-02
2.723999999999999844e+01,1.598561910570162753e-02
2.728000000000000114e+01,2.410466387192370524e-02
2.732000000000000028e+01,2.377806716172569529e-02
2.735999999999999943e+01,2.075891819923531348e-02
2.739999999999999858e+01,2.239158675450986236e-02
2.744000000000000128e+01,2.157651148840150634e-02
2.748000000000000043e+01,1.476391074114351103e-02
2.751999999999999957e+01,1.603049505403260355e-02
2.755999999999999872e+01,3.688244485571021830e-02
2.760000000000000142e+01,2.089050188321927778e-02
2.764000000000000057e+01,1.175367607131030424e-02
2.767999999999999972e+01,1.865243012765107136e-02
2.771999999999999886e+01,2.444989465415518121e-02
2.776000000000000156e+01,3.783690757512769148e-02
2.780000000000000071e+01,1.988829663283401411e-02
2.783999999999999986e+01,2.446278601680443310e-02
2.787999999999999901e+01,1.948995043638464611e-02
2.792000000000000171e+01,2.639087218331443579e-02
2.796000000000000085e+01,3.182327393056958581e-02
2.800000000000000000e+01,2.220006595944431019e-02
2.803999999999999915e+01,3.571197939185680875e-02
2.807999999999999829e+01,2.841518794060321138e-02
2.812000000000000099e+01,3.335936250229146194e-02
2.816000000000000014e+01,2.740973008263992289e-02
2.819999999999999929e+01,4.484002353666369234e-02
2.823999999999999844e+01,4.892838213176125411e-02
2.828000000000000114e+01,5.179301727577783482e-02
2.832000000000000028e+01,5.833017482195620301e-02
2.835999999999999943e+01,6.658135365645879988e-02
2.839999999999999858e+01,6.516277558571294259e-02
2.844000000000000128e+01,8.002455214756488966e-02
2.848000000000000043e+01,9.182650241879526665e-02
2.851999999999999957e+01,1.048528412734430759e-01
2.855999999999999872e+01,1.030683550759883965e-01
2.860000000000000142e+01,1.072820951389673455e-01
2.864000000000000057e+01,1.292450542827028870e-01
2.867999999999999972e+01,1.640609826931803128e-01
2.871999999999999886e+01,1.663171797331071400e-01
2.876000000000000156e+01,1.915860563337835609e-01
2.880000000000000071e+01,1.926188189203063006e-01
2.883999999999999986e+01,2.295169076700821209e-01
2.887999999999999901e+01,2.316519456026305268e-01
2.892000000000000171e+01,2.319511974187188352e-01
2.896000000000000085e+01,2.345764717965454771e-01
2.900000000000000000e+01,2.123535912790849578e-01
2.903999999999999915e+01,2.209773729934781938e-01
2.907999999999999829e+01,1.882281594133153879e-01
2.912000000000000099e+01,1.592738348234356560e-01
2.916000000000000014e+01,1.458653920441619622e-01
2.919999999999999929e+01,1.166668429598844842e-01
2.923999999999999844e+01,1.076656071673883636e-01
2.928000000000000114e+01,9.670616123911771056e-02
2.932000000000000028e+01,7.313916415654403425e-02
2.935999999999999943e+01,6.536285137432799874e-02
2.939999999999999858e+01,4.950801272314352131e-02
2.944000000000000128e+01,5.911394388296152547e-02
2.948000000000000043e+01,5.170569291666670536e-02
2.951999999999999957e+01,5.090765364113180452e-02
2.955999999999999872e+01,3.248339729950856791e-02
2.960000000000000142e+01,3.903027806398106508e-02
2.964000000000000057e+01,3.578493433539915725e-02
2.967999999999999972e+01,2.384901989594361352e-02
2.971999999999999886e+01,3.064152063354912484e-02
2.976000000000000156e+01,1.797170146552566281e-02
2.980000000000000071e+01,2.525435547219870291e-02
2.983999999999999986e+01,1.919499540450667410e-02
2.987999999999999901e+01,1.803214246233076495e-02
2.992000000000000171e+01,9.525175081213097319e-03
2.996000000000000085e+01,1.448314457368993224e-02
3.000000000000000000e+01,2.176708513786984947e-02
3.003999999999999915e+01,1.778990705504716538e-02
3.007999999999999829e+01,2.030050674174008543e-02
3.012000000000000099e+01,1.118276523313624024e-02
3.016000000000000014e+01,2.189507287991436513e-02
3.019999999999999929e+01,1.277782024929574253e-02
3.023999999999999844e+01,1.773752160877331563e-02
3.028000000000000114e+01,1.498587211831332346e-02
3.032000000000000028e+01,5.991744147618369154e-03
3.035999999999999943e+01,1.695006162621621668e-02
3.039999999999999858e+01,0.000000000000000000e+00
3.044000000000000128e+01,1.303968792124362078e-02
3.048000000000000043e+01,6.494614094070017517e-03
3.051999999999999957e+01,4.393926559711653365e-04
3.055999999999999872e+01,5.645766860544325881e-03
3.060000000000000142e+01,1.599342493536749440e-02
3.064000000000000057e+01,2.132265064527513743e-02
3.067999999999999972e+01,1.526831982616391921e-02
3.071999999999999886e+01,7.378113773223945321e-03
3.076000000000000156e+01,8.790994327574507342e-03
3.080000000000000071e+01,1.558996124192680785e-02
3.083999999999999986e+01,1.173980088076065874e-02
3.087999999999999901e+01,1.694790879404572959e-02
3.092000000000000171e+01,1.236372884192551112e-02
3.096000000000000085e+01,1.928593712029894394e-02
3.100000000000000000e+01,2.424985010630108240e-02
3.103999999999999915e+01,2.199199939839509982e-02
3.107999999999999829e+01,2.499781499194817652e-02
3.112000000000000099e+01,3.657226219427390373e-02
3.116000000000000014e+01,2.207438560206286329e-02
3.119999999999999929e+01,2.630485091263209951e-02
3.123999999999999844e+01,2.282391784400044504e-02
3.128000000000000114e+01,1.322286496171130692e-02
3.132000000000000028e+01,2.430864717449598283e-02
3.135999999999999943e+01,2.376602680001881074e-02
3.139999999999999858e+01,3.436255428426755049e-02
3.144000000000000128e+01,3.210661326207540217e-02
3.148000000000000043e+01,4.135703472535928737e-02
3.151999999999999957e+01,3.787738991727104820e-02
3.155999999999999872e+01,2.350376979503549305e-02
3.160000000000000142e+01,4.181277809756237668e-02
3.164000000000000057e+01,4.286268494145258762e-02
3.167999999999999972e+01,5.431728860632263622e-02
3.171999999999999886e+01,4.129082129718169430e-02
3.176000000000000156e+01,5.103207262816113893e-02
3.180000000000000071e+01,5.636686514223548244e-02
3.183999999999999986e+01,4.946120032521280491e-02
3.187999999999999901e+01,5.357225340644365674e-02
3.192000000000000171e+01,5.841790195492168464e-02
3.196000000000000085e+01,5.591933506477354821e-02
3.200000000000000000e+01,6.223416860658802230e-02
3.203999999999999915e+01,4.504716489802949170e-02
3.207999999999999829e+01,4.462996039030843465e-02
3.211999999999999744e+01,5.131246363162207669e-02
3.215999999999999659e+01,5.542458317016758090e-02
3.220000000000000284e+01,4.986675766679750377e-02
3.224000000000000199e+01,4.406426222086112787e-02
3.228000000000000114e+01,4.034281257294607820e-02
3.232000000000000028e+01,3.735593858841845805e-02
3.235999999999999943e+01,3.277792056591875142e-02
3.239999999999999858e+01,3.309628490461902217e-02
3.243999999999999773e+01,3.206831363625659709e-02
3.247999999999999687e+01,2.957159858460490370e-02
3.252000000000000313e+01,3.270569712803951534e-02
3.256000000000000227e+01,2.641464519776621014e-02
3.260000000000000142e+01,3.150749410632108088e-02
3.264000000000000057e+01,2.680796999287387086e-02
3.267999999999999972e+01,2.125172317341104955e-02
3.271999999999999886e+01,1.532837645090960425e-02
3.275999999999999801e+01,3.119344929215349740e-02
3.279999999999999716e+01,2.539274019330175006e-02
3.284000000000000341e+01,1.334942784989895902e-02
3.288000000000000256e+01,1.685181314120696647e-02
3.292000000000000171e+01,1.386677883551052509e-02
3.296000000000000085e+01,2.153119037012423548e-02
3.300000000000000000e+01,2.515630226377590234e-02
3.303999999999999915e+01,1.837699035236219428e-02
3.307999999999999829e+01,1.465793419797620928e-02
3.311999999999999744e+01,9.102883986603209701e-03
3.315999999999999659e+01,1.921592374307993373e-02
3.320000000000000284e+01,1.770046981454025115e-02
3.324000000000000199e+01,1.973488850484726026e-02
3.328000000000000114e+01,1.834202467069403000e-02
3.332000000000000028e+01,1.597000024850898231e-02
3.335999999999999943e+01,1.849431065826061260e-02
3.339999999999999858e+01,1.012455465611027637e-02
3.343999999999999773e+01,2.305355976778093730e-02
3.347999999999999687e+01,1.223584394350228817e-02
3.352000000000000313e+01,2.394094723067985431e-02
3.356000000000000227e+01,1.801963541317207901e-02
3.360000000000000142e+01,2.666473601670188778e-02
3.364000000000000057e+01,2.147800962583667345e-02
3.367999999999999972e+01,1.751541634859886051e-02
3.371999999999999886e+01,2.616073041778923386e-02
3.375999999999999801e+01,1.693480708868295298e-02
3.379999999999999716e+01,2.068400573275509108e-02
3.384000000000000341e+01,2.883989066076940791e-02
3.388000000000000256e+01,2.585687302056866727e-02
3.392000000000000171e+01,2.164985269486512098e-02
3.396000000000000085e+01,3.494697566690263546e-02
3.400000000000000000e+01,2.376291478292896081e-02
3.403999999999999915e+01,3.975308270734118771e-02
3.407999999999999829e+01,3.530146727771391046e-02
3.411999999999999744e+01,4.798676863676169801e-02
3.415999999999999659e+01,3.545644104321012124e-02
3.420000000000000284e+01,4.569371128623464506e-02
3.424000000000000199e+01,4.087506287066743071e-02
3.428000000000000114e+01,5.417257288895716005e-02
3.432000000000000028e+01,3.601173004522693205e-02
3.435999999999999943e+01,4.967653560874218249e-02
3.439999999999999858e+01,4.877503937548464258e-02
3.443999999999999773e+01,4.934245102020245327e-02
3.447999999999999687e+01,5.199079954171330342e-02
3.452000000000000313e+01,4.472427576724073706e-02
3.456000000000000227e+01,5.031043014277241515e-02
3.460000000000000142e+01,5.100036229101823776e-02
3.464000000000000057e+01,4.128579141875988318e-02
3.467999999999999972e+01,5.641969994773825964e-02
3.471999999999999886e+01,5.172382441570529815e-02
3.475999999999999801e+01,3.870434525130236891e-02
3.479999999999999716e+01,5.310386965963342920e-02
3.484000000000000341e+01,4.571510493234363232e-02
3.488000000000000256e+01,4.787403522427097907e-02
3.492000000000000171e+01,3.815957428290369519e-02
3.496000000000000085e+01,3.946167875007023512e-02
3.500000000000000000e+01,3.390904205263968463e-02
3.503999999999999915e+01,3.888334201960811504e-02
3.507999999999999829e+01,3.492199153191534455e-02
3.511999999999999744e+01,2.679883024696334479e-02
3.515999999999999659e+01,4.511540514454583789e-02
3.520000000000000284e+01,3.944036155790085069e-02
3.524000000000000199e+01,2.507447198673216221e-02
3.528000000000000114e+01,3.678109406941786064e-02
3.532000000000000028e+01,5.534245307857921931e-02
3.535999999999999943e+01,3.461141120187936210e-02
3.539999999999999858e+01,3.456700242088440317e-02
3.543999999999999773e+01,3.011595460786103268e-02
3.547999999999999687e+01,3.704866504587601278e-02
3.552000000000000313e+01,3.271998552401046007e-02
3.556000000000000227e+01,3.683731159223405105e-02
3.560000000000000142e+01,3.716002168608896483e-02
3.564000000000000057e+01,4.237895372988028514e-02
3.567999999999999972e+01,3.694851887145069597e-02
3.571999999999999886e+01,4.510514190687660990e-02
3.575999999999999801e+01,4.506051799612410119e-02
3.579999999999999716e+01,4.832082756783471350e-02
3.584000000000000341e+01,4.778650928286089228e-02
3.588000000000000256e+01,4.517124790258664202e-02
3.592000000000000171e+01,5.871356462689306804e-02
3.596000000000000085e+01,4.887625621884213872e-02
3.600000000000000000e+01,5.752223967557360679e-02
3.603999999999999915e+01,6.323042874457575346e-02
3.607999999999999829e+01,5.902366828254170666e-02
3.611999999999999744e+01,5.995791839749380070e-02
3.615999999999999659e+01,6.321783460470957461e-02
3.620000000000000284e+01,6.194866795672282489e-02
3.624000000000000199e+01,7.169600334491876836e-02
3.628000000000000114e+01,7.483334658784808469e-02
3.632000000000000028e+01,7.540010016786842517e-02
3.635999999999999943e+01,7.510994884636391922e-02
3.639999999999999858e+01,7.983838804330305183e-02
3.643999999999999773e+01,7.000042444378491713e-02
3.647999999999999687e+01,6.946526425636366520e-02
3.652000000000000313e+01,8.949427551799939151e-02
3.656000000000000227e+01,6.986360789467269128e-02
3.660000000000000142e+01,6.039258111316996025e-02
3.664000000000000057e+01,6.707909678930042141e-02
3.667999999999999972e+01,6.923650584559673526e-02
3.671999999999999886e+01,6.564074434326568064e-02
3.675999999999999801e+01,6.351377585652372149e-02
3.679999999999999716e+01,5.734731959215257080e-02
3.684000000000000341e+01,4.432603106542970517e-02
3.688000000000000256e+01,5.076724040172364560e-02
3.692000000000000171e+01,4.362127274365441149e-02
3.696000000000000085e+01,4.822620864986477268e-02
3.700000000000000000e+01,5.246383275173761157e-02
3.703999999999999915e+01,3.295455966330974179e-02
3.707999999999999829e+01,3.547830464862392064e-02
3.711999999999999744e+01,3.347292122985823931e-02
3.715999999999999659e+01,4.395286864848659686e-02
3.720000000000000284e+01,5.296383859828113216e-02
3.724000000000000199e+01,2.659931285097684797e-02
3.728000000000000114e+01,4.234241139336260284e-02
3.732000000000000028e+01,3.421619268690512944e-02
3.735999999999999943e+01,3.282220371139806664e-02
3.739999999999999858e+01,2.175801224379919283e-02
3.743999999999999773e+01,2.024138905071532629e-02
3.747999999999999687e+01,2.851714454344194197e-02
3.752000000000000313e+01,2.210403757344936437e-02
3.756000000000000227e+01,3.576542577911571291e-02
3.760000000000000142e+01,2.029401645208612007e-02
3.764000000000000057e+01,1.645107082693392231e-02
3.767999999999999972e+01,1.456649745185640242e-02
3.771999999999999886e+01,2.382075903452138613e-02
3.775999999999999801e+01,2.695457998100166119e-02
3.779999999999999716e+01,1.956133526064541758e-02
3.784000000000000341e+01,3.383385239917556520e-02
3.788000000000000256e+01,2.705236706779549569e-02
3.792000000000000171e+01,2.553420939187362251e-02
3.796000000000000085e+01,2.560719151580242298e-02
3.800000000000000000e+01,2.396634417149659871e-02
3.803999999999999915e+01,1.853076004927789455e-02
3.807999999999999829e+01,1.884812044433641434e-02
3.811999999999999744e+01,2.675451631389695606e-02
3.815999999999999659e+01,1.776870650942984423e-02
3.820000000000000284e+01,2.322667518577305190e-02
3.824000000000000199e+01,1.754552543183048388e-02
3.828000000000000114e+01,1.467956159305799403e-02
3.832000000000000028e+01,2.527812072721214581e-02
3.835999999999999943e+01,2.669605462337410612e-02
3.839999999999999858e+01,2.174870380549437029e-02
3.843999999999999773e+01,1.851487521867441546e-02
3.847999999999999687e+01,3.094887320837015621e-02
3.852000000000000313e+01,2.306327421702443481e-02
3.856000000000000227e+01,2.154262695752786824e-02
3.860000000000000142e+01,2.259233737843219583e-02
3.864000000000000057e+01,3.624971155829045250e-02
3.867999999999999972e+01,2.983229322724469806e-02
3.871999999999999886e+01,1.949769825588391903e-02
3.875999999999999801e+01,2.789107089435500716e-02
3.879999999999999716e+01,4.240457099067797275e-02
3.884000000000000341e+01,2.411302628711846016e-02
3.888000000000000256e+01,2.197891313957778259e-02
3.892000000000000171e+01,1.837573736660657805e-02
3.896000000000000085e+01,2.113749352162481304e-02
3.900000000000000000e+01,2.414386983221064251e-02
3.903999999999999915e+01,3.057742540983673235e-02
3.907999999999999829e+01,2.807513249420454798e-02
3.911999999999999744e+01,3.536513706855810152e-02
3.915999999999999659e+01,3.824831843498802120e-02
3.920000000000000284e+01,4.211054723009992340e-02
3.924000000000000199e+01,3.813857537297622030e-02
3.928000000000000114e+01,3.636970894216977335e-02
3.932000000000000028e+01,3.594710258640956835e-02
3.935999999999999943e+01,3.968609682964621688e-02
3.939999999999999858e+01,4.305766044538710674e-02
3.943999999999999773e+01,3.773817013607747711e-02
3.947999999999999687e+01,3.621305589708459505e-02
3.952000000000000313e+01,3.640141041873027478e-02
3.956000000000000227e+01,4.148579281248727241e-02
3.960000000000000142e+01,4.191851782239351676e-02
3.964000000000000057e+01,3.623070911797447030e-02
3.967999999999999972e+01,4.731232334105842791e-02
3.971999999999999886e+01,2.889381648346799059e-02
3.975999999999999801e+01,4.903303145225648696e-02
3.979999999999999716e+01,4.738371171756385059e-02
3.984000000000000341e+01,4.818228207546634834e-02
3.988000000000000256e+01,6.195567338787977968e-02
3.992000000000000171e+01,5.504217981822058514e-02
3.996000000000000085e+01,6.526531390088481654e-02
4.000000000000000000e+01,7.144880177504221719e-02
4.003999999999999915e+01,6.061758470119070485e-02
4.007999999999999829e+01,7.059517521372621340e-02
4.011999999999999744e+01,8.167417380190716836e-02
4.015999999999999659e+01,7.720733585100986174e-02
4.020000000000000284e+01,7.739168169436687339e-02
4.024000000000000199e+01,8.088074119734434131e-02
4.028000000000000114e+01,1.015064125095574837e-01
4.032000000000000028e+01,1.085447384945999461e-01
4.035999999999999943e+01,1.066471526140331666e-01
4.039999999999999858e+01,1.095231468216315285e-01
4.043999999999999773e+01,1.248843094749744198e-01
4.047999999999999687e+01,1.420812995555332803e-01
4.052000000000000313e+01,1.485062769113281445e-01
4.056000000000000227e+01,1.813707230975515061e-01
4.060000000000000142e+01,1.857142542013348052e-01
4.064000000000000057e+01,1.871197631730022459e-01
4.067999999999999972e+01,2.434853786648275564e-01
4.071999999999999886e+01,2.675354810619927082e-01
4.075999999999999801e+01,2.847305571189809315e-01
4.079999999999999716e+01,3.224895927237274029e-01
4.084000000000000341e+01,3.571881900985874880e-01
4.088000000000000256e+01,4.057184022891940911e-01
4.092000000000000171e+01,4.511881722891424862e-01
4.096000000000000085e+01,5.199148302238008057e-01
4.100000000000000000e+01,5.959855686534899499e-01
4.103999999999999915e+01,6.763402307018057114e-01
4.107999999999999829e+01,7.680783737471240658e-01
4.111999999999999744e+01,8.565112523081730433e-01
4.115999999999999659e+01,8.832511089885431987e-01
4.120000000000000284e+01,9.577290808894515228e-01
4.124000000000000199e+01,9.986674519922748017e-01
4.128000000000000114e+01,9.737509846146772396e-01
4.132000000000000028e+01,1.000000000000000000e+00
4.135999999999999943e+01,9.460726480307658504e-01
4.139999999999999858e+01,8.472219111287163651e-01
4.143999999999999773e+01,7.737089437260371572e-01
4.147999999999999687e+01,6.743679539809225298e-01
4.152000000000000313e+01,5.793108640898030348e-01
4.156000000000000227e+01,4.962492624102579075e-01
4.160000000000000142e+01,4.031500317105720099e-01
4.164000000000000057e+01,3.306147189705388456e-01
4.167999999999999972e+01,3.074087782323413065e-01
4.171999999999999886e+01,2.544578050024893789e-01
4.175999999999999801e+01,2.412885165381251085e-01
4.179999999999999716e+01,2.071874377218662355e-01
4.184000000000000341e+01,1.861834890170463719e-01
4.188000000000000256e+01,1.580796461295611854e-01
4.192000000000000171e+01,1.510293321223898644e-01
4.196000000000000085e+01,1.390824314969140718e-01
4.200000000000000000e+01,1.205252555309779122e-01
4.203999999999999915e+01,1.275506317503042886e-01
4.207999999999999829e+01,1.124201417966269739e-01
4.211999999999999744e+01,1.061025512372618940e-01
4.215999999999999659e+01,7.970999587341347226e-02
4.220000000000000284e+01,8.697879369877109523e-02
4.224000000000000199e+01,9.400242648506984544e-02
4.228000000000000114e+01,7.250506101271773918e-02
4.232000000000000028e+01,8.356738702584734502e-02
4.235999999999999943e+01,6.831202234468711221e-02
4.239999999999999858e+01,6.762263439965103540e-02
4.243999999999999773e+01,6.815694586371481845e-02
4.247999999999999687e+01,6.477389453118231888e-02
4.252000000000000313e+01,6.053363331768557565e-02
4.256000000000000227e+01,6.021000188062654995e-02
4.260000000000000142e+01,6.453743541466365474e-02
4.264000000000000057e+01,5.331890962569232895e-02
4.267999999999999972e+01,5.483025377253258198e-02
4.271999999999999886e+01,4.752797540683201261e-02
4.275999999999999801e+01,4.744728420333875485e-02
4.279999999999999716e+01,4.467327631856861381e-02
4.284000000000000341e+01,4.067482412222431926e-02
4.288000000000000256e+01,5.148713728905395665e-02
4.292000000000000171e+01,3.879707454052667287e-02
4.296000000000000085e+01,4.189702276112713952e-02
4.300000000000000000e+01,3.569370982312212309e-02
4.303999999999999915e+01,2.789872408409088331e-02
4.307999999999999829e+01,3.785224250648100419e-02
4.311999999999999744e+01,3.838008763326698075e-02
4.315999999999999659e+01,3.964197173884247138e-02
4.320000000000000284e+01,3.600720783414847886e-02
4.324000000000000199e+01,2.869985589720621538e-02
4.328000000000000114e+01,3.926340441559614952e-02
4.332000000000000028e+01,2.571252623556587180e-02
4.335999999999999943e+01,2.795163922080365348e-02
4.339999999999999858e+01,3.116959169419656825e-02
4.343999999999999773e+01,2.802200992491556825e-02
4.347999999999999687e+01,3.234079206257588213e-02
4.352000000000000313e+01,3.029403599679026532e-02
4.356000000000000227e+01,2.751242475584590036e-02
4.360000000000000142e+01,3.660379453095076452e-02
4.364000000000000057e+01,3.027156166923866340e-02
4.367999999999999972e+01,2.406131106209487627e-02
4.371999999999999886e+01,2.886719215895739224e-02
4.375999999999999801e+01,2.192165055306662808e-02
4.379999999999999716e+01,1.803583396076348377e-02
4.384000000000000341e+01,2.039230149352069810e-02
4.388000000000000256e+01,2.372758474980145305e-02
4.392000000000000171e+01,2.253340293638740263e-02
4.396000000000000085e+01,2.182840810236202564e-02
4.400000000000000000e+01,2.283666022574653426e-02
4.403999999999999915e+01,2.886312461385437747e-02
4.407999999999999829e+01,2.497424339373194996e-02
4.411999999999999744e+01,1.692310578950704733e-02
4.415999999999999659e+01,1.927604712583912833e-02
4.420000000000000284e+01,2.040447681747400988e-02
4.424000000000000199e+01,1.724823798800783139e-02
4.428000000000000114e+01,1.800854377838263451e-02
4.432000000000000028e+01,1.974764350803526886e-02
4.435999999999999943e+01,2.466884672171269083e-02
4.439999999999999858e+01,2.408131153433796731e-02
4.443999999999999773e+01,1.761781737800289724e-02
4.447999999999999687e+01,1.959988718568557095e-02
4.452000000000000313e+01,2.109186668062763143e-02
4.456000000000000227e+01,2.368503442837244233e-02
4.460000000000000142e+01,2.101426626481661328e-02
4.464000000000000057e+01,1.907746380576942277e-02
4.467999999999999972e+01,2.338290388367719741e-02
4.471999999999999886e+01,2.168996493408217180e-02
4.475999999999999801e+01,1.950692378943069683e-02
4.479999999999999716e+01,2.124040151960264119e-02
4.484000000000000341e+01,2.223896070226467903e-02
4.488000000000000256e+01,2.666441001561538002e-02
4.492000000000000171e+01,3.414952889174660555e-02
4.496000000000000085e+01,2.106991955301364822e-02
4.500000000000000000e+01,2.781962464646764444e-02
4.503999999999999915e+01,2.012490735632152875e-02
4.507999999999999829e+01,1.206247822387186350e-02
4.511999999999999744e+01,1.513851767776024614e-02
4.515999999999999659e+01,1.894849709113967731e-02
4.520000000000000284e+01,2.655256937964205546e-02
4.524000000000000199e+01,2.448605102040251127e-02
4.528000000000000114e+01,9.076754157813395410e-03
4.532000000000000028e+01,1.239510012175706367e-02
4.535999999999999943e+01,2.060918680184629578e-02
4.539999999999999858e+01,4.118579016397895531e-02
4.543999999999999773e+01,2.100061923289734539e-02
4.547999999999999687e+01,2.039992657768957551e-02
4.552000000000000313e+01,2.285887377947277629e-02
4.556000000000000227e+01,1.491277731538188239e-02
4.560000000000000142e+01,2.128768676485609523e-02
4.564000000000000057e+01,1.933845391697650712e-02
4.567999999999999972e+01,2.497788225065055920e-02
4.571999999999999886e+01,2.180353954283599516e-02
4.575999999999999801e+01,1.777182654279351251e-02
4.579999999999999716e+01,1.606530236199590553e-02
4.584000000000000341e+01,1.178771718642844003e-02
4.588000000000000256e+01,1.975021873243201775e-02
4.592000000000000171e+01,2.012300129342434879e-02
4.596000000000000085e+01,1.865915409353317150e-02
4.600000000000000000e+01,1.560348754405397817e-02
4.603999999999999915e+01,1.940202717761042167e-02
4.607999999999999829e+01,1.818137001726676666e-02
4.611999999999999744e+01,1.622573093706223407e-02
4.615999999999999659e+01,1.757451241935449604e-02
4.620000000000000284e+01,2.357418063800558947e-02
4.624000000000000199e+01,3.140939110829291808e-02
4.628000000000000114e+01,1.745574605257196182e-02
4.632000000000000028e+01,2.749316073488534615e-02
4.635999999999999943e+01,1.929149560979927930e-02
4.639999999999999858e+01,2.810373309905469727e-02
4.643999999999999773e+01,2.406275943713036616e-02
4.647999999999999687e+01,2.393822147381866397e-02
4.652000000000000313e+01,2.246665080758279351e-02
4.656000000000000227e+01,2.491151187918763665e-02
4.660000000000000142e+01,1.438074768222813785e-02
4.664000000000000057e+01,3.408374336809186222e-02
4.667999999999999972e+01,2.685680349877739292e-02
4.671999999999999886e+01,2.281185027071545857e-02
4.675999999999999801e+01,1.815428963245779501e-02
4.679999999999999716e+01,2.598158255857535917e-02
4.684000000000000341e+01,2.328136225062707454e-02
4.688000000000000256e+01,2.192702772477668136e-02
4.692000000000000171e+01,2.485632570081545631e-02
4.696000000000000085e+01,2.399044527286997922e-02
4.700000000000000000e+01,2.667375621099741731e-02
4.703999999999999915e+01,3.253903794728964238e-02
4.707999999999999829e+01,3.105935565905888068e-02
4.711999999999999744e+01,2.651892422034430805e-02
4.715999999999999659e+01,2.442602046359229617e-02
4.720000000000000284e+01,3.126817078797497484e-02
4.724000000000000199e+01,3.762009613337100739e-02
4.728000000000000114e+01,3.503576700638486724e-02
4.732000000000000028e+01,2.278074425158628860e-02
4.735999999999999943e+01,3.414951115726472253e-02
4.739999999999999858e+01,2.164846175683541457e-02
4.743999999999999773e+01,3.130232370602252512e-02
4.747999999999999687e+01,2.724607964310961014e-02
4.752000000000000313e+01,2.992156229311067339e-02
4.756000000000000227e+01,3.259642890440018342e-02
4.760000000000000142e+01,2.878314911703414372e-02
4.764000000000000057e+01,3.072234053469845294e-02
4.767999999999999972e+01,2.568375680957236604e-02
4.771999999999999886e+01,2.798892087463399417e-02
4.775999999999999801e+01,2.392833681533689666e-02
4.779999999999999716e+01,2.451856027695977977e-02
4.784000000000000341e+01,3.343177515433819191e-02
4.788000000000000256e+01,2.239214822788019449e-02
4.792000000000000171e+01,2.469416278587530100e-02
4.796000000000000085e+01,3.176938313908717754e-02
4.800000000000000000e+01,3.247884348562455475e-02
4.803999999999999915e+01,2.363998075324270573e-02
4.807999999999999829e+01,2.899959495465503564e-02
4.811999999999999744e+01,2.113869624115473356e-02
4.815999999999999659e+01,2.527295897554375850e-02
4.820000000000000284e+01,3.050822974761219913e-02
4.824000000000000199e+01,3.464119505184116987e-02
4.828000000000000114e+01,2.641048289049858708e-02
4.832000000000000028e+01,2.478905163850985208e-02
4.835999999999999943e+01,3.650924008672851162e-02
4.839999999999999858e+01,2.668528044016383466e-02
4.843999999999999773e+01,2.053284706161784268e-02
4.847999999999999687e+01,3.335271245079437369e-02
4.852000000000000313e+01,3.442091947128717716e-02
4.856000000000000227e+01,2.496152810111737855e-02
4.860000000000000142e+01,2.113215421087389842e-02
4.864000000000000057e+01,3.321491627079109499e-02
4.867999999999999972e+01,2.522239072331180706e-02
4.871999999999999886e+01,2.432875106468951332e-02
4.875999999999999801e+01,2.355684215161733125e-02
4.879999999999999716e+01,2.768050364149728451e-02
4.884000000000000341e+01,2.764167506173024688e-02
4.888000000000000256e+01,2.515404117370030959e-02
4.892000000000000171e+01,2.817400272666819444e-02
4.896000000000000085e+01,3.058124794821200781e-02
4.900000000000000000e+01,3.066208811617574664e-02
4.903999999999999915e+01,2.449952298327041228e-02
4.907999999999999829e+01,2.066198427796035395e-02
4.911999999999999744e+01,3.004362144968351911e-02
4.915999999999999659e+01,2.265491453707794631e-02
4.920000000000000284e+01,2.407875649046777727e-02
4.924000000000000199e+01,2.574671162061679605e-02
4.928000000000000114e+01,3.022930805979409663e-02
4.932000000000000028e+01,2.271539413088681514e-02
4.935999999999999943e+01,2.021942907536878123e-02
4.939999999999999858e+01,2.469991004630554474e-02
4.943999999999999773e+01,1.987681101649560814e-02
4.947999999999999687e+01,2.447827796918288293e-02
4.952000000000000313e+01,2.577406455654671427e-02
4.956000000000000227e+01,1.629739085191729553e-02
4.960000000000000142e+01,2.567055426836249363e-02
4.964000000000000057e+01,3.271728094505210738e-02
4.967999999999999972e+01,2.544176170920970856e-02
4.971999999999999886e+01,2.012401862726488286e-02
4.975999999999999801e+01,2.643413919024846168e-02
4.979999999999999716e+01,2.478713008325944545e-02
4.984000000000000341e+01,3.440076207290472532e-02
4.988000000000000256e+01,1.953242399330851892e-02
4.992000000000000171e+01,2.461556295426566010e-02
4.996000000000000085e+01,2.431209443636147757e-02
5.000000000000000000e+01,2.608879440549378634e-02
5.003999999999999915e+01,2.859919272702873480e-02
5.007999999999999829e+01,2.290763512420790696e-02
5.011999999999999744e+01,2.113233300487644961e-02
5.015999999999999659e+01,2.486456493457775418e-02
5.020000000000000284e+01,2.284295891557971275e-02
5.024000000000000199e+01,3.134753701431194917e-02
5.028000000000000114e+01,3.213977407012142545e-02
5.032000000000000028e+01,2.521966810262219263e-02
5.035999999999999943e+01,3.213070759939467419e-02
5.039999999999999858e+01,2.643315227845776869e-02
5.043999999999999773e+01,2.771199149394044242e-02
5.047999999999999687e+01,2.641953998988068320e-02
5.052000000000000313e+01,3.283791623651285962e-02
5.056000000000000227e+01,3.338003051513126901e-02
5.060000000000000142e+01,3.441100302906729969e-02
5.064000000000000057e+01,3.886858049811221794e-02
5.067999999999999972e+01,4.552869898347287891e-02
5.071999999999999886e+01,4.264036170405431647e-02
5.075999999999999801e+01,5.113502616823344810e-02
5.079999999999999716e+01,5.816003983234883240e-02
5.084000000000000341e+01,5.686065374893430058e-02
5.088000000000000256e+01,5.959989171751640252e-02
5.092000000000000171e+01,7.445656068319662924e-02
5.096000000000000085e+01,7.046189111788722648e-02
5.100000000000000000e+01,7.650374325961176170e-02
5.103999999999999915e+01,7.532284151444298970e-02
5.107999999999999829e+01,8.001664685695181189e-02
5.111999999999999744e+01,6.953129162214867487e-02
5.115999999999999659e+01,7.691644670664159189e-02
5.120000000000000284e+01,6.973446823225416813e-02
5.124000000000000199e+01,6.463259685293820667e-02
5.128000000000000114e+01,6.528301646352925591e-02
5.132000000000000028e+01,5.038704700735634201e-02
5.135999999999999943e+01,4.528276904306220013e-02
5.139999999999999858e+01,4.507393275663215682e-02
5.143999999999999773e+01,4.510910072573287577e-02
5.147999999999999687e+01,3.241321421086231641e-02
5.152000000000000313e+01,3.513969627499968079e-02
5.156000000000000227e+01,3.101061729474826820e-02
5.160000000000000142e+01,3.092012671954607120e-02
5.164000000000000057e+01,3.303212963139628977e-02
5.167999999999999972e+01,1.996494424053099279e-02
5.171999999999999886e+01,2.244252372258450506e-02
5.175999999999999801e+01,3.348771293424990247e-02
5.179999999999999716e+01,3.473958051903348193e-02
5.184000000000000341e+01,2.338278199221271308e-02
5.188000000000000256e+01,2.769314661260758800e-02
5.192000000000000171e+01,2.441349519009563054e-02
5.196000000000000085e+01,3.031347457446932972e-02
5.200000000000000000e+01,2.764418438843851272e-02
5.203999999999999915e+01,2.240352624781241642e-02
5.207999999999999829e+01,2.487361862282543717e-02
5.211999999999999744e+01,2.697565060760417563e-02
5.215999999999999659e+01,2.748555826335545918e-02
5.220000000000000284e+01,2.028302981765743931e-02
5.224000000000000199e+01,2.128086874941749473e-02
5.228000000000000114e+01,2.423635709037304242e-02
5.232000000000000028e+01,1.372631218420758414e-02
5.235999999999999943e+01,2.145393677328119933e-02
5.239999999999999858e+01,2.000024100888704581e-02
5.243999999999999773e+01,1.768884422780795176e-02
5.247999999999999687e+01,1.819193032487951417e-02
5.252000000000000313e+01,2.603852656582235359e-02
5.256000000000000227e+01,2.629507507768286470e-02
5.260000000000000142e+01,1.761510572582715428e-02
5.264000000000000057e+01,2.093007601863209471e-02
5.267999999999999972e+01,2.877320602942790018e-02
5.271999999999999886e+01,2.792462462703102291e-02
5.275999999999999801e+01,3.503157246539318620e-02
5.279999999999999716e+01,2.120618534571892116e-02
5.284000000000000341e+01,1.949813416461614046e-02
5.288000000000000256e+01,2.562320008727376683e-02
5.292000000000000171e+01,1.962917121126875677e-02
5.296000000000000085e+01,1.791847579887138539e-02
5.300000000000000000e+01,2.477532872412079729e-02
5.303999999999999915e+01,1.988029949707183913e-02
5.307999999999999829e+01,2.698018813043783631e-02
5.311999999999999744e+01,2.404187739250356753e-02
5.315999999999999659e+01,2.171470434102551819e-02
5.320000000000000284e+01,1.191985807013030627e-02
5.324000000000000199e+01,1.864895098421279901e-02
5.328000000000000114e+01,1.901202248067267869e-02
5.332000000000000028e+01,2.194472287549640438e-02
5.335999999999999943e+01,1.606327397511116833e-02
5.339999999999999858e+01,2.768500590488548463e-02
5.343999999999999773e+01,2.792205446602387051e-02
5.347999999999999687e+01,2.191547790345050456e-02
5.352000000000000313e+01,1.529595924545242014e-02
5.356000000000000227e+01,1.956967892067125112e-02
5.360000000000000142e+01,1.759976753102038619e-02
5.364000000000000057e+01,1.954593735089352191e-02
5.367999999999999972e+01,1.843103323698371682e-02
5.371999999999999886e+01,2.478198605120682241e-02
5.375999999999999801e+01,1.950342726202474244e-02
5.379999999999999716e+01,1.850816034834494236e-02
5.384000000000000341e+01,1.971527800048920864e-02
5.388000000000000256e+01,2.336959062975302662e-02
5.392000000000000171e+01,1.772010145504144749e-02
5.396000000000000085e+01,1.684352101765112381e-02
5.400000000000000000e+01,2.196390929560329205e-02
5.403999999999999915e+01,1.778048982842211564e-02
5.407999999999999829e+01,1.714591119899713106e-02
5.411999999999999744e+01,1.993776523110160279e-02
5.415999999999999659e+01,2.664567472771247822e-02
5.420000000000000284e+01,2.025517648658386669e-02
5.424000000000000199e+01,2.696119443724360673e-02
5.428000000000000114e+01,2.154805025611765748e-02
5.432000000000000028e+01,6.096647292112337968e-03
5.435999999999999943e+01,1.843049807962359593e-02
5.439999999999999858e+01,2.427586580286437631e-02
5.443999999999999773e+01,2.338793608976722643e-02
5.447999999999999687e+01,1.956129903100844308e-02
5.452000000000000313e+01,2.234363592177812663e-02
5.456000000000000227e+01,2.108560574354776881e-02
5.460000000000000142e+01,2.141789152460448278e-02
5.464000000000000057e+01,2.970561346827960830e-02
5.467999999999999972e+01,2.073309325099922940e-02
5.471999999999999886e+01,1.971600523556536061e-02
5.475999999999999801e+01,2.224772439132616242e-02
5.479999999999999716e+01,2.906268591293995410e-02
5.484000000000000341e+01,2.033108409382438503e-02
5.488000000000000256e+01,2.053415612173719110e-02
5.492000000000000171e+01,2.795821327452234148e-02
5.496000000000000085e+01,2.375269941232320547e-02
5.500000000000000000e+01,2.480966758077297885e-02
5.503999999999999915e+01,2.182624491559109065e-02
5.507999999999999829e+01,2.398289412444543078e-02
5.511999999999999744e+01,2.197674234305545260e-02
5.515999999999999659e+01,1.996959824961959742e-02
5.520000000000000284e+01,1.612536692614115544e-02
5.524000000000000199e+01,1.937969868860654754e-02
5.528000000000000114e+01,1.235091174724780617e-02
5.532000000000000028e+01,2.515092829849570333e-02
5.535999999999999943e+01,2.595413544337745598e-02
5.539999999999999858e+01,2.186009056026877104e-02
5.543999999999999773e+01,2.670069179878489796e-02
5.547999999999999687e+01,2.395110074004282510e-02
5.552000000000000313e+01,2.242456150418833602e-02
5.556000000000000227e+01,2.028497917322469313e-02
5.560000000000000142e+01,2.989537754667847408e-02
5.564000000000000057e+01,2.310232960079846090e-02
5.567999999999999972e+01,2.267338578157234580e-02
5.571999999999999886e+01,2.518117062507398835e-02
5.575999999999999801e+01,2.548462192560727729e-02
5.579999999999999716e+01,3.080570325738863149e-02
5.584000000000000341e+01,2.755732490171233090e-02
5.588000000000000256e+01,2.810251065810495663e-02
5.592000000000000171e+01,2.962591604184401303e-02
5.596000000000000085e+01,2.111098144687890282e-02
5.600000000000000000e+01,1.712404219786910903e-02
5.603999999999999915e+01,2.427503088982748899e-02
5.607999999999999829e+01,3.252663748342912720e-02
5.611999999999999744e+01,3.061748998094200938e-02
5.615999999999999659e+01,2.148533510215733938e-02
5.620000000000000284e+01,2.471516220120416676e-02
5.624000000000000199e+01,2.990244265123539677e-02
5.628000000000000114e+01,3.202852044239561102e-02
5.632000000000000028e+01,2.913489446084739296e-02
5.635999999999999943e+01,2.807630969328494749e-02
5.639999999999999858e+01,3.228013764286244425e-02
5.643999999999999773e+01,2.926094435344065922e-02
5.647999999999999687e+01,3.762446961242276594e-02
5.652000000000000313e+01,4.194753076349230780e-02
5.656000000000000227e+01,3.684425320927169761e-02
5.660000000000000142e+01,4.434775022070429340e-02
5.664000000000000057e+01,4.266971695775623186e-02
5.667999999999999972e+01,4.698851972429064078e-02
5.671999999999999886e+01,3.600547846363652549e-02
5.675999999999999801e+01,4.301507646408333357e-02
5.679999999999999716e+01,3.643651321833973888e-02
5.684000000000000341e+01,3.879252678071197502e-02
5.688000000000000256e+01,3.796490178258293130e-02
5.692000000000000171e+01,4.044116462312472710e-02
5.696000000000000085e+01,3.924416015903042093e-02
5.700000000000000000e+01,4.073900859363142196e-02
5.703999999999999915e+01,3.366433792919564655e-02
5.707999999999999829e+01,4.617357122870238001e-02
5.711999999999999744e+01,3.677100612176208844e-02
5.715999999999999659e+01,3.911834448418641946e-02
5.720000000000000284e+01,3.938368420558814587e-02
5.724000000000000199e+01,3.181393210106758102e-02
5.728000000000000114e+01,2.705842522838123806e-02
5.732000000000000028e+01,3.197190857422337051e-02
5.735999999999999943e+01,3.198804285316253493e-02
5.739999999999999858e+01,3.714413414375165173e-02
5.743999999999999773e+01,2.944646967701919013e-02
5.747999999999999687e+01,2.676635206532399294e-02
5.752000000000000313e+01,2.616603062810291674e-02
5.756000000000000227e+01,2.225963076797833617e-02
5.760000000000000142e+01,2.912386302624692808e-02
5.764000000000000057e+01,1.982936233756467728e-02
5.767999999999999972e+01,2.069345882730003888e-02
5.771999999999999886e+01,2.571824691887185377e-02
5.775999999999999801e+01,1.997016873932650274e-02
5.779999999999999716e+01,2.621677473465165373e-02
5.784000000000000341e+01,3.282947431959306467e-02
5.788000000000000256e+01,3.026058223818875806e-02
5.792000000000000171e+01,1.214497432633536433e-02
5.796000000000000085e+01,2.144722334373911493e-02
5.800000000000000000e+01,3.123796422505598427e-02
5.803999999999999915e+01,2.083054789281856695e-02
5.807999999999999829e+01,1.678711686407683215e-02
5.811999999999999744e+01,1.861804437508189289e-02
5.815999999999999659e+01,1.836692571580109123e-02
5.820000000000000284e+01,2.729512892319456430e-02
5.824000000000000199e+01,2.141103763209552605e-02
5.828000000000000114e+01,2.519588903026168114e-02
5.832000000000000028e+01,2.200243850296934936e-02
5.835999999999999943e+01,2.541777180815233891e-02
5.839999999999999858e+01,2.136517444374200908e-02
5.843999999999999773e+01,2.000435868413206336e-02
5.847999999999999687e+01,2.182494733229942488e-02
5.852000000000000313e+01,3.209040482900893387e-02
5.856000000000000227e+01,2.105602360458010136e-02
5.860000000000000142e+01,2.458681705995746647e-02
5.864000000000000057e+01,2.750441493050592712e-02
5.867999999999999972e+01,2.405572403132577239e-02
5.871999999999999886e+01,2.709339294530649020e-02
5.875999999999999801e+01,2.853861076657464996e-02
5.879999999999999716e+01,2.422956485615984992e-02
5.884000000000000341e+01,3.167033923889891328e-02
5.888000000000000256e+01,2.491081841617353090e-02
5.892000000000000171e+01,2.610652185476774675e-02
5.896000000000000085e+01,2.938195017394112929e-02
5.900000000000000000e+01,2.935122877631609131e-02
5.903999999999999915e+01,3.164504069017972515e-02
5.907999999999999829e+01,3.099991751399515730e-02
5.911999999999999744e+01,3.463782282197879620e-02
5.915999999999999659e+01,3.484716429577943558e-02
5.920000000000000284e+01,3.223997093421462207e-02
5.924000000000000199e+01,3.526226826990808139e-02
5.928000000000000114e+01,3.546802680946417596e-02
5.932000000000000028e+01,4.081364730214365882e-02
5.935999999999999943e+01,4.407716221295818887e-02
5.939999999999999858e+01,5.333737848700917383e-02
5.943999999999999773e+01,4.656117889258137854e-02
5.947999999999999687e+01,4.933145637999893085e-02
5.952000000000000313e+01,5.197811949745913956e-02
5.956000000000000227e+01,5.095138658519519220e-02
5.960000000000000142e+01,5.237156545485706360e-02
5.964000000000000057e+01,5.856437184703237181e-02
5.967999999999999972e+01,5.741159039310406859e-02
5.971999999999999886e+01,5.650240325481072773e-02
5.975999999999999801e+01,5.730568280185496799e-02
5.979999999999999716e+01,6.190233238314305636e-02
5.984000000000000341e+01,6.319279065952737584e-02
5.988000000000000256e+01,6.129946184646260093e-02
5.992000000000000171e+01,6.124099799303230757e-02
5.996000000000000085e+01,6.742402016911636098e-02
