2.003999999999999915e+01,1.651343753631636935e-01
2.007999999999999829e+01,2.291232942325729383e-01
2.012000000000000099e+01,1.965645414041324313e-01
2.016000000000000014e+01,1.582507622599526598e-01
2.019999999999999929e+01,1.423148876257853968e-01
2.023999999999999844e+01,1.756110786425597037e-01
2.028000000000000114e+01,1.257866706906708709e-01
2.032000000000000028e+01,1.533272569751093772e-01
2.035999999999999943e+01,1.354709455124478434e-01
2.039999999999999858e+01,1.431894515700273818e-01
2.044000000000000128e+01,1.592193821623640038e-01
2.048000000000000043e+01,2.532536828719754163e-01
2.051999999999999957e+01,1.343722481611374919e-01
2.055999999999999872e+01,1.376127332132547898e-01
2.060000000000000142e+01,1.760187972199601381e-01
2.064000000000000057e+01,1.345011663067671448e-01
2.067999999999999972e+01,1.396580370308417307e-01
2.071999999999999886e+01,1.870137132549354320e-01
2.076000000000000156e+01,9.306474296650263378e-02
2.080000000000000071e+01,1.340253758470642542e-01
2.083999999999999986e+01,1.781823321194290488e-01
2.087999999999999901e+01,1.699091282534059000e-01
2.092000000000000171e+01,2.076710277400420357e-01
2.096000000000000085e+01,1.220310450998520063e-01
2.100000000000000000e+01,1.636280363178845287e-01
2.103999999999999915e+01,1.342526980061239661e-01
2.107999999999999829e+01,1.336490633404407158e-01
2.112000000000000099e+01,1.918682176738228662e-01
2.116000000000000014e+01,1.055857788789594520e-01
2.119999999999999929e+01,1.363101452619007448e-01
2.123999999999999844e+01,1.107680222886890248e-01
2.128000000000000114e+01,1.299822128200195104e-01
2.132000000000000028e+01,1.069963760475244469e-01
2.135999999999999943e+01,1.268486937716035989e-01
2.139999999999999858e+01,1.716363881643618583e-01
2.144000000000000128e+01,1.134824885030772945e-01
2.148000000000000043e+01,1.326935181075058201e-01
2.151999999999999957e+01,2.081697749376917594e-01
2.155999999999999872e+01,1.391444162359718462e-01
2.160000000000000142e+01,1.103996592189836201e-01
2.164000000000000057e+01,1.423958166035370621e-01
2.167999999999999972e+01,1.507340869509123660e-01
2.171999999999999886e+01,1.635474010868616657e-01
2.176000000000000156e+01,1.405545116990764842e-01
2.180000000000000071e+01,1.629572915334868977e-01
2.183999999999999986e+01,1.706535631630196337e-01
2.187999999999999901e+01,1.374285458084262279e-01
2.192000000000000171e+01,9.972717324681183715e-02
2.196000000000000085e+01,1.208485426365759757e-01
2.200000000000000000e+01,1.087212344300570038e-01
2.203999999999999915e+01,9.211756429541875790e-02
2.207999999999999829e+01,1.388123232879432400e-01
2.212000000000000099e+01,1.919002581926171347e-01
2.216000000000000014e+01,1.426859435590719094e-01
2.219999999999999929e+01,1.970512964035333325e-01
2.223999999999999844e+01,1.817230221920442534e-01
2.228000000000000114e+01,1.510488302892397661e-01
2.232000000000000028e+01,1.817548995441663762e-01
2.235999999999999943e+01,1.235857897496919072e-01
2.239999999999999858e+01,1.632418726496882022e-01
2.244000000000000128e+01,1.306467779222560410e-01
2.248000000000000043e+01,1.364140810642678614e-01
2.251999999999999957e+01,9.358744126735572821e-02
2.255999999999999872e+01,9.168073422880211598e-02
2.260000000000000142e+01,6.931301283671033320e-02
2.264000000000000057e+01,1.255889254245404763e-01
2.267999999999999972e+01,1.403041193785116714e-01
2.271999999999999886e+01,1.531004526877881022e-01
2.276000000000000156e+01,1.313692961490037225e-01
2.280000000000000071e+01,1.339340530236756144e-01
2.283999999999999986e+01,1.173165517874370095e-01
2.287999999999999901e+01,1.531278925500407506e-01
2.292000000000000171e+01,1.109335652191187210e-01
2.296000000000000085e+01,1.640068598478954809e-01
2.300000000000000000e+01,1.377957122175910432e-01
2.303999999999999915e+01,1.333229251888997380e-01
2.307999999999999829e+01,1.486703419942198845e-01
2.312000000000000099e+01,1.601807212239501621e-01
2.316000000000000014e+01,1.179820429296062623e-01
2.319999999999999929e+01,1.122275676508815573e-01
2.323999999999999844e+01,5.787910910664484376e-02
2.328000000000000114e+01,1.371613451438854492e-01
2.332000000000000028e+01,1.192563454115868615e-01
2.335999999999999943e+01,1.077444521400905270e-01
2.339999999999999858e+01,1.064619721435012267e-01
2.344000000000000128e+01,7.640642779433419463e-02
2.348000000000000043e+01,5.913783160898902769e-02
2.351999999999999957e+01,1.038888142128066155e-01
2.355999999999999872e+01,1.454421194394197592e-01
2.360000000000000142e+01,1.204986456496969366e-01
2.364000000000000057e+01,1.121784201168019024e-01
2.367999999999999972e+01,6.677311383778040954e-02
2.371999999999999886e+01,1.313412383269748906e-01
2.376000000000000156e+01,1.658575108558396627e-01
2.380000000000000071e+01,1.294012992696559616e-01
2.383999999999999986e+01,1.364224881197655947e-01
2.387999999999999901e+01,1.293764393487421283e-01
2.392000000000000171e+01,1.363960837823376404e-01
2.396000000000000085e+01,1.427755678047157861e-01
2.400000000000000000e+01,7.818255651021491226e-02
2.403999999999999915e+01,6.729709192876522084e-02
2.407999999999999829e+01,1.005283991838240160e-01
2.412000000000000099e+01,6.662351345537656511e-02
2.416000000000000014e+01,1.222317188939417015e-01
2.419999999999999929e+01,9.919479970485650666e-02
2.423999999999999844e+01,7.679647410681536557e-02
2.428000000000000114e+01,1.292053815792176541e-01
2.432000000000000028e+01,1.061660819149303769e-01
2.435999999999999943e+01,1.010287598657068908e-01
2.439999999999999858e+01,7.926663170094518096e-02
2.444000000000000128e+01,8.180032509463257273e-02
2.448000000000000043e+01,6.834859273446144967e-02
2.451999999999999957e+01,1.258677709480678086e-01
2.455999999999999872e+01,4.336085949919881583e-02
2.460000000000000142e+01,1.162236533417290718e-01
2.464000000000000057e+01,4.202711977452266295e-02
2.467999999999999972e+01,7.652519352192398150e-02
2.471999999999999886e+01,1.193344520849180940e-01
2.476000000000000156e+01,1.397644207873735001e-01
2.480000000000000071e+01,1.889658847818665166e-01
2.483999999999999986e+01,9.302616469202855398e-02
2.487999999999999901e+01,8.212380154573213631e-02
2.492000000000000171e+01,1.038292360248464080e-01
2.496000000000000085e+01,1.172218359746503014e-01
2.500000000000000000e+01,8.713543282213156993e-02
2.503999999999999915e+01,8.326297214980761530e-02
2.507999999999999829e+01,9.665306392354661158e-02
2.512000000000000099e+01,1.202724726364535063e-01
2.516000000000000014e+01,1.119217964489855749e-01
2.519999999999999929e+01,9.461888744759958114e-02
2.523999999999999844e+01,5.685481622851857458e-02
2.528000000000000114e+01,8.047084038008349427e-02
2.532000000000000028e+01,1.002497037359271204e-01
2.535999999999999943e+01,3.946522296627043291e-02
2.539999999999999858e+01,1.238202452021042871e-01
2.544000000000000128e+01,1.167423765107051675e-01
2.548000000000000043e+01,7.385809594153269764e-02
2.551999999999999957e+01,1.249625242638099099e-01
2.555999999999999872e+01,1.428180755972283111e-01
2.560000000000000142e+01,6.732257251471461534e-02
2.564000000000000057e+01,7.750376865120045533e-02
2.567999999999999972e+01,1.337198015367887516e-01
2.571999999999999886e+01,1.311115547755832278e-01
2.576000000000000156e+01,1.227479680473947399e-01
2.580000000000000071e+01,1.501890538686228849e-01
2.583999999999999986e+01,1.296753956429590460e-01
2.587999999999999901e+01,9.637315746268490524e-02
2.592000000000000171e+01,9.376050637143491795e-02
2.596000000000000085e+01,7.260480726313674193e-02
2.600000000000000000e+01,9.620515729618962786e-02
2.603999999999999915e+01,7.824460050463842575e-02
2.607999999999999829e+01,5.772561003523476314e-02
2.612000000000000099e+01,1.152106737914967566e-01
2.616000000000000014e+01,6.527818523364373182e-02
2.619999999999999929e+01,6.905312240907619803e-02
2.623999999999999844e+01,5.236684135766335457e-02
2.628000000000000114e+01,4.910673648686238180e-02
2.632000000000000028e+01,1.200143655854259833e-01
2.635999999999999943e+01,1.320976791913394954e-01
2.639999999999999858e+01,8.152036600976551861e-02
2.644000000000000128e+01,4.117229583528089765e-02
2.648000000000000043e+01,6.220425382046191470e-02
2.651999999999999957e+01,6.725067179311700061e-02
2.655999999999999872e+01,1.208894165964693596e-01
2.660000000000000142e+01,1.016373659319164263e-01
2.664000000000000057e+01,1.162717862418581605e-01
2.667999999999999972e+01,6.376987018486822423e-02
2.671999999999999886e+01,5.346642357299394993e-02
2.676000000000000156e+01,6.426174436628113995e-02
2.680000000000000071e+01,8.208936379130428451e-02
2.683999999999999986e+01,9.416158275946188982e-02
2.687999999999999901e+01,8.193623860044683960e-02
2.692000000000000171e+01,1.189425859512470568e-01
2.696000000000000085e+01,1.028790477856122293e-01
2.700000000000000000e+01,1.533105873941786601e-01
2.703999999999999915e+01,1.212605342546362736e-01
2.707999999999999829e+01,1.128667699669741314e-01
2.712000000000000099e+01,1.223748287091203507e-01
2.716000000000000014e+01,1.146185419080612278e-01
2.719999999999999929e+01,9.854929511719488777e-02
2.723999999999999844e+01,7.608524062339130922e-02
2.728000000000000114e+01,4.850514587110817122e-02
2.732000000000000028e+01,1.168318137210392765e-01
2.735999999999999943e+01,9.052855889411000334e-02
2.739999999999999858e+01,1.057843505836624232e-01
2.744000000000000128e+01,7.820038735097648019e-02
2.748000000000000043e+01,4.102467876109777006e-02
2.751999999999999957e+01,3.837477670007315850e-02
2.755999999999999872e+01,1.214014663204785183e-01
2.760000000000000142e+01,1.174708379307688039e-01
2.764000000000000057e+01,3.617366192675443987e-02
2.767999999999999972e+01,4.822568899201320342e-02
2.771999999999999886e+01,9.288535685706066081e-02
2.776000000000000156e+01,8.383570955594137064e-02
2.780000000000000071e+01,5.368537181128908015e-02
2.783999999999999986e+01,9.258760416279887551e-02
2.787999999999999901e+01,1.161436051717498752e-01
2.792000000000000171e+01,1.154019848040116342e-01
2.796000000000000085e+01,6.734488649239382674e-02
2.800000000000000000e+01,7.107695857035582765e-02
2.803999999999999915e+01,0.000000000000000000e+00
2.807999999999999829e+01,1.971468272561005194e-02
2.812000000000000099e+01,8.482468069558415924e-02
2.816000000000000014e+01,5.338655665414221430e-02
2.819999999999999929e+01,5.455604652809611238e-02
2.823999999999999844e+01,5.060944237478603308e-02
2.828000000000000114e+01,8.886122029231677266e-02
2.832000000000000028e+01,4.143440955796758030e-02
2.835999999999999943e+01,9.119307286113972899e-02
2.839999999999999858e+01,1.128177788487595701e-01
2.844000000000000128e+01,7.945436189916654790e-02
2.848000000000000043e+01,8.253485223687814787e-02
2.851999999999999957e+01,7.346599959823389703e-02
2.855999999999999872e+01,9.061089228757415737e-02
2.860000000000000142e+01,1.032790556287674355e-01
2.864000000000000057e+01,3.858061534650548963e-02
2.867999999999999972e+01,9.856117940254330301e-02
2.871999999999999886e+01,7.286313240304088945e-02
2.876000000000000156e+01,7.721512858416322567e-02
2.880000000000000071e+01,6.494207220948519654e-02
2.883999999999999986e+01,1.396243055093478458e-01
2.887999999999999901e+01,1.279885339497943975e-01
2.892000000000000171e+01,1.297787907066956792e-01
2.896000000000000085e+01,6.251442886856661829e-02
2.900000000000000000e+01,1.128958201792795712e-01
2.903999999999999915e+01,5.713826755434721349e-02
2.907999999999999829e+01,7.043321557423008750e-02
2.912000000000000099e+01,1.144175714538552685e-01
2.916000000000000014e+01,1.078894579665615056e-01
2.919999999999999929e+01,4.253686992062993139e-02
2.923999999999999844e+01,2.449768891604896248e-02
2.928000000000000114e+01,1.055620849478061674e-01
2.932000000000000028e+01,1.060629150578269314e-01
2.935999999999999943e+01,1.052838974648055009e-01
2.939999999999999858e+01,8.084656044396355823e-02
2.944000000000000128e+01,2.699643817322905023e-02
2.948000000000000043e+01,4.475633351329658810e-02
2.951999999999999957e+01,4.269421175891612019e-02
2.955999999999999872e+01,6.364885511131064544e-02
2.960000000000000142e+01,9.227502511223170667e-02
2.964000000000000057e+01,4.545269000778194568e-02
2.967999999999999972e+01,3.763173434930391914e-02
2.971999999999999886e+01,1.129297100228433409e-01
2.976000000000000156e+01,5.075884415597223948e-02
2.980000000000000071e+01,9.728229883685787782e-02
2.983999999999999986e+01,9.457201574942571132e-02
2.987999999999999901e+01,2.280706253854474994e-02
2.992000000000000171e+01,2.904595071855731875e-02
2.996000000000000085e+01,8.131943592850851554e-02
3.000000000000000000e+01,7.093209271803052607e-02
3.003999999999999915e+01,8.420087257234697142e-02
3.007999999999999829e+01,7.061437070056207632e-02
3.012000000000000099e+01,6.342059666772131843e-02
3.016000000000000014e+01,8.180109350581252214e-02
3.019999999999999929e+01,8.227768969046853065e-02
3.023999999999999844e+01,4.247191349691158135e-02
3.028000000000000114e+01,6.660349199789480923e-02
3.032000000000000028e+01,5.492838753681529573e-02
3.035999999999999943e+01,4.708845810283708577e-02
3.039999999999999858e+01,7.952863747306546105e-02
3.044000000000000128e+01,9.214674822042710767e-02
3.048000000000000043e+01,5.361293082637967611e-02
3.051999999999999957e+01,8.604968795120560010e-02
3.055999999999999872e+01,1.012219091017141914e-01
3.060000000000000142e+01,8.314497097724513064e-02
3.064000000000000057e+01,6.059118924596195582e-02
3.067999999999999972e+01,6.808734315773465329e-02
3.071999999999999886e+01,4.105556138860816384e-02
3.076000000000000156e+01,3.448293814562871512e-02
3.080000000000000071e+01,9.312641015725485472e-02
3.083999999999999986e+01,8.655146733111816759e-02
3.087999999999999901e+01,8.572982493456003661e-02
3.092000000000000171e+01,6.764362640039028873e-02
3.096000000000000085e+01,1.269218261651853530e-01
3.100000000000000000e+01,8.133974190122396364e-02
3.103999999999999915e+01,1.534032965274373106e-01
3.107999999999999829e+01,8.607978115392601881e-02
3.112000000000000099e+01,1.287292820809161631e-01
3.116000000000000014e+01,7.738803233868551956e-02
3.119999999999999929e+01,1.366591792586362986e-01
3.123999999999999844e+01,1.102515739799872913e-01
3.128000000000000114e+01,1.369117250657277962e-01
3.132000000000000028e+01,1.565374550887849159e-01
3.135999999999999943e+01,1.397170590578510341e-01
3.139999999999999858e+01,1.196985465379722946e-01
3.144000000000000128e+01,8.625175781019429888e-02
3.148000000000000043e+01,1.346450321535054839e-01
3.151999999999999957e+01,1.235743171545377328e-01
3.155999999999999872e+01,1.367990249288672522e-01
3.160000000000000142e+01,2.433727162165999214e-01
3.164000000000000057e+01,1.811476033885421333e-01
3.167999999999999972e+01,2.244197815989790179e-01
3.171999999999999886e+01,2.875116797243666977e-01
3.176000000000000156e+01,3.192725081313975144e-01
3.180000000000000071e+01,2.372216199085863120e-01
3.183999999999999986e+01,2.286987716422167194e-01
3.187999999999999901e+01,3.314276667942180898e-01
3.192000000000000171e+01,2.532094301420429461e-01
3.196000000000000085e+01,2.197469088166814910e-01
3.200000000000000000e+01,1.952345494027090955e-01
3.203999999999999915e+01,2.065265130410533778e-01
3.207999999999999829e+01,2.050295494680542396e-01
3.211999999999999744e+01,1.472654871593443993e-01
3.215999999999999659e+01,2.173771584891491249e-01
3.220000000000000284e+01,1.660044726765103895e-01
3.224000000000000199e+01,1.255000898602993964e-01
3.228000000000000114e+01,1.412603316113861807e-01
3.232000000000000028e+01,1.327227055455211524e-01
3.235999999999999943e+01,1.177899850098679119e-01
3.239999999999999858e+01,1.533674187387083498e-01
3.243999999999999773e+01,1.397109690754397004e-01
3.247999999999999687e+01,5.955724303457796825e-02
3.252000000000000313e+01,1.162306182627013684e-01
3.256000000000000227e+01,1.057673277900879616e-01
3.260000000000000142e+01,9.466339298719624040e-02
3.264000000000000057e+01,1.072154356253076507e-01
3.267999999999999972e+01,1.172086749251732007e-01
3.271999999999999886e+01,1.259218783312505696e-01
3.275999999999999801e+01,9.499195305846713788e-02
3.279999999999999716e+01,9.155430531969349639e-02
3.284000000000000341e+01,5.806429705750372483e-02
3.288000000000000256e+01,1.198413551442396308e-01
3.292000000000000171e+01,1.272694242151799493e-01
3.296000000000000085e+01,9.249681403578235983e-02
3.300000000000000000e+01,1.018404760912704210e-01
3.303999999999999915e+01,1.111828540148655786e-01
3.307999999999999829e+01,1.051787093483193686e-01
3.311999999999999744e+01,7.359788237267725353e-02
3.315999999999999659e+01,9.956040036110401503e-02
3.320000000000000284e+01,6.222252585740805503e-02
3.324000000000000199e+01,1.361363185996382341e-01
3.328000000000000114e+01,2.206967009871742963e-02
3.332000000000000028e+01,1.388196498939923695e-01
3.335999999999999943e+01,1.379215166306797802e-01
3.339999999999999858e+01,5.837774345553201072e-02
3.343999999999999773e+01,8.944624148206824221e-02
3.347999999999999687e+01,1.179558913630381761e-01
3.352000000000000313e+01,9.787098220442816410e-02
3.356000000000000227e+01,9.121184147981430124e-02
3.360000000000000142e+01,9.925723663365403071e-02
3.364000000000000057e+01,7.213514771746327991e-02
3.367999999999999972e+01,9.424437168922981944e-02
3.371999999999999886e+01,9.461318880088082084e-02
3.375999999999999801e+01,1.224742296777570488e-01
3.379999999999999716e+01,1.202828562624324443e-01
3.384000000000000341e+01,1.538957050829541928e-01
3.388000000000000256e+01,1.120598113193070205e-01
3.392000000000000171e+01,1.105038292076565565e-01
3.396000000000000085e+01,1.741637653616955606e-01
3.400000000000000000e+01,1.367995585139970272e-01
3.403999999999999915e+01,1.365183323851378583e-01
3.407999999999999829e+01,1.451871516686343566e-01
3.411999999999999744e+01,1.544940111727670651e-01
3.415999999999999659e+01,1.433392088575815293e-01
3.420000000000000284e+01,1.424132149184770546e-01
3.424000000000000199e+01,1.568311058543815639e-01
3.428000000000000114e+01,2.339073577634004641e-01
3.432000000000000028e+01,1.549723523003409820e-01
3.435999999999999943e+01,2.179794237887237307e-01
3.439999999999999858e+01,2.611642048580041786e-01
3.443999999999999773e+01,2.007672789118733203e-01
3.447999999999999687e+01,2.043074724218504890e-01
3.452000000000000313e+01,1.733195174161560326e-01
3.456000000000000227e+01,1.544785051504836415e-01
3.460000000000000142e+01,1.771961361354089382e-01
3.464000000000000057e+01,2.427511778153895183e-01
3.467999999999999972e+01,1.561312510144679533e-01
3.471999999999999886e+01,1.276939666457522771e-01
3.475999999999999801e+01,1.708664041595233940e-01
3.479999999999999716e+01,1.788712926326491703e-01
3.484000000000000341e+01,1.798415628908817399e-01
3.488000000000000256e+01,1.091993436102655923e-01
3.492000000000000171e+01,1.351028461047315277e-01
3.496000000000000085e+01,1.213630967002057998e-01
3.500000000000000000e+01,1.178521108644402932e-01
3.503999999999999915e+01,9.899449266059842656e-02
3.507999999999999829e+01,1.606979662100800621e-01
3.511999999999999744e+01,1.635766336267526211e-01
3.515999999999999659e+01,1.543055861663094608e-01
3.520000000000000284e+01,1.392786700125023813e-01
3.524000000000000199e+01,1.383168130397301743e-01
3.528000000000000114e+01,1.143356921477440280e-01
3.532000000000000028e+01,1.082559350105316842e-01
3.535999999999999943e+01,1.258320029694329212e-01
3.539999999999999858e+01,1.881635935836701023e-01
3.543999999999999773e+01,1.162229487375804338e-01
3.547999999999999687e+01,1.734366212644491978e-01
3.552000000000000313e+01,1.775799288365544903e-01
3.556000000000000227e+01,1.599827264917071112e-01
3.560000000000000142e+01,1.232025513591882976e-01
3.564000000000000057e+01,1.420474277608098357e-01
3.567999999999999972e+01,1.736785690146163963e-01
3.571999999999999886e+01,2.238504364619481879e-01
3.575999999999999801e+01,2.644300947963211246e-01
3.579999999999999716e+01,2.148550516334853111e-01
3.584000000000000341e+01,2.439229031297836248e-01
3.588000000000000256e+01,2.307899118290243079e-01
3.592000000000000171e+01,2.572973353195486257e-01
3.596000000000000085e+01,2.409645266898716998e-01
3.600000000000000000e+01,2.738629010069229541e-01
3.603999999999999915e+01,3.022841292677472258e-01
3.607999999999999829e+01,3.754608420976852101e-01
3.611999999999999744e+01,3.821400746767221746e-01
3.615999999999999659e+01,3.574879910971398012e-01
3.620000000000000284e+01,3.628855339901022048e-01
3.624000000000000199e+01,3.554939166736544864e-01
3.628000000000000114e+01,3.960546969365492109e-01
3.632000000000000028e+01,3.675604463770657526e-01
3.635999999999999943e+01,4.420056853636054606e-01
3.639999999999999858e+01,3.802604805937981891e-01
3.643999999999999773e+01,3.575162766481047028e-01
3.647999999999999687e+01,3.597066047530997346e-01
3.652000000000000313e+01,2.813329636704745007e-01
3.656000000000000227e+01,2.982261828231008161e-01
3.660000000000000142e+01,2.965757580213168598e-01
3.664000000000000057e+01,2.156401269956379763e-01
3.667999999999999972e+01,2.772858278225843187e-01
3.671999999999999886e+01,2.315133848787853665e-01
3.675999999999999801e+01,1.895757585035244830e-01
3.679999999999999716e+01,2.313960517579070342e-01
3.684000000000000341e+01,1.805040458959173699e-01
3.688000000000000256e+01,2.261576520310746574e-01
3.692000000000000171e+01,2.225771238531284446e-01
3.696000000000000085e+01,1.883046195516542565e-01
3.700000000000000000e+01,1.649001516430510239e-01
3.703999999999999915e+01,1.274277090328938267e-01
3.707999999999999829e+01,1.788282491091122695e-01
3.711999999999999744e+01,1.445497076529256852e-01
3.715999999999999659e+01,1.671749022817941022e-01
3.720000000000000284e+01,1.591081073449381600e-01
3.724000000000000199e+01,1.452853294560512709e-01
3.728000000000000114e+01,1.736604295556502253e-01
3.732000000000000028e+01,1.336198276661322848e-01
3.735999999999999943e+01,1.466466416053681387e-01
3.739999999999999858e+01,1.392116122556383284e-01
3.743999999999999773e+01,1.797289155146362394e-01
3.747999999999999687e+01,1.620606653016413712e-01
3.752000000000000313e+01,2.223958308099957537e-01
3.756000000000000227e+01,1.535737208579183721e-01
3.760000000000000142e+01,1.633944069888698114e-01
3.764000000000000057e+01,1.668197029217183269e-01
3.767999999999999972e+01,2.335425542389812092e-01
3.771999999999999886e+01,2.075530571518192924e-01
3.775999999999999801e+01,2.410248019138689357e-01
3.779999999999999716e+01,2.725768414132338502e-01
3.784000000000000341e+01,2.715187009737828894e-01
3.788000000000000256e+01,3.401519531410338582e-01
3.792000000000000171e+01,4.113411872213844633e-01
3.796000000000000085e+01,5.049073310892335797e-01
3.800000000000000000e+01,5.863236010139795118e-01
3.803999999999999915e+01,7.291192516326102657e-01
3.807999999999999829e+01,9.332942807047597267e-01
3.811999999999999744e+01,1.000000000000000000e+00
3.815999999999999659e+01,9.874204279374367843e-01
3.820000000000000284e+01,9.224097256579981696e-01
3.824000000000000199e+01,7.947377334427301321e-01
3.828000000000000114e+01,6.510795425473261400e-01
3.832000000000000028e+01,6.084425768927742562e-01
3.835999999999999943e+01,4.590267604548827762e-01
3.839999999999999858e+01,4.112715496195237241e-01
3.843999999999999773e+01,3.884507610569179481e-01
3.847999999999999687e+01,3.784160805208757750e-01
3.852000000000000313e+01,3.338530274325599567e-01
3.856000000000000227e+01,2.547615995516047116e-01
3.860000000000000142e+01,2.824458448106457187e-01
3.864000000000000057e+01,2.608958594208442006e-01
3.867999999999999972e+01,2.227202681048346122e-01
3.871999999999999886e+01,2.094790833790164675e-01
3.875999999999999801e+01,2.109421455244350485e-01
3.879999999999999716e+01,2.430940733610189586e-01
3.884000000000000341e+01,2.010757504928709083e-01
3.888000000000000256e+01,1.705647435628027953e-01
3.892000000000000171e+01,1.598730532818015970e-01
3.896000000000000085e+01,1.837065287849722617e-01
3.900000000000000000e+01,1.787660684331829064e-01
3.903999999999999915e+01,1.866116847428329062e-01
3.907999999999999829e+01,1.855042908315558958e-01
3.911999999999999744e+01,1.716075754045153501e-01
3.915999999999999659e+01,1.794483177115809847e-01
3.920000000000000284e+01,1.450880312712091447e-01
3.924000000000000199e+01,1.465316646172705461e-01
3.928000000000000114e+01,1.102499586320451058e-01
3.932000000000000028e+01,1.660380340847568414e-01
3.935999999999999943e+01,1.591647568713904504e-01
3.939999999999999858e+01,1.586836877320513539e-01
3.943999999999999773e+01,1.588403608446677662e-01
3.947999999999999687e+01,1.634710830233442602e-01
3.952000000000000313e+01,1.386884553798907738e-01
3.956000000000000227e+01,1.254131055882947710e-01
3.960000000000000142e+01,1.549748886863673292e-01
3.964000000000000057e+01,1.461719274474469199e-01
3.967999999999999972e+01,1.290553072245210764e-01
3.971999999999999886e+01,1.394305769522828642e-01
3.975999999999999801e+01,1.881672767113665989e-01
3.979999999999999716e+01,1.256493511370512517e-01
3.984000000000000341e+01,1.430528658700910005e-01
3.988000000000000256e+01,1.252885470360006193e-01
3.992000000000000171e+01,1.618702703320625824e-01
3.996000000000000085e+01,8.911551386049644530e-02
4.000000000000000000e+01,1.288908156978218755e-01
4.003999999999999915e+01,8.490502698325823328e-02
4.007999999999999829e+01,1.457766739879129969e-01
4.011999999999999744e+01,1.522989287108881817e-01
4.015999999999999659e+01,1.358016461899948790e-01
4.020000000000000284e+01,1.749291598015150495e-01
4.024000000000000199e+01,1.667405076767871364e-01
4.028000000000000114e+01,1.316960025326219252e-01
4.032000000000000028e+01,1.663427533328312447e-01
4.035999999999999943e+01,1.562308710453417238e-01
4.039999999999999858e+01,1.288539016534933079e-01
4.043999999999999773e+01,1.321657060978030651e-01
4.047999999999999687e+01,1.853478274102584311e-01
4.052000000000000313e+01,1.477355980199029917e-01
4.056000000000000227e+01,1.593542961745491315e-01
4.060000000000000142e+01,1.748075958225950299e-01
4.064000000000000057e+01,1.557324041789680535e-01
4.067999999999999972e+01,1.577552002931268682e-01
4.071999999999999886e+01,1.795972122398813153e-01
4.075999999999999801e+01,1.835347320765711998e-01
4.079999999999999716e+01,1.861917634655364806e-01
4.084000000000000341e+01,1.933227677481169637e-01
4.088000000000000256e+01,1.377923342307104670e-01
4.092000000000000171e+01,1.954312923361888055e-01
4.096000000000000085e+01,2.115085079605367735e-01
4.100000000000000000e+01,2.007298302388589029e-01
4.103999999999999915e+01,1.925069596817311213e-01
4.107999999999999829e+01,1.440011096071982521e-01
4.111999999999999744e+01,1.843680159420727493e-01
4.115999999999999659e+01,1.818943989091630908e-01
4.120000000000000284e+01,2.260941342057516124e-01
4.124000000000000199e+01,1.820570178425880148e-01
4.128000000000000114e+01,1.712661676375432929e-01
4.132000000000000028e+01,1.777369602899572520e-01
4.135999999999999943e+01,1.477610667968745073e-01
4.139999999999999858e+01,1.817219051765778248e-01
4.143999999999999773e+01,1.773178984028174754e-01
4.147999999999999687e+01,1.856998316281688877e-01
4.152000000000000313e+01,1.493230667952067381e-01
4.156000000000000227e+01,1.327654707471540851e-01
4.160000000000000142e+01,1.564873562008216312e-01
4.164000000000000057e+01,1.507957730929601892e-01
4.167999999999999972e+01,1.924169002726162647e-01
4.171999999999999886e+01,1.189469855268334708e-01
4.175999999999999801e+01,1.317922519749546717e-01
4.179999999999999716e+01,1.420782042813771850e-01
4.184000000000000341e+01,1.574774583146761886e-01
4.188000000000000256e+01,1.108546033812494586e-01
4.192000000000000171e+01,9.811736360249700972e-02
4.196000000000000085e+01,9.113280367193472842e-02
4.200000000000000000e+01,1.167550847304913292e-01
4.203999999999999915e+01,1.244728019872703428e-01
4.207999999999999829e+01,1.213191864684356747e-01
4.211999999999999744e+01,1.188031630970328156e-01
4.215999999999999659e+01,1.667967473408143997e-01
4.220000000000000284e+01,1.297503503681179393e-01
4.224000000000000199e+01,1.176381628334030593e-01
4.228000000000000114e+01,1.349358763931857996e-01
4.232000000000000028e+01,1.081142319297461185e-01
4.235999999999999943e+01,9.919355691666026376e-02
4.239999999999999858e+01,1.235190853314448584e-01
4.243999999999999773e+01,1.248249488014973735e-01
4.247999999999999687e+01,9.735668150474620364e-02
4.252000000000000313e+01,1.120859987085320308e-01
4.256000000000000227e+01,1.242559592036647509e-01
4.260000000000000142e+01,1.146850154774250868e-01
4.264000000000000057e+01,7.314300781085865399e-02
4.267999999999999972e+01,1.294250569731895950e-01
4.271999999999999886e+01,1.057821745335784103e-01
4.275999999999999801e+01,1.147460905161316602e-01
4.279999999999999716e+01,1.045266304451296507e-01
4.284000000000000341e+01,1.134868826249125912e-01
4.288000000000000256e+01,1.205271450155259716e-01
4.292000000000000171e+01,1.071052549466622456e-01
4.296000000000000085e+01,9.432090997754434547e-02
4.300000000000000000e+01,1.198978135701003755e-01
4.303999999999999915e+01,7.450115543155112763e-02
4.307999999999999829e+01,7.961405337976774910e-02
4.311999999999999744e+01,9.751279947208957299e-02
4.315999999999999659e+01,1.262792369409150572e-01
4.320000000000000284e+01,1.096474974136422836e-01
4.324000000000000199e+01,8.981697824908226047e-02
4.328000000000000114e+01,7.957537405510434203e-02
4.332000000000000028e+01,7.061067963998952923e-02
4.335999999999999943e+01,1.025647529929018947e-01
4.339999999999999858e+01,6.482401413623824216e-02
4.343999999999999773e+01,9.165927773610536844e-02
4.347999999999999687e+01,7.117819413007654694e-02
4.352000000000000313e+01,9.033709964578720553e-02
4.356000000000000227e+01,1.286756770856943843e-01
4.360000000000000142e+01,1.427157549254316760e-01
4.364000000000000057e+01,7.810961931963195104e-02
4.367999999999999972e+01,1.126062542184027293e-01
4.371999999999999886e+01,5.822651371231610251e-02
4.375999999999999801e+01,1.125403118662445245e-01
4.379999999999999716e+01,1.227346691034078008e-01
4.384000000000000341e+01,1.265332888857344518e-01
4.388000000000000256e+01,1.117878569670349848e-01
4.392000000000000171e+01,1.552245521963561137e-01
4.396000000000000085e+01,1.468691794385067750e-01
4.400000000000000000e+01,1.436269874277686376e-01
4.403999999999999915e+01,1.646795191961293869e-01
4.407999999999999829e+01,1.953209211277516788e-01
4.411999999999999744e+01,1.569068553656214893e-01
4.415999999999999659e+01,1.766749033093157895e-01
4.420000000000000284e+01,2.041136601679385265e-01
4.424000000000000199e+01,2.558471296038297149e-01
4.428000000000000114e+01,2.033589560518564154e-01
4.432000000000000028e+01,2.307919718862442571e-01
4.435999999999999943e+01,2.403202939776253599e-01
4.439999999999999858e+01,2.217137626070452283e-01
4.443999999999999773e+01,1.992689995457853913e-01
4.447999999999999687e+01,2.087915537285391920e-01
4.452000000000000313e+01,1.805884750920571657e-01
4.456000000000000227e+01,1.242505340321498897e-01
4.460000000000000142e+01,1.331279153005704985e-01
4.464000000000000057e+01,1.496759808398931413e-01
4.467999999999999972e+01,1.611070315615165671e-01
4.471999999999999886e+01,1.220247414138383862e-01
4.475999999999999801e+01,1.276974496758473132e-01
4.479999999999999716e+01,1.231380576597645299e-01
4.484000000000000341e+01,1.390370355609891195e-01
4.488000000000000256e+01,1.325555966975665023e-01
4.492000000000000171e+01,1.580414504341312032e-01
4.496000000000000085e+01,1.362108740712570931e-01
4.500000000000000000e+01,1.041481862284612953e-01
4.503999999999999915e+01,8.359246930737807002e-02
4.507999999999999829e+01,1.058735783458184254e-01
4.511999999999999744e+01,9.234717548676772692e-02
4.515999999999999659e+01,8.457327324662555768e-02
4.520000000000000284e+01,1.145211115056147533e-01
4.524000000000000199e+01,7.477403449819088055e-02
4.528000000000000114e+01,1.245388657445199443e-01
4.532000000000000028e+01,9.821492881958625298e-02
4.535999999999999943e+01,1.243185748077906966e-01
4.539999999999999858e+01,1.165328477431772647e-01
4.543999999999999773e+01,6.590635759161529716e-02
4.547999999999999687e+01,7.282252237138753248e-02
4.552000000000000313e+01,8.868809181883303971e-02
4.556000000000000227e+01,9.112459420917340402e-02
4.560000000000000142e+01,8.972279993821952182e-02
4.564000000000000057e+01,1.043036368803701708e-01
4.567999999999999972e+01,8.563446992955278669e-02
4.571999999999999886e+01,7.527531160216660577e-02
4.575999999999999801e+01,1.147861744146112389e-01
4.579999999999999716e+01,6.286300595351823617e-02
4.584000000000000341e+01,9.341848111452429049e-02
4.588000000000000256e+01,1.022328683441441899e-01
4.592000000000000171e+01,8.483047150512945667e-02
4.596000000000000085e+01,1.217737785009975343e-01
4.600000000000000000e+01,5.833165522773323813e-02
4.603999999999999915e+01,8.376201279885549245e-02
4.607999999999999829e+01,6.123649269787886928e-02
4.611999999999999744e+01,9.113851294308560058e-02
4.615999999999999659e+01,5.901818450240227387e-02
4.620000000000000284e+01,7.868600708475852190e-02
4.624000000000000199e+01,8.364595483896400396e-02
4.628000000000000114e+01,8.284941331841735868e-02
4.632000000000000028e+01,5.839360469522315855e-02
4.635999999999999943e+01,7.038070191572179390e-02
4.639999999999999858e+01,1.213682421091945574e-01
4.643999999999999773e+01,8.603679392256745329e-02
4.647999999999999687e+01,7.180300864065300437e-02
4.652000000000000313e+01,7.930626886549653476e-02
4.656000000000000227e+01,5.739578496379012934e-02
4.660000000000000142e+01,9.302789326316926455e-02
4.664000000000000057e+01,1.133127194883254280e-01
4.667999999999999972e+01,5.367239231530362281e-02
4.671999999999999886e+01,9.697097443350519153e-02
4.675999999999999801e+01,9.039548626614986315e-02
4.679999999999999716e+01,1.004419491836963940e-01
4.684000000000000341e+01,9.386234914036641064e-02
4.688000000000000256e+01,8.728068979849998299e-02
4.692000000000000171e+01,8.900897186908421355e-02
4.696000000000000085e+01,7.091426004563490537e-02
4.700000000000000000e+01,8.734426369278709690e-02
4.703999999999999915e+01,9.098450223170312379e-02
4.707999999999999829e+01,9.973774900954693323e-02
4.711999999999999744e+01,9.953753525289338322e-02
4.715999999999999659e+01,6.352969534008170993e-02
4.720000000000000284e+01,9.977026539833612484e-02
4.724000000000000199e+01,9.764566545005345932e-02
4.728000000000000114e+01,1.191762229688096836e-01
4.732000000000000028e+01,7.996313651588489446e-02
4.735999999999999943e+01,8.486551800644374921e-02
4.739999999999999858e+01,1.185381289822376866e-01
4.743999999999999773e+01,1.125667890648410635e-01
4.747999999999999687e+01,1.033964320313587038e-01
4.752000000000000313e+01,1.038147524896602530e-01
4.756000000000000227e+01,6.842542438814352979e-02
4.760000000000000142e+01,8.738170826650298872e-02
4.764000000000000057e+01,8.651496016460655247e-02
4.767999999999999972e+01,1.259273530287949583e-01
4.771999999999999886e+01,1.065142340448774622e-01
4.775999999999999801e+01,1.075593214315476304e-01
4.779999999999999716e+01,1.322595371604987080e-01
4.784000000000000341e+01,8.662530715683355864e-02
4.788000000000000256e+01,7.935205239018792989e-02
4.792000000000000171e+01,1.353757794742549703e-01
4.796000000000000085e+01,1.242619783166667713e-01
4.800000000000000000e+01,8.309496753694003979e-02
4.803999999999999915e+01,1.033067773595927469e-01
4.807999999999999829e+01,1.075318396124339271e-01
4.811999999999999744e+01,1.002458459519800782e-01
4.815999999999999659e+01,7.377617602892382054e-02
4.820000000000000284e+01,8.822500278960611342e-02
4.824000000000000199e+01,7.134183680113020953e-02
4.828000000000000114e+01,1.267070202938377632e-01
4.832000000000000028e+01,1.142952705391839102e-01
4.835999999999999943e+01,1.012419937500390749e-01
4.839999999999999858e+01,9.585919063739034574e-02
4.843999999999999773e+01,1.058194770698128451e-01
4.847999999999999687e+01,9.723545415911657996e-02
4.852000000000000313e+01,7.266465903458280140e-02
4.856000000000000227e+01,1.011606524363169307e-01
4.860000000000000142e+01,6.891293017465698056e-02
4.864000000000000057e+01,8.205937384959172132e-02
4.867999999999999972e+01,8.241596056128359937e-02
4.871999999999999886e+01,1.045094695596024831e-01
4.875999999999999801e+01,9.143464762953422420e-02
4.879999999999999716e+01,8.347273760265459808e-02
4.884000000000000341e+01,6.783604039036231215e-02
4.888000000000000256e+01,8.864210787870364927e-02
4.892000000000000171e+01,1.056096927553708403e-01
4.896000000000000085e+01,1.212963321496449004e-01
4.900000000000000000e+01,9.733893327645333493e-02
4.903999999999999915e+01,9.128212971248989005e-02
4.907999999999999829e+01,8.778068299950592124e-02
4.911999999999999744e+01,6.765304562478222095e-02
4.915999999999999659e+01,1.018709328556596239e-01
4.920000000000000284e+01,8.877215250829996462e-02
4.924000000000000199e+01,7.758933520804404960e-02
4.928000000000000114e+01,1.028492602047614696e-01
4.932000000000000028e+01,1.249100650285564496e-01
4.935999999999999943e+01,1.002935781550619021e-01
4.939999999999999858e+01,5.521457588279484602e-02
4.943999999999999773e+01,9.581093981174373941e-02
4.947999999999999687e+01,8.845123563748170936e-02
4.952000000000000313e+01,1.009102544152909314e-01
4.956000000000000227e+01,1.050550608386871393e-01
4.960000000000000142e+01,5.868625306812726150e-02
4.964000000000000057e+01,7.177802175807054819e-02
4.967999999999999972e+01,6.121033515462008523e-02
4.971999999999999886e+01,8.260967230723445520e-02
4.975999999999999801e+01,6.500431346784069087e-02
4.979999999999999716e+01,5.315119536489668756e-02
4.984000000000000341e+01,9.820110315097861642e-02
4.988000000000000256e+01,8.378599326677758918e-02
4.992000000000000171e+01,8.279573550686963879e-02
4.996000000000000085e+01,8.372140046747694742e-02
5.000000000000000000e+01,7.377528905999793107e-02
5.003999999999999915e+01,7.469648368606703059e-02
5.007999999999999829e+01,9.351821537184755451e-02
5.011999999999999744e+01,1.193709395559734016e-01
5.015999999999999659e+01,7.361031838143035355e-02
5.020000000000000284e+01,9.626163009603089238e-02
5.024000000000000199e+01,1.067623823155255114e-01
5.028000000000000114e+01,1.063913424843716538e-01
5.032000000000000028e+01,8.300019635637968796e-02
5.035999999999999943e+01,1.082000440413022069e-01
5.039999999999999858e+01,8.928008114906589576e-02
5.043999999999999773e+01,5.629139303265824623e-02
5.047999999999999687e+01,9.107523728042034306e-02
5.052000000000000313e+01,8.429680359957263114e-02
5.056000000000000227e+01,7.240102576722029504e-02
5.060000000000000142e+01,9.055406787564490578e-02
5.064000000000000057e+01,7.353867375847944476e-02
5.067999999999999972e+01,9.424471321030016002e-02
5.071999999999999886e+01,7.147030900444574508e-02
5.075999999999999801e+01,8.577794904443379609e-02
5.079999999999999716e+01,9.944392538760336853e-02
5.084000000000000341e+01,7.666268461852925042e-02
5.088000000000000256e+01,1.178176447554939582e-01
5.092000000000000171e+01,8.416229275477639382e-02
5.096000000000000085e+01,6.265296494401198513e-02
5.100000000000000000e+01,9.804659805165881481e-02
5.103999999999999915e+01,5.479360324605456883e-02
5.107999999999999829e+01,7.547679814465921289e-02
5.111999999999999744e+01,9.551831142351729920e-02
5.115999999999999659e+01,9.445782588508611077e-02
5.120000000000000284e+01,6.973779991935237510e-02
5.124000000000000199e+01,1.063964153267162871e-01
5.128000000000000114e+01,9.765640118404537995e-02
5.132000000000000028e+01,1.202439363403865480e-01
5.135999999999999943e+01,8.208760124807820691e-02
5.139999999999999858e+01,1.053098985674033733e-01
5.143999999999999773e+01,1.080695662292888853e-01
5.147999999999999687e+01,1.018755291567806226e-01
5.152000000000000313e+01,8.800655479433600048e-02
5.156000000000000227e+01,1.156952737672958392e-01
5.160000000000000142e+01,7.496749094046881168e-02
5.164000000000000057e+01,1.090454087737263572e-01
5.167999999999999972e+01,1.053972927622300881e-01
5.171999999999999886e+01,1.011074615254970721e-01
5.175999999999999801e+01,1.096029945138084216e-01
5.179999999999999716e+01,1.123417290568567983e-01
5.184000000000000341e+01,1.176356658656291382e-01
5.188000000000000256e+01,8.520355762781739450e-02
5.192000000000000171e+01,8.218081055629218590e-02
5.196000000000000085e+01,6.317109859945145567e-02
5.200000000000000000e+01,8.124336143710648994e-02
5.203999999999999915e+01,1.152978970293026262e-01
5.207999999999999829e+01,1.033143734217316090e-01
5.211999999999999744e+01,9.004972734285196512e-02
5.215999999999999659e+01,7.997965044917972055e-02
5.220000000000000284e+01,6.862844660346664738e-02
5.224000000000000199e+01,9.435920411005326025e-02
5.228000000000000114e+01,6.957619731816012953e-02
5.232000000000000028e+01,8.571145645230528187e-02
5.235999999999999943e+01,7.307203144923905824e-02
5.239999999999999858e+01,1.211717980062442107e-01
5.243999999999999773e+01,1.027731702430111638e-01
5.247999999999999687e+01,1.041930996447636010e-01
5.252000000000000313e+01,7.300202689337015327e-02
5.256000000000000227e+01,1.076652154798778543e-01
5.260000000000000142e+01,6.751799783333044258e-02
5.264000000000000057e+01,9.770073094083472909e-02
5.267999999999999972e+01,9.910876198819944249e-02
5.271999999999999886e+01,1.043507156980591766e-01
5.275999999999999801e+01,1.083115110907537926e-01
5.279999999999999716e+01,8.349759770221103217e-02
5.284000000000000341e+01,8.489606973947715074e-02
5.288000000000000256e+01,8.501337673848001486e-02
5.292000000000000171e+01,7.809505287714778310e-02
5.296000000000000085e+01,1.140131136232326592e-01
5.300000000000000000e+01,1.026142939563083195e-01
5.303999999999999915e+01,1.001644577682452020e-01
5.307999999999999829e+01,9.451529081285330036e-02
5.311999999999999744e+01,1.093240300190022884e-01
5.315999999999999659e+01,1.100638916560905123e-01
5.320000000000000284e+01,1.159164187561049636e-01
5.324000000000000199e+01,7.445205200091425946e-02
5.328000000000000114e+01,6.303635508197709403e-02
5.332000000000000028e+01,8.614501965580972920e-02
5.335999999999999943e+01,8.495463798016290868e-02
5.339999999999999858e+01,9.079506509284770988e-02
5.343999999999999773e+01,1.228478440258513049e-01
5.347999999999999687e+01,9.223847944357080331e-02
5.352000000000000313e+01,8.400515314640645548e-02
5.356000000000000227e+01,8.791770541540383510e-02
5.360000000000000142e+01,1.026973643253730611e-01
5.364000000000000057e+01,1.021293490970656970e-01
5.367999999999999972e+01,9.324689075664505111e-02
5.371999999999999886e+01,8.244383548786317351e-02
5.375999999999999801e+01,1.131983503343542696e-01
5.379999999999999716e+01,7.745439468816260609e-02
5.384000000000000341e+01,8.710431373098279084e-02
5.388000000000000256e+01,1.236059447925071247e-01
5.392000000000000171e+01,9.872417737954483630e-02
5.396000000000000085e+01,9.685780845008425122e-02
5.400000000000000000e+01,9.754652080658228475e-02
5.403999999999999915e+01,8.672384567561425284e-02
5.407999999999999829e+01,8.229255640434339492e-02
5.411999999999999744e+01,7.721941748587457521e-02
5.415999999999999659e+01,1.041130536428418185e-01
5.420000000000000284e+01,1.099045207147022890e-01
5.424000000000000199e+01,1.073815133093253271e-01
5.428000000000000114e+01,9.526525950152119060e-02
5.432000000000000028e+01,9.977053558980657211e-02
5.435999999999999943e+01,1.151428757521097412e-01
5.439999999999999858e+01,1.196431931060640830e-01
5.443999999999999773e+01,1.068776369871860255e-01
5.447999999999999687e+01,7.492805062787408210e-02
5.452000000000000313e+01,1.120295400405873082e-01
5.456000000000000227e+01,1.382589976834877332e-01
5.460000000000000142e+01,1.133351762442674354e-01
5.464000000000000057e+01,9.672086382685567141e-02
5.467999999999999972e+01,9.672806114223929386e-02
5.471999999999999886e+01,1.050447629986992898e-01
5.475999999999999801e+01,9.034110987769275458e-02
5.479999999999999716e+01,1.344583593675606203e-01
5.484000000000000341e+01,9.992876810940538868e-02
5.488000000000000256e+01,9.225083286080401623e-02
5.492000000000000171e+01,9.991562421797825500e-02
5.496000000000000085e+01,1.037415946682090778e-01
5.500000000000000000e+01,1.133195146073069787e-01
5.503999999999999915e+01,1.139435304194351822e-01
5.507999999999999829e+01,1.056136398642276847e-01
5.511999999999999744e+01,1.158233889250245563e-01
5.515999999999999659e+01,1.087672241864008765e-01
5.520000000000000284e+01,7.421498592940173333e-02
5.524000000000000199e+01,1.004017801664860987e-01
5.528000000000000114e+01,1.137983477799341392e-01
5.532000000000000028e+01,7.220528693020231148e-02
5.535999999999999943e+01,1.380263453495156611e-01
5.539999999999999858e+01,1.156097590195050012e-01
5.543999999999999773e+01,1.149297185946296235e-01
5.547999999999999687e+01,1.097714432956406333e-01
5.552000000000000313e+01,1.257103245786429790e-01
5.556000000000000227e+01,8.602017911385793913e-02
5.560000000000000142e+01,1.415958274700980235e-01
5.564000000000000057e+01,1.274759780647594098e-01
5.567999999999999972e+01,1.037628038441832379e-01
5.571999999999999886e+01,7.045630256800290703e-02
5.575999999999999801e+01,8.574049265532422692e-02
5.579999999999999716e+01,1.259581326965452941e-01
5.584000000000000341e+01,9.903780314400506546e-02
5.588000000000000256e+01,1.462835519303389842e-01
5.592000000000000171e+01,1.142430146363556664e-01
5.596000000000000085e+01,1.039389941227493036e-01
5.600000000000000000e+01,1.319954940518598963e-01
5.603999999999999915e+01,1.088986342456731288e-01
5.607999999999999829e+01,1.088170541835888766e-01
5.611999999999999744e+01,1.016996640318875433e-01
5.615999999999999659e+01,1.175975491435565651e-01
5.620000000000000284e+01,1.475593194844652400e-01
5.624000000000000199e+01,1.225314098337756813e-01
5.628000000000000114e+01,1.492910866338882370e-01
5.632000000000000028e+01,1.440789332884944152e-01
5.635999999999999943e+01,1.522912713684644592e-01
5.639999999999999858e+01,1.515496291490198710e-01
5.643999999999999773e+01,1.469690831290889621e-01
5.647999999999999687e+01,1.564524066558356241e-01
5.652000000000000313e+01,1.716875945375403723e-01
5.656000000000000227e+01,1.517540146194837625e-01
5.660000000000000142e+01,1.797716941748307151e-01
5.664000000000000057e+01,1.719812166072723081e-01
5.667999999999999972e+01,1.801727519117966858e-01
5.671999999999999886e+01,1.851647525756842105e-01
5.675999999999999801e+01,1.639393620317452505e-01
5.679999999999999716e+01,1.491052050026141496e-01
5.684000000000000341e+01,1.681558274716311585e-01
5.688000000000000256e+01,1.558739732724294669e-01
5.692000000000000171e+01,1.685255062968789297e-01
5.696000000000000085e+01,1.268267038455536400e-01
5.700000000000000000e+01,9.471604791926507838e-02
5.703999999999999915e+01,1.335744811491774431e-01
5.707999999999999829e+01,1.647576656782764049e-01
5.711999999999999744e+01,1.422298906125483153e-01
5.715999999999999659e+01,1.344053318496873095e-01
5.720000000000000284e+01,1.201842873497382252e-01
5.724000000000000199e+01,1.149119910902178798e-01
5.728000000000000114e+01,1.332942922062311519e-01
5.732000000000000028e+01,1.344105585430583338e-01
5.735999999999999943e+01,1.073912455393331994e-01
5.739999999999999858e+01,1.187323745655145257e-01
5.743999999999999773e+01,1.147256166186469278e-01
5.747999999999999687e+01,9.473158461595268531e-02
5.752000000000000313e+01,1.156555272917139388e-01
5.756000000000000227e+01,1.103620339523280758e-01
5.760000000000000142e+01,1.172141929021356110e-01
5.764000000000000057e+01,9.593075682882884481e-02
5.767999999999999972e+01,1.085320532059838444e-01
5.771999999999999886e+01,1.217700679878221393e-01
5.775999999999999801e+01,1.183814081888598796e-01
5.779999999999999716e+01,1.009236109383783025e-01
5.784000000000000341e+01,1.250231552858354911e-01
5.788000000000000256e+01,1.088387791621585193e-01
5.792000000000000171e+01,1.265391220467472488e-01
5.796000000000000085e+01,1.340066275728230005e-01
5.800000000000000000e+01,1.280443692879609519e-01
5.803999999999999915e+01,1.041766510549125696e-01
5.807999999999999829e+01,1.109967186566069991e-01
5.811999999999999744e+01,1.337987184772072013e-01
5.815999999999999659e+01,1.124804730896403482e-01
5.820000000000000284e+01,1.308013946094829516e-01
5.824000000000000199e+01,1.344137691913679933e-01
5.828000000000000114e+01,1.169237461708117348e-01
5.832000000000000028e+01,1.083824109008017927e-01
5.835999999999999943e+01,1.164623792499132615e-01
5.839999999999999858e+01,1.098337916996030561e-01
5.843999999999999773e+01,9.233295506397599939e-02
5.847999999999999687e+01,9.465033953843128567e-02
5.852000000000000313e+01,1.084739399312496244e-01
5.856000000000000227e+01,1.107858996752411757e-01
5.860000000000000142e+01,8.496221062733393115e-02
5.864000000000000057e+01,8.598996699457421566e-02
5.867999999999999972e+01,1.081147029548903127e-01
5.871999999999999886e+01,1.110551711959742588e-01
5.875999999999999801e+01,1.044021421136364647e-01
5.879999999999999716e+01,7.984361051615820881e-02
5.884000000000000341e+01,8.213651313199740733e-02
5.888000000000000256e+01,1.387743959444946440e-01
5.892000000000000171e+01,9.630489453445749415e-02
5.896000000000000085e+01,1.267225292702878758e-01
5.900000000000000000e+01,1.047078687989116685e-01
5.903999999999999915e+01,1.146597100783169482e-01
5.907999999999999829e+01,1.137392664265490100e-01
5.911999999999999744e+01,9.683145686394779850e-02
5.915999999999999659e+01,1.381049208699128006e-01
5.920000000000000284e+01,1.147977664610172616e-01
5.924000000000000199e+01,1.145057148073085757e-01
5.928000000000000114e+01,1.065382912326552634e-01
5.932000000000000028e+01,1.151921175083388538e-01
5.935999999999999943e+01,9.123455852828665780e-02
5.939999999999999858e+01,1.324914929411344089e-01
5.943999999999999773e+01,1.021345622303958950e-01
5.947999999999999687e+01,1.325164265349427495e-01
5.952000000000000313e+01,1.155810452468189892e-01
5.956000000000000227e+01,1.146275155244240729e-01
5.960000000000000142e+01,1.264589109153334001e-01
5.964000000000000057e+01,1.050395205255331005e-01
5.967999999999999972e+01,1.213410596223638421e-01
5.971999999999999886e+01,1.229339688876943670e-01
5.975999999999999801e+01,8.104592817262885884e-02
5.979999999999999716e+01,1.075692826588616757e-01
5.984000000000000341e+01,8.485721910226033671e-02
5.988000000000000256e+01,1.196870039452252316e-01
5.992000000000000171e+01,9.696936331327081493e-02
5.996000000000000085e+01,9.790616995232639952e-02
