2.003999999999999915e+01,9.086674894715461581e-02
2.007999999999999829e+01,7.052892614853893682e-02
2.012000000000000099e+01,5.581751752754898765e-02
2.016000000000000014e+01,6.190221637804835947e-02
2.019999999999999929e+01,6.867038642656540792e-02
2.023999999999999844e+01,6.725882981240247083e-02
2.028000000000000114e+01,6.073557123387061246e-02
2.032000000000000028e+01,5.796380063222755091e-02
2.035999999999999943e+01,5.672771557250924634e-02
2.039999999999999858e+01,5.907266453368313630e-02
2.044000000000000128e+01,5.783991002062480874e-02
2.048000000000000043e+01,5.660881484131685681e-02
2.051999999999999957e+01,6.526524515636082657e-02
2.055999999999999872e+01,7.307109670292954995e-02
2.060000000000000142e+01,7.695833686327284429e-02
2.064000000000000057e+01,6.755242966702212914e-02
2.067999999999999972e+01,6.735224798001535063e-02
2.071999999999999886e+01,6.476745735663952397e-02
2.076000000000000156e+01,6.371831267799193954e-02
2.080000000000000071e+01,6.130722736287960023e-02
2.083999999999999986e+01,7.543103129009479102e-02
2.087999999999999901e+01,6.756891623797764423e-02
2.092000000000000171e+01,5.544726604876339116e-02
2.096000000000000085e+01,5.628112645501526928e-02
2.100000000000000000e+01,4.757161667145588801e-02
2.103999999999999915e+01,4.517021413819014702e-02
2.107999999999999829e+01,5.282672769975825522e-02
2.112000000000000099e+01,5.537145614284467998e-02
2.116000000000000014e+01,3.337354734020246683e-02
2.119999999999999929e+01,5.245472140665582983e-02
2.123999999999999844e+01,5.210663140465895959e-02
2.128000000000000114e+01,5.857796300430972297e-02
2.132000000000000028e+01,6.078971986966678204e-02
2.135999999999999943e+01,4.885602792068960420e-02
2.139999999999999858e+01,6.112724142304134384e-02
2.144000000000000128e+01,5.226471069277194292e-02
2.148000000000000043e+01,6.044834395898725926e-02
2.151999999999999957e+01,4.204395190330999232e-02
2.155999999999999872e+01,4.937846378909844375e-02
2.160000000000000142e+01,5.108980493009739748e-02
2.164000000000000057e+01,6.337034483952690145e-02
2.167999999999999972e+01,4.940373566129949157e-02
2.171999999999999886e+01,5.878977007385750853e-02
2.176000000000000156e+01,5.641656058668641921e-02
2.180000000000000071e+01,3.955696665515021776e-02
2.183999999999999986e+01,5.372007608031700854e-02
2.187999999999999901e+01,4.589716753316024078e-02
2.192000000000000171e+01,4.932521418262523355e-02
2.196000000000000085e+01,5.105031329064102508e-02
2.200000000000000000e+01,4.612952583732721906e-02
2.203999999999999915e+01,5.740261676163684740e-02
2.207999999999999829e+01,3.305398699044403282e-02
2.212000000000000099e+01,3.529643590742796710e-02
2.216000000000000014e+01,5.492587357877707493e-02
2.219999999999999929e+01,6.637539056118306469e-02
2.223999999999999844e+01,5.413439356821594245e-02
2.228000000000000114e+01,5.808725119455430963e-02
2.232000000000000028e+01,4.465609027869885117e-02
2.235999999999999943e+01,5.560018581745772986e-02
2.239999999999999858e+01,5.103516129671326756e-02
2.244000000000000128e+01,3.777885421903611624e-02
2.248000000000000043e+01,4.139816610829511606e-02
2.251999999999999957e+01,3.717841770396825701e-02
2.255999999999999872e+01,5.051606449336737414e-02
2.260000000000000142e+01,4.953769368056567396e-02
2.264000000000000057e+01,6.066243697221820191e-02
2.267999999999999972e+01,5.303955779174204105e-02
2.271999999999999886e+01,3.860027473842531087e-02
2.276000000000000156e+01,3.899123049531999508e-02
2.280000000000000071e+01,3.853138573943891421e-02
2.283999999999999986e+01,3.739118254761966686e-02
2.287999999999999901e+01,4.017265994718850763e-02
2.292000000000000171e+01,5.130741092891444310e-02
2.296000000000000085e+01,6.176179159554313208e-02
2.300000000000000000e+01,5.432074829507203134e-02
2.303999999999999915e+01,4.449486639449193315e-02
2.307999999999999829e+01,3.876109132325879225e-02
2.312000000000000099e+01,4.121012399902736212e-02
2.316000000000000014e+01,4.280832052454307257e-02
2.319999999999999929e+01,3.332891474665115178e-02
2.323999999999999844e+01,4.856557038265565257e-02
2.328000000000000114e+01,3.687313439598815384e-02
2.332000000000000028e+01,4.222668025870131292e-02
2.335999999999999943e+01,4.178643511240310443e-02
2.339999999999999858e+01,6.350554499276386822e-02
2.344000000000000128e+01,5.880688552124584828e-02
2.348000000000000043e+01,5.274602011204602980e-02
2.351999999999999957e+01,3.765287316036829146e-02
2.355999999999999872e+01,4.233282088466937959e-02
2.360000000000000142e+01,4.513921268245802559e-02
2.364000000000000057e+01,3.550439032746459389e-02
2.367999999999999972e+01,4.496086662306202769e-02
2.371999999999999886e+01,2.612463944661318205e-02
2.376000000000000156e+01,3.848137159688112818e-02
2.380000000000000071e+01,4.299891674253431689e-02
2.383999999999999986e+01,4.717689653237241987e-02
2.387999999999999901e+01,3.158445883914848956e-02
2.392000000000000171e+01,1.497066372444116542e-02
2.396000000000000085e+01,2.136839838310398976e-02
2.400000000000000000e+01,2.077915642134009824e-02
2.403999999999999915e+01,3.757671710711759511e-02
2.407999999999999829e+01,4.278525026598304498e-02
2.412000000000000099e+01,2.651888181789599855e-02
2.416000000000000014e+01,3.991141877031385843e-02
2.419999999999999929e+01,4.018090198764544957e-02
2.423999999999999844e+01,3.005446409508723618e-02
2.428000000000000114e+01,2.282689198438561662e-02
2.432000000000000028e+01,3.469055516876034390e-02
2.435999999999999943e+01,4.706683170375080411e-02
2.439999999999999858e+01,4.989940147275909177e-02
2.444000000000000128e+01,2.512098064099630573e-02
2.448000000000000043e+01,4.687559115114970504e-02
2.451999999999999957e+01,3.215600924011536438e-02
2.455999999999999872e+01,2.988024344010636879e-02
2.460000000000000142e+01,6.640866626180789122e-03
2.464000000000000057e+01,2.942316720562095089e-02
2.467999999999999972e+01,1.828795007335360517e-02
2.471999999999999886e+01,4.260674814846272113e-02
2.476000000000000156e+01,3.778050961602831548e-02
2.480000000000000071e+01,2.255829453762879869e-02
2.483999999999999986e+01,1.977986785221719918e-02
2.487999999999999901e+01,2.808165730761558870e-02
2.492000000000000171e+01,3.058950132493612820e-02
2.496000000000000085e+01,2.525804350577178295e-02
2.500000000000000000e+01,3.117723598481588268e-02
2.503999999999999915e+01,1.442831352745470135e-02
2.507999999999999829e+01,1.949768771541244769e-02
2.512000000000000099e+01,2.167067928816717934e-02
2.516000000000000014e+01,2.265174465157193673e-02
2.519999999999999929e+01,2.329311002869342492e-02
2.523999999999999844e+01,1.456113152227722120e-02
2.528000000000000114e+01,3.361304114208575611e-02
2.532000000000000028e+01,2.454253493761903576e-02
2.535999999999999943e+01,1.496186687143308269e-02
2.539999999999999858e+01,1.356378084822831842e-02
2.544000000000000128e+01,3.432484790598031021e-02
2.548000000000000043e+01,2.457723878877677084e-02
2.551999999999999957e+01,2.573933642031152325e-02
2.555999999999999872e+01,2.587991428185710749e-02
2.560000000000000142e+01,2.193093975566290377e-02
2.564000000000000057e+01,2.633496955068941395e-02
2.567999999999999972e+01,6.707252761337907133e-03
2.571999999999999886e+01,2.798772535620377630e-02
2.576000000000000156e+01,1.177120655922899231e-02
2.580000000000000071e+01,1.686157502294775845e-02
2.583999999999999986e+01,1.939638166962424567e-02
2.587999999999999901e+01,1.818250028363806517e-02
2.592000000000000171e+01,2.378758117181957107e-02
2.596000000000000085e+01,1.695121824347898057e-02
2.600000000000000000e+01,3.585331972772222431e-02
2.603999999999999915e+01,1.862197039454535977e-02
2.607999999999999829e+01,2.406104889648252518e-02
2.612000000000000099e+01,2.967167444825594830e-02
2.616000000000000014e+01,1.210273608180182335e-02
2.619999999999999929e+01,3.629416976571538805e-02
2.623999999999999844e+01,2.281811850459533955e-02
2.628000000000000114e+01,1.309296522213535680e-02
2.632000000000000028e+01,1.155030290910453138e-02
2.635999999999999943e+01,2.176949437348552757e-02
2.639999999999999858e+01,1.954719846442819209e-02
2.644000000000000128e+01,1.715552585433564176e-02
2.648000000000000043e+01,1.817383935119031360e-02
2.651999999999999957e+01,1.953410633724196946e-02
2.655999999999999872e+01,2.208855303555730745e-02
2.660000000000000142e+01,2.771208188854646509e-02
2.664000000000000057e+01,2.788238710862695965e-02
2.667999999999999972e+01,2.737195375968228331e-02
2.671999999999999886e+01,1.936293641970264490e-02
2.676000000000000156e+01,1.203674088371653288e-02
2.680000000000000071e+01,3.096026867559301815e-02
2.683999999999999986e+01,2.244301432007636890e-02
2.687999999999999901e+01,2.364220982692892895e-02
2.692000000000000171e+01,2.995580824938524553e-02
2.696000000000000085e+01,2.212340349675545950e-02
2.700000000000000000e+01,1.889405563061834561e-02
2.703999999999999915e+01,2.316534331272754321e-02
2.707999999999999829e+01,3.255101807156177141e-02
2.712000000000000099e+01,3.392673113249258104e-02
2.716000000000000014e+01,3.581478036366323586e-02
2.719999999999999929e+01,4.145363649994185384e-02
2.723999999999999844e+01,2.629906631736396092e-02
2.728000000000000114e+01,3.108766859339405497e-02
2.732000000000000028e+01,4.525178510176280228e-02
2.735999999999999943e+01,3.640666493687155086e-02
2.739999999999999858e+01,3.267590017094818000e-02
2.744000000000000128e+01,4.019554416033415539e-02
2.748000000000000043e+01,5.044329111744707411e-02
2.751999999999999957e+01,5.728307976650596350e-02
2.755999999999999872e+01,5.986267596500490645e-02
2.760000000000000142e+01,4.778486752323157088e-02
2.764000000000000057e+01,6.280892943799429307e-02
2.767999999999999972e+01,7.561813946172521450e-02
2.771999999999999886e+01,7.769019180684172410e-02
2.776000000000000156e+01,7.533158586624282005e-02
2.780000000000000071e+01,8.780271981117879210e-02
2.783999999999999986e+01,8.169616651670760787e-02
2.787999999999999901e+01,8.683997842062962658e-02
2.792000000000000171e+01,1.136313597932180064e-01
2.796000000000000085e+01,1.267879771074005291e-01
2.800000000000000000e+01,1.500018254849167232e-01
2.803999999999999915e+01,1.730461387726111300e-01
2.807999999999999829e+01,1.891030715484740277e-01
2.812000000000000099e+01,2.418068052114434874e-01
2.816000000000000014e+01,2.430367349016979150e-01
2.819999999999999929e+01,2.570510124416036102e-01
2.823999999999999844e+01,2.749864399704635698e-01
2.828000000000000114e+01,2.874684815179089914e-01
2.832000000000000028e+01,2.731913785545630469e-01
2.835999999999999943e+01,2.503928530323326629e-01
2.839999999999999858e+01,2.422535619632850690e-01
2.844000000000000128e+01,2.215021355385395629e-01
2.848000000000000043e+01,1.884794618714908665e-01
2.851999999999999957e+01,1.522191769399540706e-01
2.855999999999999872e+01,1.335156932441947941e-01
2.860000000000000142e+01,1.194151080461419850e-01
2.864000000000000057e+01,9.747485671739608559e-02
2.867999999999999972e+01,9.513674718395587204e-02
2.871999999999999886e+01,7.319818707793260271e-02
2.876000000000000156e+01,7.887272456596684800e-02
2.880000000000000071e+01,6.341278923296324310e-02
2.883999999999999986e+01,6.465739723491346902e-02
2.887999999999999901e+01,4.459707845982938124e-02
2.892000000000000171e+01,3.527568382075565306e-02
2.896000000000000085e+01,4.044302216223234075e-02
2.900000000000000000e+01,4.458850019782929081e-02
2.903999999999999915e+01,4.566676152913991260e-02
2.907999999999999829e+01,3.873486713628405270e-02
2.912000000000000099e+01,3.606492769166451395e-02
2.916000000000000014e+01,3.066865173671412537e-02
2.919999999999999929e+01,2.578451000630107084e-02
2.923999999999999844e+01,2.737810982020981096e-02
2.928000000000000114e+01,2.215465636725459306e-02
2.932000000000000028e+01,2.000001580803650522e-02
2.935999999999999943e+01,2.142552229250785367e-02
2.939999999999999858e+01,8.704784058994221099e-03
2.944000000000000128e+01,2.496064439676206129e-02
2.948000000000000043e+01,2.366133136596033915e-02
2.951999999999999957e+01,2.116966051636619273e-02
2.955999999999999872e+01,1.356536904744303981e-02
2.960000000000000142e+01,5.620942023074441962e-03
2.964000000000000057e+01,2.222149682090021963e-02
2.967999999999999972e+01,1.802838375697045359e-02
2.971999999999999886e+01,1.537002966056601368e-02
2.976000000000000156e+01,1.987114977835680377e-02
2.980000000000000071e+01,1.005553954440886223e-02
2.983999999999999986e+01,1.881928005455297398e-02
2.987999999999999901e+01,1.650475698810682790e-02
2.992000000000000171e+01,1.640675723681696632e-02
2.996000000000000085e+01,1.903661495063523751e-02
3.000000000000000000e+01,1.791737678066647813e-02
3.003999999999999915e+01,1.577617535210686095e-02
3.007999999999999829e+01,0.000000000000000000e+00
3.012000000000000099e+01,2.223399584147491351e-02
3.016000000000000014e+01,1.140216167243591691e-02
3.019999999999999929e+01,1.369536944017979430e-02
3.023999999999999844e+01,5.592062140085722610e-03
3.028000000000000114e+01,1.180691111323609564e-02
3.032000000000000028e+01,2.092002795057511938e-02
3.035999999999999943e+01,1.230743826895491257e-02
3.039999999999999858e+01,7.274892678313099950e-03
3.044000000000000128e+01,7.697293621059809500e-03
3.048000000000000043e+01,1.527909750304800966e-02
3.051999999999999957e+01,8.714545794900793382e-03
3.055999999999999872e+01,1.237741776458637505e-02
3.060000000000000142e+01,1.962031402665194088e-02
3.064000000000000057e+01,9.989706234507190682e-03
3.067999999999999972e+01,8.200265729234514772e-03
3.071999999999999886e+01,1.697912513603053869e-02
3.076000000000000156e+01,1.808855458354891380e-02
3.080000000000000071e+01,1.493747084321540332e-02
3.083999999999999986e+01,2.235467513579151091e-02
3.087999999999999901e+01,1.715950252977066492e-02
3.092000000000000171e+01,4.196345820474752658e-02
3.096000000000000085e+01,3.591730315006159274e-02
3.100000000000000000e+01,3.668960748514715764e-02
3.103999999999999915e+01,3.541717334930695460e-02
3.107999999999999829e+01,4.778103214608918348e-02
3.112000000000000099e+01,4.412356955481137183e-02
3.116000000000000014e+01,4.438696789295305117e-02
3.119999999999999929e+01,5.470728051685568721e-02
3.123999999999999844e+01,6.008525224976106471e-02
3.128000000000000114e+01,7.159987150817116730e-02
3.132000000000000028e+01,7.339965293254152590e-02
3.135999999999999943e+01,7.894982945117576256e-02
3.139999999999999858e+01,9.779537515156057348e-02
3.144000000000000128e+01,1.074374092484184778e-01
3.148000000000000043e+01,1.220229488162820064e-01
3.151999999999999957e+01,1.321774578847824955e-01
3.155999999999999872e+01,1.549455361499259554e-01
3.160000000000000142e+01,1.836797842262596625e-01
3.164000000000000057e+01,1.991197960230940145e-01
3.167999999999999972e+01,2.004133373979229416e-01
3.171999999999999886e+01,2.582955095622886388e-01
3.176000000000000156e+01,2.676011040006434638e-01
3.180000000000000071e+01,2.712825179656970787e-01
3.183999999999999986e+01,2.504202374398738495e-01
3.187999999999999901e+01,2.619432346735782735e-01
3.192000000000000171e+01,2.542063566302416033e-01
3.196000000000000085e+01,2.006200176472122121e-01
3.200000000000000000e+01,2.092470009420713817e-01
3.203999999999999915e+01,1.904326873259822028e-01
3.207999999999999829e+01,1.627556908239660982e-01
3.211999999999999744e+01,1.572371861297241491e-01
3.215999999999999659e+01,1.496738320924062282e-01
3.220000000000000284e+01,9.966991408822277465e-02
3.224000000000000199e+01,9.739138149624308738e-02
3.228000000000000114e+01,1.046583181679219682e-01
3.232000000000000028e+01,9.590381465995119481e-02
3.235999999999999943e+01,9.226317554571088209e-02
3.239999999999999858e+01,5.760183711534291179e-02
3.243999999999999773e+01,7.202943259103870843e-02
3.247999999999999687e+01,6.941289582886246701e-02
3.252000000000000313e+01,6.202433750121738587e-02
3.256000000000000227e+01,6.264720639017783144e-02
3.260000000000000142e+01,4.247611835784782797e-02
3.264000000000000057e+01,6.696234748249442481e-02
3.267999999999999972e+01,3.963343311299049460e-02
3.271999999999999886e+01,3.719008774038197462e-02
3.275999999999999801e+01,3.219049551923095637e-02
3.279999999999999716e+01,3.077070980587891941e-02
3.284000000000000341e+01,5.014577633288914982e-02
3.288000000000000256e+01,4.344303108729643398e-02
3.292000000000000171e+01,3.776338992198487871e-02
3.296000000000000085e+01,2.032339613544060369e-02
3.300000000000000000e+01,2.862117381054050252e-02
3.303999999999999915e+01,3.811248972331987561e-02
3.307999999999999829e+01,3.192318229489064796e-02
3.311999999999999744e+01,2.539339085568623547e-02
3.315999999999999659e+01,4.289689467367484993e-02
3.320000000000000284e+01,3.534523126064672421e-02
3.324000000000000199e+01,4.177053902849409833e-02
3.328000000000000114e+01,2.927672896194663879e-02
3.332000000000000028e+01,2.138535014618625149e-02
3.335999999999999943e+01,3.872036904492137666e-02
3.339999999999999858e+01,3.202287713338505815e-02
3.343999999999999773e+01,4.134768904281303087e-02
3.347999999999999687e+01,3.328737764826320694e-02
3.352000000000000313e+01,4.534006703261263954e-02
3.356000000000000227e+01,5.432509226435449506e-02
3.360000000000000142e+01,4.694765853230328106e-02
3.364000000000000057e+01,6.241035028490836412e-02
3.367999999999999972e+01,6.389681966608250219e-02
3.371999999999999886e+01,5.856579625151098201e-02
3.375999999999999801e+01,6.005295900605454873e-02
3.379999999999999716e+01,6.682428964097845980e-02
3.384000000000000341e+01,7.598220157508944750e-02
3.388000000000000256e+01,8.752669084866798732e-02
3.392000000000000171e+01,7.810664649365017809e-02
3.396000000000000085e+01,9.220848009176044191e-02
3.400000000000000000e+01,9.557253433527047870e-02
3.403999999999999915e+01,1.089932217244460044e-01
3.407999999999999829e+01,1.024720358654900992e-01
3.411999999999999744e+01,1.245860932175013452e-01
3.415999999999999659e+01,1.288036218406289901e-01
3.420000000000000284e+01,1.158064019213822515e-01
3.424000000000000199e+01,1.305921831511575315e-01
3.428000000000000114e+01,1.450373655382876104e-01
3.432000000000000028e+01,1.526649957338772345e-01
3.435999999999999943e+01,1.546681920341073380e-01
3.439999999999999858e+01,1.588874681608921369e-01
3.443999999999999773e+01,1.552665039976339756e-01
3.447999999999999687e+01,1.732924599090185369e-01
3.452000000000000313e+01,1.604679526756909724e-01
3.456000000000000227e+01,1.513935237590548488e-01
3.460000000000000142e+01,1.467509533456194948e-01
3.464000000000000057e+01,1.533580789379556664e-01
3.467999999999999972e+01,1.626925947484807178e-01
3.471999999999999886e+01,1.381085989576648076e-01
3.475999999999999801e+01,1.234107190010032828e-01
3.479999999999999716e+01,1.119515554930434476e-01
3.484000000000000341e+01,1.090149316073407287e-01
3.488000000000000256e+01,1.052263113735262684e-01
3.492000000000000171e+01,8.950669845565863147e-02
3.496000000000000085e+01,9.253637547432459753e-02
3.500000000000000000e+01,8.516906621851338954e-02
3.503999999999999915e+01,8.751739904226181477e-02
3.507999999999999829e+01,8.577524102471226208e-02
3.511999999999999744e+01,8.403329308351936699e-02
3.515999999999999659e+01,9.422277381797138085e-02
3.520000000000000284e+01,8.685651494394329430e-02
3.524000000000000199e+01,7.403618109728050956e-02
3.528000000000000114e+01,8.763517715447065315e-02
3.532000000000000028e+01,7.975816288320465575e-02
3.535999999999999943e+01,8.551701785455796678e-02
3.539999999999999858e+01,8.854891859931417197e-02
3.543999999999999773e+01,8.152468158579152802e-02
3.547999999999999687e+01,1.005788626044089862e-01
3.552000000000000313e+01,9.917968971531561373e-02
3.556000000000000227e+01,9.249685621238769306e-02
3.560000000000000142e+01,1.067790477657231535e-01
3.564000000000000057e+01,1.179933692610289908e-01
3.567999999999999972e+01,1.254580325923567163e-01
3.571999999999999886e+01,1.474107597116130486e-01
3.575999999999999801e+01,1.468647567261534559e-01
3.579999999999999716e+01,1.577387809511527073e-01
3.584000000000000341e+01,1.641813470270659936e-01
3.588000000000000256e+01,1.796576878821970757e-01
3.592000000000000171e+01,1.779191099270086840e-01
3.596000000000000085e+01,2.111220963883018720e-01
3.600000000000000000e+01,2.262579259370500473e-01
3.603999999999999915e+01,2.427574427810606783e-01
3.607999999999999829e+01,2.795401530184699057e-01
3.611999999999999744e+01,2.863244719051670772e-01
3.615999999999999659e+01,3.289025655925337244e-01
3.620000000000000284e+01,3.085861749541984889e-01
3.624000000000000199e+01,3.296882704034829747e-01
3.628000000000000114e+01,3.579491946326589513e-01
3.632000000000000028e+01,3.376330897277833309e-01
3.635999999999999943e+01,3.280551724510624712e-01
3.639999999999999858e+01,3.041598714688594773e-01
3.643999999999999773e+01,3.025930806812651697e-01
3.647999999999999687e+01,2.914813872923528448e-01
3.652000000000000313e+01,2.663931903919140587e-01
3.656000000000000227e+01,2.397710466889090286e-01
3.660000000000000142e+01,2.095695997849308934e-01
3.664000000000000057e+01,1.928334493759857882e-01
3.667999999999999972e+01,1.945055265625145469e-01
3.671999999999999886e+01,1.852691090969492138e-01
3.675999999999999801e+01,1.642719628367838025e-01
3.679999999999999716e+01,1.337298822975431511e-01
3.684000000000000341e+01,1.430722141211120957e-01
3.688000000000000256e+01,1.271885683828987423e-01
3.692000000000000171e+01,1.145434292282453692e-01
3.696000000000000085e+01,1.143408786715242736e-01
3.700000000000000000e+01,1.110703234263053368e-01
3.703999999999999915e+01,8.956206227927301922e-02
3.707999999999999829e+01,1.069155135173888022e-01
3.711999999999999744e+01,8.557772654738107776e-02
3.715999999999999659e+01,8.912506904538711194e-02
3.720000000000000284e+01,8.244565352089218424e-02
3.724000000000000199e+01,9.093593546120808113e-02
3.728000000000000114e+01,7.658644475434664423e-02
3.732000000000000028e+01,7.621352133695595554e-02
3.735999999999999943e+01,5.981865881523895645e-02
3.739999999999999858e+01,6.438864316240082430e-02
3.743999999999999773e+01,5.907273780185840623e-02
3.747999999999999687e+01,6.602892352633542294e-02
3.752000000000000313e+01,5.150888113777528365e-02
3.756000000000000227e+01,5.539697923085659670e-02
3.760000000000000142e+01,6.167128640947749235e-02
3.764000000000000057e+01,6.351395725162799211e-02
3.767999999999999972e+01,6.825416736955050578e-02
3.771999999999999886e+01,5.407482012419652373e-02
3.775999999999999801e+01,4.534969478353406691e-02
3.779999999999999716e+01,5.929383708012654630e-02
3.784000000000000341e+01,5.210261165903918440e-02
3.788000000000000256e+01,6.792153802888191427e-02
3.792000000000000171e+01,5.169654242194104965e-02
3.796000000000000085e+01,5.643633824780382169e-02
3.800000000000000000e+01,5.572178588037586533e-02
3.803999999999999915e+01,5.125734172550994866e-02
3.807999999999999829e+01,4.986084328577684854e-02
3.811999999999999744e+01,4.573712135850997729e-02
3.815999999999999659e+01,6.564619972347926491e-02
3.820000000000000284e+01,5.709069516132973116e-02
3.824000000000000199e+01,4.870553785396088825e-02
3.828000000000000114e+01,6.230781652098207196e-02
3.832000000000000028e+01,6.363787385466493363e-02
3.835999999999999943e+01,6.547915863708406170e-02
3.839999999999999858e+01,5.504821416672558282e-02
3.843999999999999773e+01,7.427476147695499797e-02
3.847999999999999687e+01,5.992331704531033559e-02
3.852000000000000313e+01,5.716207659974511385e-02
3.856000000000000227e+01,6.241166941283715630e-02
3.860000000000000142e+01,7.379718512273701625e-02
3.864000000000000057e+01,7.188777160219780860e-02
3.867999999999999972e+01,6.145591391510304285e-02
3.871999999999999886e+01,6.875029773155053037e-02
3.875999999999999801e+01,7.178338037593469390e-02
3.879999999999999716e+01,6.424865453591716014e-02
3.884000000000000341e+01,7.461060435684023495e-02
3.888000000000000256e+01,8.957443502751835651e-02
3.892000000000000171e+01,8.220966881218509659e-02
3.896000000000000085e+01,8.370792644109886771e-02
3.900000000000000000e+01,8.776270060192149780e-02
3.903999999999999915e+01,9.641933977362053543e-02
3.907999999999999829e+01,9.791706347402544253e-02
3.911999999999999744e+01,8.680159457358438413e-02
3.915999999999999659e+01,9.153741721763972161e-02
3.920000000000000284e+01,9.814795244877656810e-02
3.924000000000000199e+01,1.112352392943213170e-01
3.928000000000000114e+01,1.004598792873624968e-01
3.932000000000000028e+01,1.247961971169914142e-01
3.935999999999999943e+01,1.237358458456622179e-01
3.939999999999999858e+01,1.404016687626412629e-01
3.943999999999999773e+01,1.280914478915203270e-01
3.947999999999999687e+01,1.571993923707271368e-01
3.952000000000000313e+01,1.735236586153341143e-01
3.956000000000000227e+01,1.767233505925071835e-01
3.960000000000000142e+01,1.882746649487410107e-01
3.964000000000000057e+01,2.052800151028426334e-01
3.967999999999999972e+01,2.117174696587102445e-01
3.971999999999999886e+01,2.440624764798771384e-01
3.975999999999999801e+01,2.654986877102561427e-01
3.979999999999999716e+01,3.070472780435484217e-01
3.984000000000000341e+01,3.228582596861322429e-01
3.988000000000000256e+01,3.524751091595713648e-01
3.992000000000000171e+01,4.003294194546350160e-01
3.996000000000000085e+01,4.422178494204730415e-01
4.000000000000000000e+01,5.013210560691524487e-01
4.003999999999999915e+01,5.873544595247178757e-01
4.007999999999999829e+01,6.292420585830728053e-01
4.011999999999999744e+01,7.016392132965766359e-01
4.015999999999999659e+01,7.610821803834085797e-01
4.020000000000000284e+01,8.617727955090573877e-01
4.024000000000000199e+01,9.270103382630372479e-01
4.028000000000000114e+01,9.629308620016902021e-01
4.032000000000000028e+01,9.956126063585565289e-01
4.035999999999999943e+01,1.000000000000000000e+00
4.039999999999999858e+01,9.813768660995757509e-01
4.043999999999999773e+01,9.472428263060834741e-01
4.047999999999999687e+01,8.643608995311384824e-01
4.052000000000000313e+01,8.000572662551376224e-01
4.056000000000000227e+01,7.008118670393825855e-01
4.060000000000000142e+01,6.180994009644451559e-01
4.064000000000000057e+01,5.272051887698038231e-01
4.067999999999999972e+01,4.461965063708075996e-01
4.071999999999999886e+01,4.066058665708298103e-01
4.075999999999999801e+01,3.520156273096985977e-01
4.079999999999999716e+01,3.021975248683362869e-01
4.084000000000000341e+01,2.685714397363592187e-01
4.088000000000000256e+01,2.357972246638945779e-01
4.092000000000000171e+01,2.168287744695744090e-01
4.096000000000000085e+01,2.010984309271290071e-01
4.100000000000000000e+01,1.916742187348694226e-01
4.103999999999999915e+01,1.623074443032583858e-01
4.107999999999999829e+01,1.573140731774630430e-01
4.111999999999999744e+01,1.497636276217171047e-01
4.115999999999999659e+01,1.347131686161405495e-01
4.120000000000000284e+01,1.399453961598465246e-01
4.124000000000000199e+01,1.277917322139616729e-01
4.128000000000000114e+01,1.429090343967675814e-01
4.132000000000000028e+01,1.167779920525273407e-01
4.135999999999999943e+01,1.189405841368821187e-01
4.139999999999999858e+01,9.775165761326340408e-02
4.143999999999999773e+01,8.849353808930365828e-02
4.147999999999999687e+01,8.758685483758095469e-02
4.152000000000000313e+01,8.241859719313859856e-02
4.156000000000000227e+01,8.918113466919633248e-02
4.160000000000000142e+01,7.122856544622420405e-02
4.164000000000000057e+01,7.100194866725956233e-02
4.167999999999999972e+01,6.753641787604018620e-02
4.171999999999999886e+01,6.799070264825118892e-02
4.175999999999999801e+01,6.367205115975280161e-02
4.179999999999999716e+01,6.156874694967291034e-02
4.184000000000000341e+01,5.861275740026122144e-02
4.188000000000000256e+01,5.292917214966826045e-02
4.192000000000000171e+01,5.338118113915177321e-02
4.196000000000000085e+01,4.974201821555660624e-02
4.200000000000000000e+01,4.337524771162123982e-02
4.203999999999999915e+01,4.587119615351945706e-02
4.207999999999999829e+01,4.086704007203498246e-02
4.211999999999999744e+01,3.927132184711249613e-02
4.215999999999999659e+01,4.364072806739126981e-02
4.220000000000000284e+01,4.272581636037267594e-02
4.224000000000000199e+01,4.470799252108546146e-02
4.228000000000000114e+01,3.475844740932845789e-02
4.232000000000000028e+01,4.134166517044405437e-02
4.235999999999999943e+01,3.991341258046755130e-02
4.239999999999999858e+01,3.439394452049616274e-02
4.243999999999999773e+01,3.432823507801674445e-02
4.247999999999999687e+01,2.369435285692737467e-02
4.252000000000000313e+01,2.993410578322679150e-02
4.256000000000000227e+01,3.361664172966808556e-02
4.260000000000000142e+01,3.269660429784445460e-02
4.264000000000000057e+01,3.092380233229594447e-02
4.267999999999999972e+01,3.682053370116575297e-02
4.271999999999999886e+01,3.453531304490927573e-02
4.275999999999999801e+01,3.668114310904391911e-02
4.279999999999999716e+01,2.075914310829209825e-02
4.284000000000000341e+01,3.296018498995079149e-02
4.288000000000000256e+01,2.555937455826839608e-02
4.292000000000000171e+01,2.446450541022832104e-02
4.296000000000000085e+01,3.564118486561487081e-02
4.300000000000000000e+01,2.721600012850140457e-02
4.303999999999999915e+01,3.003967985603169313e-02
4.307999999999999829e+01,3.201055149292091756e-02
4.311999999999999744e+01,2.665166169027360574e-02
4.315999999999999659e+01,2.572378301082083041e-02
4.320000000000000284e+01,2.718155905615584830e-02
4.324000000000000199e+01,2.591160476984133779e-02
4.328000000000000114e+01,2.651595917920358120e-02
4.332000000000000028e+01,3.325576923845431632e-02
4.335999999999999943e+01,2.567750660100301743e-02
4.339999999999999858e+01,2.116666303597036086e-02
4.343999999999999773e+01,1.835966629117849469e-02
4.347999999999999687e+01,2.168810935739654347e-02
4.352000000000000313e+01,3.541313918883624151e-02
4.356000000000000227e+01,2.680911280678456923e-02
4.360000000000000142e+01,3.252192411133215943e-02
4.364000000000000057e+01,2.596198743982721865e-02
4.367999999999999972e+01,3.337798846236780803e-02
4.371999999999999886e+01,2.528275889482860250e-02
4.375999999999999801e+01,2.707275422452138855e-02
4.379999999999999716e+01,3.346414335845145083e-02
4.384000000000000341e+01,2.485562813281468747e-02
4.388000000000000256e+01,2.920035458328150424e-02
4.392000000000000171e+01,2.536301021703242509e-02
4.396000000000000085e+01,1.692295784205011602e-02
4.400000000000000000e+01,2.910620690908905656e-02
4.403999999999999915e+01,2.884622236632167561e-02
4.407999999999999829e+01,2.654020848402101340e-02
4.411999999999999744e+01,2.900600276475768027e-02
4.415999999999999659e+01,2.703951527472017377e-02
4.420000000000000284e+01,2.473144693156294899e-02
4.424000000000000199e+01,2.514982243359703551e-02
4.428000000000000114e+01,2.079501221258346286e-02
4.432000000000000028e+01,2.308689675813877656e-02
4.435999999999999943e+01,2.520763064825303629e-02
4.439999999999999858e+01,1.880535413190096913e-02
4.443999999999999773e+01,1.598173184492822710e-02
4.447999999999999687e+01,2.508861561892071143e-02
4.452000000000000313e+01,2.192266430302828098e-02
4.456000000000000227e+01,2.693739832440212797e-02
4.460000000000000142e+01,2.376999421382591099e-02
4.464000000000000057e+01,3.406709465435160678e-02
4.467999999999999972e+01,2.510305666726620269e-02
4.471999999999999886e+01,2.568325647102656303e-02
4.475999999999999801e+01,2.847851053395092022e-02
4.479999999999999716e+01,2.087580819108251703e-02
4.484000000000000341e+01,9.352094871877594459e-03
4.488000000000000256e+01,2.765568185495339767e-02
4.492000000000000171e+01,2.891390512734444765e-02
4.496000000000000085e+01,2.198995463030859604e-02
4.500000000000000000e+01,2.392843005985178725e-02
4.503999999999999915e+01,2.791148599396419544e-02
4.507999999999999829e+01,1.689451481720028944e-02
4.511999999999999744e+01,1.814887841900175713e-02
4.515999999999999659e+01,3.065189662030521484e-02
4.520000000000000284e+01,2.235971058862679106e-02
4.524000000000000199e+01,2.855464593159905834e-02
4.528000000000000114e+01,2.503336149837171593e-02
4.532000000000000028e+01,2.440886003446227429e-02
4.535999999999999943e+01,2.310177081244863331e-02
4.539999999999999858e+01,2.878216151768766759e-02
4.543999999999999773e+01,2.508720868096310855e-02
4.547999999999999687e+01,1.167601626944073621e-02
4.552000000000000313e+01,1.616083824567654537e-02
4.556000000000000227e+01,2.763312431028651373e-02
4.560000000000000142e+01,3.075272721339770629e-02
4.564000000000000057e+01,2.654231921463409694e-02
4.567999999999999972e+01,2.727401098639853361e-02
4.571999999999999886e+01,3.311824460552861144e-02
4.575999999999999801e+01,2.890531885870879780e-02
4.579999999999999716e+01,2.537333008932657341e-02
4.584000000000000341e+01,2.661297921503658417e-02
4.588000000000000256e+01,2.512463666759974165e-02
4.592000000000000171e+01,2.772613994958674291e-02
4.596000000000000085e+01,3.169034851636174516e-02
4.600000000000000000e+01,3.105164712870120067e-02
4.603999999999999915e+01,2.938939859458776158e-02
4.607999999999999829e+01,2.448780047905750601e-02
4.611999999999999744e+01,3.560725095336073759e-02
4.615999999999999659e+01,3.189701344091432078e-02
4.620000000000000284e+01,2.903811934526629238e-02
4.624000000000000199e+01,3.112126958407111094e-02
4.628000000000000114e+01,3.115817269876159507e-02
4.632000000000000028e+01,2.778525643716001081e-02
4.635999999999999943e+01,2.492277568036364507e-02
4.639999999999999858e+01,3.569507128356166209e-02
4.643999999999999773e+01,3.180809721852964622e-02
4.647999999999999687e+01,3.388581994897611749e-02
4.652000000000000313e+01,3.067879710240249344e-02
4.656000000000000227e+01,4.366322532530339529e-02
4.660000000000000142e+01,3.005714548208772083e-02
4.664000000000000057e+01,4.048302647054112524e-02
4.667999999999999972e+01,3.624961403244664204e-02
4.671999999999999886e+01,4.462827005724572665e-02
4.675999999999999801e+01,4.005208510163012908e-02
4.679999999999999716e+01,4.621305428733896853e-02
4.684000000000000341e+01,3.924872853663659983e-02
4.688000000000000256e+01,3.109032644881132637e-02
4.692000000000000171e+01,3.810066357364024631e-02
4.696000000000000085e+01,4.937118961173916215e-02
4.700000000000000000e+01,4.632328261864744612e-02
4.703999999999999915e+01,4.174039137643968667e-02
4.707999999999999829e+01,4.175856924145755766e-02
4.711999999999999744e+01,5.302520767971434512e-02
4.715999999999999659e+01,5.201874968658897619e-02
4.720000000000000284e+01,4.589792483776652943e-02
4.724000000000000199e+01,5.835472825498620036e-02
4.728000000000000114e+01,4.677764683921392663e-02
4.732000000000000028e+01,5.565309217217424831e-02
4.735999999999999943e+01,5.430077371384116336e-02
4.739999999999999858e+01,5.294744969793055422e-02
4.743999999999999773e+01,5.738828140766932123e-02
4.747999999999999687e+01,5.091955330072676922e-02
4.752000000000000313e+01,6.149441141277336986e-02
4.756000000000000227e+01,5.212606185116469559e-02
4.760000000000000142e+01,5.980129058910577805e-02
4.764000000000000057e+01,6.440746135312076792e-02
4.767999999999999972e+01,5.759271439218432986e-02
4.771999999999999886e+01,5.350406678082914730e-02
4.775999999999999801e+01,5.316419077867910736e-02
4.779999999999999716e+01,6.168646352273229189e-02
4.784000000000000341e+01,5.350397556968049251e-02
4.788000000000000256e+01,5.162693789503371156e-02
4.792000000000000171e+01,4.889661300366753699e-02
4.796000000000000085e+01,4.548344297241951883e-02
4.800000000000000000e+01,5.127329396189102273e-02
4.803999999999999915e+01,4.836932817385029143e-02
4.807999999999999829e+01,4.205536878185266170e-02
4.811999999999999744e+01,5.448939657862193059e-02
4.815999999999999659e+01,4.800283352528461611e-02
4.820000000000000284e+01,5.310551620587005556e-02
4.824000000000000199e+01,4.627588761575713444e-02
4.828000000000000114e+01,4.302453312193663115e-02
4.832000000000000028e+01,3.755628352174204820e-02
4.835999999999999943e+01,3.668897631774411389e-02
4.839999999999999858e+01,3.650234870940622517e-02
4.843999999999999773e+01,5.063207966158926598e-02
4.847999999999999687e+01,4.089825302574804505e-02
4.852000000000000313e+01,3.695847520312559725e-02
4.856000000000000227e+01,4.171032485547566254e-02
4.860000000000000142e+01,3.623428796522302348e-02
4.864000000000000057e+01,3.399559746067135069e-02
4.867999999999999972e+01,3.686915578423083373e-02
4.871999999999999886e+01,3.326462849028834906e-02
4.875999999999999801e+01,4.159018356730792565e-02
4.879999999999999716e+01,3.133597651182095517e-02
4.884000000000000341e+01,3.625031860244465332e-02
4.888000000000000256e+01,3.979994033340544801e-02
4.892000000000000171e+01,4.062126945252562266e-02
4.896000000000000085e+01,4.842972608384920469e-02
4.900000000000000000e+01,3.254501968735021289e-02
4.903999999999999915e+01,2.893126001689026727e-02
4.907999999999999829e+01,3.622487482029165123e-02
4.911999999999999744e+01,3.567679611653640226e-02
4.915999999999999659e+01,3.683199799311129979e-02
4.920000000000000284e+01,4.207672100209827043e-02
4.924000000000000199e+01,4.800204045263253838e-02
4.928000000000000114e+01,3.756334872926870433e-02
4.932000000000000028e+01,4.144092845259340213e-02
4.935999999999999943e+01,3.986303542224513968e-02
4.939999999999999858e+01,3.555680226342042283e-02
4.943999999999999773e+01,4.693039696458333604e-02
4.947999999999999687e+01,4.159906862013534184e-02
4.952000000000000313e+01,4.581150290017443200e-02
4.956000000000000227e+01,5.343163852891967547e-02
4.960000000000000142e+01,5.082378862207082015e-02
4.964000000000000057e+01,5.639612116809201992e-02
4.967999999999999972e+01,6.094454623317172720e-02
4.971999999999999886e+01,4.946980864055164351e-02
4.975999999999999801e+01,5.810646418065061602e-02
4.979999999999999716e+01,6.793499883589350363e-02
4.984000000000000341e+01,7.861451657344604993e-02
4.988000000000000256e+01,8.111137349605401781e-02
4.992000000000000171e+01,7.593690375366952960e-02
4.996000000000000085e+01,8.235150551754299997e-02
5.000000000000000000e+01,6.814087391863313248e-02
5.003999999999999915e+01,6.807599645490076956e-02
5.007999999999999829e+01,6.954386246138921646e-02
5.011999999999999744e+01,6.504484236985945411e-02
5.015999999999999659e+01,6.412391026779826197e-02
5.020000000000000284e+01,4.820244421074500185e-02
5.024000000000000199e+01,5.443767620846202970e-02
5.028000000000000114e+01,5.419466815961051370e-02
5.032000000000000028e+01,4.628029384856992279e-02
5.035999999999999943e+01,4.552335449610206419e-02
5.039999999999999858e+01,3.794727114479217595e-02
5.043999999999999773e+01,4.008530538097451745e-02
5.047999999999999687e+01,5.040343891591414494e-02
5.052000000000000313e+01,3.566469066122623238e-02
5.056000000000000227e+01,3.438986091913126542e-02
5.060000000000000142e+01,3.720441371926046237e-02
5.064000000000000057e+01,4.496057528468042769e-02
5.067999999999999972e+01,4.385221269453364740e-02
5.071999999999999886e+01,3.916314912237546519e-02
5.075999999999999801e+01,3.754077603421926423e-02
5.079999999999999716e+01,3.199680197149784577e-02
5.084000000000000341e+01,3.804181230120194657e-02
5.088000000000000256e+01,3.624495489608458437e-02
5.092000000000000171e+01,3.444674347805994075e-02
5.096000000000000085e+01,2.702245488101891885e-02
5.100000000000000000e+01,2.914178239883766924e-02
5.103999999999999915e+01,3.756624737720869883e-02
5.107999999999999829e+01,2.775161659216733578e-02
5.111999999999999744e+01,3.276441717610175525e-02
5.115999999999999659e+01,3.351468907487958199e-02
5.120000000000000284e+01,2.915019814599481215e-02
5.124000000000000199e+01,3.262483920807932036e-02
5.128000000000000114e+01,3.780255098535225539e-02
5.132000000000000028e+01,2.746827982581095950e-02
5.135999999999999943e+01,3.997237999511864259e-02
5.139999999999999858e+01,3.611225912538648664e-02
5.143999999999999773e+01,2.338753886541414598e-02
5.147999999999999687e+01,3.128537957988747342e-02
5.152000000000000313e+01,3.270485749648294888e-02
5.156000000000000227e+01,2.764596865548086396e-02
5.160000000000000142e+01,2.957394598518492054e-02
5.164000000000000057e+01,2.723934711309645290e-02
5.167999999999999972e+01,3.206205252883207596e-02
5.171999999999999886e+01,3.620154059103827121e-02
5.175999999999999801e+01,2.653346252508660338e-02
5.179999999999999716e+01,2.078420217321218233e-02
5.184000000000000341e+01,3.974817203568065810e-02
5.188000000000000256e+01,2.547371572330499670e-02
5.192000000000000171e+01,2.892419420698542562e-02
5.196000000000000085e+01,2.674849651865804714e-02
5.200000000000000000e+01,2.576446016089345079e-02
5.203999999999999915e+01,2.972189397823173096e-02
5.207999999999999829e+01,3.453008913357899501e-02
5.211999999999999744e+01,2.365577612116169168e-02
5.215999999999999659e+01,2.914280585402446652e-02
5.220000000000000284e+01,3.411701675327920985e-02
5.224000000000000199e+01,2.357915364216765786e-02
5.228000000000000114e+01,3.093663572619256494e-02
5.232000000000000028e+01,3.539504258564887818e-02
5.235999999999999943e+01,3.218188123721371641e-02
5.239999999999999858e+01,2.709231296411421588e-02
5.243999999999999773e+01,3.921628990104349816e-02
5.247999999999999687e+01,2.747631327798295137e-02
5.252000000000000313e+01,3.073407547026755018e-02
5.256000000000000227e+01,3.995593258064297770e-02
5.260000000000000142e+01,3.707460077432035012e-02
5.264000000000000057e+01,3.640754316238965088e-02
5.267999999999999972e+01,2.619397926268037316e-02
5.271999999999999886e+01,3.421660907430587595e-02
5.275999999999999801e+01,3.405629297117161031e-02
5.279999999999999716e+01,3.031506998060385857e-02
5.284000000000000341e+01,3.015166967828776523e-02
5.288000000000000256e+01,3.475921036040449663e-02
5.292000000000000171e+01,3.612672434904327934e-02
5.296000000000000085e+01,3.289063939202642450e-02
5.300000000000000000e+01,3.357325335749709871e-02
5.303999999999999915e+01,3.698144002983492357e-02
5.307999999999999829e+01,3.305887929244198664e-02
5.311999999999999744e+01,3.186188334247685300e-02
5.315999999999999659e+01,3.509490858579240868e-02
5.320000000000000284e+01,2.486111722415702135e-02
5.324000000000000199e+01,2.979543943947026222e-02
5.328000000000000114e+01,3.711441853021815035e-02
5.332000000000000028e+01,3.062567706374159232e-02
5.335999999999999943e+01,3.504388638112321958e-02
5.339999999999999858e+01,3.707425167117735926e-02
5.343999999999999773e+01,2.853535921943598994e-02
5.347999999999999687e+01,2.817626908747772330e-02
5.352000000000000313e+01,3.804232975427002117e-02
5.356000000000000227e+01,2.694191257011514795e-02
5.360000000000000142e+01,3.748652271460775620e-02
5.364000000000000057e+01,3.558694891657673137e-02
5.367999999999999972e+01,4.067403538382977080e-02
5.371999999999999886e+01,3.093068547731826420e-02
5.375999999999999801e+01,3.533272145205630654e-02
5.379999999999999716e+01,3.785821191194206625e-02
5.384000000000000341e+01,3.407555594676715816e-02
5.388000000000000256e+01,3.029125294943046942e-02
5.392000000000000171e+01,3.195957213004460562e-02
5.396000000000000085e+01,2.697884093332459862e-02
5.400000000000000000e+01,2.728027795855885590e-02
5.403999999999999915e+01,3.064808077078331333e-02
5.407999999999999829e+01,3.520733900814854850e-02
5.411999999999999744e+01,3.073128651749940793e-02
5.415999999999999659e+01,2.795801964222349029e-02
5.420000000000000284e+01,3.063734722686078590e-02
5.424000000000000199e+01,3.399677628808845525e-02
5.428000000000000114e+01,3.786585682962954197e-02
5.432000000000000028e+01,3.065425440587090863e-02
5.435999999999999943e+01,3.588351810199443687e-02
5.439999999999999858e+01,3.497502597353940174e-02
5.443999999999999773e+01,3.491706155963370667e-02
5.447999999999999687e+01,3.673229711990123186e-02
5.452000000000000313e+01,3.189842686675944949e-02
5.456000000000000227e+01,3.234666939949672887e-02
5.460000000000000142e+01,3.705434453904986325e-02
5.464000000000000057e+01,3.579468613226374774e-02
5.467999999999999972e+01,3.538553168170907592e-02
5.471999999999999886e+01,3.787222966635322985e-02
5.475999999999999801e+01,3.166444564058307209e-02
5.479999999999999716e+01,2.937518234991593966e-02
5.484000000000000341e+01,3.628826296790722133e-02
5.488000000000000256e+01,3.501818780599699754e-02
5.492000000000000171e+01,4.073465015806147782e-02
5.496000000000000085e+01,3.690438051832710398e-02
5.500000000000000000e+01,3.239056882805157328e-02
5.503999999999999915e+01,3.060213185866036273e-02
5.507999999999999829e+01,3.750467692993782187e-02
5.511999999999999744e+01,3.588315038988133809e-02
5.515999999999999659e+01,2.897602297335913693e-02
5.520000000000000284e+01,3.365744833982004663e-02
5.524000000000000199e+01,4.293913503069684418e-02
5.528000000000000114e+01,4.471941049070456142e-02
5.532000000000000028e+01,3.439622777307765888e-02
5.535999999999999943e+01,3.872961065758585147e-02
5.539999999999999858e+01,3.130041951813460066e-02
5.543999999999999773e+01,2.761923972171469524e-02
5.547999999999999687e+01,3.910595175794268769e-02
5.552000000000000313e+01,3.150089831909020505e-02
5.556000000000000227e+01,3.974551293967534815e-02
5.560000000000000142e+01,3.946600843229070704e-02
5.564000000000000057e+01,3.611665400704877626e-02
5.567999999999999972e+01,3.515171887406220996e-02
5.571999999999999886e+01,3.895744358541290003e-02
5.575999999999999801e+01,4.259088912122074855e-02
5.579999999999999716e+01,4.383625304652176424e-02
5.584000000000000341e+01,4.985226493700109507e-02
5.588000000000000256e+01,4.291253303098432892e-02
5.592000000000000171e+01,5.045886525447022125e-02
5.596000000000000085e+01,4.317453935989089969e-02
5.600000000000000000e+01,5.548965077209260660e-02
5.603999999999999915e+01,5.536034065859139763e-02
5.607999999999999829e+01,5.335425932621751244e-02
5.611999999999999744e+01,5.509612202164082539e-02
5.615999999999999659e+01,5.155228484760700919e-02
5.620000000000000284e+01,6.880098743765683533e-02
5.624000000000000199e+01,7.224168041094733428e-02
5.628000000000000114e+01,6.647640279480487857e-02
5.632000000000000028e+01,7.434491952818217397e-02
5.635999999999999943e+01,7.539370226448882661e-02
5.639999999999999858e+01,7.269077570203574812e-02
5.643999999999999773e+01,8.055360295191286990e-02
5.647999999999999687e+01,8.636917334916355271e-02
5.652000000000000313e+01,9.644398628668665596e-02
5.656000000000000227e+01,9.918770731886898673e-02
5.660000000000000142e+01,1.065315550449988796e-01
5.664000000000000057e+01,9.699932489914235567e-02
5.667999999999999972e+01,1.068960187082755031e-01
5.671999999999999886e+01,1.036664395302425157e-01
5.675999999999999801e+01,1.007758202933470709e-01
5.679999999999999716e+01,1.012921856959001637e-01
5.684000000000000341e+01,9.430698543851769033e-02
5.688000000000000256e+01,8.919474757212907112e-02
5.692000000000000171e+01,8.084208704029699488e-02
5.696000000000000085e+01,7.760085567460739409e-02
5.700000000000000000e+01,7.674391293042448492e-02
5.703999999999999915e+01,7.349876582442541051e-02
5.707999999999999829e+01,6.564961192164620041e-02
5.711999999999999744e+01,6.785480640629128202e-02
5.715999999999999659e+01,6.153572733390003102e-02
5.720000000000000284e+01,6.748678720473809400e-02
5.724000000000000199e+01,6.116375279484079219e-02
5.728000000000000114e+01,5.398650459382474398e-02
5.732000000000000028e+01,6.095428985900887969e-02
5.735999999999999943e+01,5.871599762232935366e-02
5.739999999999999858e+01,5.886195440995994205e-02
5.743999999999999773e+01,5.508565290956253524e-02
5.747999999999999687e+01,5.284136233124966248e-02
5.752000000000000313e+01,4.974283420350009838e-02
5.756000000000000227e+01,5.584638072347235249e-02
5.760000000000000142e+01,5.427784031227830125e-02
5.764000000000000057e+01,5.850244589822164304e-02
5.767999999999999972e+01,5.403228041421576783e-02
5.771999999999999886e+01,5.586659111757975860e-02
5.775999999999999801e+01,5.684664051318907840e-02
5.779999999999999716e+01,5.083636732526287255e-02
5.784000000000000341e+01,5.590304746915070178e-02
5.788000000000000256e+01,5.551341143907899400e-02
5.792000000000000171e+01,4.949700923877081021e-02
5.796000000000000085e+01,4.739881495571293679e-02
5.800000000000000000e+01,4.154875298510912751e-02
5.803999999999999915e+01,5.205945168099603698e-02
5.807999999999999829e+01,5.489801592908078592e-02
5.811999999999999744e+01,5.517782286636146311e-02
5.815999999999999659e+01,6.073938621475221539e-02
5.820000000000000284e+01,6.595798280814386960e-02
5.824000000000000199e+01,6.657245777288534061e-02
5.828000000000000114e+01,6.837797239220375078e-02
5.832000000000000028e+01,7.290853703539477981e-02
5.835999999999999943e+01,7.232363006110488490e-02
5.839999999999999858e+01,6.440744903437009561e-02
5.843999999999999773e+01,7.302243511348675831e-02
5.847999999999999687e+01,6.493160721007008862e-02
5.852000000000000313e+01,6.382696044585915718e-02
5.856000000000000227e+01,7.004938293424878282e-02
5.860000000000000142e+01,6.706560516946548367e-02
5.864000000000000057e+01,6.953398233571360387e-02
5.867999999999999972e+01,5.921678456164699428e-02
5.871999999999999886e+01,5.997645300556203596e-02
5.875999999999999801e+01,6.363157395299071095e-02
5.879999999999999716e+01,5.603512240996099542e-02
5.884000000000000341e+01,5.303857581657821230e-02
5.888000000000000256e+01,5.089211740886301349e-02
5.892000000000000171e+01,5.675447676250055390e-02
5.896000000000000085e+01,4.403606821483901923e-02
5.900000000000000000e+01,5.176903017777065297e-02
5.903999999999999915e+01,4.433013705110911556e-02
5.907999999999999829e+01,4.404781566413543126e-02
5.911999999999999744e+01,4.444511266795409671e-02
5.915999999999999659e+01,3.137500306859317828e-02
5.920000000000000284e+01,3.364286308450941537e-02
5.924000000000000199e+01,3.113605644222689275e-02
5.928000000000000114e+01,3.101331271743069593e-02
5.932000000000000028e+01,3.327462795040122406e-02
5.935999999999999943e+01,2.053450245257854023e-02
5.939999999999999858e+01,2.568901731979359934e-02
5.943999999999999773e+01,3.203445700971559174e-02
5.947999999999999687e+01,2.627602671115881680e-02
5.952000000000000313e+01,2.886724685127444248e-02
5.956000000000000227e+01,2.003637322970100443e-02
5.960000000000000142e+01,2.620253755309371116e-02
5.964000000000000057e+01,1.736723342765559078e-02
5.967999999999999972e+01,2.301762121807255854e-02
5.971999999999999886e+01,1.980258995628065427e-02
5.975999999999999801e+01,2.101692653402633185e-02
5.979999999999999716e+01,1.711564894438354772e-02
5.984000000000000341e+01,1.031455170287689377e-02
5.988000000000000256e+01,1.356752962813832265e-02
5.992000000000000171e+01,1.767049278635637183e-02
5.996000000000000085e+01,2.279388325436851673e-02
