2.003999999999999915e+01,7.249812070963444766e-02
2.007999999999999829e+01,6.594880688047091710e-02
2.012000000000000099e+01,9.797305321551158519e-02
2.016000000000000014e+01,7.551444875306213833e-02
2.019999999999999929e+01,7.065554530252145249e-02
2.023999999999999844e+01,5.181502023304294935e-02
2.028000000000000114e+01,5.611900257766239825e-02
2.032000000000000028e+01,7.030815681590187050e-02
2.035999999999999943e+01,8.570364420487598667e-02
2.039999999999999858e+01,6.590256655837814503e-02
2.044000000000000128e+01,7.021030046410076109e-02
2.048000000000000043e+01,5.764345095824528059e-02
2.051999999999999957e+01,7.304266796242347981e-02
2.055999999999999872e+01,6.529924784658079628e-02
2.060000000000000142e+01,8.021815564340094296e-02
2.064000000000000057e+01,6.235126972300515658e-02
2.067999999999999972e+01,6.545915478442144997e-02
2.071999999999999886e+01,4.855841586385139380e-02
2.076000000000000156e+01,6.878472054907512623e-02
2.080000000000000071e+01,6.876131698806976777e-02
2.083999999999999986e+01,7.331931654770236506e-02
2.087999999999999901e+01,6.365457181883156512e-02
2.092000000000000171e+01,6.556250927939615003e-02
2.096000000000000085e+01,7.108752651981499471e-02
2.100000000000000000e+01,6.504165779746590159e-02
2.103999999999999915e+01,8.358671703431293232e-02
2.107999999999999829e+01,6.524761315627668201e-02
2.112000000000000099e+01,6.161520186247321229e-02
2.116000000000000014e+01,7.823429229832948306e-02
2.119999999999999929e+01,7.990738016647910835e-02
2.123999999999999844e+01,6.422367494600454696e-02
2.128000000000000114e+01,7.409519633637373648e-02
2.132000000000000028e+01,6.564560404057202814e-02
2.135999999999999943e+01,5.719688242573062881e-02
2.139999999999999858e+01,6.634777952567655346e-02
2.144000000000000128e+01,7.357091159796386171e-02
2.148000000000000043e+01,7.066959745524324654e-02
2.151999999999999957e+01,3.112516879979625867e-02
2.155999999999999872e+01,8.270937510542922255e-02
2.160000000000000142e+01,6.823885052416447938e-02
2.164000000000000057e+01,6.268909219861462656e-02
2.167999999999999972e+01,7.690864238510260187e-02
2.171999999999999886e+01,9.064688100787852976e-02
2.176000000000000156e+01,4.845568643706344575e-02
2.180000000000000071e+01,5.472216670296693730e-02
2.183999999999999986e+01,5.062309728695790767e-02
2.187999999999999901e+01,6.098958955590386144e-02
2.192000000000000171e+01,4.122206687948591630e-02
2.196000000000000085e+01,6.026905695611683988e-02
2.200000000000000000e+01,6.774509248904590775e-02
2.203999999999999915e+01,4.701573506904304506e-02
2.207999999999999829e+01,5.690420372826466427e-02
2.212000000000000099e+01,6.823996361354464635e-02
2.216000000000000014e+01,6.390641876011715627e-02
2.219999999999999929e+01,5.909152942412888160e-02
2.223999999999999844e+01,5.355421408457494703e-02
2.228000000000000114e+01,6.151811788653012425e-02
2.232000000000000028e+01,4.971436675477208800e-02
2.235999999999999943e+01,6.274253183314484894e-02
2.239999999999999858e+01,6.492295126874596256e-02
2.244000000000000128e+01,7.747055476192260537e-02
2.248000000000000043e+01,4.614261457163602170e-02
2.251999999999999957e+01,5.097728217362704206e-02
2.255999999999999872e+01,6.352725904803338541e-02
2.260000000000000142e+01,6.426516145240918076e-02
2.264000000000000057e+01,6.379845286530951010e-02
2.267999999999999972e+01,5.730555498813679621e-02
2.271999999999999886e+01,5.852795541042986327e-02
2.276000000000000156e+01,4.769719161197497753e-02
2.280000000000000071e+01,4.602819329311941265e-02
2.283999999999999986e+01,3.519897060025709706e-02
2.287999999999999901e+01,4.221034390016756982e-02
2.292000000000000171e+01,5.139218989469299115e-02
2.296000000000000085e+01,3.815447050825926389e-02
2.300000000000000000e+01,6.831168932829478901e-02
2.303999999999999915e+01,2.590495150515132600e-02
2.307999999999999829e+01,4.473297595683468214e-02
2.312000000000000099e+01,3.800739994362561935e-02
2.316000000000000014e+01,5.225642483151156370e-02
2.319999999999999929e+01,5.421117654527050911e-02
2.323999999999999844e+01,3.953223434184095081e-02
2.328000000000000114e+01,2.413079481067384111e-02
2.332000000000000028e+01,5.574045320659725550e-02
2.335999999999999943e+01,4.419774390113936913e-02
2.339999999999999858e+01,5.724580070387263325e-02
2.344000000000000128e+01,3.148090231857379045e-02
2.348000000000000043e+01,6.622750244242431306e-02
2.351999999999999957e+01,5.565201489203196183e-02
2.355999999999999872e+01,6.605110081036119629e-02
2.360000000000000142e+01,3.257456623458079153e-02
2.364000000000000057e+01,2.971575075176736275e-02
2.367999999999999972e+01,3.505432528625909011e-02
2.371999999999999886e+01,5.437617776125081015e-02
2.376000000000000156e+01,5.031409487946388731e-02
2.380000000000000071e+01,4.986889700767776351e-02
2.383999999999999986e+01,5.521029040256734272e-02
2.387999999999999901e+01,6.874906009857499611e-02
2.392000000000000171e+01,7.071674357548711487e-02
2.396000000000000085e+01,5.942578664569016234e-02
2.400000000000000000e+01,3.174216245496254418e-02
2.403999999999999915e+01,5.299821703519680405e-02
2.407999999999999829e+01,5.135247186828973548e-02
2.412000000000000099e+01,5.043064443226841914e-02
2.416000000000000014e+01,2.877672076254293373e-02
2.419999999999999929e+01,5.365167711314987320e-02
2.423999999999999844e+01,5.562482274366584850e-02
2.428000000000000114e+01,6.338452946524625320e-02
2.432000000000000028e+01,6.511793442402155629e-02
2.435999999999999943e+01,4.202089021084974563e-02
2.439999999999999858e+01,3.893404674734268767e-02
2.444000000000000128e+01,4.115159584641456259e-02
2.448000000000000043e+01,5.590589809786829928e-02
2.451999999999999957e+01,6.608035753693805581e-02
2.455999999999999872e+01,6.516584442065018190e-02
2.460000000000000142e+01,4.014410200629513897e-02
2.464000000000000057e+01,4.911511299272500186e-02
2.467999999999999972e+01,4.699714319408514196e-02
2.471999999999999886e+01,3.451342620044225984e-02
2.476000000000000156e+01,3.938801871187974646e-02
2.480000000000000071e+01,5.438855465212010659e-02
2.483999999999999986e+01,4.046026927950874957e-02
2.487999999999999901e+01,4.027410351574563924e-02
2.492000000000000171e+01,3.092757072963265089e-02
2.496000000000000085e+01,5.195758773188557250e-02
2.500000000000000000e+01,3.393346378208111913e-02
2.503999999999999915e+01,1.398132791325495776e-02
2.507999999999999829e+01,2.922730915844274149e-02
2.512000000000000099e+01,2.542867977660553253e-02
2.516000000000000014e+01,3.223812668997075304e-02
2.519999999999999929e+01,3.181581760046874041e-02
2.523999999999999844e+01,4.224265809746236694e-02
2.528000000000000114e+01,2.976761655019357494e-02
2.532000000000000028e+01,5.249067565751442538e-02
2.535999999999999943e+01,3.784712056801767255e-02
2.539999999999999858e+01,5.623195164672376012e-02
2.544000000000000128e+01,1.868709715400087776e-02
2.548000000000000043e+01,3.345692556444682109e-02
2.551999999999999957e+01,2.146759502691782118e-02
2.555999999999999872e+01,2.587220401865000449e-02
2.560000000000000142e+01,4.715290735194156702e-02
2.564000000000000057e+01,4.963004317389049791e-02
2.567999999999999972e+01,2.751771807482719656e-02
2.571999999999999886e+01,1.336156431019506173e-02
2.576000000000000156e+01,2.572464502489336599e-02
2.580000000000000071e+01,4.869575814299627325e-02
2.583999999999999986e+01,5.527407781124969721e-02
2.587999999999999901e+01,2.665545662051161183e-02
2.592000000000000171e+01,2.310958626954654621e-02
2.596000000000000085e+01,2.366261034930044679e-02
2.600000000000000000e+01,1.818921745027964401e-02
2.603999999999999915e+01,6.478939027133620576e-02
2.607999999999999829e+01,2.966440440798942535e-02
2.612000000000000099e+01,1.575489522394058275e-02
2.616000000000000014e+01,3.415048375328049585e-02
2.619999999999999929e+01,4.290345992113871187e-02
2.623999999999999844e+01,3.237066987355773084e-02
2.628000000000000114e+01,2.762430375517282294e-02
2.632000000000000028e+01,4.047721893337885568e-02
2.635999999999999943e+01,3.621406866634562655e-02
2.639999999999999858e+01,3.460330998781220579e-02
2.644000000000000128e+01,2.576071026605300171e-02
2.648000000000000043e+01,2.728501753489505355e-02
2.651999999999999957e+01,8.077066719028283895e-03
2.655999999999999872e+01,3.877293696124121947e-02
2.660000000000000142e+01,3.330750185511802824e-02
2.664000000000000057e+01,4.061975054432678117e-02
2.667999999999999972e+01,3.443209350891732884e-02
2.671999999999999886e+01,4.391506011558102274e-02
2.676000000000000156e+01,4.520184862204805476e-02
2.680000000000000071e+01,1.418457850828019201e-02
2.683999999999999986e+01,3.090140125001858418e-02
2.687999999999999901e+01,3.628801355086382768e-02
2.692000000000000171e+01,3.034441266757869834e-02
2.696000000000000085e+01,3.500876463381451253e-02
2.700000000000000000e+01,2.448563748515729388e-02
2.703999999999999915e+01,2.240074869963400161e-02
2.707999999999999829e+01,2.152173220096736603e-02
2.712000000000000099e+01,3.968841480075229605e-02
2.716000000000000014e+01,3.447092886858237060e-02
2.719999999999999929e+01,4.251324588195718596e-02
2.723999999999999844e+01,2.524275865475831757e-02
2.728000000000000114e+01,4.558102544119818633e-02
2.732000000000000028e+01,3.650814327853352248e-02
2.735999999999999943e+01,3.418592608872795396e-02
2.739999999999999858e+01,3.427495312871998295e-02
2.744000000000000128e+01,2.255157376695994878e-02
2.748000000000000043e+01,4.361535914729165048e-02
2.751999999999999957e+01,4.708084197296414503e-02
2.755999999999999872e+01,3.126046805636435028e-02
2.760000000000000142e+01,4.678077798553598871e-02
2.764000000000000057e+01,4.373846201926451238e-02
2.767999999999999972e+01,2.309783252538460951e-02
2.771999999999999886e+01,5.163770820239638876e-02
2.776000000000000156e+01,6.402573753193317729e-02
2.780000000000000071e+01,7.400340810353378540e-02
2.783999999999999986e+01,8.952631684030498693e-02
2.787999999999999901e+01,8.383471666676066414e-02
2.792000000000000171e+01,9.212610639379253952e-02
2.796000000000000085e+01,1.037930170563707566e-01
2.800000000000000000e+01,1.089512160227700532e-01
2.803999999999999915e+01,1.459322262148656790e-01
2.807999999999999829e+01,1.723061800022514245e-01
2.812000000000000099e+01,1.868676807528497352e-01
2.816000000000000014e+01,1.816611260570789865e-01
2.819999999999999929e+01,2.135811047249513428e-01
2.823999999999999844e+01,2.030716173497873756e-01
2.828000000000000114e+01,2.217330581854477511e-01
2.832000000000000028e+01,2.090546512689251957e-01
2.835999999999999943e+01,1.987874227445035613e-01
2.839999999999999858e+01,1.767077219806328370e-01
2.844000000000000128e+01,1.216006137904912382e-01
2.848000000000000043e+01,1.506303814260924467e-01
2.851999999999999957e+01,1.193908342611632589e-01
2.855999999999999872e+01,1.235902443263649092e-01
2.860000000000000142e+01,1.015124417698503173e-01
2.864000000000000057e+01,8.570305884706300170e-02
2.867999999999999972e+01,7.158159603717346997e-02
2.871999999999999886e+01,5.721942037480021864e-02
2.876000000000000156e+01,4.936673489421022909e-02
2.880000000000000071e+01,5.597913651851036537e-02
2.883999999999999986e+01,3.173381228407769900e-02
2.887999999999999901e+01,3.376642977869290935e-02
2.892000000000000171e+01,4.254960525990970910e-02
2.896000000000000085e+01,4.217213665180237492e-02
2.900000000000000000e+01,2.949999710014952065e-02
2.903999999999999915e+01,3.973068541584274388e-02
2.907999999999999829e+01,1.838039508007524581e-02
2.912000000000000099e+01,2.427234512500301908e-02
2.916000000000000014e+01,3.112894603067623694e-02
2.919999999999999929e+01,3.195891049858518712e-02
2.923999999999999844e+01,3.471783545183673714e-02
2.928000000000000114e+01,2.301236125896925083e-02
2.932000000000000028e+01,2.504870217560189669e-02
2.935999999999999943e+01,2.346918345920091450e-02
2.939999999999999858e+01,2.671155958840912628e-02
2.944000000000000128e+01,2.296296770935684142e-02
2.948000000000000043e+01,1.559850796755893505e-02
2.951999999999999957e+01,2.149369206353838810e-02
2.955999999999999872e+01,1.895142725493715111e-02
2.960000000000000142e+01,2.846340690879855390e-02
2.964000000000000057e+01,7.358684616947983037e-03
2.967999999999999972e+01,2.647619300909456568e-03
2.971999999999999886e+01,7.821081217709219269e-03
2.976000000000000156e+01,1.178944384678179066e-02
2.980000000000000071e+01,2.178506777793004154e-02
2.983999999999999986e+01,1.779841171317178561e-02
2.987999999999999901e+01,1.308880568651025339e-02
2.992000000000000171e+01,2.284420995409240304e-02
2.996000000000000085e+01,2.898371344008053574e-02
3.000000000000000000e+01,9.086987068812280022e-03
3.003999999999999915e+01,3.764737042736470557e-02
3.007999999999999829e+01,2.305492522065778413e-02
3.012000000000000099e+01,1.183785281467942575e-02
3.016000000000000014e+01,1.339822279914442381e-02
3.019999999999999929e+01,2.002151154223945004e-02
3.023999999999999844e+01,2.495751052322260286e-02
3.028000000000000114e+01,0.000000000000000000e+00
3.032000000000000028e+01,2.615144655938448845e-02
3.035999999999999943e+01,1.180191190629604515e-02
3.039999999999999858e+01,1.167627585083480177e-02
3.044000000000000128e+01,2.673885076083556619e-02
3.048000000000000043e+01,2.806018056090002488e-02
3.051999999999999957e+01,8.407899174750757196e-03
3.055999999999999872e+01,1.840854719043164001e-02
3.060000000000000142e+01,6.953420977888119525e-03
3.064000000000000057e+01,1.020433445908350799e-02
3.067999999999999972e+01,1.369655822470028025e-02
3.071999999999999886e+01,3.165373741981326872e-02
3.076000000000000156e+01,3.806174859183652018e-03
3.080000000000000071e+01,2.104056701811253191e-02
3.083999999999999986e+01,3.297144659984897058e-02
3.087999999999999901e+01,1.934819352864317055e-02
3.092000000000000171e+01,2.067203972628294667e-02
3.096000000000000085e+01,2.537120111666642600e-02
3.100000000000000000e+01,3.706185662307645567e-02
3.103999999999999915e+01,2.850210161449097043e-02
3.107999999999999829e+01,2.886246545760132523e-02
3.112000000000000099e+01,2.295498240978567986e-02
3.116000000000000014e+01,5.513814483712006081e-02
3.119999999999999929e+01,4.344516555524462198e-02
3.123999999999999844e+01,4.380631826309969862e-02
3.128000000000000114e+01,2.078301988555094834e-02
3.132000000000000028e+01,5.103831900958698264e-02
3.135999999999999943e+01,3.524775645155177328e-02
3.139999999999999858e+01,4.862790813182606836e-02
3.144000000000000128e+01,5.212400930875536742e-02
3.148000000000000043e+01,4.862900257231832918e-02
3.151999999999999957e+01,6.851881117804657639e-02
3.155999999999999872e+01,7.659593082857368840e-02
3.160000000000000142e+01,7.454791022503823306e-02
3.164000000000000057e+01,9.202743628966775224e-02
3.167999999999999972e+01,1.029979982802802924e-01
3.171999999999999886e+01,1.436214101188391934e-01
3.176000000000000156e+01,1.435026659538494176e-01
3.180000000000000071e+01,1.438662340404026352e-01
3.183999999999999986e+01,1.403726936354373067e-01
3.187999999999999901e+01,1.501386352172445482e-01
3.192000000000000171e+01,1.449578390437302466e-01
3.196000000000000085e+01,1.226605933717450220e-01
3.200000000000000000e+01,1.131406639012842302e-01
3.203999999999999915e+01,1.409880832214471802e-01
3.207999999999999829e+01,1.254414580367144427e-01
3.211999999999999744e+01,9.832318426922527499e-02
3.215999999999999659e+01,8.157142795263104540e-02
3.220000000000000284e+01,8.024884067682258593e-02
3.224000000000000199e+01,8.688197758775433044e-02
3.228000000000000114e+01,6.217499516600359655e-02
3.232000000000000028e+01,6.567434877703087759e-02
3.235999999999999943e+01,5.832527367918166616e-02
3.239999999999999858e+01,6.230701468387517261e-02
3.243999999999999773e+01,5.785110927089749666e-02
3.247999999999999687e+01,4.471647591924333281e-02
3.252000000000000313e+01,3.568028710737956855e-02
3.256000000000000227e+01,3.845706098064504558e-02
3.260000000000000142e+01,5.714513401785856900e-02
3.264000000000000057e+01,4.063580258896543063e-02
3.267999999999999972e+01,2.099254139387295506e-02
3.271999999999999886e+01,5.655641190920150663e-02
3.275999999999999801e+01,4.414569450700685932e-02
3.279999999999999716e+01,4.354792333051729636e-02
3.284000000000000341e+01,2.944982397085470563e-02
3.288000000000000256e+01,3.270947723908661925e-02
3.292000000000000171e+01,1.812937883784666859e-02
3.296000000000000085e+01,5.755100179876343480e-02
3.300000000000000000e+01,1.770108513775443260e-01
3.303999999999999915e+01,2.374064700588121579e-01
3.307999999999999829e+01,1.037337395492458209e-01
3.311999999999999744e+01,2.623242842879879022e-02
3.315999999999999659e+01,2.756393906442628980e-02
3.320000000000000284e+01,4.167268360445727793e-02
3.324000000000000199e+01,3.842381208465350112e-02
3.328000000000000114e+01,2.432644876151367555e-02
3.332000000000000028e+01,2.734572911288925268e-02
3.335999999999999943e+01,3.952605072919871537e-02
3.339999999999999858e+01,1.554460064681939015e-02
3.343999999999999773e+01,3.085903356389994509e-02
3.347999999999999687e+01,2.616396740627348685e-02
3.352000000000000313e+01,4.340710676233565379e-02
3.356000000000000227e+01,2.931003900211973795e-02
3.360000000000000142e+01,3.281175326929360730e-02
3.364000000000000057e+01,1.943798159979509554e-02
3.367999999999999972e+01,4.198497358158016779e-02
3.371999999999999886e+01,3.680792914065770388e-02
3.375999999999999801e+01,5.405123130953578409e-02
3.379999999999999716e+01,5.007961856896776809e-02
3.384000000000000341e+01,6.009058972984531594e-02
3.388000000000000256e+01,5.491360993900224613e-02
3.392000000000000171e+01,4.298643367508133556e-02
3.396000000000000085e+01,5.806008708236625598e-02
3.400000000000000000e+01,4.565076364205009063e-02
3.403999999999999915e+01,5.059911327574471290e-02
3.407999999999999829e+01,5.651177635198828542e-02
3.411999999999999744e+01,6.965679834951164773e-02
3.415999999999999659e+01,5.724746274862849149e-02
3.420000000000000284e+01,8.871445480328739308e-02
3.424000000000000199e+01,9.390384743976101789e-02
3.428000000000000114e+01,8.125339513669223301e-02
3.432000000000000028e+01,1.035593474820371424e-01
3.435999999999999943e+01,9.163209251314051451e-02
3.439999999999999858e+01,9.272306792929416175e-02
3.443999999999999773e+01,9.911775009868462050e-02
3.447999999999999687e+01,1.004497488340500982e-01
3.452000000000000313e+01,9.382611605893728668e-02
3.456000000000000227e+01,1.040779631402134614e-01
3.460000000000000142e+01,1.109546700021286358e-01
3.464000000000000057e+01,9.420561656893305935e-02
3.467999999999999972e+01,1.001179254288463716e-01
3.471999999999999886e+01,9.711027395102260484e-02
3.475999999999999801e+01,9.169178639196032266e-02
3.479999999999999716e+01,8.169275100851025595e-02
3.484000000000000341e+01,8.181897050128336679e-02
3.488000000000000256e+01,7.519492768328193966e-02
3.492000000000000171e+01,7.001729825538066665e-02
3.496000000000000085e+01,7.834001836274262498e-02
3.500000000000000000e+01,7.268010459657757438e-02
3.503999999999999915e+01,5.858236610231239150e-02
3.507999999999999829e+01,5.967252035797435128e-02
3.511999999999999744e+01,5.618210484334956040e-02
3.515999999999999659e+01,6.643310392556915633e-02
3.520000000000000284e+01,6.679979464013097168e-02
3.524000000000000199e+01,6.138051346585399193e-02
3.528000000000000114e+01,6.801508721433312255e-02
3.532000000000000028e+01,8.284625269804302139e-02
3.535999999999999943e+01,7.284621461952939248e-02
3.539999999999999858e+01,6.284608434565944202e-02
3.543999999999999773e+01,5.959606491070012363e-02
3.547999999999999687e+01,5.417623879399782044e-02
3.552000000000000313e+01,5.695299069633931455e-02
3.556000000000000227e+01,7.323005098538348800e-02
3.560000000000000142e+01,9.047132047395663179e-02
3.564000000000000057e+01,7.179174342031631462e-02
3.567999999999999972e+01,9.481868352252328935e-02
3.571999999999999886e+01,9.735381337319456985e-02
3.575999999999999801e+01,9.265646300633305354e-02
3.579999999999999716e+01,1.118257920107742914e-01
3.584000000000000341e+01,1.341290227552323355e-01
3.588000000000000256e+01,1.224400207201967739e-01
3.592000000000000171e+01,1.372695563821998421e-01
3.596000000000000085e+01,1.378753135552112097e-01
3.600000000000000000e+01,1.555975306058342278e-01
3.603999999999999915e+01,1.648818543474227793e-01
3.607999999999999829e+01,1.801930087028202065e-01
3.611999999999999744e+01,2.039417787064687904e-01
3.615999999999999659e+01,2.047879205052905993e-01
3.620000000000000284e+01,2.109376483549048886e-01
3.624000000000000199e+01,2.325162681783306540e-01
3.628000000000000114e+01,2.610860200104502260e-01
3.632000000000000028e+01,2.383058368881687261e-01
3.635999999999999943e+01,2.319188526210584911e-01
3.639999999999999858e+01,2.223976834666737679e-01
3.643999999999999773e+01,2.352966771251858713e-01
3.647999999999999687e+01,2.240876267441320457e-01
3.652000000000000313e+01,2.254145038010119395e-01
3.656000000000000227e+01,1.982939133320272274e-01
3.660000000000000142e+01,1.880486628143256678e-01
3.664000000000000057e+01,1.681600839501890265e-01
3.667999999999999972e+01,1.646646819953249408e-01
3.671999999999999886e+01,1.539367339852312500e-01
3.675999999999999801e+01,1.516463577315909361e-01
3.679999999999999716e+01,1.471860842693744065e-01
3.684000000000000341e+01,1.215106874116718694e-01
3.688000000000000256e+01,1.172911080801829209e-01
3.692000000000000171e+01,1.265717438653261862e-01
3.696000000000000085e+01,1.122264602475910866e-01
3.700000000000000000e+01,1.210245373707336952e-01
3.703999999999999915e+01,1.023394291602351264e-01
3.707999999999999829e+01,1.183694575370038138e-01
3.711999999999999744e+01,9.365696231641627845e-02
3.715999999999999659e+01,8.003387797535660431e-02
3.720000000000000284e+01,1.155906486579323239e-01
3.724000000000000199e+01,1.111281238467438232e-01
3.728000000000000114e+01,9.244173001973035597e-02
3.732000000000000028e+01,9.786299009876758825e-02
3.735999999999999943e+01,9.026576956434514964e-02
3.739999999999999858e+01,1.021957006719066002e-01
3.743999999999999773e+01,8.326731612470114618e-02
3.747999999999999687e+01,9.543785906586903234e-02
3.752000000000000313e+01,1.035098251980441364e-01
3.756000000000000227e+01,1.055545815558448786e-01
3.760000000000000142e+01,9.530407717406567947e-02
3.764000000000000057e+01,1.072325745302942779e-01
3.767999999999999972e+01,1.273575017707487544e-01
3.771999999999999886e+01,1.064987854875185519e-01
3.775999999999999801e+01,1.333734131559925762e-01
3.779999999999999716e+01,1.578369962571882223e-01
3.784000000000000341e+01,1.316737764942667310e-01
3.788000000000000256e+01,1.320289600097528104e-01
3.792000000000000171e+01,1.439556598387927711e-01
3.796000000000000085e+01,1.609447462384130390e-01
3.800000000000000000e+01,1.750406167990319339e-01
3.803999999999999915e+01,1.956453411103644124e-01
3.807999999999999829e+01,2.237232315402451766e-01
3.811999999999999744e+01,2.539705522345407362e-01
3.815999999999999659e+01,3.001287907827899781e-01
3.820000000000000284e+01,3.274826004431626303e-01
3.824000000000000199e+01,3.705062436932463066e-01
3.828000000000000114e+01,4.786208672322449509e-01
3.832000000000000028e+01,5.308049218773818190e-01
3.835999999999999943e+01,6.705002776573837364e-01
3.839999999999999858e+01,7.451040655018648096e-01
3.843999999999999773e+01,7.968050687769888674e-01
3.847999999999999687e+01,8.060759037403104621e-01
3.852000000000000313e+01,7.415763265387507186e-01
3.856000000000000227e+01,6.479059083161539112e-01
3.860000000000000142e+01,5.310916157734827392e-01
3.864000000000000057e+01,4.595998190536137451e-01
3.867999999999999972e+01,3.570085428608512079e-01
3.871999999999999886e+01,3.226422408923768081e-01
3.875999999999999801e+01,2.656142111864145949e-01
3.879999999999999716e+01,2.355866792199365067e-01
3.884000000000000341e+01,2.315953271386330670e-01
3.888000000000000256e+01,1.998795847570016548e-01
3.892000000000000171e+01,1.816639203301337602e-01
3.896000000000000085e+01,1.612782105598718485e-01
3.900000000000000000e+01,1.637946455908511345e-01
3.903999999999999915e+01,1.619713207920494280e-01
3.907999999999999829e+01,1.521920517537092843e-01
3.911999999999999744e+01,1.332514418437534265e-01
3.915999999999999659e+01,1.586689769834418451e-01
3.920000000000000284e+01,1.607015178767273456e-01
3.924000000000000199e+01,1.229557048921480905e-01
3.928000000000000114e+01,1.490954097267095380e-01
3.932000000000000028e+01,1.487160879741719066e-01
3.935999999999999943e+01,1.635243654451629114e-01
3.939999999999999858e+01,1.438580111762358671e-01
3.943999999999999773e+01,1.709605705319715285e-01
3.947999999999999687e+01,1.674457531056025295e-01
3.952000000000000313e+01,1.540463310419399878e-01
3.956000000000000227e+01,1.719867725960757543e-01
3.960000000000000142e+01,1.838998644707312835e-01
3.964000000000000057e+01,2.003930701444616991e-01
3.967999999999999972e+01,2.159215749853653221e-01
3.971999999999999886e+01,2.302442974724368541e-01
3.975999999999999801e+01,2.517989920843191620e-01
3.979999999999999716e+01,2.902288071884950305e-01
3.984000000000000341e+01,3.250420439314466448e-01
3.988000000000000256e+01,3.357470034596560238e-01
3.992000000000000171e+01,3.864706379161755856e-01
3.996000000000000085e+01,4.533461455587353139e-01
4.000000000000000000e+01,5.045511249787208996e-01
4.003999999999999915e+01,6.080697887634728405e-01
4.007999999999999829e+01,6.691581745069276055e-01
4.011999999999999744e+01,7.649614883516089314e-01
4.015999999999999659e+01,8.142361794464620939e-01
4.020000000000000284e+01,8.799038060456995103e-01
4.024000000000000199e+01,9.718485952945713491e-01
4.028000000000000114e+01,9.931568757871022113e-01
4.032000000000000028e+01,1.000000000000000000e+00
4.035999999999999943e+01,9.728505841908187124e-01
4.039999999999999858e+01,8.856721176173766308e-01
4.043999999999999773e+01,8.481554414208792858e-01
4.047999999999999687e+01,7.590474661955263214e-01
4.052000000000000313e+01,6.848859318620502679e-01
4.056000000000000227e+01,6.133758180110455704e-01
4.060000000000000142e+01,5.527138003433867963e-01
4.064000000000000057e+01,4.826492587833242087e-01
4.067999999999999972e+01,4.080037661429806173e-01
4.071999999999999886e+01,3.661445302331596263e-01
4.075999999999999801e+01,3.235615982008709368e-01
4.079999999999999716e+01,2.862819367470773035e-01
4.084000000000000341e+01,2.716632151278379204e-01
4.088000000000000256e+01,2.399274322681942961e-01
4.092000000000000171e+01,2.491745708669986514e-01
4.096000000000000085e+01,2.162324498510513615e-01
4.100000000000000000e+01,2.037815486967965994e-01
4.103999999999999915e+01,2.000090045503649661e-01
4.107999999999999829e+01,1.947895060022626357e-01
4.111999999999999744e+01,1.893284441980922217e-01
4.115999999999999659e+01,1.578303871734397512e-01
4.120000000000000284e+01,1.677973899601097607e-01
4.124000000000000199e+01,1.599240704839351435e-01
4.128000000000000114e+01,1.455411285567748403e-01
4.132000000000000028e+01,1.562298813230003636e-01
4.135999999999999943e+01,1.485961460411332202e-01
4.139999999999999858e+01,1.298722833009762767e-01
4.143999999999999773e+01,1.386308948021730825e-01
4.147999999999999687e+01,1.285848524700289874e-01
4.152000000000000313e+01,1.284225281156994858e-01
4.156000000000000227e+01,1.256078225520108893e-01
4.160000000000000142e+01,9.699717036999719322e-02
4.164000000000000057e+01,1.011727118240465656e-01
4.167999999999999972e+01,1.024547850612567007e-01
4.171999999999999886e+01,1.080757506714304650e-01
4.175999999999999801e+01,8.476673457934549849e-02
4.179999999999999716e+01,1.012351857056463245e-01
4.184000000000000341e+01,8.515746797669368484e-02
4.188000000000000256e+01,8.764227953606751331e-02
4.192000000000000171e+01,6.915269808657742434e-02
4.196000000000000085e+01,7.235966454992311114e-02
4.200000000000000000e+01,7.243206207276267627e-02
4.203999999999999915e+01,6.165536702328244800e-02
4.207999999999999829e+01,6.968226632370987106e-02
4.211999999999999744e+01,6.541359489873474486e-02
4.215999999999999659e+01,7.368046411522437278e-02
4.220000000000000284e+01,6.458910278670858263e-02
4.224000000000000199e+01,6.248846472451859146e-02
4.228000000000000114e+01,7.244120151854528677e-02
4.232000000000000028e+01,4.550831853864594628e-02
4.235999999999999943e+01,6.847817303806551237e-02
4.239999999999999858e+01,5.311592961047616884e-02
4.243999999999999773e+01,5.559294073258619351e-02
4.247999999999999687e+01,4.939053810667740074e-02
4.252000000000000313e+01,4.993776076666490288e-02
4.256000000000000227e+01,4.759145485859109237e-02
4.260000000000000142e+01,4.861966586118671163e-02
4.264000000000000057e+01,3.952197947620603863e-02
4.267999999999999972e+01,6.321041540311685136e-02
4.271999999999999886e+01,5.049536167926395314e-02
4.275999999999999801e+01,5.369091033706729910e-02
4.279999999999999716e+01,5.085888985640101695e-02
4.284000000000000341e+01,4.561547916054779772e-02
4.288000000000000256e+01,5.483618995003079061e-02
4.292000000000000171e+01,6.429737159330023433e-02
4.296000000000000085e+01,3.928367734852565574e-02
4.300000000000000000e+01,4.392205935875964640e-02
4.303999999999999915e+01,3.891667410457957249e-02
4.307999999999999829e+01,4.283058473088471180e-02
4.311999999999999744e+01,4.529740105041341058e-02
4.315999999999999659e+01,3.378102387599188350e-02
4.320000000000000284e+01,4.227355812967172749e-02
4.324000000000000199e+01,4.714928084695094862e-02
4.328000000000000114e+01,4.141690472931987971e-02
4.332000000000000028e+01,4.532704436605387160e-02
4.335999999999999943e+01,2.826269223737853942e-02
4.339999999999999858e+01,4.157362526464213753e-02
4.343999999999999773e+01,4.403536970627793673e-02
4.347999999999999687e+01,5.734501281816931778e-02
4.352000000000000313e+01,4.606397152518187238e-02
4.356000000000000227e+01,6.322957419303970594e-02
4.360000000000000142e+01,5.749203841392008796e-02
4.364000000000000057e+01,5.970944499889037360e-02
4.367999999999999972e+01,5.083656776104083369e-02
4.371999999999999886e+01,3.424850684588602590e-02
4.375999999999999801e+01,4.707139128646171261e-02
4.379999999999999716e+01,5.410771678540157725e-02
4.384000000000000341e+01,4.981266871080398950e-02
4.388000000000000256e+01,5.540117676301617444e-02
4.392000000000000171e+01,6.532842631013671686e-02
4.396000000000000085e+01,6.440645160954379389e-02
4.400000000000000000e+01,7.192155213944052827e-02
4.403999999999999915e+01,6.400692615755682047e-02
4.407999999999999829e+01,5.898455803102405776e-02
4.411999999999999744e+01,8.096232279340526139e-02
4.415999999999999659e+01,7.063483837053353975e-02
4.420000000000000284e+01,7.115520323964476257e-02
4.424000000000000199e+01,8.613959632402160005e-02
4.428000000000000114e+01,1.008822094365782462e-01
4.432000000000000028e+01,1.112847006120212673e-01
4.435999999999999943e+01,1.091503886630010994e-01
4.439999999999999858e+01,9.447927084628038319e-02
4.443999999999999773e+01,1.123530758612387853e-01
4.447999999999999687e+01,1.075647608557656759e-01
4.452000000000000313e+01,1.186869275295046600e-01
4.456000000000000227e+01,1.404158400283222474e-01
4.460000000000000142e+01,1.619029506094206428e-01
4.464000000000000057e+01,1.612100877526739806e-01
4.467999999999999972e+01,1.757044592688859486e-01
4.471999999999999886e+01,1.877873116377546392e-01
4.475999999999999801e+01,1.697345826727219287e-01
4.479999999999999716e+01,1.762711521838879747e-01
4.484000000000000341e+01,1.507435046525338607e-01
4.488000000000000256e+01,1.449835745555435318e-01
4.492000000000000171e+01,1.505536019277994852e-01
4.496000000000000085e+01,1.083892834729027477e-01
4.500000000000000000e+01,1.127524185549064611e-01
4.503999999999999915e+01,9.879281321097961588e-02
4.507999999999999829e+01,7.832332480851691980e-02
4.511999999999999744e+01,7.472859204777795861e-02
4.515999999999999659e+01,6.462397074202846925e-02
4.520000000000000284e+01,8.296588092439211026e-02
4.524000000000000199e+01,6.490412863203784410e-02
4.528000000000000114e+01,6.227064834184956044e-02
4.532000000000000028e+01,5.409158364477335834e-02
4.535999999999999943e+01,6.206402179669263247e-02
4.539999999999999858e+01,5.966929449988903761e-02
4.543999999999999773e+01,5.148789578871745126e-02
4.547999999999999687e+01,4.378787114190866442e-02
4.552000000000000313e+01,5.127502326007379180e-02
4.556000000000000227e+01,4.935931406763869461e-02
4.560000000000000142e+01,3.466563793261384641e-02
4.564000000000000057e+01,3.274834255517068693e-02
4.567999999999999972e+01,3.034809241483153730e-02
4.571999999999999886e+01,3.759019343461514340e-02
4.575999999999999801e+01,3.735804964975582287e-02
4.579999999999999716e+01,3.182136731692811887e-02
4.584000000000000341e+01,4.147183980317535601e-02
4.588000000000000256e+01,4.196050781069143865e-02
4.592000000000000171e+01,3.328736859623893096e-02
4.596000000000000085e+01,2.220262519408482821e-02
4.600000000000000000e+01,2.751041952689608355e-02
4.603999999999999915e+01,3.546925851865908447e-02
4.607999999999999829e+01,4.607913942613642982e-02
4.611999999999999744e+01,3.209815761830597802e-02
4.615999999999999659e+01,2.751841801721926703e-02
4.620000000000000284e+01,3.065236643526290938e-02
4.624000000000000199e+01,3.113361268517528258e-02
4.628000000000000114e+01,2.847999646818298938e-02
4.632000000000000028e+01,3.884379315150510159e-02
4.635999999999999943e+01,3.739388588179953787e-02
4.639999999999999858e+01,2.075516902707686198e-02
4.643999999999999773e+01,3.858986806430901584e-02
4.647999999999999687e+01,2.363700125298496754e-02
4.652000000000000313e+01,3.206792106981266183e-02
4.656000000000000227e+01,5.303407977199452172e-02
4.660000000000000142e+01,2.240851973000349689e-02
4.664000000000000057e+01,1.516673808645219515e-02
4.667999999999999972e+01,2.938010187595913383e-02
4.671999999999999886e+01,4.624446368938255059e-02
4.675999999999999801e+01,4.575028222874043260e-02
4.679999999999999716e+01,2.307597919543534840e-02
4.684000000000000341e+01,4.186634917698364017e-02
4.688000000000000256e+01,3.341393776626608303e-02
4.692000000000000171e+01,4.906852188463069891e-02
4.696000000000000085e+01,3.627492523541467340e-02
4.700000000000000000e+01,2.998956785174157133e-02
4.703999999999999915e+01,1.936390199081376370e-02
4.707999999999999829e+01,2.320206957529839104e-02
4.711999999999999744e+01,3.113768041793373020e-02
4.715999999999999659e+01,3.834915622012242259e-02
4.720000000000000284e+01,4.845267590514706901e-02
4.724000000000000199e+01,2.962583806439352679e-02
4.728000000000000114e+01,4.334372828546606549e-02
4.732000000000000028e+01,5.585531493760637761e-02
4.735999999999999943e+01,4.546350527845643974e-02
4.739999999999999858e+01,3.362430778613165888e-02
4.743999999999999773e+01,5.408874860491543618e-02
4.747999999999999687e+01,4.465850032742469528e-02
4.752000000000000313e+01,5.812981254161561639e-02
4.756000000000000227e+01,4.749232083948941308e-02
4.760000000000000142e+01,4.553273625425773019e-02
4.764000000000000057e+01,4.188466859865883768e-02
4.767999999999999972e+01,3.148546079632726091e-02
4.771999999999999886e+01,3.964838176966638955e-02
4.775999999999999801e+01,4.515849633185411993e-02
4.779999999999999716e+01,4.126559596214905701e-02
4.784000000000000341e+01,4.580950747214619645e-02
4.788000000000000256e+01,5.035247089672794524e-02
4.792000000000000171e+01,3.343847227130451044e-02
4.796000000000000085e+01,4.834591873936779083e-02
4.800000000000000000e+01,3.094785267139075341e-02
4.803999999999999915e+01,4.199612332167364237e-02
4.807999999999999829e+01,3.785546917096996311e-02
4.811999999999999744e+01,3.564248069757074838e-02
4.815999999999999659e+01,4.138412460243881541e-02
4.820000000000000284e+01,4.206214414286445907e-02
4.824000000000000199e+01,4.635537257525855492e-02
4.828000000000000114e+01,4.462065604566346072e-02
4.832000000000000028e+01,4.119740981066586510e-02
4.835999999999999943e+01,3.849641890470853478e-02
4.839999999999999858e+01,3.507120791794606646e-02
4.843999999999999773e+01,4.225247666223731768e-02
4.847999999999999687e+01,4.678088961710466509e-02
4.852000000000000313e+01,3.178092959555024744e-02
4.856000000000000227e+01,2.545881085319342055e-02
4.860000000000000142e+01,4.999377820145342599e-02
4.864000000000000057e+01,3.908916501089115120e-02
4.867999999999999972e+01,4.240719675847848952e-02
4.871999999999999886e+01,3.150057492435338197e-02
4.875999999999999801e+01,4.421866487485546365e-02
4.879999999999999716e+01,3.716728386850617211e-02
4.884000000000000341e+01,2.240036805046842147e-02
4.888000000000000256e+01,3.656188889824194682e-02
4.892000000000000171e+01,2.830206400400386846e-02
4.896000000000000085e+01,3.788104651177400667e-02
4.900000000000000000e+01,3.299427745740207696e-02
4.903999999999999915e+01,4.474091642972356092e-02
4.907999999999999829e+01,4.901308290870037832e-02
4.911999999999999744e+01,2.989957481840682316e-02
4.915999999999999659e+01,2.332112730303844556e-02
4.920000000000000284e+01,4.422462184097428195e-02
4.924000000000000199e+01,4.535861524644770049e-02
4.928000000000000114e+01,3.877704366462164653e-02
4.932000000000000028e+01,3.798031590726713008e-02
4.935999999999999943e+01,4.296842923114675694e-02
4.939999999999999858e+01,3.590155133819069450e-02
4.943999999999999773e+01,4.932531448384242651e-02
4.947999999999999687e+01,4.249740248207155291e-02
4.952000000000000313e+01,4.699913247724952364e-02
4.956000000000000227e+01,4.209772683809036992e-02
4.960000000000000142e+01,5.214213937592537124e-02
4.964000000000000057e+01,6.170332557036486282e-02
4.967999999999999972e+01,6.499539201173916425e-02
4.971999999999999886e+01,5.791999673475491800e-02
4.975999999999999801e+01,6.145099066199124355e-02
4.979999999999999716e+01,7.028463793931466475e-02
4.984000000000000341e+01,6.127737315775919069e-02
4.988000000000000256e+01,7.010885268375237345e-02
4.992000000000000171e+01,7.243011721948823534e-02
4.996000000000000085e+01,7.402705468816153656e-02
5.000000000000000000e+01,5.947062056938252211e-02
5.003999999999999915e+01,5.841350178537859511e-02
5.007999999999999829e+01,5.542665381575997974e-02
5.011999999999999744e+01,5.075115269505731802e-02
5.015999999999999659e+01,3.956542012467306746e-02
5.020000000000000284e+01,3.922712536066640804e-02
5.024000000000000199e+01,3.551261777148752991e-02
5.028000000000000114e+01,4.722603927980360827e-02
5.032000000000000028e+01,5.025950936557654902e-02
5.035999999999999943e+01,3.521095295261678082e-02
5.039999999999999858e+01,3.896542029619199515e-02
5.043999999999999773e+01,4.103121254278414148e-02
5.047999999999999687e+01,3.730998772709982758e-02
5.052000000000000313e+01,4.515941510519813629e-02
5.056000000000000227e+01,2.817659649087273302e-02
5.060000000000000142e+01,2.686276380591130081e-02
5.064000000000000057e+01,4.314654452922053046e-02
5.067999999999999972e+01,3.387483469708987144e-02
5.071999999999999886e+01,3.737915723139505902e-02
5.075999999999999801e+01,4.715038238916249153e-02
5.079999999999999716e+01,3.425905409499401671e-02
5.084000000000000341e+01,3.342051360424524303e-02
5.088000000000000256e+01,3.667915850733454580e-02
5.092000000000000171e+01,2.860594428387217350e-02
5.096000000000000085e+01,2.993364307866932042e-02
5.100000000000000000e+01,2.764399814901620511e-02
5.103999999999999915e+01,4.150546652865200886e-02
5.107999999999999829e+01,3.535622880913845412e-02
5.111999999999999744e+01,2.583071791323059835e-02
5.115999999999999659e+01,3.414386354127560419e-02
5.120000000000000284e+01,3.763425783984348377e-02
5.124000000000000199e+01,4.739152184302523191e-02
5.128000000000000114e+01,4.003101136408678679e-02
5.132000000000000028e+01,3.941952265882345957e-02
5.135999999999999943e+01,4.145871376194175395e-02
5.139999999999999858e+01,4.132700637484417600e-02
5.143999999999999773e+01,5.252480930930174263e-02
5.147999999999999687e+01,3.214009737937192218e-02
5.152000000000000313e+01,4.261227128373094863e-02
5.156000000000000227e+01,4.416332994742046270e-02
5.160000000000000142e+01,3.245385262737899429e-02
5.164000000000000057e+01,3.785976257913795107e-02
5.167999999999999972e+01,3.603210050489129984e-02
5.171999999999999886e+01,2.697086366140169847e-02
5.175999999999999801e+01,2.803372130472821591e-02
5.179999999999999716e+01,3.367585880296942308e-02
5.184000000000000341e+01,3.521843741323963523e-02
5.188000000000000256e+01,3.868842383650161060e-02
5.192000000000000171e+01,4.625552432943007969e-02
5.196000000000000085e+01,3.911559148288321075e-02
5.200000000000000000e+01,2.932256144202387976e-02
5.203999999999999915e+01,3.568057612951928276e-02
5.207999999999999829e+01,3.432283380309941734e-02
5.211999999999999744e+01,4.501779149650343009e-02
5.215999999999999659e+01,2.485342402378872689e-02
5.220000000000000284e+01,2.493842952853544265e-02
5.224000000000000199e+01,2.646866060160161377e-02
5.228000000000000114e+01,3.981050194377419582e-02
5.232000000000000028e+01,2.904321292438279828e-02
5.235999999999999943e+01,4.093607368718337608e-02
5.239999999999999858e+01,3.402353171284140665e-02
5.243999999999999773e+01,2.686865014625597695e-02
5.247999999999999687e+01,3.803449213232630577e-02
5.252000000000000313e+01,3.039492315154198113e-02
5.256000000000000227e+01,3.287939379282638769e-02
5.260000000000000142e+01,3.946093186874205516e-02
5.264000000000000057e+01,3.133538997014708588e-02
5.267999999999999972e+01,3.285172190837271078e-02
5.271999999999999886e+01,2.930411949633325921e-02
5.275999999999999801e+01,3.660377932347969043e-02
5.279999999999999716e+01,3.811626298058234247e-02
5.284000000000000341e+01,4.710090050164403297e-02
5.288000000000000256e+01,3.920873258885878426e-02
5.292000000000000171e+01,3.252066483158976701e-02
5.296000000000000085e+01,4.632299670804009006e-02
5.300000000000000000e+01,3.529291525458715106e-02
5.303999999999999915e+01,4.186028261516280130e-02
5.307999999999999829e+01,5.204252693598516999e-02
5.311999999999999744e+01,3.811558603049626515e-02
5.315999999999999659e+01,3.431264359851554646e-02
5.320000000000000284e+01,3.822290911912568090e-02
5.324000000000000199e+01,4.406048918265702968e-02
5.328000000000000114e+01,3.181584249112776736e-02
5.332000000000000028e+01,3.692754663319746528e-02
5.335999999999999943e+01,3.914498153311615769e-02
5.339999999999999858e+01,4.353079878077463494e-02
5.343999999999999773e+01,3.296840241140710365e-02
5.347999999999999687e+01,4.169097612483307902e-02
5.352000000000000313e+01,3.305454295707823537e-02
5.356000000000000227e+01,4.683709849662629626e-02
5.360000000000000142e+01,5.073408377932695640e-02
5.364000000000000057e+01,3.775421150667063880e-02
5.367999999999999972e+01,4.430037437838903192e-02
5.371999999999999886e+01,4.867547965212420946e-02
5.375999999999999801e+01,4.726334291811861571e-02
5.379999999999999716e+01,4.054611898867094277e-02
5.384000000000000341e+01,4.636363467537627653e-02
5.388000000000000256e+01,3.554535512506844241e-02
5.392000000000000171e+01,3.244023414907876851e-02
5.396000000000000085e+01,3.463748122648988015e-02
5.400000000000000000e+01,3.538688783656009779e-02
5.403999999999999915e+01,3.926894801364424342e-02
5.407999999999999829e+01,3.615835034824865096e-02
5.411999999999999744e+01,4.027873998544839046e-02
5.415999999999999659e+01,3.354920584940556533e-02
5.420000000000000284e+01,4.176517441805949193e-02
5.424000000000000199e+01,3.189885039395593674e-02
5.428000000000000114e+01,3.938881136575448499e-02
5.432000000000000028e+01,4.639522503538525550e-02
5.435999999999999943e+01,3.604257421585043558e-02
5.439999999999999858e+01,2.641176449651312652e-02
5.443999999999999773e+01,3.582478024450451437e-02
5.447999999999999687e+01,4.137913482862654729e-02
5.452000000000000313e+01,4.355698306117795210e-02
5.456000000000000227e+01,3.150977719936096100e-02
5.460000000000000142e+01,3.464912538763504496e-02
5.464000000000000057e+01,4.405511010534665650e-02
5.467999999999999972e+01,3.947711127674580905e-02
5.471999999999999886e+01,3.079935604708341698e-02
5.475999999999999801e+01,5.755876122707521969e-02
5.479999999999999716e+01,3.778853963236149249e-02
5.484000000000000341e+01,2.597249229527449216e-02
5.488000000000000256e+01,3.247700391660110486e-02
5.492000000000000171e+01,4.524813286470354828e-02
5.496000000000000085e+01,3.511534428641569644e-02
5.500000000000000000e+01,3.703505821486120092e-02
5.503999999999999915e+01,3.654254524072225035e-02
5.507999999999999829e+01,4.135232350933770035e-02
5.511999999999999744e+01,4.664281472211003615e-02
5.515999999999999659e+01,4.879783446928181306e-02
5.520000000000000284e+01,3.865638645243139881e-02
5.524000000000000199e+01,4.153173959396207204e-02
5.528000000000000114e+01,3.765543137365996024e-02
5.532000000000000028e+01,4.510836738088819242e-02
5.535999999999999943e+01,3.375569765140859491e-02
5.539999999999999858e+01,3.252687277414453848e-02
5.543999999999999773e+01,3.901110222817862766e-02
5.547999999999999687e+01,3.705610515981701963e-02
5.552000000000000313e+01,3.919797526975871832e-02
5.556000000000000227e+01,4.664210370360644120e-02
5.560000000000000142e+01,4.805778516302638970e-02
5.564000000000000057e+01,5.332924679326953021e-02
5.567999999999999972e+01,3.762537174099383347e-02
5.571999999999999886e+01,5.398348837192333549e-02
5.575999999999999801e+01,4.092850561197899223e-02
5.579999999999999716e+01,4.571186116045272696e-02
5.584000000000000341e+01,4.518998960837858347e-02
5.588000000000000256e+01,5.117574832315148481e-02
5.592000000000000171e+01,5.619569245072586483e-02
5.596000000000000085e+01,4.891911669276801516e-02
5.600000000000000000e+01,5.128418708292920014e-02
5.603999999999999915e+01,4.858509543412362075e-02
5.607999999999999829e+01,4.757204478061812652e-02
5.611999999999999744e+01,5.475415937891150997e-02
5.615999999999999659e+01,5.638994615299000590e-02
5.620000000000000284e+01,6.091715958149653692e-02
5.624000000000000199e+01,6.640716669904959957e-02
5.628000000000000114e+01,7.358320109571586665e-02
5.632000000000000028e+01,6.002493369583342120e-02
5.635999999999999943e+01,6.092986331029379143e-02
5.639999999999999858e+01,6.448512708522728676e-02
5.643999999999999773e+01,6.635130427757246485e-02
5.647999999999999687e+01,6.435868314417986236e-02
5.652000000000000313e+01,6.790933327476433856e-02
5.656000000000000227e+01,6.567254937099228917e-02
5.660000000000000142e+01,7.572923702222679465e-02
5.664000000000000057e+01,8.433790315245409674e-02
5.667999999999999972e+01,7.631058201905244198e-02
5.671999999999999886e+01,8.057672421094526360e-02
5.675999999999999801e+01,8.194836398551076651e-02
5.679999999999999716e+01,8.500599537710365472e-02
5.684000000000000341e+01,8.878530053141460432e-02
5.688000000000000256e+01,8.291988926118190606e-02
5.692000000000000171e+01,8.452635204469673147e-02
5.696000000000000085e+01,7.600593536165711761e-02
5.700000000000000000e+01,8.122543546785847279e-02
5.703999999999999915e+01,7.390726284335057128e-02
5.707999999999999829e+01,7.960576518830486670e-02
5.711999999999999744e+01,7.686492853813139958e-02
5.715999999999999659e+01,8.231918581558524128e-02
5.720000000000000284e+01,6.269966294544403185e-02
5.724000000000000199e+01,6.742750662691179842e-02
5.728000000000000114e+01,6.058197622931821291e-02
5.732000000000000028e+01,6.892281334167464635e-02
5.735999999999999943e+01,6.761890111063897923e-02
5.739999999999999858e+01,6.342044257047814437e-02
5.743999999999999773e+01,6.621166486644293470e-02
5.747999999999999687e+01,6.200999614475163207e-02
5.752000000000000313e+01,6.335153010610328206e-02
5.756000000000000227e+01,5.697693123002000454e-02
5.760000000000000142e+01,6.819946843890528632e-02
5.764000000000000057e+01,6.616105543521683119e-02
5.767999999999999972e+01,6.146915569750954073e-02
5.771999999999999886e+01,7.196359603737859101e-02
5.775999999999999801e+01,6.124147826861753297e-02
5.779999999999999716e+01,5.654470153577383779e-02
5.784000000000000341e+01,6.317699620650624182e-02
5.788000000000000256e+01,6.836118431587299982e-02
5.792000000000000171e+01,7.016863289849276097e-02
5.796000000000000085e+01,7.149228454434412849e-02
5.800000000000000000e+01,7.016242751027775004e-02
5.803999999999999915e+01,7.100063460841636587e-02
5.807999999999999829e+01,6.846209120685849137e-02
5.811999999999999744e+01,7.218994567308700816e-02
5.815999999999999659e+01,8.459498304154455806e-02
5.820000000000000284e+01,7.747098357013711134e-02
5.824000000000000199e+01,7.058640429260371052e-02
5.828000000000000114e+01,7.888812668732342326e-02
5.832000000000000028e+01,6.741972523469802470e-02
5.835999999999999943e+01,7.740566818981919894e-02
5.839999999999999858e+01,8.642562647702489720e-02
5.843999999999999773e+01,8.049702824253346378e-02
5.847999999999999687e+01,8.083480318669215847e-02
5.852000000000000313e+01,7.442069456679115125e-02
5.856000000000000227e+01,8.222855330540962404e-02
5.860000000000000142e+01,7.002519021625344675e-02
5.864000000000000057e+01,6.794544977708584510e-02
5.867999999999999972e+01,7.381962024475753614e-02
5.871999999999999886e+01,7.029002687673466254e-02
5.875999999999999801e+01,7.543757526238030475e-02
5.879999999999999716e+01,7.286890577023262539e-02
5.884000000000000341e+01,5.824459765723023763e-02
5.888000000000000256e+01,6.338704684551262070e-02
5.892000000000000171e+01,6.876886959263375787e-02
5.896000000000000085e+01,6.305936060026010037e-02
5.900000000000000000e+01,6.120540134677060484e-02
5.903999999999999915e+01,6.658209197768001630e-02
5.907999999999999829e+01,5.893881241723847308e-02
5.911999999999999744e+01,4.912410492176888521e-02
5.915999999999999659e+01,4.533464519214598643e-02
5.920000000000000284e+01,5.142769092942060111e-02
5.924000000000000199e+01,3.871486483596264794e-02
5.928000000000000114e+01,5.348328949999189841e-02
5.932000000000000028e+01,3.883837062502150383e-02
5.935999999999999943e+01,4.154938835480733589e-02
5.939999999999999858e+01,5.824123705735996526e-02
5.943999999999999773e+01,3.828737065816058965e-02
5.947999999999999687e+01,3.882345674498948601e-02
5.952000000000000313e+01,4.176858424200870917e-02
5.956000000000000227e+01,4.519412018383688751e-02
5.960000000000000142e+01,3.053699593910013527e-02
5.964000000000000057e+01,4.432541287378633649e-02
5.967999999999999972e+01,3.496850980230471057e-02
5.971999999999999886e+01,4.296751864644298563e-02
5.975999999999999801e+01,2.950875344231477376e-02
5.979999999999999716e+01,3.581668244501181458e-02
5.984000000000000341e+01,3.151537691252789819e-02
5.988000000000000256e+01,4.746291765593051160e-02
5.992000000000000171e+01,3.857757048936507477e-02
5.996000000000000085e+01,4.270870077917122976e-02
