2.003999999999999915e+01,4.720884881498130931e-02
2.007999999999999829e+01,5.057224784596699857e-02
2.012000000000000099e+01,4.721308493929052968e-02
2.016000000000000014e+01,4.553450176679785938e-02
2.019999999999999929e+01,4.070469018616218460e-02
2.023999999999999844e+01,3.608490622573428536e-02
2.028000000000000114e+01,4.049844869431754729e-02
2.032000000000000028e+01,3.566848106693288473e-02
2.035999999999999943e+01,5.247655184267164402e-02
2.039999999999999858e+01,4.470537488885671651e-02
2.044000000000000128e+01,3.441319882846412964e-02
2.048000000000000043e+01,3.000316533333946198e-02
2.051999999999999957e+01,3.378613758943938006e-02
2.055999999999999872e+01,2.748527907178452065e-02
2.060000000000000142e+01,4.303253112186097157e-02
2.064000000000000057e+01,4.828587169508036930e-02
2.067999999999999972e+01,4.198482831325687364e-02
2.071999999999999886e+01,4.681788530480360949e-02
2.076000000000000156e+01,6.047417734914045662e-02
2.080000000000000071e+01,5.081168240167887457e-02
2.083999999999999986e+01,5.207320605717306178e-02
2.087999999999999901e+01,6.572929722766385208e-02
2.092000000000000171e+01,8.211634069580829587e-02
2.096000000000000085e+01,6.510082161591795868e-02
2.100000000000000000e+01,7.392489523174049226e-02
2.103999999999999915e+01,7.350543953998195379e-02
2.107999999999999829e+01,7.014481052769849789e-02
2.112000000000000099e+01,7.686787837327252459e-02
2.116000000000000014e+01,6.846521379191962409e-02
2.119999999999999929e+01,8.254087947405755465e-02
2.123999999999999844e+01,8.632261766966045635e-02
2.128000000000000114e+01,9.808726276908404096e-02
2.132000000000000028e+01,1.165743422941427493e-01
2.135999999999999943e+01,1.092216770632897377e-01
2.139999999999999858e+01,1.203558439582685657e-01
2.144000000000000128e+01,1.083812853529383391e-01
2.148000000000000043e+01,1.220362280670999472e-01
2.151999999999999957e+01,1.182545644952599506e-01
2.155999999999999872e+01,1.247666646093260195e-01
2.160000000000000142e+01,1.157328634190772226e-01
2.164000000000000057e+01,9.724543834309101742e-02
2.167999999999999972e+01,1.081689234826581081e-01
2.171999999999999886e+01,9.409296853442303266e-02
2.176000000000000156e+01,9.661312898990244424e-02
2.180000000000000071e+01,6.068881884030428997e-02
2.183999999999999986e+01,7.644374289577920978e-02
2.187999999999999901e+01,8.505590091491389837e-02
2.192000000000000171e+01,7.455081342709711512e-02
2.196000000000000085e+01,4.639902934436967302e-02
2.200000000000000000e+01,4.975893262349036228e-02
2.203999999999999915e+01,4.408535848071297447e-02
2.207999999999999829e+01,5.500789120315568298e-02
2.212000000000000099e+01,5.458608011580854541e-02
2.216000000000000014e+01,5.626495253401120333e-02
2.219999999999999929e+01,4.912042182954739350e-02
2.223999999999999844e+01,3.588350832533144380e-02
2.228000000000000114e+01,4.953654620524435004e-02
2.232000000000000028e+01,3.293816377570366744e-02
2.235999999999999943e+01,3.482658785651080585e-02
2.239999999999999858e+01,3.209317484767098411e-02
2.244000000000000128e+01,5.351868756348623912e-02
2.248000000000000043e+01,5.687733267237924523e-02
2.251999999999999957e+01,4.532028763422176615e-02
2.255999999999999872e+01,3.376312974370665465e-02
2.260000000000000142e+01,3.901214341183658479e-02
2.264000000000000057e+01,4.636182777777463071e-02
2.267999999999999972e+01,4.299738909699360456e-02
2.271999999999999886e+01,2.576764777499772341e-02
2.276000000000000156e+01,2.639446658479434327e-02
2.280000000000000071e+01,4.277705877428225612e-02
2.283999999999999986e+01,4.550442368909875940e-02
2.287999999999999901e+01,3.520679596736886463e-02
2.292000000000000171e+01,3.520289564294253742e-02
2.296000000000000085e+01,4.402217166915529251e-02
2.300000000000000000e+01,2.721173774814990981e-02
2.303999999999999915e+01,2.237565657034410599e-02
2.307999999999999829e+01,1.081693447380060839e-02
2.312000000000000099e+01,3.161018412828969781e-02
2.316000000000000014e+01,3.055513379893404560e-02
2.319999999999999929e+01,9.542489534732599699e-03
2.323999999999999844e+01,3.894857070881643790e-02
2.328000000000000114e+01,2.843959180793172170e-02
2.332000000000000028e+01,2.444291539861148665e-02
2.335999999999999943e+01,2.191665477004909809e-02
2.339999999999999858e+01,4.691055134632092505e-02
2.344000000000000128e+01,1.413270525766730304e-02
2.348000000000000043e+01,2.694177112841259977e-02
2.351999999999999957e+01,1.244048462905450805e-02
2.355999999999999872e+01,2.083762255874654912e-02
2.360000000000000142e+01,3.301603411859390519e-02
2.364000000000000057e+01,4.372375402931132082e-02
2.367999999999999972e+01,1.682726744521009093e-02
2.371999999999999886e+01,4.203012203948366943e-02
2.376000000000000156e+01,1.870468244341044056e-02
2.380000000000000071e+01,1.512648234533228025e-02
2.383999999999999986e+01,2.205206366486432701e-02
2.387999999999999901e+01,2.498600410964818899e-02
2.392000000000000171e+01,1.678563128408821353e-02
2.396000000000000085e+01,2.034950808507644815e-02
2.400000000000000000e+01,2.895511925397525541e-02
2.403999999999999915e+01,2.285507828645279987e-02
2.407999999999999829e+01,4.448525494794213636e-02
2.412000000000000099e+01,1.023437791651543582e-02
2.416000000000000014e+01,1.883937330996000512e-02
2.419999999999999929e+01,2.513334783799319946e-02
2.423999999999999844e+01,1.735190059848294719e-02
2.428000000000000114e+01,1.398194455026340391e-02
2.432000000000000028e+01,2.048552140647519337e-02
2.435999999999999943e+01,1.648500895734966026e-02
2.439999999999999858e+01,2.361849868890547252e-02
2.444000000000000128e+01,1.394553992613231652e-02
2.448000000000000043e+01,2.212909540074259329e-02
2.451999999999999957e+01,1.203565026704768968e-02
2.455999999999999872e+01,1.034518165456053268e-02
2.460000000000000142e+01,3.050271687862112641e-02
2.464000000000000057e+01,3.175301258700424789e-02
2.467999999999999972e+01,2.312944615699220885e-02
2.471999999999999886e+01,3.173215185505583874e-02
2.476000000000000156e+01,1.512525778113844865e-02
2.480000000000000071e+01,2.330746216591455394e-02
2.483999999999999986e+01,2.161580014304829989e-02
2.487999999999999901e+01,2.811702753441611830e-02
2.492000000000000171e+01,2.495446495199666465e-02
2.496000000000000085e+01,1.569944699262007179e-02
2.500000000000000000e+01,1.589778665641574523e-02
2.503999999999999915e+01,1.231453306189885487e-02
2.507999999999999829e+01,1.104196362764656679e-02
2.512000000000000099e+01,1.775219863527851064e-02
2.516000000000000014e+01,3.076460846965120219e-02
2.519999999999999929e+01,2.802094237316468672e-02
2.523999999999999844e+01,2.821819187313232002e-02
2.528000000000000114e+01,2.064234890981667125e-02
2.532000000000000028e+01,7.394198100695222389e-03
2.535999999999999943e+01,1.893513080790158037e-02
2.539999999999999858e+01,1.913163218574723268e-02
2.544000000000000128e+01,1.827755102238813947e-02
2.548000000000000043e+01,3.338925029730607785e-02
2.551999999999999957e+01,7.115279748440057721e-03
2.555999999999999872e+01,3.949758831511442428e-03
2.560000000000000142e+01,1.359883662374016498e-02
2.564000000000000057e+01,3.312141209910964001e-02
2.567999999999999972e+01,3.709797740435678143e-02
2.571999999999999886e+01,1.712538873301227074e-02
2.576000000000000156e+01,5.345665995041575490e-03
2.580000000000000071e+01,1.793485789601063918e-02
2.583999999999999986e+01,2.653235662395142178e-02
2.587999999999999901e+01,3.618004675504653267e-02
2.592000000000000171e+01,3.301274170237441380e-02
2.596000000000000085e+01,2.858476166496476747e-02
2.600000000000000000e+01,2.478681269181607152e-02
2.603999999999999915e+01,2.960187931781607662e-02
2.607999999999999829e+01,2.559343929190134245e-02
2.612000000000000099e+01,2.809722704572217844e-02
2.616000000000000014e+01,8.752634767310536745e-03
2.619999999999999929e+01,1.041568935905748221e-02
2.623999999999999844e+01,1.375916145358891188e-02
2.628000000000000114e+01,1.836289284663527796e-02
2.632000000000000028e+01,9.731461245838275362e-03
2.635999999999999943e+01,1.349445093831589879e-02
2.639999999999999858e+01,1.557659676866795032e-02
2.644000000000000128e+01,1.639805480654034017e-02
2.648000000000000043e+01,3.402558087380949670e-02
2.651999999999999957e+01,1.236819611928835667e-02
2.655999999999999872e+01,1.150837006063993966e-02
2.660000000000000142e+01,2.367319459683223451e-02
2.664000000000000057e+01,1.903151193654453385e-02
2.667999999999999972e+01,2.951526342126292030e-02
2.671999999999999886e+01,1.541959854115701641e-02
2.676000000000000156e+01,7.836144363797531778e-03
2.680000000000000071e+01,1.411764971863482820e-02
2.683999999999999986e+01,2.565089223072124572e-02
2.687999999999999901e+01,0.000000000000000000e+00
2.692000000000000171e+01,5.860663851770684697e-03
2.696000000000000085e+01,2.915761863063310450e-02
2.700000000000000000e+01,1.127894266365251502e-02
2.703999999999999915e+01,2.554205528266531577e-02
2.707999999999999829e+01,7.872992034284593058e-03
2.712000000000000099e+01,1.226194395028465216e-02
2.716000000000000014e+01,2.085223164264432896e-02
2.719999999999999929e+01,2.082906136683671319e-02
2.723999999999999844e+01,2.647777471211745434e-02
2.728000000000000114e+01,1.616027805784451751e-02
2.732000000000000028e+01,4.764817666841307531e-02
2.735999999999999943e+01,2.892705648273801583e-02
2.739999999999999858e+01,1.293671569019888903e-02
2.744000000000000128e+01,1.375241731157253108e-02
2.748000000000000043e+01,2.906329602627881481e-02
2.751999999999999957e+01,3.765141535063343953e-02
2.755999999999999872e+01,3.720590996405645501e-02
2.760000000000000142e+01,2.205465745030468772e-02
2.764000000000000057e+01,1.971794921280670479e-02
2.767999999999999972e+01,1.401973441137272826e-02
2.771999999999999886e+01,1.630425467655336955e-02
2.776000000000000156e+01,3.203355172148915353e-02
2.780000000000000071e+01,2.675473924832296249e-02
2.783999999999999986e+01,3.702148710507748020e-02
2.787999999999999901e+01,1.031415210470723945e-02
2.792000000000000171e+01,1.091677513445450665e-02
2.796000000000000085e+01,2.412385533348207489e-02
2.800000000000000000e+01,1.485227069849579841e-02
2.803999999999999915e+01,2.700844097428120941e-02
2.807999999999999829e+01,9.963430090103312514e-03
2.812000000000000099e+01,2.821135750168320133e-02
2.816000000000000014e+01,2.629148006327036019e-02
2.819999999999999929e+01,3.151401060981435381e-02
2.823999999999999844e+01,2.476179834242017014e-02
2.828000000000000114e+01,3.481560607539022772e-02
2.832000000000000028e+01,2.007987618258356283e-02
2.835999999999999943e+01,3.307424971642210221e-02
2.839999999999999858e+01,4.291717604319029988e-02
2.844000000000000128e+01,1.620616170742596868e-02
2.848000000000000043e+01,2.625862604096549854e-02
2.851999999999999957e+01,1.929445444588967148e-02
2.855999999999999872e+01,2.598511685281109859e-02
2.860000000000000142e+01,2.805377673675069766e-02
2.864000000000000057e+01,4.650828987828994204e-02
2.867999999999999972e+01,3.702207726106193642e-02
2.871999999999999886e+01,4.686281572551516394e-02
2.876000000000000156e+01,3.590549762486112961e-02
2.880000000000000071e+01,3.104017865709177149e-02
2.883999999999999986e+01,4.634212184298373144e-02
2.887999999999999901e+01,2.887152685853380460e-02
2.892000000000000171e+01,6.833194137693507364e-02
2.896000000000000085e+01,4.981038737289854301e-02
2.900000000000000000e+01,3.338933436408769717e-02
2.903999999999999915e+01,4.217742381587349931e-02
2.907999999999999829e+01,4.319231940975129524e-02
2.912000000000000099e+01,4.462708424908783111e-02
2.916000000000000014e+01,6.580894556663301198e-02
2.919999999999999929e+01,6.346171718841485399e-02
2.923999999999999844e+01,7.224836184614549794e-02
2.928000000000000114e+01,5.393457900934683219e-02
2.932000000000000028e+01,7.574550952396645609e-02
2.935999999999999943e+01,5.427996063655526893e-02
2.939999999999999858e+01,6.348558738438640769e-02
2.944000000000000128e+01,6.974981774351865504e-02
2.948000000000000043e+01,7.664398631078198076e-02
2.951999999999999957e+01,7.744557782753855313e-02
2.955999999999999872e+01,1.009353551080906936e-01
2.960000000000000142e+01,9.081226073277194610e-02
2.964000000000000057e+01,1.138812784105718984e-01
2.967999999999999972e+01,1.167824506805290735e-01
2.971999999999999886e+01,1.243050475558460793e-01
2.976000000000000156e+01,1.366591465376899017e-01
2.980000000000000071e+01,1.408198753130550374e-01
2.983999999999999986e+01,1.462407683961813032e-01
2.987999999999999901e+01,2.083825667981959173e-01
2.992000000000000171e+01,2.045593854600890049e-01
2.996000000000000085e+01,2.377097218692268144e-01
3.000000000000000000e+01,2.397681187711226958e-01
3.003999999999999915e+01,2.813209741073867676e-01
3.007999999999999829e+01,3.327472086551774288e-01
3.012000000000000099e+01,3.493000862611698731e-01
3.016000000000000014e+01,3.845496408201804495e-01
3.019999999999999929e+01,4.429075212029550124e-01
3.023999999999999844e+01,5.077775194323460584e-01
3.028000000000000114e+01,5.610928775518528866e-01
3.032000000000000028e+01,5.709216520853661603e-01
3.035999999999999943e+01,6.616303545051027690e-01
3.039999999999999858e+01,7.252385995455792322e-01
3.044000000000000128e+01,7.619564647079618558e-01
3.048000000000000043e+01,8.238834339077151236e-01
3.051999999999999957e+01,8.805581136480815641e-01
3.055999999999999872e+01,8.718980322767736491e-01
3.060000000000000142e+01,8.911780731311271797e-01
3.064000000000000057e+01,8.407117008011251169e-01
3.067999999999999972e+01,7.694472206750476717e-01
3.071999999999999886e+01,7.000731170813079274e-01
3.076000000000000156e+01,6.512863815472192952e-01
3.080000000000000071e+01,5.934659348499401466e-01
3.083999999999999986e+01,5.352249972297947744e-01
3.087999999999999901e+01,4.870674960434181466e-01
3.092000000000000171e+01,4.225235305951529075e-01
3.096000000000000085e+01,4.002050204233095765e-01
3.100000000000000000e+01,3.381813227537920907e-01
3.103999999999999915e+01,3.139714282880154417e-01
3.107999999999999829e+01,2.721145938802290165e-01
3.112000000000000099e+01,2.468536251251872704e-01
3.116000000000000014e+01,2.220124711827004549e-01
3.119999999999999929e+01,2.009523880811197594e-01
3.123999999999999844e+01,1.645562250215501232e-01
3.128000000000000114e+01,1.556800089063825610e-01
3.132000000000000028e+01,1.394506963008019518e-01
3.135999999999999943e+01,1.543126641691414946e-01
3.139999999999999858e+01,1.095119698611896480e-01
3.144000000000000128e+01,1.260538677535009422e-01
3.148000000000000043e+01,9.742852255994371991e-02
3.151999999999999957e+01,9.632311790691737430e-02
3.155999999999999872e+01,1.080321529335846603e-01
3.160000000000000142e+01,6.932197746047451259e-02
3.164000000000000057e+01,6.317362496945422290e-02
3.167999999999999972e+01,7.488159459968668497e-02
3.171999999999999886e+01,5.738828594457845433e-02
3.176000000000000156e+01,5.796137584457808356e-02
3.180000000000000071e+01,6.042481345949572702e-02
3.183999999999999986e+01,4.818239081218390896e-02
3.187999999999999901e+01,4.980479214846562225e-02
3.192000000000000171e+01,5.814934507274548831e-02
3.196000000000000085e+01,5.535937019700202383e-02
3.200000000000000000e+01,5.067832346699662621e-02
3.203999999999999915e+01,7.057610344376318012e-02
3.207999999999999829e+01,3.816395299669989027e-02
3.211999999999999744e+01,3.705314131311076425e-02
3.215999999999999659e+01,4.518541763539585948e-02
3.220000000000000284e+01,4.302347402770242274e-02
3.224000000000000199e+01,4.065108070970751414e-02
3.228000000000000114e+01,3.470697951843630669e-02
3.232000000000000028e+01,2.918266218767676459e-02
3.235999999999999943e+01,3.962394171755809907e-02
3.239999999999999858e+01,3.010738183087075664e-02
3.243999999999999773e+01,3.088429532126947541e-02
3.247999999999999687e+01,1.905611715723847660e-02
3.252000000000000313e+01,4.210060274770524580e-02
3.256000000000000227e+01,1.409561651747360915e-02
3.260000000000000142e+01,2.411447043430000117e-02
3.264000000000000057e+01,3.854459247424313340e-02
3.267999999999999972e+01,2.125246779161434063e-02
3.271999999999999886e+01,3.337095874647172389e-02
3.275999999999999801e+01,3.813631478768998023e-02
3.279999999999999716e+01,4.248112760776207031e-02
3.284000000000000341e+01,3.947280337957129875e-02
3.288000000000000256e+01,4.549746937716275808e-02
3.292000000000000171e+01,3.828679627445749634e-02
3.296000000000000085e+01,2.729431858569577110e-02
3.300000000000000000e+01,2.659529933165438037e-02
3.303999999999999915e+01,3.093777323304805482e-02
3.307999999999999829e+01,2.288521803881345476e-02
3.311999999999999744e+01,2.743698233063188857e-02
3.315999999999999659e+01,5.026518639012284018e-02
3.320000000000000284e+01,2.960673001716761232e-02
3.324000000000000199e+01,1.335952575765156185e-02
3.328000000000000114e+01,3.576637920632903117e-02
3.332000000000000028e+01,1.972845466411933882e-02
3.335999999999999943e+01,2.070649314214930564e-02
3.339999999999999858e+01,2.399499377958172475e-02
3.343999999999999773e+01,3.337536974172546078e-02
3.347999999999999687e+01,9.352849087229088421e-03
3.352000000000000313e+01,3.217744390773378399e-02
3.356000000000000227e+01,1.907819715522741932e-02
3.360000000000000142e+01,1.690262853320056297e-02
3.364000000000000057e+01,1.703751566670513515e-02
3.367999999999999972e+01,1.612160039276630888e-02
3.371999999999999886e+01,7.432367452746305343e-03
3.375999999999999801e+01,2.017073679790521226e-02
3.379999999999999716e+01,1.589232932928617142e-02
3.384000000000000341e+01,1.308405800572356829e-02
3.388000000000000256e+01,1.300639317077924295e-02
3.392000000000000171e+01,2.196169081150936564e-02
3.396000000000000085e+01,1.348005023225619554e-02
3.400000000000000000e+01,1.844301993211153179e-02
3.403999999999999915e+01,3.937154166551053852e-02
3.407999999999999829e+01,2.185526512909740163e-02
3.411999999999999744e+01,4.404341672972399147e-02
3.415999999999999659e+01,2.904723933678836009e-02
3.420000000000000284e+01,3.211739539293850809e-02
3.424000000000000199e+01,1.901107716879616577e-02
3.428000000000000114e+01,3.384478297762582438e-02
3.432000000000000028e+01,3.271209094001836792e-02
3.435999999999999943e+01,1.624323569409865178e-02
3.439999999999999858e+01,3.023534410096269040e-02
3.443999999999999773e+01,3.561380135621669552e-02
3.447999999999999687e+01,3.552978491973293740e-02
3.452000000000000313e+01,5.540280051015059049e-02
3.456000000000000227e+01,5.699854759699184148e-02
3.460000000000000142e+01,3.863639656511324433e-02
3.464000000000000057e+01,5.745771697347324541e-02
3.467999999999999972e+01,5.064901577955849971e-02
3.471999999999999886e+01,6.022600561184418555e-02
3.475999999999999801e+01,4.291250029635786806e-02
3.479999999999999716e+01,6.152199074098916448e-02
3.484000000000000341e+01,7.571939073047080637e-02
3.488000000000000256e+01,9.138689911490112394e-02
3.492000000000000171e+01,8.940736509538517451e-02
3.496000000000000085e+01,1.126368155743138616e-01
3.500000000000000000e+01,1.278828356647037090e-01
3.503999999999999915e+01,1.343051100253268848e-01
3.507999999999999829e+01,1.235004948497145233e-01
3.511999999999999744e+01,1.509297311489933568e-01
3.515999999999999659e+01,1.569305044078340705e-01
3.520000000000000284e+01,1.885604128982062699e-01
3.524000000000000199e+01,2.052742918363636426e-01
3.528000000000000114e+01,2.203070899691672857e-01
3.532000000000000028e+01,2.471038346119572293e-01
3.535999999999999943e+01,2.438588895701136183e-01
3.539999999999999858e+01,2.775873171211046264e-01
3.543999999999999773e+01,2.770724814832598026e-01
3.547999999999999687e+01,2.843300952850540408e-01
3.552000000000000313e+01,3.296114713201421242e-01
3.556000000000000227e+01,3.091377956926186221e-01
3.560000000000000142e+01,3.411833013888118105e-01
3.564000000000000057e+01,3.683965381466606237e-01
3.567999999999999972e+01,3.985504119325739558e-01
3.571999999999999886e+01,4.301743716998873701e-01
3.575999999999999801e+01,4.367985167529432333e-01
3.579999999999999716e+01,4.526656526864960561e-01
3.584000000000000341e+01,4.271468434298109074e-01
3.588000000000000256e+01,3.486877666492342320e-01
3.592000000000000171e+01,3.023702415114230546e-01
3.596000000000000085e+01,2.573127173826618708e-01
3.600000000000000000e+01,2.011205576553818375e-01
3.603999999999999915e+01,1.667760965134638396e-01
3.607999999999999829e+01,1.406242259384652971e-01
3.611999999999999744e+01,1.277068305065687803e-01
3.615999999999999659e+01,1.061757380286531410e-01
3.620000000000000284e+01,7.372008318413847405e-02
3.624000000000000199e+01,6.857416436887892042e-02
3.628000000000000114e+01,7.393169503724789093e-02
3.632000000000000028e+01,6.626387445229291184e-02
3.635999999999999943e+01,6.867934407938493246e-02
3.639999999999999858e+01,5.512836035982413008e-02
3.643999999999999773e+01,4.304744341005038027e-02
3.647999999999999687e+01,4.567154197692455814e-02
3.652000000000000313e+01,5.858900505507741441e-02
3.656000000000000227e+01,4.209498213467828542e-02
3.660000000000000142e+01,4.996958567902270304e-02
3.664000000000000057e+01,2.444120828909170789e-02
3.667999999999999972e+01,3.252491224235370265e-02
3.671999999999999886e+01,2.779333283765230214e-02
3.675999999999999801e+01,4.827068990236275947e-02
3.679999999999999716e+01,3.933655456465030842e-02
3.684000000000000341e+01,2.599027540619624696e-02
3.688000000000000256e+01,3.638237953586601070e-02
3.692000000000000171e+01,2.975762360143448249e-02
3.696000000000000085e+01,2.901457049979370637e-02
3.700000000000000000e+01,5.158974034738333242e-02
3.703999999999999915e+01,6.113953973003593417e-02
3.707999999999999829e+01,5.451278905325560725e-02
3.711999999999999744e+01,5.103671554979247182e-02
3.715999999999999659e+01,5.512296809039236856e-02
3.720000000000000284e+01,6.109942425881216554e-02
3.724000000000000199e+01,4.648767616049403334e-02
3.728000000000000114e+01,5.456390783478672762e-02
3.732000000000000028e+01,4.436279736098611842e-02
3.735999999999999943e+01,7.617689282523459893e-02
3.739999999999999858e+01,8.614230834262420755e-02
3.743999999999999773e+01,8.791414979697387277e-02
3.747999999999999687e+01,7.708076618291408166e-02
3.752000000000000313e+01,1.143548627235451559e-01
3.756000000000000227e+01,9.847856834470873622e-02
3.760000000000000142e+01,1.414237589783651772e-01
3.764000000000000057e+01,1.562179062069236624e-01
3.767999999999999972e+01,2.006326152947794095e-01
3.771999999999999886e+01,2.715167066474365454e-01
3.775999999999999801e+01,3.491227937605633769e-01
3.779999999999999716e+01,4.126530972874334902e-01
3.784000000000000341e+01,4.734518588585977517e-01
3.788000000000000256e+01,4.720668425272053215e-01
3.792000000000000171e+01,4.404299896347430021e-01
3.796000000000000085e+01,3.816924776410826059e-01
3.800000000000000000e+01,3.166520837583270409e-01
3.803999999999999915e+01,2.455188854876433069e-01
3.807999999999999829e+01,1.777464173432714845e-01
3.811999999999999744e+01,1.467371706460505465e-01
3.815999999999999659e+01,1.222398304677018988e-01
3.820000000000000284e+01,9.795203868654585311e-02
3.824000000000000199e+01,9.782275104186896608e-02
3.828000000000000114e+01,9.181073117387185401e-02
3.832000000000000028e+01,7.214307098152199227e-02
3.835999999999999943e+01,6.255864763562732356e-02
3.839999999999999858e+01,4.562093888512420287e-02
3.843999999999999773e+01,5.431227891389370926e-02
3.847999999999999687e+01,4.367585300013195754e-02
3.852000000000000313e+01,4.585368105380400322e-02
3.856000000000000227e+01,3.878751231731002169e-02
3.860000000000000142e+01,4.222473116035797835e-02
3.864000000000000057e+01,2.423339410683790843e-02
3.867999999999999972e+01,3.796337791460847183e-02
3.871999999999999886e+01,3.614700360859759293e-02
3.875999999999999801e+01,4.042236267482365863e-02
3.879999999999999716e+01,2.389939728067115229e-02
3.884000000000000341e+01,2.145114872633146694e-02
3.888000000000000256e+01,3.937997299886078495e-02
3.892000000000000171e+01,3.356936965037093240e-02
3.896000000000000085e+01,2.922876583102225478e-02
3.900000000000000000e+01,4.988696014314367849e-02
3.903999999999999915e+01,3.840258089315307793e-02
3.907999999999999829e+01,4.162314778454096614e-02
3.911999999999999744e+01,4.757418134669635229e-02
3.915999999999999659e+01,3.083617372635624396e-02
3.920000000000000284e+01,3.384499468895359880e-02
3.924000000000000199e+01,5.870142885196598381e-02
3.928000000000000114e+01,1.801279066084470609e-02
3.932000000000000028e+01,1.870907040405559232e-02
3.935999999999999943e+01,2.822808890005209376e-02
3.939999999999999858e+01,3.606591665757550441e-02
3.943999999999999773e+01,4.432333829410334963e-02
3.947999999999999687e+01,4.480728857164537754e-02
3.952000000000000313e+01,4.823177341531541956e-02
3.956000000000000227e+01,4.913474897734934621e-02
3.960000000000000142e+01,2.671843591102076795e-02
3.964000000000000057e+01,5.030876074706629869e-02
3.967999999999999972e+01,5.289065907339389472e-02
3.971999999999999886e+01,5.211072957492225710e-02
3.975999999999999801e+01,6.036360672459669535e-02
3.979999999999999716e+01,6.273371109310103833e-02
3.984000000000000341e+01,6.069159159247593943e-02
3.988000000000000256e+01,7.314431831851375687e-02
3.992000000000000171e+01,7.971426906144592206e-02
3.996000000000000085e+01,5.897342876910926374e-02
4.000000000000000000e+01,8.129811681463508521e-02
4.003999999999999915e+01,9.563923999033040191e-02
4.007999999999999829e+01,8.855176884623161548e-02
4.011999999999999744e+01,1.043622802640820080e-01
4.015999999999999659e+01,1.153404021373504174e-01
4.020000000000000284e+01,1.168644048921884254e-01
4.024000000000000199e+01,1.454879583766188478e-01
4.028000000000000114e+01,2.022614543657245412e-01
4.032000000000000028e+01,2.369761139257282323e-01
4.035999999999999943e+01,2.546738216328124915e-01
4.039999999999999858e+01,3.456883608656075024e-01
4.043999999999999773e+01,4.117029605086598432e-01
4.047999999999999687e+01,5.413707753927682331e-01
4.052000000000000313e+01,6.716682339069404151e-01
4.056000000000000227e+01,7.969232136349331252e-01
4.060000000000000142e+01,8.814223568680159548e-01
4.064000000000000057e+01,9.612991763172538118e-01
4.067999999999999972e+01,1.000000000000000000e+00
4.071999999999999886e+01,9.324004706204730430e-01
4.075999999999999801e+01,8.553468071801498818e-01
4.079999999999999716e+01,7.532931945442775667e-01
4.084000000000000341e+01,6.281303387618547562e-01
4.088000000000000256e+01,5.204034024820041182e-01
4.092000000000000171e+01,4.366248202602604489e-01
4.096000000000000085e+01,3.408711558194142954e-01
4.100000000000000000e+01,2.877628358966768385e-01
4.103999999999999915e+01,2.344438314550334745e-01
4.107999999999999829e+01,2.004514482957132915e-01
4.111999999999999744e+01,1.736011283796263238e-01
4.115999999999999659e+01,1.637665633579705737e-01
4.120000000000000284e+01,1.371251026383258353e-01
4.124000000000000199e+01,1.277094732469676031e-01
4.128000000000000114e+01,1.033776531393070935e-01
4.132000000000000028e+01,8.408710525353113585e-02
4.135999999999999943e+01,7.677042128213286409e-02
4.139999999999999858e+01,7.323453598712194312e-02
4.143999999999999773e+01,5.184135574785628253e-02
4.147999999999999687e+01,7.162295723960462879e-02
4.152000000000000313e+01,6.073246897525957921e-02
4.156000000000000227e+01,6.979882489093250375e-02
4.160000000000000142e+01,6.562961009963988457e-02
4.164000000000000057e+01,7.133346606675265711e-02
4.167999999999999972e+01,6.296143491836049544e-02
4.171999999999999886e+01,7.748734363944406733e-02
4.175999999999999801e+01,5.104730634509534876e-02
4.179999999999999716e+01,6.347117798999767080e-02
4.184000000000000341e+01,3.997098712833854067e-02
4.188000000000000256e+01,4.966258172237553864e-02
4.192000000000000171e+01,5.452173981010961096e-02
4.196000000000000085e+01,4.887633897529782695e-02
4.200000000000000000e+01,4.974274219742195330e-02
4.203999999999999915e+01,4.955811994392852332e-02
4.207999999999999829e+01,4.664184259967422974e-02
4.211999999999999744e+01,4.750634472019421572e-02
4.215999999999999659e+01,4.290816822510348100e-02
4.220000000000000284e+01,5.322493318954693575e-02
4.224000000000000199e+01,2.320597503625285857e-02
4.228000000000000114e+01,2.952997019272054005e-02
4.232000000000000028e+01,4.614717510025025116e-02
4.235999999999999943e+01,2.410928223593848327e-02
4.239999999999999858e+01,4.660740365013139874e-02
4.243999999999999773e+01,2.687908949371718356e-02
4.247999999999999687e+01,1.933468793542810274e-02
4.252000000000000313e+01,2.271372649707867342e-02
4.256000000000000227e+01,1.075638305149030118e-02
4.260000000000000142e+01,2.442797738474328240e-02
4.264000000000000057e+01,1.414996626849728163e-02
4.267999999999999972e+01,1.752641239316977614e-02
4.271999999999999886e+01,2.258283628814964153e-02
4.275999999999999801e+01,1.986570130457287683e-02
4.279999999999999716e+01,2.113940620994814168e-02
4.284000000000000341e+01,1.253876441735382943e-02
4.288000000000000256e+01,2.809650295306550735e-02
4.292000000000000171e+01,2.243564995832148662e-02
4.296000000000000085e+01,1.992531830936633205e-02
4.300000000000000000e+01,1.216236419973087957e-02
4.303999999999999915e+01,2.981825756002764657e-02
4.307999999999999829e+01,2.499508370974772367e-02
4.311999999999999744e+01,1.281849851206259654e-02
4.315999999999999659e+01,2.774138613020570368e-02
4.320000000000000284e+01,1.955496763039982905e-02
4.324000000000000199e+01,1.598961298455249883e-02
4.328000000000000114e+01,1.725539969383079950e-02
4.332000000000000028e+01,2.797405519745943189e-02
4.335999999999999943e+01,2.860827155958575729e-02
4.339999999999999858e+01,2.504024763030793591e-02
4.343999999999999773e+01,2.525296794451381208e-02
4.347999999999999687e+01,1.180991025113981192e-02
4.352000000000000313e+01,1.013058026882534060e-02
4.356000000000000227e+01,2.252584118352674372e-02
4.360000000000000142e+01,1.097147103324502306e-02
4.364000000000000057e+01,2.588632518561266235e-02
4.367999999999999972e+01,1.979264609707862346e-02
4.371999999999999886e+01,2.399213940369234604e-02
4.375999999999999801e+01,3.596386121639465194e-02
4.379999999999999716e+01,1.726343243622881218e-02
4.384000000000000341e+01,1.851978699930617589e-02
4.388000000000000256e+01,2.145608838064757065e-02
4.392000000000000171e+01,2.334131412271504488e-02
4.396000000000000085e+01,2.249483461036530518e-02
4.400000000000000000e+01,2.752987008392277640e-02
4.403999999999999915e+01,1.302691269012446439e-02
4.407999999999999829e+01,1.049774663349890315e-02
4.411999999999999744e+01,1.595087804563439376e-02
4.415999999999999659e+01,2.686536303747185175e-02
4.420000000000000284e+01,1.509067236552228547e-02
4.424000000000000199e+01,2.453322577457112824e-02
4.428000000000000114e+01,1.485793704935112723e-02
4.432000000000000028e+01,3.459295444118432733e-02
4.435999999999999943e+01,2.848761337279907477e-02
4.439999999999999858e+01,2.238157669979255748e-02
4.443999999999999773e+01,1.648492192333176828e-02
4.447999999999999687e+01,1.373874793480997503e-02
4.452000000000000313e+01,1.624383935170479673e-02
4.456000000000000227e+01,1.244587384036283280e-02
4.460000000000000142e+01,1.621003585308205402e-02
4.464000000000000057e+01,2.270451724753506581e-02
4.467999999999999972e+01,1.701373859440570221e-02
4.471999999999999886e+01,1.363312005142857004e-02
4.475999999999999801e+01,1.886501760565994015e-02
4.479999999999999716e+01,1.863416610169924340e-02
4.484000000000000341e+01,1.252040733527687993e-02
4.488000000000000256e+01,3.329599692179476683e-02
4.492000000000000171e+01,2.003814893505003261e-02
4.496000000000000085e+01,2.946807579704320557e-02
4.500000000000000000e+01,2.209100556642272506e-02
4.503999999999999915e+01,1.492330122267037339e-02
4.507999999999999829e+01,3.968682553879359504e-02
4.511999999999999744e+01,1.613156428852742866e-02
4.515999999999999659e+01,2.954941520700753860e-02
4.520000000000000284e+01,2.973159936045665849e-02
4.524000000000000199e+01,4.062707248816158773e-02
4.528000000000000114e+01,5.173190509886361338e-02
4.532000000000000028e+01,5.317240340674110610e-02
4.535999999999999943e+01,2.520118090746231720e-02
4.539999999999999858e+01,3.861471411111634666e-02
4.543999999999999773e+01,3.648170989260014763e-02
4.547999999999999687e+01,6.144811658582555181e-02
4.552000000000000313e+01,5.511209108633691178e-02
4.556000000000000227e+01,5.318698896824122085e-02
4.560000000000000142e+01,6.260540192403167559e-02
4.564000000000000057e+01,6.109900062762913669e-02
4.567999999999999972e+01,5.917171243566860667e-02
4.571999999999999886e+01,4.968086495255444324e-02
4.575999999999999801e+01,6.119714242410999316e-02
4.579999999999999716e+01,6.220875851118308486e-02
4.584000000000000341e+01,6.216924772801406957e-02
4.588000000000000256e+01,4.889405203551287077e-02
4.592000000000000171e+01,5.494534848060243781e-02
4.596000000000000085e+01,3.116475097190030477e-02
4.600000000000000000e+01,4.918905029341133495e-02
4.603999999999999915e+01,4.935593192980623767e-02
4.607999999999999829e+01,3.124523767681532116e-02
4.611999999999999744e+01,2.973000883462988131e-02
4.615999999999999659e+01,3.052490167937049401e-02
4.620000000000000284e+01,2.354614385673660382e-02
4.624000000000000199e+01,4.261638382452463680e-02
4.628000000000000114e+01,2.324149999238997108e-02
4.632000000000000028e+01,3.852883312369002888e-02
4.635999999999999943e+01,2.167339737481160239e-02
4.639999999999999858e+01,2.078318386011903871e-02
4.643999999999999773e+01,1.716119891767526467e-02
4.647999999999999687e+01,2.152144847259409438e-02
4.652000000000000313e+01,1.222583890423348425e-02
4.656000000000000227e+01,2.393733294430574338e-02
4.660000000000000142e+01,1.316966585035959231e-02
4.664000000000000057e+01,1.290517180627590195e-02
4.667999999999999972e+01,1.474070700558552903e-02
4.671999999999999886e+01,2.224760604511838089e-02
4.675999999999999801e+01,1.882966094772692625e-02
4.679999999999999716e+01,2.003268471354044747e-02
4.684000000000000341e+01,3.489005471984127360e-02
4.688000000000000256e+01,2.285660618288316848e-02
4.692000000000000171e+01,1.187278764305266243e-02
4.696000000000000085e+01,1.475339071025286164e-02
4.700000000000000000e+01,1.175102888015214231e-02
4.703999999999999915e+01,1.463010092025893855e-02
4.707999999999999829e+01,1.897895582520377558e-02
4.711999999999999744e+01,1.639444978851751361e-02
4.715999999999999659e+01,8.557210290719732132e-03
4.720000000000000284e+01,1.416422885912378866e-02
4.724000000000000199e+01,1.472859040027159686e-02
4.728000000000000114e+01,2.327516509254522192e-02
4.732000000000000028e+01,1.333405224028720235e-02
4.735999999999999943e+01,1.515656463715213571e-02
4.739999999999999858e+01,9.835630052724118194e-03
4.743999999999999773e+01,2.203054494706827883e-03
4.747999999999999687e+01,8.434886668666352269e-03
4.752000000000000313e+01,9.834132912665742229e-03
4.756000000000000227e+01,1.921558483660810654e-02
4.760000000000000142e+01,2.985672718185570715e-02
4.764000000000000057e+01,2.201017344407690465e-02
4.767999999999999972e+01,2.151558647886871178e-02
4.771999999999999886e+01,1.324730828843612325e-02
4.775999999999999801e+01,1.275115187290834680e-02
4.779999999999999716e+01,1.939688045953687559e-02
4.784000000000000341e+01,1.490765752334244527e-02
4.788000000000000256e+01,2.617353876231683779e-02
4.792000000000000171e+01,2.441375922753431099e-02
4.796000000000000085e+01,2.370358193977150502e-02
4.800000000000000000e+01,1.017782031210695201e-02
4.803999999999999915e+01,5.474565830559090067e-03
4.807999999999999829e+01,1.568609591370516074e-02
4.811999999999999744e+01,1.854408123546627193e-02
4.815999999999999659e+01,2.098111348833541293e-02
4.820000000000000284e+01,2.215687733108503976e-02
4.824000000000000199e+01,1.324807182028802689e-02
4.828000000000000114e+01,3.288074333226698610e-03
4.832000000000000028e+01,2.210804052659804536e-02
4.835999999999999943e+01,8.575105905720104352e-03
4.839999999999999858e+01,1.583914722845162701e-02
4.843999999999999773e+01,2.310238514806617696e-02
4.847999999999999687e+01,1.586939737220543004e-02
4.852000000000000313e+01,2.460157526300311287e-02
4.856000000000000227e+01,1.568634679651778954e-02
4.860000000000000142e+01,3.387044599145069834e-02
4.864000000000000057e+01,1.697061551072542168e-02
4.867999999999999972e+01,3.830427468617825237e-02
4.871999999999999886e+01,3.589824474921163994e-02
4.875999999999999801e+01,2.403786728908136744e-02
4.879999999999999716e+01,2.247052667549529967e-02
4.884000000000000341e+01,2.048221484871607864e-02
4.888000000000000256e+01,1.996363785774218219e-02
4.892000000000000171e+01,3.204895876464540494e-02
4.896000000000000085e+01,3.089851257920488842e-02
4.900000000000000000e+01,2.722630522653445018e-02
4.903999999999999915e+01,1.977186422844863165e-02
4.907999999999999829e+01,3.458493100902357287e-02
4.911999999999999744e+01,3.006994794211829622e-02
4.915999999999999659e+01,3.962940634857158723e-02
4.920000000000000284e+01,3.322206986858398936e-02
4.924000000000000199e+01,3.731783706318940463e-02
4.928000000000000114e+01,2.439641439433554507e-02
4.932000000000000028e+01,3.941461444920262014e-02
4.935999999999999943e+01,4.203735101252331630e-02
4.939999999999999858e+01,3.436540870177515195e-02
4.943999999999999773e+01,2.606240059967726910e-02
4.947999999999999687e+01,3.477492539114835496e-02
4.952000000000000313e+01,3.781449661315162275e-02
4.956000000000000227e+01,3.139969896575440372e-02
4.960000000000000142e+01,2.939571690125452816e-02
4.964000000000000057e+01,3.747467070127147998e-02
4.967999999999999972e+01,2.538524543752672044e-02
4.971999999999999886e+01,3.472299660153755491e-02
4.975999999999999801e+01,3.523660926502550361e-02
4.979999999999999716e+01,4.037111074333055161e-02
4.984000000000000341e+01,4.487453575716750243e-02
4.988000000000000256e+01,4.979727608161921976e-02
4.992000000000000171e+01,3.686249519170654854e-02
4.996000000000000085e+01,3.695174158652100860e-02
5.000000000000000000e+01,4.082155718567765518e-02
5.003999999999999915e+01,3.838816963487579059e-02
5.007999999999999829e+01,5.423077037883887452e-02
5.011999999999999744e+01,4.843443033925758090e-02
5.015999999999999659e+01,4.431786954998177125e-02
5.020000000000000284e+01,4.503226547088361870e-02
5.024000000000000199e+01,5.709005265749829416e-02
5.028000000000000114e+01,4.897944477067370239e-02
5.032000000000000028e+01,7.574102568457895257e-02
5.035999999999999943e+01,5.922556685773847085e-02
5.039999999999999858e+01,8.157378749810391405e-02
5.043999999999999773e+01,9.635832290451877558e-02
5.047999999999999687e+01,7.374801528566266029e-02
5.052000000000000313e+01,9.756421239731850881e-02
5.056000000000000227e+01,1.037329497860994959e-01
5.060000000000000142e+01,1.241861687934918135e-01
5.064000000000000057e+01,1.293027901966538884e-01
5.067999999999999972e+01,1.634093908773290027e-01
5.071999999999999886e+01,1.613816135397357354e-01
5.075999999999999801e+01,1.755290206678167542e-01
5.079999999999999716e+01,1.877848543050720520e-01
5.084000000000000341e+01,1.907963634874269565e-01
5.088000000000000256e+01,1.902356684965009204e-01
5.092000000000000171e+01,2.138331393042013917e-01
5.096000000000000085e+01,2.111699184082723446e-01
5.100000000000000000e+01,2.192198327936943636e-01
5.103999999999999915e+01,2.045803890050049700e-01
5.107999999999999829e+01,2.092672996706793631e-01
5.111999999999999744e+01,2.055501926841862281e-01
5.115999999999999659e+01,2.001515811695397384e-01
5.120000000000000284e+01,1.840380856148337296e-01
5.124000000000000199e+01,1.620415120277719778e-01
5.128000000000000114e+01,1.522286162302309565e-01
5.132000000000000028e+01,1.485071186690097300e-01
5.135999999999999943e+01,1.288187685865083976e-01
5.139999999999999858e+01,1.190032288383239406e-01
5.143999999999999773e+01,1.112875913234240982e-01
5.147999999999999687e+01,1.086129549332020550e-01
5.152000000000000313e+01,9.816452592313085201e-02
5.156000000000000227e+01,8.225316747916706916e-02
5.160000000000000142e+01,7.579445689600322611e-02
5.164000000000000057e+01,7.458682173674874294e-02
5.167999999999999972e+01,7.884033950257066103e-02
5.171999999999999886e+01,6.964793796305315809e-02
5.175999999999999801e+01,6.549653007703054586e-02
5.179999999999999716e+01,5.294108639453923293e-02
5.184000000000000341e+01,5.256930555920293069e-02
5.188000000000000256e+01,4.925552957322648640e-02
5.192000000000000171e+01,4.278967880081915170e-02
5.196000000000000085e+01,4.346560203013692669e-02
5.200000000000000000e+01,5.527479099496770271e-02
5.203999999999999915e+01,4.838608790399087645e-02
5.207999999999999829e+01,4.464766281170388929e-02
5.211999999999999744e+01,4.027810041817407594e-02
5.215999999999999659e+01,3.359677110825800422e-02
5.220000000000000284e+01,3.741846649185898155e-02
5.224000000000000199e+01,4.123925707771845112e-02
5.228000000000000114e+01,3.665599905936708924e-02
5.232000000000000028e+01,2.976096985538217304e-02
5.235999999999999943e+01,4.240233952026109532e-02
5.239999999999999858e+01,3.319462899634192249e-02
5.243999999999999773e+01,4.331323663818396896e-02
5.247999999999999687e+01,5.175030453058192953e-02
5.252000000000000313e+01,3.581734621049909029e-02
5.256000000000000227e+01,5.328596694233054404e-02
5.260000000000000142e+01,3.714110231398432688e-02
5.264000000000000057e+01,3.822176483005085279e-02
5.267999999999999972e+01,4.455347501991895748e-02
5.271999999999999886e+01,6.285874600760266162e-02
5.275999999999999801e+01,4.944123448217179612e-02
5.279999999999999716e+01,5.955160288627438930e-02
5.284000000000000341e+01,7.806419322211512191e-02
5.288000000000000256e+01,7.031604062335811145e-02
5.292000000000000171e+01,7.496160062281541359e-02
5.296000000000000085e+01,8.317757227705996348e-02
5.300000000000000000e+01,9.895544731987963860e-02
5.303999999999999915e+01,1.033881535208585334e-01
5.307999999999999829e+01,1.092904824898998373e-01
5.311999999999999744e+01,9.565457631179813403e-02
5.315999999999999659e+01,1.206721973879066601e-01
5.320000000000000284e+01,1.091352171354548345e-01
5.324000000000000199e+01,1.102020195112015655e-01
5.328000000000000114e+01,8.185688975204809259e-02
5.332000000000000028e+01,8.733347590284194772e-02
5.335999999999999943e+01,7.537260618741115081e-02
5.339999999999999858e+01,8.399850043313109027e-02
5.343999999999999773e+01,6.531324395949282546e-02
5.347999999999999687e+01,4.746736387536173996e-02
5.352000000000000313e+01,4.957800884500904864e-02
5.356000000000000227e+01,5.630944230216076291e-02
5.360000000000000142e+01,2.900720657938096400e-02
5.364000000000000057e+01,4.014840673459028203e-02
5.367999999999999972e+01,4.309559949815339880e-02
5.371999999999999886e+01,3.679839096036390672e-02
5.375999999999999801e+01,4.121424405940863483e-02
5.379999999999999716e+01,3.491514374312443270e-02
5.384000000000000341e+01,3.155619589533025654e-02
5.388000000000000256e+01,3.554904938677183601e-02
5.392000000000000171e+01,3.008741767182257498e-02
5.396000000000000085e+01,3.638923509954312269e-02
5.400000000000000000e+01,3.008538665906507550e-02
5.403999999999999915e+01,3.890624232229607932e-02
5.407999999999999829e+01,3.197025145552084835e-02
5.411999999999999744e+01,1.074796297078015050e-02
5.415999999999999659e+01,2.922956789984827025e-02
5.420000000000000284e+01,2.250078751542259822e-02
5.424000000000000199e+01,1.451057755678993380e-02
5.428000000000000114e+01,3.151875801650511066e-02
5.432000000000000028e+01,3.108945699451155439e-02
5.435999999999999943e+01,2.393668041592316234e-02
5.439999999999999858e+01,2.644655555478491252e-02
5.443999999999999773e+01,2.517405296113317537e-02
5.447999999999999687e+01,2.158972154700867369e-02
5.452000000000000313e+01,3.292000286037221474e-02
5.456000000000000227e+01,2.744303199359278758e-02
5.460000000000000142e+01,2.154493622071547085e-02
5.464000000000000057e+01,2.215830723423336396e-02
5.467999999999999972e+01,1.604819415266159691e-02
5.471999999999999886e+01,1.665962429134023801e-02
5.475999999999999801e+01,2.210188946664700532e-02
5.479999999999999716e+01,3.195483147431218973e-02
5.484000000000000341e+01,2.205941387194646636e-02
5.488000000000000256e+01,2.581812798038866583e-02
5.492000000000000171e+01,2.558437298009633154e-02
5.496000000000000085e+01,2.324885492006814949e-02
5.500000000000000000e+01,3.435738680043337601e-02
5.503999999999999915e+01,3.454085361032379481e-02
5.507999999999999829e+01,2.632019710417472097e-02
5.511999999999999744e+01,2.755209453538383021e-02
5.515999999999999659e+01,2.500159502246638438e-02
5.520000000000000284e+01,2.917262592205727839e-02
5.524000000000000199e+01,2.683023635267175674e-02
5.528000000000000114e+01,2.973882508181838885e-02
5.532000000000000028e+01,2.571383407040699759e-02
5.535999999999999943e+01,2.546926924355154970e-02
5.539999999999999858e+01,3.152607235568734984e-02
5.543999999999999773e+01,2.581748545031424882e-02
5.547999999999999687e+01,3.565372136238183914e-02
5.552000000000000313e+01,2.700205093099088474e-02
5.556000000000000227e+01,1.813930854649691352e-02
5.560000000000000142e+01,3.448499992753909643e-02
5.564000000000000057e+01,3.822498168059741686e-02
5.567999999999999972e+01,4.196396684709616937e-02
5.571999999999999886e+01,4.108022585318679698e-02
5.575999999999999801e+01,3.956525043265733677e-02
5.579999999999999716e+01,3.888958949754844213e-02
5.584000000000000341e+01,5.922078455452604862e-02
5.588000000000000256e+01,4.509809245783955728e-02
5.592000000000000171e+01,4.567989716424782076e-02
5.596000000000000085e+01,4.689093351835039308e-02
5.600000000000000000e+01,4.579010049413033412e-02
5.603999999999999915e+01,3.985645420252857674e-02
5.607999999999999829e+01,4.022415770561691556e-02
5.611999999999999744e+01,4.500250281977294375e-02
5.615999999999999659e+01,4.620850287548541879e-02
5.620000000000000284e+01,2.997697128583285200e-02
5.624000000000000199e+01,3.055071364556963959e-02
5.628000000000000114e+01,3.196375768298494874e-02
5.632000000000000028e+01,4.156885222752966513e-02
5.635999999999999943e+01,4.318994643901402641e-02
5.639999999999999858e+01,2.863397507944762457e-02
5.643999999999999773e+01,3.718562938707954679e-02
5.647999999999999687e+01,3.124084453686856722e-02
5.652000000000000313e+01,4.021061904855369185e-02
5.656000000000000227e+01,2.291955243295192013e-02
5.660000000000000142e+01,3.020665719465361401e-02
5.664000000000000057e+01,2.656865419340694381e-02
5.667999999999999972e+01,2.671104215542556559e-02
5.671999999999999886e+01,1.928957731553502392e-02
5.675999999999999801e+01,1.480818703037037158e-02
5.679999999999999716e+01,2.755221288918721298e-02
5.684000000000000341e+01,2.748041853218616964e-02
5.688000000000000256e+01,2.509673131600202028e-02
5.692000000000000171e+01,2.733374293312783310e-02
5.696000000000000085e+01,3.188058806298341846e-02
5.700000000000000000e+01,1.898988020123726361e-02
5.703999999999999915e+01,1.723230359371242734e-02
5.707999999999999829e+01,2.219620723503952509e-02
5.711999999999999744e+01,3.010017582528590543e-02
5.715999999999999659e+01,1.321383725792045667e-02
5.720000000000000284e+01,1.922502551034931464e-02
5.724000000000000199e+01,2.544525411953579147e-02
5.728000000000000114e+01,1.569847224529014040e-02
5.732000000000000028e+01,2.947944969434006940e-02
5.735999999999999943e+01,2.540270740902380794e-02
5.739999999999999858e+01,3.035830108733305124e-02
5.743999999999999773e+01,3.615316549127751966e-02
5.747999999999999687e+01,2.724148548610421869e-02
5.752000000000000313e+01,2.799237394805774090e-02
5.756000000000000227e+01,3.021276563914773033e-02
5.760000000000000142e+01,1.898708113005809564e-02
5.764000000000000057e+01,3.107906883729050912e-02
5.767999999999999972e+01,2.804434966188810302e-02
5.771999999999999886e+01,3.719313643880046982e-02
5.775999999999999801e+01,1.819034295276041047e-02
5.779999999999999716e+01,3.069828158447355029e-02
5.784000000000000341e+01,3.228108043388314141e-02
5.788000000000000256e+01,2.966125262500334328e-02
5.792000000000000171e+01,2.283879709052229201e-02
5.796000000000000085e+01,1.832614838597507526e-02
5.800000000000000000e+01,2.221558392993904646e-02
5.803999999999999915e+01,1.665042433439285763e-02
5.807999999999999829e+01,3.041143241363877814e-02
5.811999999999999744e+01,2.904572186981963303e-02
5.815999999999999659e+01,2.473784860740179878e-02
5.820000000000000284e+01,2.421032575039940710e-02
5.824000000000000199e+01,2.620268082062689532e-02
5.828000000000000114e+01,2.126137716922046200e-02
5.832000000000000028e+01,2.346167781695687737e-02
5.835999999999999943e+01,2.965240316934026829e-02
5.839999999999999858e+01,1.903577387964422440e-02
5.843999999999999773e+01,3.173679546003349561e-02
5.847999999999999687e+01,2.510951744197251548e-02
5.852000000000000313e+01,2.604399552345300350e-02
5.856000000000000227e+01,3.538054291107890076e-02
5.860000000000000142e+01,3.421208737443434678e-02
5.864000000000000057e+01,2.379909925708093704e-02
5.867999999999999972e+01,3.649367703746284053e-02
5.871999999999999886e+01,3.448167732206005448e-02
5.875999999999999801e+01,3.856087732297517473e-02
5.879999999999999716e+01,4.158860464461261452e-02
5.884000000000000341e+01,2.360739421416176848e-02
5.888000000000000256e+01,3.083453002967644768e-02
5.892000000000000171e+01,3.722026853245680167e-02
5.896000000000000085e+01,4.339484436062787664e-02
5.900000000000000000e+01,4.830786360448320604e-02
5.903999999999999915e+01,2.906076123250698334e-02
5.907999999999999829e+01,5.266859952216758345e-02
5.911999999999999744e+01,3.678057856241079282e-02
5.915999999999999659e+01,3.748767506980026087e-02
5.920000000000000284e+01,4.113478102589340768e-02
5.924000000000000199e+01,4.625134538402594225e-02
5.928000000000000114e+01,4.884587427578618302e-02
5.932000000000000028e+01,4.513695240124145081e-02
5.935999999999999943e+01,2.882222163871194301e-02
5.939999999999999858e+01,2.259016631661073943e-02
5.943999999999999773e+01,3.799510663396734461e-02
5.947999999999999687e+01,5.297879183318188884e-02
5.952000000000000313e+01,4.695352113600688437e-02
5.956000000000000227e+01,4.722950737739195493e-02
5.960000000000000142e+01,4.204234965520502881e-02
5.964000000000000057e+01,2.719047553255551572e-02
5.967999999999999972e+01,3.817716201507145163e-02
5.971999999999999886e+01,3.655803000379603124e-02
5.975999999999999801e+01,4.922313519672109894e-02
5.979999999999999716e+01,4.592116266556822701e-02
5.984000000000000341e+01,5.249177526593440390e-02
5.988000000000000256e+01,4.708680080869878659e-02
5.992000000000000171e+01,5.008385936900603547e-02
5.996000000000000085e+01,5.392012141430272548e-02
