2.003999999999999915e+01,2.724248199862373820e-02
2.007999999999999829e+01,3.954017747626573792e-02
2.012000000000000099e+01,2.380131153362711333e-02
2.016000000000000014e+01,3.816269020596013001e-02
2.019999999999999929e+01,2.970646758588961142e-02
2.023999999999999844e+01,2.756173187884545031e-02
2.028000000000000114e+01,3.779704247156956409e-02
2.032000000000000028e+01,4.342042993211593649e-02
2.035999999999999943e+01,3.678550756032272079e-02
2.039999999999999858e+01,2.723785725927182003e-02
2.044000000000000128e+01,3.638155256724229930e-02
2.048000000000000043e+01,2.440683764221800861e-02
2.051999999999999957e+01,2.845330017401521625e-02
2.055999999999999872e+01,1.720716862223968871e-02
2.060000000000000142e+01,3.642538618263845701e-02
2.064000000000000057e+01,3.853043993742681639e-02
2.067999999999999972e+01,3.626630551033535599e-02
2.071999999999999886e+01,2.939023966404397115e-02
2.076000000000000156e+01,2.821879393610575090e-02
2.080000000000000071e+01,3.008180100302296558e-02
2.083999999999999986e+01,1.871551865870293291e-02
2.087999999999999901e+01,2.579783039906220418e-02
2.092000000000000171e+01,2.584078249053292295e-02
2.096000000000000085e+01,3.899199401968759388e-02
2.100000000000000000e+01,2.532033794020125544e-02
2.103999999999999915e+01,3.179646949090960545e-02
2.107999999999999829e+01,2.844170037881624258e-02
2.112000000000000099e+01,3.164114235691826288e-02
2.116000000000000014e+01,3.144235584318495758e-02
2.119999999999999929e+01,2.893768084769406113e-02
2.123999999999999844e+01,2.619042701499438644e-02
2.128000000000000114e+01,2.696310084995914499e-02
2.132000000000000028e+01,3.271215597559269661e-02
2.135999999999999943e+01,2.547465332547805411e-02
2.139999999999999858e+01,2.345627271724554097e-02
2.144000000000000128e+01,1.998159708520431607e-02
2.148000000000000043e+01,3.240670781682265800e-02
2.151999999999999957e+01,3.051017421048620934e-02
2.155999999999999872e+01,2.861379754594100058e-02
2.160000000000000142e+01,2.732443301602933972e-02
2.164000000000000057e+01,2.834127665237332408e-02
2.167999999999999972e+01,3.032924437887301455e-02
2.171999999999999886e+01,3.001131285048632552e-02
2.176000000000000156e+01,3.163547338932200248e-02
2.180000000000000071e+01,2.500654400473160260e-02
2.183999999999999986e+01,3.549110556856965165e-02
2.187999999999999901e+01,4.112096927222590875e-02
2.192000000000000171e+01,2.004931751139905904e-02
2.196000000000000085e+01,2.932061548256239061e-02
2.200000000000000000e+01,3.677149321515935793e-02
2.203999999999999915e+01,3.694024568658799135e-02
2.207999999999999829e+01,3.164744013277947382e-02
2.212000000000000099e+01,7.784985659671970169e-03
2.216000000000000014e+01,3.174293019552282269e-02
2.219999999999999929e+01,3.700985295036141043e-02
2.223999999999999844e+01,2.710551802044311107e-02
2.228000000000000114e+01,2.011423401908951636e-02
2.232000000000000028e+01,2.975094620450230085e-02
2.235999999999999943e+01,3.356198095083563759e-02
2.239999999999999858e+01,3.263967826816732004e-02
2.244000000000000128e+01,3.572276403803479466e-02
2.248000000000000043e+01,2.229950390353441919e-02
2.251999999999999957e+01,2.380503895196491027e-02
2.255999999999999872e+01,1.730021074024499714e-02
2.260000000000000142e+01,2.026247186015183582e-02
2.264000000000000057e+01,2.917205655802548522e-02
2.267999999999999972e+01,3.249869959581980911e-02
2.271999999999999886e+01,3.631096036027678386e-02
2.276000000000000156e+01,4.497820137781390754e-02
2.280000000000000071e+01,4.527096055006081532e-02
2.283999999999999986e+01,4.762716061887918573e-02
2.287999999999999901e+01,5.010486148662461614e-02
2.292000000000000171e+01,6.654037961580781813e-02
2.296000000000000085e+01,7.557238221936289635e-02
2.300000000000000000e+01,5.365485483266419636e-02
2.303999999999999915e+01,4.836530871609196619e-02
2.307999999999999829e+01,3.227385086713626533e-02
2.312000000000000099e+01,4.409789463162882422e-02
2.316000000000000014e+01,3.832323756503600021e-02
2.319999999999999929e+01,2.672288565661726928e-02
2.323999999999999844e+01,2.725977631538520352e-02
2.328000000000000114e+01,2.706856105589603226e-02
2.332000000000000028e+01,2.699883747960964489e-02
2.335999999999999943e+01,2.013244611221736563e-02
2.339999999999999858e+01,2.346135472826085117e-02
2.344000000000000128e+01,2.181416196042736122e-02
2.348000000000000043e+01,1.288481409814588863e-02
2.351999999999999957e+01,1.123785482978025344e-02
2.355999999999999872e+01,2.476241160670569763e-02
2.360000000000000142e+01,1.389147099552403078e-02
2.364000000000000057e+01,2.826585472986626116e-02
2.367999999999999972e+01,1.630280014975472522e-02
2.371999999999999886e+01,2.424473526817194982e-02
2.376000000000000156e+01,1.944280529732579643e-02
2.380000000000000071e+01,2.131640209793576532e-02
2.383999999999999986e+01,1.214532901220229978e-02
2.387999999999999901e+01,1.693205329905343032e-02
2.392000000000000171e+01,2.026243118255867739e-02
2.396000000000000085e+01,1.910218172629369465e-02
2.400000000000000000e+01,2.049083395147147796e-02
2.403999999999999915e+01,8.043274447690630657e-03
2.407999999999999829e+01,1.574343959273635796e-02
2.412000000000000099e+01,1.640417879271644647e-02
2.416000000000000014e+01,8.933150380148701525e-03
2.419999999999999929e+01,2.233807135615425293e-02
2.423999999999999844e+01,1.680918587871685008e-02
2.428000000000000114e+01,2.305340780928197622e-02
2.432000000000000028e+01,1.934529074785718353e-02
2.435999999999999943e+01,1.842881031817307849e-02
2.439999999999999858e+01,2.030396569152750560e-02
2.444000000000000128e+01,2.399978640474698111e-02
2.448000000000000043e+01,1.058236375694361631e-02
2.451999999999999957e+01,2.058967915858237602e-02
2.455999999999999872e+01,1.785311289691360673e-02
2.460000000000000142e+01,1.778680709046327746e-02
2.464000000000000057e+01,2.148310174930928920e-02
2.467999999999999972e+01,1.777584524833200619e-02
2.471999999999999886e+01,1.552513467337779916e-02
2.476000000000000156e+01,1.982855977671745679e-02
2.480000000000000071e+01,1.502923437380291813e-02
2.483999999999999986e+01,1.302153565820237009e-02
2.487999999999999901e+01,1.914579579080471702e-02
2.492000000000000171e+01,1.641004533966389928e-02
2.496000000000000085e+01,8.091305992417538798e-03
2.500000000000000000e+01,1.130291672791611246e-02
2.503999999999999915e+01,1.135896099608247299e-02
2.507999999999999829e+01,1.724090708707169683e-02
2.512000000000000099e+01,1.037895991292239924e-02
2.516000000000000014e+01,2.026632129199125443e-02
2.519999999999999929e+01,1.995858303900368072e-02
2.523999999999999844e+01,1.855858464842378985e-02
2.528000000000000114e+01,2.067843105528699779e-02
2.532000000000000028e+01,1.697253869910699681e-02
2.535999999999999943e+01,1.630100466573014897e-02
2.539999999999999858e+01,1.344486634117212850e-02
2.544000000000000128e+01,9.132350122584167659e-03
2.548000000000000043e+01,1.817074210694777370e-02
2.551999999999999957e+01,1.325152049606186620e-02
2.555999999999999872e+01,1.864892532300109138e-02
2.560000000000000142e+01,1.300162380069961113e-02
2.564000000000000057e+01,1.051004600459463749e-02
2.567999999999999972e+01,1.542218325679486739e-02
2.571999999999999886e+01,2.081987608299172565e-02
2.576000000000000156e+01,1.468737442790353509e-02
2.580000000000000071e+01,1.680818376517608653e-02
2.583999999999999986e+01,1.807946294294092426e-02
2.587999999999999901e+01,2.238508967038007821e-02
2.592000000000000171e+01,1.443229137587199139e-02
2.596000000000000085e+01,1.703885364078464720e-02
2.600000000000000000e+01,1.090675415130328355e-02
2.603999999999999915e+01,3.682377950185342867e-03
2.607999999999999829e+01,1.296454883351678793e-02
2.612000000000000099e+01,1.205160102464088862e-02
2.616000000000000014e+01,2.084841120151252267e-02
2.619999999999999929e+01,3.425738795445622265e-02
2.623999999999999844e+01,2.703331995852203615e-02
2.628000000000000114e+01,1.726051582703139881e-02
2.632000000000000028e+01,1.319221662428616756e-02
2.635999999999999943e+01,6.939293241506693140e-03
2.639999999999999858e+01,7.361842764539346280e-03
2.644000000000000128e+01,2.052842458012598889e-02
2.648000000000000043e+01,2.349988024518546645e-02
2.651999999999999957e+01,2.185928432922421699e-02
2.655999999999999872e+01,1.354332553028902118e-02
2.660000000000000142e+01,1.360203235397907350e-02
2.664000000000000057e+01,1.657369977769262634e-02
2.667999999999999972e+01,2.876962959678927914e-02
2.671999999999999886e+01,1.183652042095965570e-02
2.676000000000000156e+01,1.784261807001249686e-02
2.680000000000000071e+01,1.717334786387812728e-02
2.683999999999999986e+01,1.529041316775410671e-02
2.687999999999999901e+01,1.704866132529343423e-02
2.692000000000000171e+01,2.499688679828056606e-02
2.696000000000000085e+01,1.862335522981180963e-02
2.700000000000000000e+01,2.317327628743299367e-02
2.703999999999999915e+01,1.946999886163800972e-02
2.707999999999999829e+01,1.588813522103778991e-02
2.712000000000000099e+01,1.485510862310781936e-02
2.716000000000000014e+01,1.394349415296805041e-02
2.719999999999999929e+01,2.152790407922937008e-02
2.723999999999999844e+01,1.648974802344379403e-02
2.728000000000000114e+01,2.722988696518793827e-02
2.732000000000000028e+01,2.777488235365830130e-02
2.735999999999999943e+01,2.346506634974373368e-02
2.739999999999999858e+01,2.376739206083490485e-02
2.744000000000000128e+01,2.006450315229872661e-02
2.748000000000000043e+01,1.854633021518626093e-02
2.751999999999999957e+01,1.581447870014638518e-02
2.755999999999999872e+01,2.898228758602963348e-02
2.760000000000000142e+01,4.045093141934553299e-02
2.764000000000000057e+01,4.099619784391670546e-02
2.767999999999999972e+01,4.639634259119594650e-02
2.771999999999999886e+01,3.577551769135289134e-02
2.776000000000000156e+01,5.319146947981024526e-02
2.780000000000000071e+01,3.759448136049720057e-02
2.783999999999999986e+01,4.967015465915348982e-02
2.787999999999999901e+01,4.960873353376286238e-02
2.792000000000000171e+01,5.367395853301375891e-02
2.796000000000000085e+01,4.378151938618011357e-02
2.800000000000000000e+01,3.486007339455246545e-02
2.803999999999999915e+01,6.222864018331381031e-02
2.807999999999999829e+01,5.015158743501845623e-02
2.812000000000000099e+01,7.011655365889668534e-02
2.816000000000000014e+01,8.097869976553472016e-02
2.819999999999999929e+01,8.929206995891000864e-02
2.823999999999999844e+01,9.796957231373362718e-02
2.828000000000000114e+01,1.088317740659366373e-01
2.832000000000000028e+01,1.017310544715420290e-01
2.835999999999999943e+01,1.084666682307752206e-01
2.839999999999999858e+01,1.241837663425786054e-01
2.844000000000000128e+01,1.059169416529050639e-01
2.848000000000000043e+01,1.087687200892857586e-01
2.851999999999999957e+01,1.027604133587240176e-01
2.855999999999999872e+01,9.177589917040204770e-02
2.860000000000000142e+01,8.018454005073728796e-02
2.864000000000000057e+01,7.526860742956074934e-02
2.867999999999999972e+01,7.799907011264119172e-02
2.871999999999999886e+01,4.213349842959163150e-02
2.876000000000000156e+01,4.607768953524883637e-02
2.880000000000000071e+01,4.043356244719491233e-02
2.883999999999999986e+01,4.170760012273583284e-02
2.887999999999999901e+01,3.533525721610326215e-02
2.892000000000000171e+01,3.551696380273451636e-02
2.896000000000000085e+01,2.428978081621251117e-02
2.900000000000000000e+01,2.896222839733376617e-02
2.903999999999999915e+01,2.343949679098627711e-02
2.907999999999999829e+01,2.532040979325584501e-02
2.912000000000000099e+01,1.372911943431222477e-02
2.916000000000000014e+01,2.228544847901411594e-02
2.919999999999999929e+01,7.174391343152159047e-03
2.923999999999999844e+01,1.099723991044244259e-02
2.928000000000000114e+01,1.482008547999675435e-02
2.932000000000000028e+01,1.208888219043329632e-02
2.935999999999999943e+01,1.591171927840922401e-02
2.939999999999999858e+01,7.354688043036437112e-03
2.944000000000000128e+01,4.987581914871995481e-03
2.948000000000000043e+01,1.014548331261143355e-02
2.951999999999999957e+01,1.154086940682624504e-02
2.955999999999999872e+01,6.139459261092196363e-03
2.960000000000000142e+01,2.137114422051480944e-02
2.964000000000000057e+01,1.645519880860681419e-02
2.967999999999999972e+01,3.528742627554566115e-03
2.971999999999999886e+01,2.397935551798501680e-02
2.976000000000000156e+01,1.323755595886992945e-02
2.980000000000000071e+01,1.523971908132299574e-02
2.983999999999999986e+01,6.075716807791830924e-03
2.987999999999999901e+01,1.171898603167540083e-02
2.992000000000000171e+01,1.517755732102774903e-02
2.996000000000000085e+01,9.169157588613688001e-03
3.000000000000000000e+01,1.020026979173907326e-02
3.003999999999999915e+01,1.220233288625761393e-02
3.007999999999999829e+01,7.164846559080765079e-03
3.012000000000000099e+01,7.589044025321279446e-03
3.016000000000000014e+01,9.833788327010461669e-03
3.019999999999999929e+01,6.980919989839684536e-03
3.023999999999999844e+01,7.890536099655315327e-03
3.028000000000000114e+01,2.124712257191185404e-03
3.032000000000000028e+01,0.000000000000000000e+00
3.035999999999999943e+01,1.159020845701710239e-02
3.039999999999999858e+01,4.003740431832693292e-03
3.044000000000000128e+01,1.607938047458735975e-02
3.048000000000000043e+01,1.079891044236933224e-02
3.051999999999999957e+01,1.632044890613746149e-02
3.055999999999999872e+01,7.520155745250574515e-03
3.060000000000000142e+01,1.158517989619642710e-02
3.064000000000000057e+01,1.382960480889787111e-02
3.067999999999999972e+01,1.704496735375704564e-02
3.071999999999999886e+01,1.831835779865848349e-02
3.076000000000000156e+01,2.529616118635971342e-02
3.080000000000000071e+01,1.649567352548599736e-02
3.083999999999999986e+01,1.121491547244767711e-02
3.087999999999999901e+01,1.333776473642688844e-02
3.092000000000000171e+01,1.315452414401063232e-02
3.096000000000000085e+01,1.503455622161652822e-02
3.100000000000000000e+01,2.140528422672008380e-02
3.103999999999999915e+01,2.195015496436391461e-02
3.107999999999999829e+01,1.351351629381486279e-02
3.112000000000000099e+01,7.868374204332407792e-03
3.116000000000000014e+01,1.703047709379387070e-02
3.119999999999999929e+01,2.388648432594439944e-02
3.123999999999999844e+01,1.909081234029770882e-02
3.128000000000000114e+01,1.914994409415984519e-02
3.132000000000000028e+01,1.544652325289777584e-02
3.135999999999999943e+01,1.392773799894465696e-02
3.139999999999999858e+01,2.223997337505788027e-02
3.144000000000000128e+01,2.411948717514484850e-02
3.148000000000000043e+01,2.527072517302088664e-02
3.151999999999999957e+01,3.030579230372138985e-02
3.155999999999999872e+01,3.801097569545523053e-02
3.160000000000000142e+01,5.178466824016904335e-02
3.164000000000000057e+01,4.856634029047261075e-02
3.167999999999999972e+01,4.874635334155616451e-02
3.171999999999999886e+01,4.443557828464018977e-02
3.176000000000000156e+01,4.315902895817318174e-02
3.180000000000000071e+01,3.884814431800866219e-02
3.183999999999999986e+01,4.655295286974620028e-02
3.187999999999999901e+01,2.707055479291389441e-02
3.192000000000000171e+01,2.579377967033223348e-02
3.196000000000000085e+01,2.912905179070392550e-02
3.200000000000000000e+01,2.493924989443848175e-02
3.203999999999999915e+01,2.584697840095746824e-02
3.207999999999999829e+01,3.245909250310319988e-02
3.211999999999999744e+01,2.122957773624998754e-02
3.215999999999999659e+01,2.225849194029873995e-02
3.220000000000000284e+01,1.916072170484796333e-02
3.224000000000000199e+01,1.946128086834625695e-02
3.228000000000000114e+01,1.587789634355838905e-02
3.232000000000000028e+01,2.455293747486364878e-02
3.235999999999999943e+01,2.011982173300312995e-02
3.239999999999999858e+01,1.774994882788514042e-02
3.243999999999999773e+01,1.016104567227435473e-02
3.247999999999999687e+01,4.514012491692744218e-03
3.252000000000000313e+01,1.877178669515290610e-02
3.256000000000000227e+01,2.222745276380503135e-02
3.260000000000000142e+01,1.548786589049127096e-02
3.264000000000000057e+01,1.748693311869535180e-02
3.267999999999999972e+01,1.900044209223983663e-02
3.271999999999999886e+01,1.213926370234509958e-02
3.275999999999999801e+01,1.340988090631711240e-02
3.279999999999999716e+01,1.455905098244961171e-02
3.284000000000000341e+01,1.352346262878927584e-02
3.288000000000000256e+01,2.013418256565351755e-02
3.292000000000000171e+01,6.597204177605772712e-03
3.296000000000000085e+01,1.769850102592187766e-02
3.300000000000000000e+01,1.690533978492561942e-02
3.303999999999999915e+01,1.404878717493438477e-02
3.307999999999999829e+01,1.046392561464370985e-02
3.311999999999999744e+01,1.343302653388435061e-02
3.315999999999999659e+01,1.846535454452543842e-02
3.320000000000000284e+01,1.318104597835857705e-02
3.324000000000000199e+01,6.076084308303471987e-03
3.328000000000000114e+01,1.389969490028379953e-02
3.332000000000000028e+01,1.249900726812954235e-02
3.335999999999999943e+01,1.206920174508467267e-02
3.339999999999999858e+01,1.843609530927341547e-02
3.343999999999999773e+01,1.448634732444094644e-02
3.347999999999999687e+01,1.187159257553792140e-02
3.352000000000000313e+01,1.071320143817098246e-02
3.356000000000000227e+01,1.877893015940647684e-02
3.360000000000000142e+01,2.611633915721371310e-02
3.364000000000000057e+01,1.342740611777798118e-02
3.367999999999999972e+01,1.554566584904668383e-02
3.371999999999999886e+01,1.523640651045617654e-02
3.375999999999999801e+01,1.541253617671736222e-02
3.379999999999999716e+01,1.461759956742148849e-02
3.384000000000000341e+01,1.588587596158841028e-02
3.388000000000000256e+01,1.533348599263163747e-02
3.392000000000000171e+01,1.514511050940885520e-02
3.396000000000000085e+01,1.726268795216003016e-02
3.400000000000000000e+01,2.411364157836058328e-02
3.403999999999999915e+01,1.979834279484453050e-02
3.407999999999999829e+01,2.762006200021539098e-02
3.411999999999999744e+01,2.366867111692077738e-02
3.415999999999999659e+01,2.614984996259105826e-02
3.420000000000000284e+01,2.280510607332681891e-02
3.424000000000000199e+01,2.395099098668087081e-02
3.428000000000000114e+01,2.618911015330234460e-02
3.432000000000000028e+01,2.624244022814910260e-02
3.435999999999999943e+01,3.491301756600968115e-02
3.439999999999999858e+01,1.651770727136988443e-02
3.443999999999999773e+01,2.094007348647883640e-02
3.447999999999999687e+01,2.087159441313548441e-02
3.452000000000000313e+01,1.873969330881521816e-02
3.456000000000000227e+01,2.364720966798212684e-02
3.460000000000000142e+01,1.483966672511493994e-02
3.464000000000000057e+01,3.139859143897198723e-02
3.467999999999999972e+01,2.295493319266423207e-02
3.471999999999999886e+01,1.511801526666397937e-02
3.475999999999999801e+01,2.839957036047039904e-02
3.479999999999999716e+01,2.044104734158077447e-02
3.484000000000000341e+01,1.624491346892302859e-02
3.488000000000000256e+01,2.624909148435889544e-02
3.492000000000000171e+01,1.222165120188779298e-02
3.496000000000000085e+01,2.064776304310998734e-02
3.500000000000000000e+01,1.560154970389367006e-02
3.503999999999999915e+01,2.050765278715123430e-02
3.507999999999999829e+01,2.383580705483646228e-02
3.511999999999999744e+01,2.789206456011590618e-02
3.515999999999999659e+01,2.794294750624092688e-02
3.520000000000000284e+01,2.326022783865604876e-02
3.524000000000000199e+01,2.246126023458970902e-02
3.528000000000000114e+01,3.137186167216615695e-02
3.532000000000000028e+01,3.020852502033515713e-02
3.535999999999999943e+01,3.547773323640269344e-02
3.539999999999999858e+01,2.921654725395170585e-02
3.543999999999999773e+01,2.975201809492143343e-02
3.547999999999999687e+01,4.121076587711176159e-02
3.552000000000000313e+01,3.616289759801267351e-02
3.556000000000000227e+01,3.354232030110790297e-02
3.560000000000000142e+01,3.735428289988831918e-02
3.564000000000000057e+01,4.844838299581395030e-02
3.567999999999999972e+01,3.089874328475299831e-02
3.571999999999999886e+01,4.636193472691617357e-02
3.575999999999999801e+01,2.954024857542178126e-02
3.579999999999999716e+01,4.075517254308286264e-02
3.584000000000000341e+01,4.068243560511886070e-02
3.588000000000000256e+01,4.801320239639567805e-02
3.592000000000000171e+01,3.835186002212542106e-02
3.596000000000000085e+01,3.900692862310476544e-02
3.600000000000000000e+01,5.228446025250029633e-02
3.603999999999999915e+01,3.242751005716058843e-02
3.607999999999999829e+01,3.356763433014559039e-02
3.611999999999999744e+01,3.956246206967155982e-02
3.615999999999999659e+01,4.579988668329869339e-02
3.620000000000000284e+01,4.414803665362958957e-02
3.624000000000000199e+01,4.565169074407040423e-02
3.628000000000000114e+01,4.424228791047481180e-02
3.632000000000000028e+01,5.108597812055785253e-02
3.635999999999999943e+01,5.016176157684464065e-02
3.639999999999999858e+01,4.608174321437057130e-02
3.643999999999999773e+01,5.401732274304392456e-02
3.647999999999999687e+01,5.539870507490322893e-02
3.652000000000000313e+01,4.330773073563991965e-02
3.656000000000000227e+01,3.886298844629756943e-02
3.660000000000000142e+01,5.784273393832881083e-02
3.664000000000000057e+01,4.769323491728481856e-02
3.667999999999999972e+01,4.786013195485054605e-02
3.671999999999999886e+01,3.807443310274023773e-02
3.675999999999999801e+01,4.964990824394364954e-02
3.679999999999999716e+01,4.083486226750260295e-02
3.684000000000000341e+01,4.731242841152667050e-02
3.688000000000000256e+01,4.468699378122802102e-02
3.692000000000000171e+01,3.125936068758004144e-02
3.696000000000000085e+01,4.635379849795891877e-02
3.700000000000000000e+01,3.498915083173801538e-02
3.703999999999999915e+01,3.831025512092678387e-02
3.707999999999999829e+01,4.126708120252138567e-02
3.711999999999999744e+01,3.123702299969565929e-02
3.715999999999999659e+01,3.674231269633520397e-02
3.720000000000000284e+01,3.095991331147433454e-02
3.724000000000000199e+01,2.954670937225694835e-02
3.728000000000000114e+01,4.888781263168014840e-02
3.732000000000000028e+01,4.164845258057697092e-02
3.735999999999999943e+01,3.999199753209946306e-02
3.739999999999999858e+01,3.760714403348341950e-02
3.743999999999999773e+01,4.529592843951731063e-02
3.747999999999999687e+01,4.509541168378412151e-02
3.752000000000000313e+01,4.331689556164359384e-02
3.756000000000000227e+01,4.287328814780669295e-02
3.760000000000000142e+01,5.590170904445963124e-02
3.764000000000000057e+01,4.817547780779493638e-02
3.767999999999999972e+01,4.469706169674049490e-02
3.771999999999999886e+01,4.728702794722727115e-02
3.775999999999999801e+01,4.854173226771124616e-02
3.779999999999999716e+01,5.841361258281860952e-02
3.784000000000000341e+01,6.864942617084303367e-02
3.788000000000000256e+01,5.813058265333657243e-02
3.792000000000000171e+01,6.205473045117328168e-02
3.796000000000000085e+01,7.459605092882454214e-02
3.800000000000000000e+01,7.184441600873806011e-02
3.803999999999999915e+01,8.256480028341701971e-02
3.807999999999999829e+01,8.855152227782668584e-02
3.811999999999999744e+01,9.745096703472445887e-02
3.815999999999999659e+01,1.101127321555704225e-01
3.820000000000000284e+01,1.287214984892221803e-01
3.824000000000000199e+01,1.419897432062513787e-01
3.828000000000000114e+01,1.649674948122573370e-01
3.832000000000000028e+01,2.063934791887775677e-01
3.835999999999999943e+01,2.057034645569767173e-01
3.839999999999999858e+01,2.177572344357681378e-01
3.843999999999999773e+01,2.493515754377470806e-01
3.847999999999999687e+01,2.809457228404811380e-01
3.852000000000000313e+01,3.244340538375385385e-01
3.856000000000000227e+01,3.786028555571283039e-01
3.860000000000000142e+01,4.325287187827487334e-01
3.864000000000000057e+01,5.359738364523399801e-01
3.867999999999999972e+01,6.744950344244424745e-01
3.871999999999999886e+01,8.387467291385704016e-01
3.875999999999999801e+01,9.624602422133702317e-01
3.879999999999999716e+01,1.000000000000000000e+00
3.884000000000000341e+01,9.284268440553783419e-01
3.888000000000000256e+01,7.921626343278544979e-01
3.892000000000000171e+01,6.546845098422724440e-01
3.896000000000000085e+01,5.049476901778215954e-01
3.900000000000000000e+01,3.765719980993605387e-01
3.903999999999999915e+01,3.013566883071147062e-01
3.907999999999999829e+01,2.404629745935389085e-01
3.911999999999999744e+01,2.066348325823638699e-01
3.915999999999999659e+01,1.684371195288864032e-01
3.920000000000000284e+01,1.730832330805601171e-01
3.924000000000000199e+01,1.458085105544102977e-01
3.928000000000000114e+01,1.431719323296747060e-01
3.932000000000000028e+01,1.300972195323836511e-01
3.935999999999999943e+01,1.227267415069164536e-01
3.939999999999999858e+01,1.177834749082310589e-01
3.943999999999999773e+01,1.159956461334785555e-01
3.947999999999999687e+01,1.125084061816013364e-01
3.952000000000000313e+01,1.167887081599901511e-01
3.956000000000000227e+01,1.164566884004367003e-01
3.960000000000000142e+01,1.220716408491115540e-01
3.964000000000000057e+01,1.173698232999221547e-01
3.967999999999999972e+01,1.323299223884605302e-01
3.971999999999999886e+01,1.211949932615752623e-01
3.975999999999999801e+01,1.440437812234617032e-01
3.979999999999999716e+01,1.468660995279643111e-01
3.984000000000000341e+01,1.653450814131926516e-01
3.988000000000000256e+01,1.823673862428919767e-01
3.992000000000000171e+01,2.004818084788465571e-01
3.996000000000000085e+01,2.176250368191032791e-01
4.000000000000000000e+01,2.427785395538172020e-01
4.003999999999999915e+01,2.588289760467334943e-01
4.007999999999999829e+01,3.178445921176611955e-01
4.011999999999999744e+01,3.660579434290626155e-01
4.015999999999999659e+01,4.012843474746752848e-01
4.020000000000000284e+01,4.674601793856133503e-01
4.024000000000000199e+01,5.189498655130340143e-01
4.028000000000000114e+01,5.691042375022125066e-01
4.032000000000000028e+01,6.289680741165548650e-01
4.035999999999999943e+01,6.343360074479592603e-01
4.039999999999999858e+01,6.354557152516016050e-01
4.043999999999999773e+01,6.265013788919532312e-01
4.047999999999999687e+01,5.933939378404813336e-01
4.052000000000000313e+01,5.367402472900278942e-01
4.056000000000000227e+01,4.605455561540842124e-01
4.060000000000000142e+01,4.173635950696946151e-01
4.064000000000000057e+01,3.546406317424102839e-01
4.067999999999999972e+01,2.927670276674212979e-01
4.071999999999999886e+01,2.415738495650452677e-01
4.075999999999999801e+01,1.977840740902399586e-01
4.079999999999999716e+01,1.788751538347825298e-01
4.084000000000000341e+01,1.500135523333210874e-01
4.088000000000000256e+01,1.315896310810457659e-01
4.092000000000000171e+01,1.177775714424281611e-01
4.096000000000000085e+01,9.631888095356860857e-02
4.100000000000000000e+01,9.804184468022146548e-02
4.103999999999999915e+01,8.847703976996146302e-02
4.107999999999999829e+01,8.498054761025683468e-02
4.111999999999999744e+01,6.412772494079076180e-02
4.115999999999999659e+01,7.070454532283912408e-02
4.120000000000000284e+01,5.737623824723508265e-02
4.124000000000000199e+01,6.103964899517708848e-02
4.128000000000000114e+01,5.195883168228635635e-02
4.132000000000000028e+01,5.222334466407754783e-02
4.135999999999999943e+01,5.042429390681336249e-02
4.139999999999999858e+01,5.554314770064903289e-02
4.143999999999999773e+01,4.124235388185453627e-02
4.147999999999999687e+01,4.429738652731937676e-02
4.152000000000000313e+01,4.698804897924444002e-02
4.156000000000000227e+01,4.603731789258755369e-02
4.160000000000000142e+01,4.095970762141099009e-02
4.164000000000000057e+01,4.449919378944533488e-02
4.167999999999999972e+01,3.699364046994925437e-02
4.171999999999999886e+01,3.543501543746415544e-02
4.175999999999999801e+01,3.314790162629933923e-02
4.179999999999999716e+01,4.433272911189188592e-02
4.184000000000000341e+01,3.561241588059661789e-02
4.188000000000000256e+01,3.648016375077004630e-02
4.192000000000000171e+01,3.309965460249719715e-02
4.196000000000000085e+01,2.886928132772464614e-02
4.200000000000000000e+01,3.398422425969638977e-02
4.203999999999999915e+01,2.829686265443551174e-02
4.207999999999999829e+01,2.807093706063020985e-02
4.211999999999999744e+01,2.529594716519191488e-02
4.215999999999999659e+01,3.441506545217568741e-02
4.220000000000000284e+01,1.331248319769653618e-02
4.224000000000000199e+01,2.340202895334747915e-02
4.228000000000000114e+01,2.693725735036351168e-02
4.232000000000000028e+01,2.549599321605778429e-02
4.235999999999999943e+01,2.696736400180561183e-02
4.239999999999999858e+01,2.394772541606283306e-02
4.243999999999999773e+01,2.566128815760242848e-02
4.247999999999999687e+01,2.130601421423150912e-02
4.252000000000000313e+01,2.787387136049162759e-02
4.256000000000000227e+01,2.400352680931697527e-02
4.260000000000000142e+01,2.389541063614479197e-02
4.264000000000000057e+01,2.706403719503730834e-02
4.267999999999999972e+01,2.574164858152369617e-02
4.271999999999999886e+01,3.449278848396785530e-02
4.275999999999999801e+01,2.588756389985983827e-02
4.279999999999999716e+01,2.917643423893840834e-02
4.284000000000000341e+01,2.324080912275557770e-02
4.288000000000000256e+01,2.507265632585282261e-02
4.292000000000000171e+01,2.896752841701046369e-02
4.296000000000000085e+01,2.557984183574218626e-02
4.300000000000000000e+01,2.097815596879002223e-02
4.303999999999999915e+01,2.195925742874915362e-02
4.307999999999999829e+01,2.476063805334205101e-02
4.311999999999999744e+01,2.974641062679312178e-02
4.315999999999999659e+01,2.016734812577420169e-02
4.320000000000000284e+01,3.085698535823272123e-02
4.324000000000000199e+01,2.321927852524137761e-02
4.328000000000000114e+01,1.825144514353493203e-02
4.332000000000000028e+01,2.372124146017967963e-02
4.335999999999999943e+01,3.149679595777823277e-02
4.339999999999999858e+01,2.664944967763561642e-02
4.343999999999999773e+01,2.592842798567561793e-02
4.347999999999999687e+01,3.006195727904934292e-02
4.352000000000000313e+01,2.193669692150193237e-02
4.356000000000000227e+01,2.461317490301908467e-02
4.360000000000000142e+01,2.037119456580159180e-02
4.364000000000000057e+01,3.020797342658411433e-02
4.367999999999999972e+01,1.880449020277922753e-02
4.371999999999999886e+01,2.827655196086744857e-02
4.375999999999999801e+01,3.095152328972103697e-02
4.379999999999999716e+01,3.083465310283091745e-02
4.384000000000000341e+01,2.343520601206621964e-02
4.388000000000000256e+01,2.805120267383720209e-02
4.392000000000000171e+01,1.895194694595834367e-02
4.396000000000000085e+01,2.939314798036156418e-02
4.400000000000000000e+01,3.206628397884578319e-02
4.403999999999999915e+01,3.716653527465505619e-02
4.407999999999999829e+01,3.850396961933407608e-02
4.411999999999999744e+01,4.032657833499157796e-02
4.415999999999999659e+01,4.506178467910297580e-02
4.420000000000000284e+01,4.469908833857980796e-02
4.424000000000000199e+01,3.851026125886646695e-02
4.428000000000000114e+01,4.615743770929997547e-02
4.432000000000000028e+01,5.101276187086103975e-02
4.435999999999999943e+01,5.756696747427615668e-02
4.439999999999999858e+01,6.375674321759199070e-02
4.443999999999999773e+01,6.666917936869325156e-02
4.447999999999999687e+01,8.317487249781248260e-02
4.452000000000000313e+01,7.382818037586026672e-02
4.456000000000000227e+01,6.605899434794211544e-02
4.460000000000000142e+01,8.050041831786609869e-02
4.464000000000000057e+01,7.782818126085162824e-02
4.467999999999999972e+01,9.141936353313953600e-02
4.471999999999999886e+01,8.219243651856701638e-02
4.475999999999999801e+01,8.073294287427057458e-02
4.479999999999999716e+01,7.453964772773297165e-02
4.484000000000000341e+01,7.101619371309392248e-02
4.488000000000000256e+01,7.307548890506436468e-02
4.492000000000000171e+01,7.574131309827793201e-02
4.496000000000000085e+01,8.702416494841869188e-02
4.500000000000000000e+01,9.066030224939401749e-02
4.503999999999999915e+01,9.660216292583015396e-02
4.507999999999999829e+01,1.032719204930094281e-01
4.511999999999999744e+01,1.101840893049940706e-01
4.515999999999999659e+01,1.271697360821014422e-01
4.520000000000000284e+01,1.361445505536056644e-01
4.524000000000000199e+01,1.544646141069749012e-01
4.528000000000000114e+01,1.848000924083023910e-01
4.532000000000000028e+01,2.011775469067847710e-01
4.535999999999999943e+01,2.190111197209480276e-01
4.539999999999999858e+01,2.226439246662439975e-01
4.543999999999999773e+01,2.382921410446894039e-01
4.547999999999999687e+01,2.151012334221596156e-01
4.552000000000000313e+01,1.849918277031889491e-01
4.556000000000000227e+01,1.667764597269521254e-01
4.560000000000000142e+01,1.443127584916654438e-01
4.564000000000000057e+01,1.245188818142329706e-01
4.567999999999999972e+01,1.066666016400992928e-01
4.571999999999999886e+01,8.954220509747332080e-02
4.575999999999999801e+01,8.018522120756808869e-02
4.579999999999999716e+01,6.585167268924860262e-02
4.584000000000000341e+01,5.600851264990554940e-02
4.588000000000000256e+01,4.313072559368599096e-02
4.592000000000000171e+01,4.263245363911588592e-02
4.596000000000000085e+01,4.759553731188668341e-02
4.600000000000000000e+01,4.503325692224557225e-02
4.603999999999999915e+01,3.324641478116600879e-02
4.607999999999999829e+01,3.044069070627830956e-02
4.611999999999999744e+01,2.921244040603835496e-02
4.615999999999999659e+01,3.186771593361276134e-02
4.620000000000000284e+01,2.626939602941089080e-02
4.624000000000000199e+01,2.868122124212094809e-02
4.628000000000000114e+01,2.563098706475470598e-02
4.632000000000000028e+01,1.881788952893422365e-02
4.635999999999999943e+01,2.365607075318558461e-02
4.639999999999999858e+01,2.388178853141612740e-02
4.643999999999999773e+01,2.070875407801249166e-02
4.647999999999999687e+01,1.692850426337676878e-02
4.652000000000000313e+01,2.662009795863729683e-02
4.656000000000000227e+01,1.956210446217974616e-02
4.660000000000000142e+01,2.585458161390517470e-02
4.664000000000000057e+01,2.098054531471673159e-02
4.667999999999999972e+01,8.945244478105414399e-03
4.671999999999999886e+01,1.899913851381005922e-02
4.675999999999999801e+01,9.876017128107858478e-03
4.679999999999999716e+01,2.017192246252176580e-02
4.684000000000000341e+01,1.735937093356861027e-02
4.688000000000000256e+01,1.357548214343460083e-02
4.692000000000000171e+01,5.179119134151012604e-03
4.696000000000000085e+01,1.680863555171902349e-02
4.700000000000000000e+01,1.715025985574442427e-02
4.703999999999999915e+01,1.045198336833589280e-02
4.707999999999999829e+01,1.419125868127056253e-02
4.711999999999999744e+01,1.258982840569123317e-02
4.715999999999999659e+01,1.523601685329756261e-02
4.720000000000000284e+01,1.885280067904747045e-02
4.724000000000000199e+01,2.161961098960550609e-02
4.728000000000000114e+01,2.244410611748943324e-02
4.732000000000000028e+01,1.198070250221306213e-02
4.735999999999999943e+01,1.693106426302857376e-02
4.739999999999999858e+01,2.127419160246108928e-02
4.743999999999999773e+01,1.651409939018656445e-02
4.747999999999999687e+01,1.794355854042207349e-02
4.752000000000000313e+01,1.391093261081268254e-02
4.756000000000000227e+01,9.756553762246943790e-03
4.760000000000000142e+01,1.955948086585321266e-02
4.764000000000000057e+01,2.280797956472794749e-02
4.767999999999999972e+01,1.622502651382900021e-02
4.771999999999999886e+01,1.680258948769793731e-02
4.775999999999999801e+01,1.628742576462842082e-02
4.779999999999999716e+01,1.710695860209598268e-02
4.784000000000000341e+01,2.338780811790036260e-02
4.788000000000000256e+01,1.813800488009566225e-02
4.792000000000000171e+01,1.871363027615003186e-02
4.796000000000000085e+01,1.055013896029523106e-02
4.800000000000000000e+01,1.695080133113471485e-02
4.803999999999999915e+01,1.558331496713169853e-02
4.807999999999999829e+01,1.652148899722122657e-02
4.811999999999999744e+01,1.211893672124150431e-02
4.815999999999999659e+01,1.232809606381870399e-02
4.820000000000000284e+01,1.787719342210400755e-02
4.824000000000000199e+01,1.225974418138693102e-02
4.828000000000000114e+01,1.574473863254888945e-02
4.832000000000000028e+01,1.097609373071727588e-02
4.835999999999999943e+01,1.421755002458030027e-02
4.839999999999999858e+01,9.690850125280855987e-03
4.843999999999999773e+01,1.548030264614044110e-02
4.847999999999999687e+01,1.811370308017071565e-02
4.852000000000000313e+01,1.916887625468497586e-02
4.856000000000000227e+01,8.450640179034745944e-03
4.860000000000000142e+01,1.399574221986996971e-02
4.864000000000000057e+01,6.553721310047449719e-03
4.867999999999999972e+01,8.942363030935127771e-03
4.871999999999999886e+01,8.296318897089116975e-03
4.875999999999999801e+01,1.456802683313567284e-02
4.879999999999999716e+01,1.562036557948416789e-02
4.884000000000000341e+01,2.201262908230530724e-02
4.888000000000000256e+01,1.481090864071101486e-02
4.892000000000000171e+01,1.501242177143594959e-02
4.896000000000000085e+01,1.594175140878930502e-02
4.900000000000000000e+01,1.711341190683333957e-02
4.903999999999999915e+01,1.561449353345259992e-02
4.907999999999999829e+01,1.739218447108021107e-02
4.911999999999999744e+01,1.285815875061210693e-02
4.915999999999999659e+01,1.645558885610328217e-02
4.920000000000000284e+01,2.175180013048065228e-02
4.924000000000000199e+01,1.903709540033131711e-02
4.928000000000000114e+01,1.547237489117721417e-02
4.932000000000000028e+01,2.173830375349785834e-02
4.935999999999999943e+01,2.205662459843620374e-02
4.939999999999999858e+01,1.327168528525903869e-02
4.943999999999999773e+01,1.019077191094794679e-02
4.947999999999999687e+01,1.912518627086269574e-02
4.952000000000000313e+01,7.183331168593554313e-03
4.956000000000000227e+01,2.097174823004971031e-02
4.960000000000000142e+01,2.068068161321501980e-02
4.964000000000000057e+01,2.682186401758868827e-02
4.967999999999999972e+01,2.956422706544886356e-02
4.971999999999999886e+01,3.182067883150657001e-02
4.975999999999999801e+01,2.934322633624864007e-02
4.979999999999999716e+01,3.778875410681890173e-02
4.984000000000000341e+01,3.543181574322493144e-02
4.988000000000000256e+01,4.217728792342144428e-02
4.992000000000000171e+01,4.782998865675996969e-02
4.996000000000000085e+01,3.430560767251467080e-02
5.000000000000000000e+01,3.874373266050170489e-02
5.003999999999999915e+01,3.189390255357790749e-02
5.007999999999999829e+01,3.147631235213810275e-02
5.011999999999999744e+01,3.020868896894702074e-02
5.015999999999999659e+01,2.748417555375806329e-02
5.020000000000000284e+01,2.463785452526670583e-02
5.024000000000000199e+01,2.276206589355073487e-02
5.028000000000000114e+01,2.161406642129010819e-02
5.032000000000000028e+01,1.767409035482502000e-02
5.035999999999999943e+01,1.968086357569288555e-02
5.039999999999999858e+01,1.622549205015639748e-02
5.043999999999999773e+01,1.155596710032429086e-02
5.047999999999999687e+01,1.174084811293856292e-02
5.052000000000000313e+01,1.143980126970608850e-02
5.056000000000000227e+01,1.308024982810233362e-02
5.060000000000000142e+01,2.345898040072257051e-02
5.064000000000000057e+01,1.902997852294114473e-02
5.067999999999999972e+01,1.909126485116833041e-02
5.071999999999999886e+01,2.121541447052430890e-02
5.075999999999999801e+01,1.642095743344938741e-02
5.079999999999999716e+01,2.194260392310288382e-02
5.084000000000000341e+01,1.666176356103682421e-02
5.088000000000000256e+01,1.951234339073484522e-02
5.092000000000000171e+01,2.199835828187287484e-02
5.096000000000000085e+01,2.278472415835097395e-02
5.100000000000000000e+01,2.526983391211568356e-02
5.103999999999999915e+01,1.962261916544516538e-02
5.107999999999999829e+01,2.198544926271881958e-02
5.111999999999999744e+01,2.325548305206808636e-02
5.115999999999999659e+01,2.136940923153977934e-02
5.120000000000000284e+01,2.700789295161341863e-02
5.124000000000000199e+01,2.293622237172527820e-02
5.128000000000000114e+01,2.711733490088800991e-02
5.132000000000000028e+01,2.280200351577336970e-02
5.135999999999999943e+01,1.787935566775663079e-02
5.139999999999999858e+01,2.752079106674606979e-02
5.143999999999999773e+01,2.199036382836287024e-02
5.147999999999999687e+01,1.997923858747300760e-02
5.152000000000000313e+01,1.930273283781432092e-02
5.156000000000000227e+01,1.862576250328685026e-02
5.160000000000000142e+01,2.110397806721942687e-02
5.164000000000000057e+01,2.297487136733438254e-02
5.167999999999999972e+01,2.156827508013406045e-02
5.171999999999999886e+01,8.873688892529964234e-03
5.175999999999999801e+01,1.948190520385172445e-02
5.179999999999999716e+01,1.989447079614520622e-02
5.184000000000000341e+01,1.071824086225262561e-02
5.188000000000000256e+01,1.853350831711730526e-02
5.192000000000000171e+01,1.481803931944934705e-02
5.196000000000000085e+01,1.365089274037705087e-02
5.200000000000000000e+01,1.393972691241827239e-02
5.203999999999999915e+01,1.459220016809081345e-02
5.207999999999999829e+01,1.536556927007471686e-02
5.211999999999999744e+01,1.213321244316571158e-02
5.215999999999999659e+01,9.021749805163613647e-03
5.220000000000000284e+01,1.379893760313480322e-02
5.224000000000000199e+01,2.063895720155064020e-02
5.228000000000000114e+01,1.048652869521415898e-02
5.232000000000000028e+01,1.453405076280625020e-02
5.235999999999999943e+01,1.906657648872084679e-02
5.239999999999999858e+01,9.883674140116349358e-03
5.243999999999999773e+01,1.320152301900943959e-02
5.247999999999999687e+01,1.384872175808740495e-02
5.252000000000000313e+01,1.316035277604578335e-02
5.256000000000000227e+01,9.801331996784606176e-03
5.260000000000000142e+01,1.530192300094564833e-02
5.264000000000000057e+01,1.303426996950963167e-02
5.267999999999999972e+01,1.295081082710277352e-02
5.271999999999999886e+01,8.618870916652018876e-03
5.275999999999999801e+01,1.520984994806567729e-02
5.279999999999999716e+01,1.415395283338231024e-02
5.284000000000000341e+01,1.564635990584587952e-02
5.288000000000000256e+01,1.847335829366536508e-02
5.292000000000000171e+01,1.862969742594541150e-02
5.296000000000000085e+01,1.344520997918832554e-02
5.300000000000000000e+01,1.554250037281585360e-02
5.303999999999999915e+01,1.521187143341504698e-02
5.307999999999999829e+01,1.087549667626818914e-02
5.311999999999999744e+01,1.661243497250362855e-02
5.315999999999999659e+01,1.130409594367333924e-02
5.320000000000000284e+01,1.133559134277442940e-02
5.324000000000000199e+01,9.667390491189425603e-03
5.328000000000000114e+01,1.418862084029358372e-02
5.332000000000000028e+01,1.640329725976281267e-02
5.335999999999999943e+01,1.206342677008391366e-02
5.339999999999999858e+01,1.840371955441625143e-02
5.343999999999999773e+01,1.406284282569401911e-02
5.347999999999999687e+01,1.797470362740086897e-02
5.352000000000000313e+01,1.666709745254852520e-02
5.356000000000000227e+01,1.171784912845023202e-02
5.360000000000000142e+01,1.550682066590992718e-02
5.364000000000000057e+01,1.480454996655706894e-02
5.367999999999999972e+01,1.968484615932679718e-02
5.371999999999999886e+01,1.703961835015746842e-02
5.375999999999999801e+01,1.572896362489537014e-02
5.379999999999999716e+01,2.012224450995808364e-02
5.384000000000000341e+01,1.978153660607942857e-02
5.388000000000000256e+01,2.465927783788561187e-02
5.392000000000000171e+01,2.310383176302161987e-02
5.396000000000000085e+01,2.409666667164263310e-02
5.400000000000000000e+01,1.635025973432024243e-02
5.403999999999999915e+01,2.061908605917134665e-02
5.407999999999999829e+01,2.828578931156299978e-02
5.411999999999999744e+01,2.357211210263810905e-02
5.415999999999999659e+01,2.298453738970263754e-02
5.420000000000000284e+01,2.081861774153681219e-02
5.424000000000000199e+01,2.035137484577834860e-02
5.428000000000000114e+01,1.891264137892951711e-02
5.432000000000000028e+01,1.273990917871270327e-02
5.435999999999999943e+01,1.809691879381622112e-02
5.439999999999999858e+01,1.095217094237875902e-02
5.443999999999999773e+01,1.922104178674143363e-02
5.447999999999999687e+01,1.474541109854095658e-02
5.452000000000000313e+01,1.026925450150796039e-02
5.456000000000000227e+01,1.477404028579757354e-02
5.460000000000000142e+01,1.757910164352584348e-02
5.464000000000000057e+01,1.565015763826848802e-02
5.467999999999999972e+01,1.991061582912277694e-02
5.471999999999999886e+01,1.506770364446718274e-02
5.475999999999999801e+01,1.507910875112111922e-02
5.479999999999999716e+01,1.678917900835137297e-02
5.484000000000000341e+01,1.461483818924707093e-02
5.488000000000000256e+01,1.037665352973930581e-02
5.492000000000000171e+01,1.511940379323425260e-02
5.496000000000000085e+01,2.107533107526113336e-02
5.500000000000000000e+01,1.938433663256921430e-02
5.503999999999999915e+01,1.769280550791599987e-02
5.507999999999999829e+01,1.818541855015914574e-02
5.511999999999999744e+01,1.078836497295909344e-02
5.515999999999999659e+01,2.232468009987697080e-02
5.520000000000000284e+01,1.966002432588525098e-02
5.524000000000000199e+01,1.468877484455234986e-02
5.528000000000000114e+01,1.736336958050453683e-02
5.532000000000000028e+01,1.639628570431338195e-02
5.535999999999999943e+01,1.688511296824979357e-02
5.539999999999999858e+01,1.446048718849176316e-02
5.543999999999999773e+01,2.125952796722546320e-02
5.547999999999999687e+01,2.465962922762473392e-02
5.552000000000000313e+01,2.429667652806071637e-02
5.556000000000000227e+01,2.235535071739112520e-02
5.560000000000000142e+01,2.405461275219573924e-02
5.564000000000000057e+01,2.199081834093040769e-02
5.567999999999999972e+01,1.944098917123283574e-02
5.571999999999999886e+01,2.465836630740487687e-02
5.575999999999999801e+01,2.404937403814929806e-02
5.579999999999999716e+01,2.805193510532795823e-02
5.584000000000000341e+01,2.707772353983678437e-02
5.588000000000000256e+01,2.355416259915123905e-02
5.592000000000000171e+01,2.415666769155772053e-02
5.596000000000000085e+01,2.208845054705655883e-02
5.600000000000000000e+01,2.463178259547850468e-02
5.603999999999999915e+01,2.086325462032183678e-02
5.607999999999999829e+01,2.959540246076137679e-02
5.611999999999999744e+01,2.024268180225610031e-02
5.615999999999999659e+01,2.314789289332479932e-02
5.620000000000000284e+01,2.823722494762793273e-02
5.624000000000000199e+01,2.398041272711923938e-02
5.628000000000000114e+01,2.542748473739816703e-02
5.632000000000000028e+01,1.995583490163855417e-02
5.635999999999999943e+01,3.099010482275282169e-02
5.639999999999999858e+01,2.187618997075573696e-02
5.643999999999999773e+01,2.271414818554835444e-02
5.647999999999999687e+01,2.913461528330864650e-02
5.652000000000000313e+01,2.450973544501727774e-02
5.656000000000000227e+01,2.303993874611143244e-02
5.660000000000000142e+01,2.545345158374226827e-02
5.664000000000000057e+01,2.689542495685215417e-02
5.667999999999999972e+01,3.258481982202090371e-02
5.671999999999999886e+01,2.528692433868480818e-02
5.675999999999999801e+01,3.012557697008061766e-02
5.679999999999999716e+01,2.464710409036254685e-02
5.684000000000000341e+01,2.584347347407216569e-02
5.688000000000000256e+01,2.983080575462301529e-02
5.692000000000000171e+01,2.738488857583762717e-02
5.696000000000000085e+01,2.493839493738467944e-02
5.700000000000000000e+01,3.353610360267039736e-02
5.703999999999999915e+01,2.526263675194926131e-02
5.707999999999999829e+01,1.674584854683614996e-02
5.711999999999999744e+01,2.594867639634364925e-02
5.715999999999999659e+01,2.349928802901971731e-02
5.720000000000000284e+01,2.602553760647914258e-02
5.724000000000000199e+01,2.697337926734002383e-02
5.728000000000000114e+01,2.646418338720902402e-02
5.732000000000000028e+01,2.486206275031058177e-02
5.735999999999999943e+01,2.325935736672243501e-02
5.739999999999999858e+01,2.286977845083122338e-02
5.743999999999999773e+01,2.527115082995021189e-02
5.747999999999999687e+01,2.609411032025736946e-02
5.752000000000000313e+01,2.436768645857942395e-02
5.756000000000000227e+01,2.701003706182052502e-02
5.760000000000000142e+01,3.025865396770305998e-02
5.764000000000000057e+01,2.403972638988745997e-02
5.767999999999999972e+01,2.801538859771071643e-02
5.771999999999999886e+01,2.701423922386010992e-02
5.775999999999999801e+01,2.576975440767987832e-02
5.779999999999999716e+01,2.391781970754120953e-02
5.784000000000000341e+01,2.789110812311269144e-02
5.788000000000000256e+01,3.052871777146798707e-02
5.792000000000000171e+01,2.758265567309393929e-02
5.796000000000000085e+01,2.815576132245460605e-02
5.800000000000000000e+01,3.346174593393664437e-02
5.803999999999999915e+01,2.760098091437402507e-02
5.807999999999999829e+01,2.962874451155934202e-02
5.811999999999999744e+01,2.874299871329968892e-02
5.815999999999999659e+01,2.506511389520173216e-02
5.820000000000000284e+01,3.097495206806942861e-02
5.824000000000000199e+01,3.166522547751669803e-02
5.828000000000000114e+01,3.599603120938989903e-02
5.832000000000000028e+01,3.850566424108701341e-02
5.835999999999999943e+01,3.591710122756599372e-02
5.839999999999999858e+01,3.259970469524438308e-02
5.843999999999999773e+01,3.316557957915762522e-02
5.847999999999999687e+01,3.178890724377704535e-02
5.852000000000000313e+01,4.012132247405327673e-02
5.856000000000000227e+01,3.655875007430280099e-02
5.860000000000000142e+01,3.748630179752272806e-02
5.864000000000000057e+01,3.877735586850875049e-02
5.867999999999999972e+01,3.764037375945436525e-02
5.871999999999999886e+01,4.123625569588149770e-02
5.875999999999999801e+01,3.961256209575946680e-02
5.879999999999999716e+01,4.102253402339012256e-02
5.884000000000000341e+01,4.328148897251138383e-02
5.888000000000000256e+01,4.177732035068345423e-02
5.892000000000000171e+01,4.427778440497265322e-02
5.896000000000000085e+01,3.476188133790411583e-02
5.900000000000000000e+01,3.823207840840570776e-02
5.903999999999999915e+01,4.170165592672463173e-02
5.907999999999999829e+01,3.922342405302337714e-02
5.911999999999999744e+01,3.407440447493962493e-02
5.915999999999999659e+01,3.899857281620388444e-02
5.920000000000000284e+01,3.821767168795908026e-02
5.924000000000000199e+01,2.711959449776545766e-02
5.928000000000000114e+01,3.483342945105287469e-02
5.932000000000000028e+01,2.434095840490954274e-02
5.935999999999999943e+01,2.307207270444102190e-02
5.939999999999999858e+01,2.872071863907631195e-02
5.943999999999999773e+01,2.308121473378060146e-02
5.947999999999999687e+01,2.593706646219973849e-02
5.952000000000000313e+01,2.600075099490534863e-02
5.956000000000000227e+01,2.509283556782843441e-02
5.960000000000000142e+01,2.406291778242900317e-02
5.964000000000000057e+01,2.254688319707819077e-02
5.967999999999999972e+01,2.321489747786918342e-02
5.971999999999999886e+01,1.575040742984465045e-02
5.975999999999999801e+01,2.467039549469693741e-02
5.979999999999999716e+01,2.133125662682728088e-02
5.984000000000000341e+01,2.624472352573475192e-02
5.988000000000000256e+01,2.241882675947347997e-02
5.992000000000000171e+01,2.320439797331843787e-02
5.996000000000000085e+01,1.731391433784118528e-02
