2.003999999999999915e+01,3.286794542846541156e-02
2.007999999999999829e+01,3.944799250839164245e-02
2.012000000000000099e+01,2.859584786166491713e-02
2.016000000000000014e+01,3.157060412654145304e-02
2.019999999999999929e+01,2.808390494636298432e-02
2.023999999999999844e+01,3.203702850191729457e-02
2.028000000000000114e+01,2.569644827011173527e-02
2.032000000000000028e+01,2.416571529458962780e-02
2.035999999999999943e+01,3.277991360829501238e-02
2.039999999999999858e+01,2.779415237385842591e-02
2.044000000000000128e+01,3.332902910633833010e-02
2.048000000000000043e+01,2.443738010550999817e-02
2.051999999999999957e+01,3.065003076928076928e-02
2.055999999999999872e+01,3.107748830956274730e-02
2.060000000000000142e+01,2.955199568073070895e-02
2.064000000000000057e+01,3.223519950894147834e-02
2.067999999999999972e+01,3.041061974251741545e-02
2.071999999999999886e+01,2.730936290440543965e-02
2.076000000000000156e+01,2.954392794433333830e-02
2.080000000000000071e+01,3.020124410490637387e-02
2.083999999999999986e+01,2.890559932050559833e-02
2.087999999999999901e+01,2.498071330979820953e-02
2.092000000000000171e+01,2.624135788536725508e-02
2.096000000000000085e+01,3.223667892766537979e-02
2.100000000000000000e+01,3.101908806609113972e-02
2.103999999999999915e+01,2.551912360787774933e-02
2.107999999999999829e+01,2.723351800810263137e-02
2.112000000000000099e+01,3.623741152471771781e-02
2.116000000000000014e+01,2.427739008464601528e-02
2.119999999999999929e+01,3.583754781755821295e-02
2.123999999999999844e+01,2.711006548718652986e-02
2.128000000000000114e+01,1.680531272574046359e-02
2.132000000000000028e+01,3.062187018077597994e-02
2.135999999999999943e+01,2.670561201816539290e-02
2.139999999999999858e+01,3.000369834618010073e-02
2.144000000000000128e+01,3.210021732885617179e-02
2.148000000000000043e+01,3.104147376807715047e-02
2.151999999999999957e+01,2.750374435322238895e-02
2.155999999999999872e+01,2.471813560723907371e-02
2.160000000000000142e+01,1.802583839058618728e-02
2.164000000000000057e+01,2.433381304119010616e-02
2.167999999999999972e+01,2.545768071238735733e-02
2.171999999999999886e+01,2.350141711819817361e-02
2.176000000000000156e+01,2.447638477692257869e-02
2.180000000000000071e+01,2.733059313758551614e-02
2.183999999999999986e+01,1.478136800066500757e-02
2.187999999999999901e+01,1.485669368549933159e-02
2.192000000000000171e+01,2.312318721433272509e-02
2.196000000000000085e+01,2.515357243692466563e-02
2.200000000000000000e+01,1.831787566980255452e-02
2.203999999999999915e+01,2.012419368232046604e-02
2.207999999999999829e+01,1.704695497137934113e-02
2.212000000000000099e+01,2.005689761455732925e-02
2.216000000000000014e+01,1.713129118732463138e-02
2.219999999999999929e+01,2.480138575796537667e-02
2.223999999999999844e+01,1.812001762625477935e-02
2.228000000000000114e+01,1.797667598832764987e-02
2.232000000000000028e+01,1.753343214071766479e-02
2.235999999999999943e+01,1.994625055244335712e-02
2.239999999999999858e+01,2.003032770646459917e-02
2.244000000000000128e+01,2.529986719965057404e-02
2.248000000000000043e+01,2.298071806818669655e-02
2.251999999999999957e+01,2.216506704143982390e-02
2.255999999999999872e+01,1.774325265629814879e-02
2.260000000000000142e+01,2.143743352962457563e-02
2.264000000000000057e+01,2.137516334474601556e-02
2.267999999999999972e+01,1.966041781568270141e-02
2.271999999999999886e+01,2.207913329894933829e-02
2.276000000000000156e+01,1.886284098786966332e-02
2.280000000000000071e+01,1.654889777824294569e-02
2.283999999999999986e+01,2.385378012979370507e-02
2.287999999999999901e+01,2.146597838693158414e-02
2.292000000000000171e+01,1.855282133295182642e-02
2.296000000000000085e+01,1.879626781437225211e-02
2.300000000000000000e+01,1.881492360843566025e-02
2.303999999999999915e+01,2.619813436593968273e-02
2.307999999999999829e+01,3.035086868699504031e-02
2.312000000000000099e+01,3.022113602062681190e-02
2.316000000000000014e+01,2.881461672799656010e-02
2.319999999999999929e+01,3.011383787133606674e-02
2.323999999999999844e+01,4.058101429251598224e-02
2.328000000000000114e+01,3.564469256095394167e-02
2.332000000000000028e+01,5.550586973239848149e-02
2.335999999999999943e+01,7.589366059198085490e-02
2.339999999999999858e+01,1.061256780308533210e-01
2.344000000000000128e+01,1.347803280559136674e-01
2.348000000000000043e+01,1.296968097898051342e-01
2.351999999999999957e+01,1.135680217229455002e-01
2.355999999999999872e+01,9.000078064792409183e-02
2.360000000000000142e+01,6.560758551446863041e-02
2.364000000000000057e+01,4.880434456658973991e-02
2.367999999999999972e+01,3.635994768938709265e-02
2.371999999999999886e+01,4.074797403900814324e-02
2.376000000000000156e+01,2.574995182595951615e-02
2.380000000000000071e+01,2.480409325242833446e-02
2.383999999999999986e+01,2.513624735460017606e-02
2.387999999999999901e+01,2.065990596829324691e-02
2.392000000000000171e+01,2.309722771037042016e-02
2.396000000000000085e+01,2.666227263236380443e-02
2.400000000000000000e+01,2.158657192759723398e-02
2.403999999999999915e+01,1.778887491865052337e-02
2.407999999999999829e+01,1.654659472633078499e-02
2.412000000000000099e+01,2.627563959464884399e-02
2.416000000000000014e+01,1.594233945517477616e-02
2.419999999999999929e+01,2.552226520187163630e-02
2.423999999999999844e+01,1.797038245203306031e-02
2.428000000000000114e+01,2.236666427999562182e-02
2.432000000000000028e+01,2.000073746159666127e-02
2.435999999999999943e+01,2.499930633940967636e-02
2.439999999999999858e+01,2.113168546891109473e-02
2.444000000000000128e+01,3.124105744837555113e-02
2.448000000000000043e+01,3.691761726935412213e-02
2.451999999999999957e+01,4.823039836228369681e-02
2.455999999999999872e+01,4.504132847836082171e-02
2.460000000000000142e+01,5.567896015263755494e-02
2.464000000000000057e+01,5.076274850311012637e-02
2.467999999999999972e+01,6.080036562875600070e-02
2.471999999999999886e+01,4.904734536258246319e-02
2.476000000000000156e+01,4.465880283285464381e-02
2.480000000000000071e+01,4.109737755182004543e-02
2.483999999999999986e+01,4.625298338599017484e-02
2.487999999999999901e+01,3.360047350264269012e-02
2.492000000000000171e+01,3.004070141218896650e-02
2.496000000000000085e+01,2.730803938652199420e-02
2.500000000000000000e+01,2.412507071288136698e-02
2.503999999999999915e+01,2.049179359529042579e-02
2.507999999999999829e+01,1.971445661062470184e-02
2.512000000000000099e+01,1.923822812934001050e-02
2.516000000000000014e+01,1.320202614904004111e-02
2.519999999999999929e+01,1.573255501229822717e-02
2.523999999999999844e+01,1.330424321601548013e-02
2.528000000000000114e+01,2.327490342168907558e-02
2.532000000000000028e+01,1.491143377660295727e-02
2.535999999999999943e+01,2.195261469865815093e-02
2.539999999999999858e+01,1.148622477121349385e-02
2.544000000000000128e+01,9.962265181109515935e-03
2.548000000000000043e+01,1.189536419559219030e-02
2.551999999999999957e+01,8.719325870840715503e-03
2.555999999999999872e+01,1.486142276514232190e-02
2.560000000000000142e+01,1.311412273290358393e-02
2.564000000000000057e+01,1.685270957741330511e-02
2.567999999999999972e+01,1.119905482486026338e-02
2.571999999999999886e+01,1.050528897960324552e-02
2.576000000000000156e+01,8.684903877460558100e-03
2.580000000000000071e+01,1.392838160065750300e-02
2.583999999999999986e+01,1.158301983716817675e-02
2.587999999999999901e+01,1.224384639492847281e-02
2.592000000000000171e+01,1.628656974760408008e-02
2.596000000000000085e+01,9.133629637097550810e-03
2.600000000000000000e+01,2.166840843202845132e-02
2.603999999999999915e+01,7.227688846847736374e-03
2.607999999999999829e+01,7.590451069801462149e-03
2.612000000000000099e+01,1.419049915706879425e-02
2.616000000000000014e+01,1.132314204162536767e-02
2.619999999999999929e+01,7.855140291052562299e-03
2.623999999999999844e+01,1.235268625721802800e-02
2.628000000000000114e+01,1.346932800094795615e-02
2.632000000000000028e+01,1.173105810376493321e-02
2.635999999999999943e+01,1.179668211325675398e-02
2.639999999999999858e+01,8.255970350597774399e-03
2.644000000000000128e+01,1.222994500122316815e-02
2.648000000000000043e+01,1.094445510131848015e-02
2.651999999999999957e+01,9.584300575970618880e-03
2.655999999999999872e+01,1.160601410991211370e-02
2.660000000000000142e+01,6.639990465039036921e-03
2.664000000000000057e+01,1.407287775891700489e-02
2.667999999999999972e+01,8.055807644179830904e-03
2.671999999999999886e+01,1.060540012588907961e-02
2.676000000000000156e+01,5.190401543807300275e-03
2.680000000000000071e+01,1.540541503549380277e-02
2.683999999999999986e+01,1.081790696394632940e-02
2.687999999999999901e+01,4.577734970668533368e-03
2.692000000000000171e+01,1.329129117787292320e-02
2.696000000000000085e+01,4.797774708202899412e-03
2.700000000000000000e+01,1.463937527384248302e-02
2.703999999999999915e+01,1.741807685099615310e-02
2.707999999999999829e+01,2.282720260045850713e-02
2.712000000000000099e+01,2.748535829947217762e-02
2.716000000000000014e+01,2.620774043099697095e-02
2.719999999999999929e+01,2.951423474904042721e-02
2.723999999999999844e+01,2.478097439764495938e-02
2.728000000000000114e+01,1.839503216475287320e-02
2.732000000000000028e+01,1.644291262259260644e-02
2.735999999999999943e+01,8.855578748774158362e-03
2.739999999999999858e+01,8.933172292658088376e-03
2.744000000000000128e+01,2.125935674790353433e-02
2.748000000000000043e+01,1.006651264858804233e-02
2.751999999999999957e+01,1.322623337867764350e-02
2.755999999999999872e+01,4.814508536877835920e-03
2.760000000000000142e+01,1.894582881073182679e-02
2.764000000000000057e+01,1.917629624896097923e-02
2.767999999999999972e+01,9.638722021653740174e-03
2.771999999999999886e+01,2.226847725242823983e-02
2.776000000000000156e+01,1.385887913644438980e-02
2.780000000000000071e+01,1.769785576803252145e-02
2.783999999999999986e+01,1.650273294767065635e-02
2.787999999999999901e+01,1.508260033080352502e-02
2.792000000000000171e+01,2.576075296572159432e-02
2.796000000000000085e+01,1.975778240184877105e-02
2.800000000000000000e+01,2.720565046852016153e-02
2.803999999999999915e+01,2.511088686765093614e-02
2.807999999999999829e+01,3.706809473680033884e-02
2.812000000000000099e+01,4.669630452358781297e-02
2.816000000000000014e+01,5.234238924561075007e-02
2.819999999999999929e+01,6.535279725008966145e-02
2.823999999999999844e+01,7.377994016642303032e-02
2.828000000000000114e+01,9.490648860217967830e-02
2.832000000000000028e+01,1.132531776521205485e-01
2.835999999999999943e+01,1.387387566388255389e-01
2.839999999999999858e+01,1.697100985798918882e-01
2.844000000000000128e+01,1.864799835500869918e-01
2.848000000000000043e+01,2.000942916809175243e-01
2.851999999999999957e+01,2.008596962196358138e-01
2.855999999999999872e+01,1.893021897477644988e-01
2.860000000000000142e+01,1.617398098268323925e-01
2.864000000000000057e+01,1.351546588486943756e-01
2.867999999999999972e+01,1.095467350173739834e-01
2.871999999999999886e+01,9.280595219938252149e-02
2.876000000000000156e+01,8.064921152482139310e-02
2.880000000000000071e+01,6.909398233950557466e-02
2.883999999999999986e+01,5.611142739139011321e-02
2.887999999999999901e+01,5.019259697841416124e-02
2.892000000000000171e+01,4.194473256354385587e-02
2.896000000000000085e+01,4.263914044007124926e-02
2.900000000000000000e+01,3.596999310954433066e-02
2.903999999999999915e+01,3.734140983132035879e-02
2.907999999999999829e+01,2.082938020410466176e-02
2.912000000000000099e+01,1.754271275830229099e-02
2.916000000000000014e+01,2.109433111401771629e-02
2.919999999999999929e+01,1.615525447386883043e-02
2.923999999999999844e+01,1.249394805257850356e-02
2.928000000000000114e+01,8.081574598101803550e-03
2.932000000000000028e+01,7.727223765883424467e-03
2.935999999999999943e+01,7.222938739953083109e-03
2.939999999999999858e+01,3.938745836838078440e-03
2.944000000000000128e+01,4.111433736623848131e-03
2.948000000000000043e+01,3.019373044164550489e-04
2.951999999999999957e+01,2.579289970652577212e-03
2.955999999999999872e+01,9.741217076500257449e-03
2.960000000000000142e+01,9.088709712073591435e-03
2.964000000000000057e+01,2.951169753177976165e-03
2.967999999999999972e+01,8.761551915239137317e-03
2.971999999999999886e+01,5.254653140526826041e-03
2.976000000000000156e+01,8.135160904112153854e-03
2.980000000000000071e+01,8.386026938603553804e-03
2.983999999999999986e+01,3.377277560528307507e-03
2.987999999999999901e+01,7.235617112459897041e-03
2.992000000000000171e+01,3.730360149874843712e-03
2.996000000000000085e+01,0.000000000000000000e+00
3.000000000000000000e+01,3.276319407807772770e-04
3.003999999999999915e+01,6.516663470523644149e-03
3.007999999999999829e+01,2.712119414347269851e-03
3.012000000000000099e+01,8.676358159459504962e-03
3.016000000000000014e+01,6.901279344553004798e-03
3.019999999999999929e+01,4.675660404711574902e-03
3.023999999999999844e+01,3.502340622527765936e-03
3.028000000000000114e+01,6.462142413091709857e-03
3.032000000000000028e+01,8.520546367220094980e-03
3.035999999999999943e+01,3.290476105017380287e-03
3.039999999999999858e+01,9.782869474406784283e-03
3.044000000000000128e+01,8.986785035511868358e-03
3.048000000000000043e+01,7.740147899845637412e-03
3.051999999999999957e+01,7.170087080358327099e-03
3.055999999999999872e+01,8.028021320357960414e-03
3.060000000000000142e+01,8.886249799227113888e-03
3.064000000000000057e+01,9.293918397418495653e-03
3.067999999999999972e+01,8.950457103241547460e-03
3.071999999999999886e+01,2.971630615370008267e-03
3.076000000000000156e+01,1.059380294351239434e-02
3.080000000000000071e+01,7.170378603157967837e-03
3.083999999999999986e+01,9.758602040089919133e-03
3.087999999999999901e+01,1.084426606548596211e-02
3.092000000000000171e+01,1.493589211907687259e-02
3.096000000000000085e+01,1.827637570846313633e-02
3.100000000000000000e+01,1.380236196839307664e-02
3.103999999999999915e+01,8.502060118236717812e-03
3.107999999999999829e+01,1.522475958378366294e-02
3.112000000000000099e+01,1.067642185123538444e-02
3.116000000000000014e+01,1.183914931244667290e-02
3.119999999999999929e+01,1.232586558752209009e-02
3.123999999999999844e+01,1.679537622404934580e-02
3.128000000000000114e+01,1.810918430284824687e-02
3.132000000000000028e+01,1.919782813115214828e-02
3.135999999999999943e+01,1.743133402548834032e-02
3.139999999999999858e+01,2.881495767664174132e-02
3.144000000000000128e+01,2.877724565402994122e-02
3.148000000000000043e+01,4.016138055592761297e-02
3.151999999999999957e+01,3.260997079926102049e-02
3.155999999999999872e+01,3.805838750764826278e-02
3.160000000000000142e+01,4.786529268334002718e-02
3.164000000000000057e+01,4.692713169073956664e-02
3.167999999999999972e+01,5.891364972133458083e-02
3.171999999999999886e+01,6.398734274203553285e-02
3.176000000000000156e+01,7.003812461935388090e-02
3.180000000000000071e+01,8.427963073444498521e-02
3.183999999999999986e+01,8.747549348564695459e-02
3.187999999999999901e+01,9.007045657303879016e-02
3.192000000000000171e+01,8.755599496493646217e-02
3.196000000000000085e+01,8.466605626285610142e-02
3.200000000000000000e+01,7.606555284190066879e-02
3.203999999999999915e+01,7.204894429429219149e-02
3.207999999999999829e+01,6.322347208299693155e-02
3.211999999999999744e+01,5.995873785416531987e-02
3.215999999999999659e+01,5.406425593361886828e-02
3.220000000000000284e+01,5.155138883965759006e-02
3.224000000000000199e+01,4.392908268238916031e-02
3.228000000000000114e+01,4.457262126510236344e-02
3.232000000000000028e+01,3.319364823113701152e-02
3.235999999999999943e+01,2.775111267341785759e-02
3.239999999999999858e+01,2.253421669740555272e-02
3.243999999999999773e+01,2.543287416961153430e-02
3.247999999999999687e+01,3.171313389656630483e-02
3.252000000000000313e+01,2.499402632588944989e-02
3.256000000000000227e+01,1.992825017765354964e-02
3.260000000000000142e+01,2.282773618587253389e-02
3.264000000000000057e+01,1.926520820030584377e-02
3.267999999999999972e+01,2.021140429853165651e-02
3.271999999999999886e+01,1.386902021780551421e-02
3.275999999999999801e+01,1.511618083998543006e-02
3.279999999999999716e+01,1.613811076053514940e-02
3.284000000000000341e+01,1.167486440848603153e-02
3.288000000000000256e+01,1.254689575355934748e-02
3.292000000000000171e+01,1.003772474407739826e-02
3.296000000000000085e+01,9.482435412984008966e-03
3.300000000000000000e+01,1.388670812144091223e-02
3.303999999999999915e+01,1.566119362669724999e-02
3.307999999999999829e+01,1.270191262277953897e-02
3.311999999999999744e+01,2.153465264429724885e-03
3.315999999999999659e+01,1.189355176312918705e-02
3.320000000000000284e+01,1.674958225686781765e-02
3.324000000000000199e+01,8.756497233252402007e-03
3.328000000000000114e+01,1.218517831519829071e-02
3.332000000000000028e+01,9.076672817827424744e-03
3.335999999999999943e+01,1.122828141193104624e-02
3.339999999999999858e+01,9.322387614403754991e-03
3.343999999999999773e+01,1.245117815461234748e-02
3.347999999999999687e+01,9.869337524810662537e-03
3.352000000000000313e+01,1.795783168542597341e-02
3.356000000000000227e+01,1.124350255873438412e-02
3.360000000000000142e+01,1.482379436086420608e-02
3.364000000000000057e+01,1.630026639764326976e-02
3.367999999999999972e+01,1.980572983916014870e-02
3.371999999999999886e+01,2.030566527623152082e-02
3.375999999999999801e+01,2.027975869251988014e-02
3.379999999999999716e+01,1.957772418419165272e-02
3.384000000000000341e+01,2.458663453918921021e-02
3.388000000000000256e+01,2.659000970583473566e-02
3.392000000000000171e+01,3.017151317778755601e-02
3.396000000000000085e+01,2.834293214372446412e-02
3.400000000000000000e+01,3.350270370586443114e-02
3.403999999999999915e+01,3.235068252289370616e-02
3.407999999999999829e+01,3.142422549061153758e-02
3.411999999999999744e+01,4.642802008408906250e-02
3.415999999999999659e+01,3.873904878812218372e-02
3.420000000000000284e+01,4.314808077561037986e-02
3.424000000000000199e+01,5.131434626451814723e-02
3.428000000000000114e+01,4.715744391817885961e-02
3.432000000000000028e+01,4.307581083881147771e-02
3.435999999999999943e+01,5.620183352612776601e-02
3.439999999999999858e+01,5.490070548027035230e-02
3.443999999999999773e+01,5.848393276487622722e-02
3.447999999999999687e+01,6.003844462255067405e-02
3.452000000000000313e+01,5.257602824197048219e-02
3.456000000000000227e+01,4.902111510285377116e-02
3.460000000000000142e+01,5.485907334600140239e-02
3.464000000000000057e+01,5.551234271331587783e-02
3.467999999999999972e+01,5.691714366916868911e-02
3.471999999999999886e+01,5.125870080902368564e-02
3.475999999999999801e+01,4.965803631831594567e-02
3.479999999999999716e+01,4.798233543500370762e-02
3.484000000000000341e+01,4.758415333382255696e-02
3.488000000000000256e+01,4.177584541916310595e-02
3.492000000000000171e+01,4.551067862681188597e-02
3.496000000000000085e+01,4.293367778188764833e-02
3.500000000000000000e+01,3.885393253983504547e-02
3.503999999999999915e+01,3.657769147752958777e-02
3.507999999999999829e+01,2.648676989615210420e-02
3.511999999999999744e+01,3.307747558040319974e-02
3.515999999999999659e+01,2.576699078542389262e-02
3.520000000000000284e+01,2.634650935449037515e-02
3.524000000000000199e+01,3.383918279055604661e-02
3.528000000000000114e+01,2.788151268303214192e-02
3.532000000000000028e+01,2.921270412019649765e-02
3.535999999999999943e+01,2.558460051573379496e-02
3.539999999999999858e+01,2.541311011365474451e-02
3.543999999999999773e+01,3.283104408404786262e-02
3.547999999999999687e+01,2.762518812418137890e-02
3.552000000000000313e+01,2.858105392019310090e-02
3.556000000000000227e+01,3.149068465611282175e-02
3.560000000000000142e+01,3.455066924168086889e-02
3.564000000000000057e+01,3.362819291485543566e-02
3.567999999999999972e+01,3.646288543429111739e-02
3.571999999999999886e+01,3.802022739080458680e-02
3.575999999999999801e+01,5.145007642589932012e-02
3.579999999999999716e+01,5.278211554042065018e-02
3.584000000000000341e+01,5.163452584123453398e-02
3.588000000000000256e+01,6.175830140127218371e-02
3.592000000000000171e+01,6.271480175601638896e-02
3.596000000000000085e+01,7.328953859160503015e-02
3.600000000000000000e+01,8.033265067458132680e-02
3.603999999999999915e+01,8.715038658182078235e-02
3.607999999999999829e+01,1.006558134787649689e-01
3.611999999999999744e+01,1.061210869994594769e-01
3.615999999999999659e+01,1.196266048886176353e-01
3.620000000000000284e+01,1.292999208295665114e-01
3.624000000000000199e+01,1.283031061188397437e-01
3.628000000000000114e+01,1.281328932115148866e-01
3.632000000000000028e+01,1.247316093994784714e-01
3.635999999999999943e+01,1.341045103735154786e-01
3.639999999999999858e+01,1.303275857323312747e-01
3.643999999999999773e+01,1.196376241560112297e-01
3.647999999999999687e+01,1.147336309624881479e-01
3.652000000000000313e+01,1.120087857672193848e-01
3.656000000000000227e+01,1.062782850531647783e-01
3.660000000000000142e+01,9.476187102899466530e-02
3.664000000000000057e+01,8.625116220836206993e-02
3.667999999999999972e+01,8.322584457492948617e-02
3.671999999999999886e+01,8.335651266093802025e-02
3.675999999999999801e+01,7.522157247328553620e-02
3.679999999999999716e+01,6.776292663348180978e-02
3.684000000000000341e+01,6.210770415447717380e-02
3.688000000000000256e+01,5.525022108315664343e-02
3.692000000000000171e+01,5.057186805032418131e-02
3.696000000000000085e+01,5.573713276070590972e-02
3.700000000000000000e+01,5.060794296549841337e-02
3.703999999999999915e+01,4.209736583014328515e-02
3.707999999999999829e+01,4.335525899614398049e-02
3.711999999999999744e+01,4.168261355361452952e-02
3.715999999999999659e+01,3.647829127515055808e-02
3.720000000000000284e+01,3.119882484548458512e-02
3.724000000000000199e+01,3.125444035148893657e-02
3.728000000000000114e+01,2.695181104041589892e-02
3.732000000000000028e+01,2.715769747984691021e-02
3.735999999999999943e+01,2.954269420202314603e-02
3.739999999999999858e+01,2.411290623848300757e-02
3.743999999999999773e+01,2.191421372073329085e-02
3.747999999999999687e+01,1.933979626423131329e-02
3.752000000000000313e+01,2.217559022549175918e-02
3.756000000000000227e+01,2.395937717069061140e-02
3.760000000000000142e+01,2.281260395563975904e-02
3.764000000000000057e+01,2.121495656400170654e-02
3.767999999999999972e+01,2.622978626907490965e-02
3.771999999999999886e+01,2.838919247989701161e-02
3.775999999999999801e+01,2.844459393977595563e-02
3.779999999999999716e+01,2.391630107309603709e-02
3.784000000000000341e+01,2.224337542279792440e-02
3.788000000000000256e+01,1.606189390791614921e-02
3.792000000000000171e+01,2.085111784173642249e-02
3.796000000000000085e+01,2.225891312794664109e-02
3.800000000000000000e+01,2.810005157912982485e-02
3.803999999999999915e+01,2.094157488790707525e-02
3.807999999999999829e+01,2.174811430434154744e-02
3.811999999999999744e+01,2.548515041924992452e-02
3.815999999999999659e+01,3.019898803451570232e-02
3.820000000000000284e+01,3.468735249130690951e-02
3.824000000000000199e+01,4.729100997970576287e-02
3.828000000000000114e+01,5.215498532483101718e-02
3.832000000000000028e+01,6.137714741318774786e-02
3.835999999999999943e+01,6.631615824702663531e-02
3.839999999999999858e+01,6.945170381001025683e-02
3.843999999999999773e+01,7.213633927687417013e-02
3.847999999999999687e+01,7.331807409664332920e-02
3.852000000000000313e+01,6.540755902656693321e-02
3.856000000000000227e+01,6.230607224743298089e-02
3.860000000000000142e+01,5.507170754577838528e-02
3.864000000000000057e+01,4.941525922418935762e-02
3.867999999999999972e+01,4.901868612918369728e-02
3.871999999999999886e+01,4.734462777300890712e-02
3.875999999999999801e+01,4.296538333504770074e-02
3.879999999999999716e+01,4.159174711788623385e-02
3.884000000000000341e+01,3.270382977556375581e-02
3.888000000000000256e+01,3.426058040100515151e-02
3.892000000000000171e+01,3.566696759432116948e-02
3.896000000000000085e+01,2.347256190634119943e-02
3.900000000000000000e+01,2.765904105854341544e-02
3.903999999999999915e+01,2.538321886069989583e-02
3.907999999999999829e+01,2.641356052753359579e-02
3.911999999999999744e+01,3.180205301806627444e-02
3.915999999999999659e+01,2.975139206955343049e-02
3.920000000000000284e+01,3.521484461778155717e-02
3.924000000000000199e+01,2.407180955573900299e-02
3.928000000000000114e+01,3.592214750774654769e-02
3.932000000000000028e+01,3.762821089537755209e-02
3.935999999999999943e+01,2.956570819229767388e-02
3.939999999999999858e+01,3.067043519250174655e-02
3.943999999999999773e+01,3.425474730038035459e-02
3.947999999999999687e+01,3.663668207746246380e-02
3.952000000000000313e+01,3.067774260456787236e-02
3.956000000000000227e+01,3.170690608712545960e-02
3.960000000000000142e+01,3.559135776309334948e-02
3.964000000000000057e+01,3.601916330650448833e-02
3.967999999999999972e+01,3.877625907387351190e-02
3.971999999999999886e+01,3.529644912137955975e-02
3.975999999999999801e+01,4.819748988551187524e-02
3.979999999999999716e+01,4.524343843498536410e-02
3.984000000000000341e+01,5.491313141270897508e-02
3.988000000000000256e+01,5.391253030488409037e-02
3.992000000000000171e+01,5.516606659122887807e-02
3.996000000000000085e+01,6.701450646182555149e-02
4.000000000000000000e+01,7.593227841357501340e-02
4.003999999999999915e+01,7.989054519443235247e-02
4.007999999999999829e+01,9.158831212233026209e-02
4.011999999999999744e+01,1.161352370684272939e-01
4.015999999999999659e+01,1.358729355635591995e-01
4.020000000000000284e+01,1.599687363910212157e-01
4.024000000000000199e+01,1.854169555976984407e-01
4.028000000000000114e+01,2.209340696433152729e-01
4.032000000000000028e+01,2.626126899276153837e-01
4.035999999999999943e+01,3.131579285960465753e-01
4.039999999999999858e+01,3.954129682468834894e-01
4.043999999999999773e+01,5.127591995109300749e-01
4.047999999999999687e+01,6.299549972997631198e-01
4.052000000000000313e+01,7.409138534492004657e-01
4.056000000000000227e+01,8.705829280675140280e-01
4.060000000000000142e+01,9.657616451773782806e-01
4.064000000000000057e+01,1.000000000000000000e+00
4.067999999999999972e+01,9.840433044511716076e-01
4.071999999999999886e+01,9.289374386624003055e-01
4.075999999999999801e+01,8.297230252784307813e-01
4.079999999999999716e+01,7.283293285953660323e-01
4.084000000000000341e+01,6.193461189343806295e-01
4.088000000000000256e+01,5.213334818198270826e-01
4.092000000000000171e+01,4.529266448299861803e-01
4.096000000000000085e+01,4.106690716881725156e-01
4.100000000000000000e+01,3.997455623194727803e-01
4.103999999999999915e+01,4.214335298446943989e-01
4.107999999999999829e+01,4.770855294385726864e-01
4.111999999999999744e+01,5.594879221279992487e-01
4.115999999999999659e+01,6.431675498352502629e-01
4.120000000000000284e+01,7.097146075518768749e-01
4.124000000000000199e+01,7.312513914744440680e-01
4.128000000000000114e+01,6.604384058320470485e-01
4.132000000000000028e+01,5.577650022411180242e-01
4.135999999999999943e+01,4.481783408099283550e-01
4.139999999999999858e+01,3.477588192831911895e-01
4.143999999999999773e+01,2.625178001792068394e-01
4.147999999999999687e+01,2.029751692519826123e-01
4.152000000000000313e+01,1.665009528180459442e-01
4.156000000000000227e+01,1.365638972171594190e-01
4.160000000000000142e+01,1.083549092019251148e-01
4.164000000000000057e+01,9.104131755563830974e-02
4.167999999999999972e+01,7.199925542234134057e-02
4.171999999999999886e+01,6.152318239425641488e-02
4.175999999999999801e+01,5.638198835648317031e-02
4.179999999999999716e+01,4.748348298770159459e-02
4.184000000000000341e+01,5.271147332690803711e-02
4.188000000000000256e+01,4.388768735495411633e-02
4.192000000000000171e+01,4.032363113547694777e-02
4.196000000000000085e+01,4.096731411750146462e-02
4.200000000000000000e+01,4.055879073005899671e-02
4.203999999999999915e+01,3.872234890753062375e-02
4.207999999999999829e+01,4.124392500643099535e-02
4.211999999999999744e+01,4.459184069614594015e-02
4.215999999999999659e+01,3.982418976321234344e-02
4.220000000000000284e+01,5.121185383054552981e-02
4.224000000000000199e+01,3.787755376508769589e-02
4.228000000000000114e+01,4.595850888293544906e-02
4.232000000000000028e+01,4.569846403244276489e-02
4.235999999999999943e+01,3.965224725120063132e-02
4.239999999999999858e+01,3.555948829786356041e-02
4.243999999999999773e+01,3.755299834252014829e-02
4.247999999999999687e+01,2.880095550921914216e-02
4.252000000000000313e+01,3.094426953337985411e-02
4.256000000000000227e+01,2.662512416155187259e-02
4.260000000000000142e+01,2.268144450524818209e-02
4.264000000000000057e+01,2.091663806277525850e-02
4.267999999999999972e+01,2.396067492565239279e-02
4.271999999999999886e+01,2.760559827790937462e-02
4.275999999999999801e+01,2.133151877358546028e-02
4.279999999999999716e+01,2.249624907417778485e-02
4.284000000000000341e+01,2.230816707408018323e-02
4.288000000000000256e+01,2.888261280158947383e-02
4.292000000000000171e+01,2.185608784611688810e-02
4.296000000000000085e+01,2.046495621737109277e-02
4.300000000000000000e+01,2.237981244759323571e-02
4.303999999999999915e+01,1.978588113224707956e-02
4.307999999999999829e+01,2.207591721641323848e-02
4.311999999999999744e+01,2.105943502591315838e-02
4.315999999999999659e+01,1.786356357369707493e-02
4.320000000000000284e+01,2.067878494199034203e-02
4.324000000000000199e+01,1.597952762769382085e-02
4.328000000000000114e+01,1.849363240480871029e-02
4.332000000000000028e+01,1.822720430487344279e-02
4.335999999999999943e+01,1.856163395869200178e-02
4.339999999999999858e+01,1.521382249636567090e-02
4.343999999999999773e+01,1.344371189690987678e-02
4.347999999999999687e+01,1.648240868327166889e-02
4.352000000000000313e+01,1.230718243092118400e-02
4.356000000000000227e+01,1.466902721278959265e-02
4.360000000000000142e+01,1.545259940862679301e-02
4.364000000000000057e+01,1.638616446281071851e-02
4.367999999999999972e+01,1.318662350544260592e-02
4.371999999999999886e+01,1.442016888839007041e-02
4.375999999999999801e+01,1.400029244747138558e-02
4.379999999999999716e+01,1.057443541599766522e-02
4.384000000000000341e+01,1.774330775904318924e-02
4.388000000000000256e+01,1.469255874244847909e-02
4.392000000000000171e+01,7.884403208084287545e-03
4.396000000000000085e+01,1.505236408709007163e-02
4.400000000000000000e+01,1.079842535567039283e-02
4.403999999999999915e+01,1.450923513139083798e-02
4.407999999999999829e+01,1.949714881864196558e-02
4.411999999999999744e+01,1.193602669861090239e-02
4.415999999999999659e+01,1.722388120313983820e-02
4.420000000000000284e+01,1.657519705413763172e-02
4.424000000000000199e+01,1.532505828454817400e-02
4.428000000000000114e+01,1.783170222624540918e-02
4.432000000000000028e+01,1.906060947004604295e-02
4.435999999999999943e+01,1.675751660211967017e-02
4.439999999999999858e+01,1.888747954290626030e-02
4.443999999999999773e+01,1.816171726536872436e-02
4.447999999999999687e+01,2.352213239101694220e-02
4.452000000000000313e+01,1.806176098997127472e-02
4.456000000000000227e+01,2.041583064051266660e-02
4.460000000000000142e+01,2.427240701667398096e-02
4.464000000000000057e+01,2.001330541963602244e-02
4.467999999999999972e+01,2.086352554483073690e-02
4.471999999999999886e+01,1.728002474736734656e-02
4.475999999999999801e+01,1.647643840840120125e-02
4.479999999999999716e+01,1.807705446231335986e-02
4.484000000000000341e+01,1.592022269099369752e-02
4.488000000000000256e+01,1.128335621524930409e-02
4.492000000000000171e+01,1.573832954408613261e-02
4.496000000000000085e+01,1.621042349797586005e-02
4.500000000000000000e+01,1.615617076165093771e-02
4.503999999999999915e+01,1.595127980877698165e-02
4.507999999999999829e+01,2.100597672622642534e-02
4.511999999999999744e+01,1.561557044697483090e-02
4.515999999999999659e+01,1.345591299002498430e-02
4.520000000000000284e+01,1.926095195689311521e-02
4.524000000000000199e+01,1.732599628055485341e-02
4.528000000000000114e+01,1.411326080288095690e-02
4.532000000000000028e+01,2.014263127787895361e-02
4.535999999999999943e+01,1.880771199138298044e-02
4.539999999999999858e+01,1.228762071134168951e-02
4.543999999999999773e+01,1.170337962319025274e-02
4.547999999999999687e+01,1.397416271988525562e-02
4.552000000000000313e+01,1.864911588187935509e-02
4.556000000000000227e+01,1.550891797892558696e-02
4.560000000000000142e+01,1.830456308395516860e-02
4.564000000000000057e+01,1.666644595886427119e-02
4.567999999999999972e+01,1.623021885231061903e-02
4.571999999999999886e+01,2.203039758152430458e-02
4.575999999999999801e+01,2.362223485447296351e-02
4.579999999999999716e+01,2.356055870874761496e-02
4.584000000000000341e+01,2.169508324051466069e-02
4.588000000000000256e+01,2.291004015914729908e-02
4.592000000000000171e+01,2.322289881046061405e-02
4.596000000000000085e+01,2.083024810419494693e-02
4.600000000000000000e+01,1.828691607794130300e-02
4.603999999999999915e+01,1.536747477393765604e-02
4.607999999999999829e+01,1.770757644084176158e-02
4.611999999999999744e+01,1.876986059090107739e-02
4.615999999999999659e+01,1.862946748206747646e-02
4.620000000000000284e+01,1.871409434300506588e-02
4.624000000000000199e+01,1.834746089238108516e-02
4.628000000000000114e+01,1.715385506457657583e-02
4.632000000000000028e+01,1.423157041647345016e-02
4.635999999999999943e+01,1.942421421672309995e-02
4.639999999999999858e+01,1.717737950615805947e-02
4.643999999999999773e+01,1.740981560735816239e-02
4.647999999999999687e+01,1.260731533150099767e-02
4.652000000000000313e+01,1.667115685937466812e-02
4.656000000000000227e+01,1.863059852144768186e-02
4.660000000000000142e+01,1.863592262960034329e-02
4.664000000000000057e+01,2.014366186856506383e-02
4.667999999999999972e+01,1.285935305416648251e-02
4.671999999999999886e+01,1.496737144111482017e-02
4.675999999999999801e+01,1.707495849237619309e-02
4.679999999999999716e+01,1.587586203912182137e-02
4.684000000000000341e+01,1.753172870750867307e-02
4.688000000000000256e+01,1.708318114228183845e-02
4.692000000000000171e+01,1.911388283710066180e-02
4.696000000000000085e+01,1.573391633350040494e-02
4.700000000000000000e+01,2.001799721905616822e-02
4.703999999999999915e+01,1.701285496602817499e-02
4.707999999999999829e+01,1.949263694627765414e-02
4.711999999999999744e+01,2.347481250561969657e-02
4.715999999999999659e+01,2.572827152915400234e-02
4.720000000000000284e+01,2.129363666162570334e-02
4.724000000000000199e+01,2.294505527489604235e-02
4.728000000000000114e+01,2.557286590585325370e-02
4.732000000000000028e+01,2.534482200816933969e-02
4.735999999999999943e+01,2.646887680586134869e-02
4.739999999999999858e+01,2.954616493438028124e-02
4.743999999999999773e+01,2.991787725418516147e-02
4.747999999999999687e+01,3.276881369036291347e-02
4.752000000000000313e+01,2.848078954409433497e-02
4.756000000000000227e+01,3.553874828580346618e-02
4.760000000000000142e+01,3.245206069597466464e-02
4.764000000000000057e+01,3.011632279825771086e-02
4.767999999999999972e+01,3.582031202773646589e-02
4.771999999999999886e+01,3.874357082273630071e-02
4.775999999999999801e+01,3.858552917156675421e-02
4.779999999999999716e+01,3.977956646003023844e-02
4.784000000000000341e+01,4.119855008322329676e-02
4.788000000000000256e+01,4.321818851481149665e-02
4.792000000000000171e+01,4.598876406667522232e-02
4.796000000000000085e+01,4.627916662391411140e-02
4.800000000000000000e+01,4.491595698376458362e-02
4.803999999999999915e+01,4.543080988488756855e-02
4.807999999999999829e+01,4.549431985952418628e-02
4.811999999999999744e+01,4.525676921955476550e-02
4.815999999999999659e+01,5.005324199792320766e-02
4.820000000000000284e+01,3.921967156832689011e-02
4.824000000000000199e+01,3.943148527939184522e-02
4.828000000000000114e+01,3.453313974052293206e-02
4.832000000000000028e+01,3.602136740679759419e-02
4.835999999999999943e+01,3.044573882904525602e-02
4.839999999999999858e+01,3.238381067341011832e-02
4.843999999999999773e+01,3.056427305464687327e-02
4.847999999999999687e+01,2.694081757891880063e-02
4.852000000000000313e+01,2.579653952417136284e-02
4.856000000000000227e+01,2.562859601585880734e-02
4.860000000000000142e+01,2.831553660621591653e-02
4.864000000000000057e+01,2.814656340070329985e-02
4.867999999999999972e+01,2.617366335834274069e-02
4.871999999999999886e+01,2.908447748279034337e-02
4.875999999999999801e+01,2.402971275630318843e-02
4.879999999999999716e+01,2.739033513930848665e-02
4.884000000000000341e+01,2.413793205013803345e-02
4.888000000000000256e+01,3.178060025814587186e-02
4.892000000000000171e+01,2.056208461168602952e-02
4.896000000000000085e+01,1.828494326831138495e-02
4.900000000000000000e+01,2.171806611312157229e-02
4.903999999999999915e+01,1.665960315766140676e-02
4.907999999999999829e+01,1.956566241628657221e-02
4.911999999999999744e+01,2.119376945982011026e-02
4.915999999999999659e+01,1.823767211943328262e-02
4.920000000000000284e+01,2.226924490413190877e-02
4.924000000000000199e+01,1.818493317831938044e-02
4.928000000000000114e+01,1.785717966671539897e-02
4.932000000000000028e+01,1.888143684763269464e-02
4.935999999999999943e+01,1.832716282188479387e-02
4.939999999999999858e+01,1.769719687206423170e-02
4.943999999999999773e+01,1.781809979540738623e-02
4.947999999999999687e+01,1.553390353094241672e-02
4.952000000000000313e+01,1.497741924875790887e-02
4.956000000000000227e+01,2.118316276608388921e-02
4.960000000000000142e+01,1.822101685411065333e-02
4.964000000000000057e+01,2.232166336540850060e-02
4.967999999999999972e+01,1.605214399259856720e-02
4.971999999999999886e+01,1.947538533860248763e-02
4.975999999999999801e+01,1.853982152282200591e-02
4.979999999999999716e+01,2.316420186783695739e-02
4.984000000000000341e+01,1.907153433126367384e-02
4.988000000000000256e+01,2.857900713387758959e-02
4.992000000000000171e+01,2.809201354616623625e-02
4.996000000000000085e+01,2.775472905249482675e-02
5.000000000000000000e+01,3.327794795544956885e-02
5.003999999999999915e+01,3.331521831585664006e-02
5.007999999999999829e+01,4.492378457949941506e-02
5.011999999999999744e+01,5.360122854220886884e-02
5.015999999999999659e+01,5.243447944659020837e-02
5.020000000000000284e+01,6.141132184163668184e-02
5.024000000000000199e+01,6.369993385139705033e-02
5.028000000000000114e+01,6.771622371988196554e-02
5.032000000000000028e+01,6.797481971433740056e-02
5.035999999999999943e+01,5.989205474915076932e-02
5.039999999999999858e+01,6.082574148581925549e-02
5.043999999999999773e+01,5.266664313160786259e-02
5.047999999999999687e+01,4.398095203838416761e-02
5.052000000000000313e+01,4.032917840087744260e-02
5.056000000000000227e+01,4.020847934454190725e-02
5.060000000000000142e+01,3.520294303341363340e-02
5.064000000000000057e+01,3.102336377007879759e-02
5.067999999999999972e+01,3.067542191569910467e-02
5.071999999999999886e+01,2.506692714895450078e-02
5.075999999999999801e+01,2.238836155207029818e-02
5.079999999999999716e+01,2.481884289299514379e-02
5.084000000000000341e+01,2.657243122326116008e-02
5.088000000000000256e+01,2.246432302582809099e-02
5.092000000000000171e+01,2.121099476042046308e-02
5.096000000000000085e+01,2.093389328285020015e-02
5.100000000000000000e+01,2.268500555213907866e-02
5.103999999999999915e+01,1.662072070768248061e-02
5.107999999999999829e+01,1.491404968991398225e-02
5.111999999999999744e+01,1.846669534999844861e-02
5.115999999999999659e+01,2.089158130804033217e-02
5.120000000000000284e+01,1.565134707628715316e-02
5.124000000000000199e+01,1.754897548266850377e-02
5.128000000000000114e+01,1.591429307336673926e-02
5.132000000000000028e+01,1.533096334204117790e-02
5.135999999999999943e+01,1.887980870378195772e-02
5.139999999999999858e+01,1.296011560156154312e-02
5.143999999999999773e+01,1.229972480938110874e-02
5.147999999999999687e+01,1.562121961448023622e-02
5.152000000000000313e+01,1.503468255839418392e-02
5.156000000000000227e+01,1.504863508085384216e-02
5.160000000000000142e+01,1.393480814552802705e-02
5.164000000000000057e+01,1.447345595179306763e-02
5.167999999999999972e+01,1.673971875760079525e-02
5.171999999999999886e+01,1.772791260983628062e-02
5.175999999999999801e+01,1.262894426110154622e-02
5.179999999999999716e+01,1.474295546075709076e-02
5.184000000000000341e+01,1.865971652997727714e-02
5.188000000000000256e+01,1.461075866208592922e-02
5.192000000000000171e+01,1.274025734144826859e-02
5.196000000000000085e+01,1.011767066887781126e-02
5.200000000000000000e+01,1.493348072659984177e-02
5.203999999999999915e+01,1.689322433043901825e-02
5.207999999999999829e+01,1.471948476763489631e-02
5.211999999999999744e+01,1.600160768898511651e-02
5.215999999999999659e+01,1.848532968065933618e-02
5.220000000000000284e+01,1.413044917633588665e-02
5.224000000000000199e+01,1.646253408716061642e-02
5.228000000000000114e+01,1.864365570966721591e-02
5.232000000000000028e+01,1.616528901217155478e-02
5.235999999999999943e+01,1.639135348368592204e-02
5.239999999999999858e+01,1.383647739145624049e-02
5.243999999999999773e+01,1.225776163592879817e-02
5.247999999999999687e+01,1.338347166148149033e-02
5.252000000000000313e+01,1.969329345177682489e-02
5.256000000000000227e+01,1.555767799371888388e-02
5.260000000000000142e+01,1.487790346809579785e-02
5.264000000000000057e+01,1.577541673071948189e-02
5.267999999999999972e+01,1.321569837240662952e-02
5.271999999999999886e+01,1.538923047538252181e-02
5.275999999999999801e+01,1.403038531154018713e-02
5.279999999999999716e+01,1.454938896775194619e-02
5.284000000000000341e+01,1.491740419197280787e-02
5.288000000000000256e+01,1.145246854573172580e-02
5.292000000000000171e+01,1.354733697410931241e-02
5.296000000000000085e+01,1.714433676899220285e-02
5.300000000000000000e+01,1.224957296191887465e-02
5.303999999999999915e+01,1.216318730224975539e-02
5.307999999999999829e+01,1.500662664579677230e-02
5.311999999999999744e+01,7.630029759103163119e-03
5.315999999999999659e+01,1.317714745615736031e-02
5.320000000000000284e+01,1.263703829708285112e-02
5.324000000000000199e+01,1.472617874160416472e-02
5.328000000000000114e+01,1.155465133125655776e-02
5.332000000000000028e+01,1.544575111433052657e-02
5.335999999999999943e+01,1.227277015629935249e-02
5.339999999999999858e+01,1.323187269652665102e-02
5.343999999999999773e+01,1.351396548761446895e-02
5.347999999999999687e+01,1.341961494930001865e-02
5.352000000000000313e+01,1.362509777096281537e-02
5.356000000000000227e+01,1.089930383770250887e-02
5.360000000000000142e+01,1.373328344745826553e-02
5.364000000000000057e+01,1.032973233748551468e-02
5.367999999999999972e+01,1.203509885500482490e-02
5.371999999999999886e+01,1.742168217939885078e-02
5.375999999999999801e+01,1.792328636684676138e-02
5.379999999999999716e+01,1.263820497423042560e-02
5.384000000000000341e+01,1.291288634877038773e-02
5.388000000000000256e+01,1.701906145413547428e-02
5.392000000000000171e+01,1.263343165008195754e-02
5.396000000000000085e+01,1.335670690168412784e-02
5.400000000000000000e+01,9.570702510122699666e-03
5.403999999999999915e+01,1.006703698905065530e-02
5.407999999999999829e+01,1.424457211106371253e-02
5.411999999999999744e+01,1.391282220198331726e-02
5.415999999999999659e+01,1.463229745653872940e-02
5.420000000000000284e+01,1.339731392161500403e-02
5.424000000000000199e+01,1.148528471801931947e-02
5.428000000000000114e+01,1.490757236405167684e-02
5.432000000000000028e+01,1.036403151839836688e-02
5.435999999999999943e+01,1.483676457291430856e-02
5.439999999999999858e+01,1.652846726485495202e-02
5.443999999999999773e+01,1.333516028824684868e-02
5.447999999999999687e+01,1.750499663745202356e-02
5.452000000000000313e+01,1.400956373080226511e-02
5.456000000000000227e+01,1.517215661658804886e-02
5.460000000000000142e+01,1.190058497348933826e-02
5.464000000000000057e+01,1.118305802087608998e-02
5.467999999999999972e+01,1.707724487490842880e-02
5.471999999999999886e+01,1.432930679213275695e-02
5.475999999999999801e+01,1.488682855119725749e-02
5.479999999999999716e+01,1.018361420828107523e-02
5.484000000000000341e+01,1.201696443417553731e-02
5.488000000000000256e+01,1.640434857469571725e-02
5.492000000000000171e+01,1.583155944101918497e-02
5.496000000000000085e+01,1.135058399216772040e-02
5.500000000000000000e+01,1.355645003607731762e-02
5.503999999999999915e+01,1.561122886928164623e-02
5.507999999999999829e+01,1.300639546009658802e-02
5.511999999999999744e+01,1.536013091538816766e-02
5.515999999999999659e+01,1.515822804633394638e-02
5.520000000000000284e+01,1.578207748373792324e-02
5.524000000000000199e+01,1.122031311734679286e-02
5.528000000000000114e+01,1.176739453938271951e-02
5.532000000000000028e+01,1.276451261030468048e-02
5.535999999999999943e+01,1.518851223520598093e-02
5.539999999999999858e+01,1.693541410811318093e-02
5.543999999999999773e+01,1.627694919269512264e-02
5.547999999999999687e+01,1.471595677154433936e-02
5.552000000000000313e+01,1.871465168653159428e-02
5.556000000000000227e+01,1.256834287063254667e-02
5.560000000000000142e+01,1.709137746605343677e-02
5.564000000000000057e+01,1.883332602362365257e-02
5.567999999999999972e+01,1.809475496308040818e-02
5.571999999999999886e+01,1.938418572415453664e-02
5.575999999999999801e+01,1.511226906409517991e-02
5.579999999999999716e+01,1.677573743797977288e-02
5.584000000000000341e+01,2.129376483876492185e-02
5.588000000000000256e+01,1.889788245977445241e-02
5.592000000000000171e+01,1.905598730001745525e-02
5.596000000000000085e+01,1.470472449424223976e-02
5.600000000000000000e+01,2.049679276252151794e-02
5.603999999999999915e+01,1.877380763569102065e-02
5.607999999999999829e+01,2.118278567668510290e-02
5.611999999999999744e+01,2.103608228989437695e-02
5.615999999999999659e+01,2.381906561611966955e-02
5.620000000000000284e+01,2.337008543725079338e-02
5.624000000000000199e+01,2.427280524694704761e-02
5.628000000000000114e+01,2.397239341566425458e-02
5.632000000000000028e+01,2.863049656955932165e-02
5.635999999999999943e+01,2.930520849516914453e-02
5.639999999999999858e+01,3.238360198043601507e-02
5.643999999999999773e+01,3.455942485653117763e-02
5.647999999999999687e+01,3.665923792069102072e-02
5.652000000000000313e+01,4.063673277907883796e-02
5.656000000000000227e+01,4.115682180679746532e-02
5.660000000000000142e+01,4.971623745892439494e-02
5.664000000000000057e+01,4.662775981022695276e-02
5.667999999999999972e+01,4.752093428184781670e-02
5.671999999999999886e+01,4.863865638138748643e-02
5.675999999999999801e+01,4.366899178287877298e-02
5.679999999999999716e+01,4.523580375032607709e-02
5.684000000000000341e+01,4.387119169276703506e-02
5.688000000000000256e+01,4.648822277564317734e-02
5.692000000000000171e+01,4.159016095192376306e-02
5.696000000000000085e+01,3.819405089704717288e-02
5.700000000000000000e+01,3.547332822182371059e-02
5.703999999999999915e+01,3.380370139991905470e-02
5.707999999999999829e+01,3.220832193428663920e-02
5.711999999999999744e+01,3.444429072537272957e-02
5.715999999999999659e+01,2.563347929936601877e-02
5.720000000000000284e+01,2.403540496490514516e-02
5.724000000000000199e+01,2.649409966101828190e-02
5.728000000000000114e+01,2.436822538995613366e-02
5.732000000000000028e+01,2.584826423394399192e-02
5.735999999999999943e+01,2.732739580843923655e-02
5.739999999999999858e+01,2.339539043461627554e-02
5.743999999999999773e+01,1.615622382649530703e-02
5.747999999999999687e+01,2.056316291986285544e-02
5.752000000000000313e+01,2.008495405448151513e-02
5.756000000000000227e+01,1.953068688579599060e-02
5.760000000000000142e+01,1.672124005390437582e-02
5.764000000000000057e+01,1.902053304781893550e-02
5.767999999999999972e+01,2.131890440442787624e-02
5.771999999999999886e+01,1.865697676847635073e-02
5.775999999999999801e+01,1.847381168290509676e-02
5.779999999999999716e+01,1.738801492495685441e-02
5.784000000000000341e+01,1.652671550758188709e-02
5.788000000000000256e+01,1.611533779658892718e-02
5.792000000000000171e+01,1.480132302528911620e-02
5.796000000000000085e+01,2.130114765340697033e-02
5.800000000000000000e+01,1.870784775106277761e-02
5.803999999999999915e+01,1.881872398904784610e-02
5.807999999999999829e+01,2.238519511067014675e-02
5.811999999999999744e+01,2.309532678996254959e-02
5.815999999999999659e+01,1.674116221095478182e-02
5.820000000000000284e+01,2.007937760371638486e-02
5.824000000000000199e+01,1.808156038657909165e-02
5.828000000000000114e+01,2.517498311783026091e-02
5.832000000000000028e+01,2.152214176438030716e-02
5.835999999999999943e+01,3.041707124807461679e-02
5.839999999999999858e+01,3.074485261903984676e-02
5.843999999999999773e+01,3.182309876842819019e-02
5.847999999999999687e+01,3.568064335633137213e-02
5.852000000000000313e+01,4.614972933712412073e-02
5.856000000000000227e+01,5.301103558055952208e-02
5.860000000000000142e+01,5.250745759423807585e-02
5.864000000000000057e+01,5.914140999037550278e-02
5.867999999999999972e+01,6.261842958479647836e-02
5.871999999999999886e+01,6.955101532722865465e-02
5.875999999999999801e+01,8.076572801490847220e-02
5.879999999999999716e+01,7.349452351153648588e-02
5.884000000000000341e+01,7.967277294073075999e-02
5.888000000000000256e+01,8.652632533867682385e-02
5.892000000000000171e+01,8.398614368298464028e-02
5.896000000000000085e+01,8.091898854123562301e-02
5.900000000000000000e+01,8.476392145637050290e-02
5.903999999999999915e+01,8.176994476350485375e-02
5.907999999999999829e+01,7.869984152022327373e-02
5.911999999999999744e+01,6.728798399841874611e-02
5.915999999999999659e+01,6.947585014922437463e-02
5.920000000000000284e+01,5.851286697813248144e-02
5.924000000000000199e+01,5.438681903413631474e-02
5.928000000000000114e+01,5.311517566305092725e-02
5.932000000000000028e+01,4.290063260213180379e-02
5.935999999999999943e+01,4.320498002287293665e-02
5.939999999999999858e+01,4.080321463788910002e-02
5.943999999999999773e+01,3.178794784692385439e-02
5.947999999999999687e+01,3.907750430218025206e-02
5.952000000000000313e+01,4.163210710771345774e-02
5.956000000000000227e+01,4.426084591896812387e-02
5.960000000000000142e+01,4.846656001853680978e-02
5.964000000000000057e+01,5.019157669830612983e-02
5.967999999999999972e+01,4.485222887266354652e-02
5.971999999999999886e+01,4.086442478561971847e-02
5.975999999999999801e+01,3.807787853334110295e-02
5.979999999999999716e+01,4.070054333984474138e-02
5.984000000000000341e+01,3.535713180988846877e-02
5.988000000000000256e+01,3.166582505033824907e-02
5.992000000000000171e+01,2.609494473058001154e-02
5.996000000000000085e+01,2.074846656463390573e-02
