2.003999999999999915e+01,8.463368617264885319e-02
2.007999999999999829e+01,9.332946713309341058e-02
2.012000000000000099e+01,6.899182581852450480e-02
2.016000000000000014e+01,6.859581921285860806e-02
2.019999999999999929e+01,8.850474036589695004e-02
2.023999999999999844e+01,5.659058908189050496e-02
2.028000000000000114e+01,6.164959841016551950e-02
2.032000000000000028e+01,7.913400284325305956e-02
2.035999999999999943e+01,6.813086061147362316e-02
2.039999999999999858e+01,5.076346443662684005e-02
2.044000000000000128e+01,4.794287176183062438e-02
2.048000000000000043e+01,8.785355170229597332e-02
2.051999999999999957e+01,7.381973966895734318e-02
2.055999999999999872e+01,8.100002182596542644e-02
2.060000000000000142e+01,6.878451522331084644e-02
2.064000000000000057e+01,8.960239454985099994e-02
2.067999999999999972e+01,5.314213042960250905e-02
2.071999999999999886e+01,8.759760246906603265e-02
2.076000000000000156e+01,8.417069329235356279e-02
2.080000000000000071e+01,8.286516598182867843e-02
2.083999999999999986e+01,8.246878414465683149e-02
2.087999999999999901e+01,6.388884102743988547e-02
2.092000000000000171e+01,7.167498200759968296e-02
2.096000000000000085e+01,9.158344144646772544e-02
2.100000000000000000e+01,8.118598347601112264e-02
2.103999999999999915e+01,8.988119458838143838e-02
2.107999999999999829e+01,6.887660370246390107e-02
2.112000000000000099e+01,6.878303258909267137e-02
2.116000000000000014e+01,6.505271574079865560e-02
2.119999999999999929e+01,8.344565171542883686e-02
2.123999999999999844e+01,7.516936943186852682e-02
2.128000000000000114e+01,7.507563203808145791e-02
2.132000000000000028e+01,7.589102674782198521e-02
2.135999999999999943e+01,8.701037585672564967e-02
2.139999999999999858e+01,6.267179648038349871e-02
2.144000000000000128e+01,7.379105130755823916e-02
2.148000000000000043e+01,1.021846100438628252e-01
2.151999999999999957e+01,8.724070764103014630e-02
2.155999999999999872e+01,6.472028370603608027e-02
2.160000000000000142e+01,7.765768951795019859e-02
2.164000000000000057e+01,9.968680665128032414e-02
2.167999999999999972e+01,5.989187018895955616e-02
2.171999999999999886e+01,8.404228918012465743e-02
2.176000000000000156e+01,6.424912270789867597e-02
2.180000000000000071e+01,9.052083910029005975e-02
2.183999999999999986e+01,8.315296766978581833e-02
2.187999999999999901e+01,7.275444808896158744e-02
2.192000000000000171e+01,6.690174973542996339e-02
2.196000000000000085e+01,8.317228303593166006e-02
2.200000000000000000e+01,7.034910635198769746e-02
2.203999999999999915e+01,7.873998263476143789e-02
2.207999999999999829e+01,6.834114657358442146e-02
2.212000000000000099e+01,1.012796550867730294e-01
2.216000000000000014e+01,7.966750830657884364e-02
2.219999999999999929e+01,6.957152780703550199e-02
2.223999999999999844e+01,7.281006539201399785e-02
2.228000000000000114e+01,8.089747299658635316e-02
2.232000000000000028e+01,9.443986714594136689e-02
2.235999999999999943e+01,8.585889413590469532e-02
2.239999999999999858e+01,7.455031731124084349e-02
2.244000000000000128e+01,8.688025286913811374e-02
2.248000000000000043e+01,9.557340592509204480e-02
2.251999999999999957e+01,7.880954034866974323e-02
2.255999999999999872e+01,7.992606623861064907e-02
2.260000000000000142e+01,9.528627664471599201e-02
2.264000000000000057e+01,9.458428848577654646e-02
2.267999999999999972e+01,8.812410051643911058e-02
2.271999999999999886e+01,7.590571162255166371e-02
2.276000000000000156e+01,6.580865000139736465e-02
2.280000000000000071e+01,3.480044424386009166e-02
2.283999999999999986e+01,5.834273933376109278e-02
2.287999999999999901e+01,6.491365271469227982e-02
2.292000000000000171e+01,8.330377114120629534e-02
2.296000000000000085e+01,7.078179992559997802e-02
2.300000000000000000e+01,8.371667841244789798e-02
2.303999999999999915e+01,7.089146496327093649e-02
2.307999999999999829e+01,9.806992233243191914e-02
2.312000000000000099e+01,4.705910973425418697e-02
2.316000000000000014e+01,6.787314179152018068e-02
2.319999999999999929e+01,5.383531286603566307e-02
2.323999999999999844e+01,6.343597404006902363e-02
2.328000000000000114e+01,6.091418347834074570e-02
2.332000000000000028e+01,4.687605770603962829e-02
2.335999999999999943e+01,6.465900682190564575e-02
2.339999999999999858e+01,3.698303069579042535e-02
2.344000000000000128e+01,4.597706834426711769e-02
2.348000000000000043e+01,8.557994225977247349e-02
2.351999999999999957e+01,6.487400542698189276e-02
2.355999999999999872e+01,4.992607941992836806e-02
2.360000000000000142e+01,6.225333932107071644e-02
2.364000000000000057e+01,6.276119627875255402e-02
2.367999999999999972e+01,7.175459009675028144e-02
2.371999999999999886e+01,6.044293179220723566e-02
2.376000000000000156e+01,2.579563205426560132e-02
2.380000000000000071e+01,5.388139455521610138e-02
2.383999999999999986e+01,6.317739568952238094e-02
2.387999999999999901e+01,6.853351650689029628e-02
2.392000000000000171e+01,1.782363890982882268e-02
2.396000000000000085e+01,4.439364243923891312e-02
2.400000000000000000e+01,7.641858571904192043e-02
2.403999999999999915e+01,5.389282134031224414e-02
2.407999999999999829e+01,6.409728825402313812e-02
2.412000000000000099e+01,5.005692724795440807e-02
2.416000000000000014e+01,2.268185471609432402e-02
2.419999999999999929e+01,3.682571590466516415e-02
2.423999999999999844e+01,5.733368661772810654e-02
2.428000000000000114e+01,5.905188370847325868e-02
2.432000000000000028e+01,7.380148212815867970e-02
2.435999999999999943e+01,6.309401066446929107e-02
2.439999999999999858e+01,3.299064459666461308e-02
2.444000000000000128e+01,5.713467599054208174e-02
2.448000000000000043e+01,3.309222268329517491e-02
2.451999999999999957e+01,6.208492933074397091e-02
2.455999999999999872e+01,4.864926662250506489e-02
2.460000000000000142e+01,6.794382072272903139e-02
2.464000000000000057e+01,1.905000356696230288e-02
2.467999999999999972e+01,5.016357685996356702e-02
2.471999999999999886e+01,4.278854099638627201e-02
2.476000000000000156e+01,3.117054148485306000e-02
2.480000000000000071e+01,6.137451780113931110e-02
2.483999999999999986e+01,4.187670529057906793e-02
2.487999999999999901e+01,5.238157241238167866e-02
2.492000000000000171e+01,4.227829516740869154e-02
2.496000000000000085e+01,4.369110732658897794e-02
2.500000000000000000e+01,5.146800784137091356e-02
2.503999999999999915e+01,1.408899625360443032e-02
2.507999999999999829e+01,5.580818751407288364e-02
2.512000000000000099e+01,7.691922883700542946e-02
2.516000000000000014e+01,5.772329582966232581e-02
2.519999999999999929e+01,5.186179845958314993e-02
2.523999999999999844e+01,5.812250033393358967e-02
2.528000000000000114e+01,7.195951804350271541e-02
2.532000000000000028e+01,6.094555676938710753e-02
2.535999999999999943e+01,5.174979152844494390e-02
2.539999999999999858e+01,6.831386796049979115e-02
2.544000000000000128e+01,5.184437393530792054e-02
2.548000000000000043e+01,3.537471968280981455e-02
2.551999999999999957e+01,5.890866828536908684e-02
2.555999999999999872e+01,6.304668997340116821e-02
2.560000000000000142e+01,5.051631300978894762e-02
2.564000000000000057e+01,3.586435962456786114e-02
2.567999999999999972e+01,5.394259296570204365e-02
2.571999999999999886e+01,5.323101257504156414e-02
2.576000000000000156e+01,3.615408789579860338e-02
2.580000000000000071e+01,3.877581735461986534e-02
2.583999999999999986e+01,3.594231780469532567e-02
2.587999999999999901e+01,4.917076432848369733e-02
2.592000000000000171e+01,3.997268571366978385e-02
2.596000000000000085e+01,5.683749199339329511e-02
2.600000000000000000e+01,2.642494769322330239e-02
2.603999999999999915e+01,5.450257976403799498e-02
2.607999999999999829e+01,3.924262368237233650e-02
2.612000000000000099e+01,6.853213603854083069e-02
2.616000000000000014e+01,4.357394050578385775e-02
2.619999999999999929e+01,2.255532934669952222e-02
2.623999999999999844e+01,2.638736000440557519e-02
2.628000000000000114e+01,4.900885497133838226e-02
2.632000000000000028e+01,3.768757851066583536e-02
2.635999999999999943e+01,0.000000000000000000e+00
2.639999999999999858e+01,5.050235216066596700e-02
2.644000000000000128e+01,2.887651827277777986e-02
2.648000000000000043e+01,4.664814286095472773e-02
2.651999999999999957e+01,3.502287274582412818e-02
2.655999999999999872e+01,3.733811802612607700e-02
2.660000000000000142e+01,3.874399542385017353e-02
2.664000000000000057e+01,6.469744467717296332e-02
2.667999999999999972e+01,5.610199483617975963e-02
2.671999999999999886e+01,7.599387927819813149e-02
2.676000000000000156e+01,3.194015688955076371e-02
2.680000000000000071e+01,3.970929567024492068e-02
2.683999999999999986e+01,4.778129516213092814e-02
2.687999999999999901e+01,2.281968408729321066e-02
2.692000000000000171e+01,6.695528356056344721e-02
2.696000000000000085e+01,4.593303535372481039e-02
2.700000000000000000e+01,5.733787828655058372e-02
2.703999999999999915e+01,4.661922370418475348e-02
2.707999999999999829e+01,5.559918760701457879e-02
2.712000000000000099e+01,3.700059301227849595e-02
2.716000000000000014e+01,4.173732051048068686e-02
2.719999999999999929e+01,5.011054570888165416e-02
2.723999999999999844e+01,6.454473805069400882e-02
2.728000000000000114e+01,4.261166166788497855e-02
2.732000000000000028e+01,4.249860882305307036e-02
2.735999999999999943e+01,5.147710797588166132e-02
2.739999999999999858e+01,4.833304063527869843e-02
2.744000000000000128e+01,7.064569932624319148e-02
2.748000000000000043e+01,5.780331900050802996e-02
2.751999999999999957e+01,2.495883952744960485e-02
2.755999999999999872e+01,2.787508261230208645e-02
2.760000000000000142e+01,5.503581199343075131e-02
2.764000000000000057e+01,3.522220393409913192e-02
2.767999999999999972e+01,5.450296210659794777e-02
2.771999999999999886e+01,3.650726283979018050e-02
2.776000000000000156e+01,4.336216305199164928e-02
2.780000000000000071e+01,6.779424995695654266e-02
2.783999999999999986e+01,4.434281739168828562e-02
2.787999999999999901e+01,6.028880430716041655e-02
2.792000000000000171e+01,4.198891640927120139e-02
2.796000000000000085e+01,2.702244622301979565e-02
2.800000000000000000e+01,3.599739237185273222e-02
2.803999999999999915e+01,4.830575400401945774e-02
2.807999999999999829e+01,5.182517721854441872e-02
2.812000000000000099e+01,5.231377847501644113e-02
2.816000000000000014e+01,3.643696859377821423e-02
2.819999999999999929e+01,5.359333406698133656e-02
2.823999999999999844e+01,5.650569791186358520e-02
2.828000000000000114e+01,3.941594144053252313e-02
2.832000000000000028e+01,5.172265114513934642e-02
2.835999999999999943e+01,3.720415289041755294e-03
2.839999999999999858e+01,3.693770154424623475e-02
2.844000000000000128e+01,1.742251050220634812e-02
2.848000000000000043e+01,3.397107521224862481e-02
2.851999999999999957e+01,3.627563049490529351e-02
2.855999999999999872e+01,5.100535136703520517e-02
2.860000000000000142e+01,3.209529612455828962e-02
2.864000000000000057e+01,1.106358089906253270e-02
2.867999999999999972e+01,4.458220385479312597e-02
2.871999999999999886e+01,5.628034132061325578e-02
2.876000000000000156e+01,4.646105100204139804e-02
2.880000000000000071e+01,5.755256653880561069e-02
2.883999999999999986e+01,5.773371075134369618e-02
2.887999999999999901e+01,2.215365931251617182e-02
2.892000000000000171e+01,2.112205727174446337e-02
2.896000000000000085e+01,4.342572718706486090e-02
2.900000000000000000e+01,5.542513896089171221e-02
2.903999999999999915e+01,5.893864439709618069e-02
2.907999999999999829e+01,4.335918369305624687e-02
2.912000000000000099e+01,4.202322589838267120e-02
2.916000000000000014e+01,3.856559363671245577e-02
2.919999999999999929e+01,3.328934461356401059e-02
2.923999999999999844e+01,4.589330099337252111e-02
2.928000000000000114e+01,5.152663844899890710e-02
2.932000000000000028e+01,2.109570917791583552e-02
2.935999999999999943e+01,5.945886367198960354e-02
2.939999999999999858e+01,8.206269012897832171e-02
2.944000000000000128e+01,3.950859982842555573e-02
2.948000000000000043e+01,6.514247231123265758e-02
2.951999999999999957e+01,6.016713125063986867e-02
2.955999999999999872e+01,7.064751612242228807e-02
2.960000000000000142e+01,7.900621427153464715e-02
2.964000000000000057e+01,5.008840150203797137e-02
2.967999999999999972e+01,4.571807591257760067e-02
2.971999999999999886e+01,5.256064832349575250e-02
2.976000000000000156e+01,6.061517657151168498e-02
2.980000000000000071e+01,6.230518905070872582e-02
2.983999999999999986e+01,6.187350812232283309e-02
2.987999999999999901e+01,6.629048552462513122e-02
2.992000000000000171e+01,9.313353168435660467e-02
2.996000000000000085e+01,8.573064620896798937e-02
3.000000000000000000e+01,7.226629821367031026e-02
3.003999999999999915e+01,7.577295687927523837e-02
3.007999999999999829e+01,9.503838581294832277e-02
3.012000000000000099e+01,7.066305524510477221e-02
3.016000000000000014e+01,1.126573156020109906e-01
3.019999999999999929e+01,1.137383436061316921e-01
3.023999999999999844e+01,1.075456671267481512e-01
3.028000000000000114e+01,1.362044609839183351e-01
3.032000000000000028e+01,1.227377838671640381e-01
3.035999999999999943e+01,1.735192803667049699e-01
3.039999999999999858e+01,1.333828336970547535e-01
3.044000000000000128e+01,1.368865586777961718e-01
3.048000000000000043e+01,1.667561014735546299e-01
3.051999999999999957e+01,1.605613441180394063e-01
3.055999999999999872e+01,2.174025195293764756e-01
3.060000000000000142e+01,1.845379814794437523e-01
3.064000000000000057e+01,1.877371390173779298e-01
3.067999999999999972e+01,2.006338737176867337e-01
3.071999999999999886e+01,1.662531263681499838e-01
3.076000000000000156e+01,1.782400711328232801e-01
3.080000000000000071e+01,1.453740021767111756e-01
3.083999999999999986e+01,1.328125646148353156e-01
3.087999999999999901e+01,1.514658748411842615e-01
3.092000000000000171e+01,1.407221678074908333e-01
3.096000000000000085e+01,9.148967780948573381e-02
3.100000000000000000e+01,1.134756964537649709e-01
3.103999999999999915e+01,1.245512824954504161e-01
3.107999999999999829e+01,8.956161173860351099e-02
3.112000000000000099e+01,9.215091729815051702e-02
3.116000000000000014e+01,8.473896337165927328e-02
3.119999999999999929e+01,1.046019836644581785e-01
3.123999999999999844e+01,7.809668388244556114e-02
3.128000000000000114e+01,9.583764999297111897e-02
3.132000000000000028e+01,9.660699930842654715e-02
3.135999999999999943e+01,9.131484822280029612e-02
3.139999999999999858e+01,7.480919568754076932e-02
3.144000000000000128e+01,8.800298124402314293e-02
3.148000000000000043e+01,6.301102817188675154e-02
3.151999999999999957e+01,5.620227581570617914e-02
3.155999999999999872e+01,8.515413460222276409e-02
3.160000000000000142e+01,4.834189882764174800e-02
3.164000000000000057e+01,5.789733065592362476e-02
3.167999999999999972e+01,5.320866503880140874e-02
3.171999999999999886e+01,7.094601804226248476e-02
3.176000000000000156e+01,5.777103629013352615e-02
3.180000000000000071e+01,4.914160056971969559e-02
3.183999999999999986e+01,5.263418025863318001e-02
3.187999999999999901e+01,4.521630394775814910e-02
3.192000000000000171e+01,5.870914658835284933e-02
3.196000000000000085e+01,4.250188418127910650e-02
3.200000000000000000e+01,4.053804446461830441e-02
3.203999999999999915e+01,6.281856737334702567e-02
3.207999999999999829e+01,6.782439349844462950e-02
3.211999999999999744e+01,6.191975693884083781e-02
3.215999999999999659e+01,4.055877428532501938e-02
3.220000000000000284e+01,5.465532612840159205e-02
3.224000000000000199e+01,5.178023555090893043e-02
3.228000000000000114e+01,6.678526570081104452e-02
3.232000000000000028e+01,5.845441598875766170e-02
3.235999999999999943e+01,5.072933205457196698e-02
3.239999999999999858e+01,4.088248340706673173e-02
3.243999999999999773e+01,3.588422178451300404e-02
3.247999999999999687e+01,5.785783990871058713e-02
3.252000000000000313e+01,6.467816073129750709e-02
3.256000000000000227e+01,4.301059507261634912e-02
3.260000000000000142e+01,4.528431762152431567e-02
3.264000000000000057e+01,2.028238673954227064e-02
3.267999999999999972e+01,5.680103547599628377e-02
3.271999999999999886e+01,3.058614665179884215e-02
3.275999999999999801e+01,3.922265908672264989e-02
3.279999999999999716e+01,2.209880773250071789e-02
3.284000000000000341e+01,6.285882570405951220e-02
3.288000000000000256e+01,5.906883083859269801e-02
3.292000000000000171e+01,4.042858634966441794e-02
3.296000000000000085e+01,5.300303171304984046e-02
3.300000000000000000e+01,5.133334286401072116e-02
3.303999999999999915e+01,1.359928367211352997e-02
3.307999999999999829e+01,2.162673433426127306e-02
3.311999999999999744e+01,6.268722331013766580e-02
3.315999999999999659e+01,6.738027978102900661e-02
3.320000000000000284e+01,6.843625515720518082e-02
3.324000000000000199e+01,2.706361940668053703e-02
3.328000000000000114e+01,4.387789954593371289e-02
3.332000000000000028e+01,5.857038934636826788e-02
3.335999999999999943e+01,5.538202907096209660e-02
3.339999999999999858e+01,3.461587642523367148e-02
3.343999999999999773e+01,1.657687121295939661e-02
3.347999999999999687e+01,3.338924720506799421e-02
3.352000000000000313e+01,5.656547423837336025e-02
3.356000000000000227e+01,4.034366942846649706e-02
3.360000000000000142e+01,3.927441920189889135e-02
3.364000000000000057e+01,2.577936985449590102e-02
3.367999999999999972e+01,3.804393155059796611e-02
3.371999999999999886e+01,2.030528035666709016e-02
3.375999999999999801e+01,3.772106138772483158e-02
3.379999999999999716e+01,4.422633293969154000e-02
3.384000000000000341e+01,2.406203527554530430e-02
3.388000000000000256e+01,3.299099010051968761e-02
3.392000000000000171e+01,4.858684364484008866e-02
3.396000000000000085e+01,4.933241859774350341e-02
3.400000000000000000e+01,2.765124335331345037e-02
3.403999999999999915e+01,3.657861023974835757e-02
3.407999999999999829e+01,2.944345991362762316e-02
3.411999999999999744e+01,4.776484955566782931e-02
3.415999999999999659e+01,3.881054342903679510e-02
3.420000000000000284e+01,6.258618671435627057e-02
3.424000000000000199e+01,5.848001436335908965e-02
3.428000000000000114e+01,3.073484873728120001e-02
3.432000000000000028e+01,4.359915849213234773e-02
3.435999999999999943e+01,4.797741372712725771e-02
3.439999999999999858e+01,4.235431922976087143e-02
3.443999999999999773e+01,2.885128562357511597e-02
3.447999999999999687e+01,3.231913500740511008e-02
3.452000000000000313e+01,4.063551348027545640e-02
3.456000000000000227e+01,4.258724360022297234e-02
3.460000000000000142e+01,4.484161828584816434e-02
3.464000000000000057e+01,5.406593045575140699e-02
3.467999999999999972e+01,4.086347348773487764e-02
3.471999999999999886e+01,3.857071643140976003e-02
3.475999999999999801e+01,3.961118768085935410e-02
3.479999999999999716e+01,4.065123910555543812e-02
3.484000000000000341e+01,4.047863431266335993e-02
3.488000000000000256e+01,4.303313684374862613e-02
3.492000000000000171e+01,5.316368669938822261e-02
3.496000000000000085e+01,4.389804781474880568e-02
3.500000000000000000e+01,5.978586556725284246e-02
3.503999999999999915e+01,5.476219825282081094e-02
3.507999999999999829e+01,6.943692659315753302e-02
3.511999999999999744e+01,5.592675596616002859e-02
3.515999999999999659e+01,7.090368453607376331e-02
3.520000000000000284e+01,6.587830004145461826e-02
3.524000000000000199e+01,5.115460123694991895e-02
3.528000000000000114e+01,7.491893933602897238e-02
3.532000000000000028e+01,4.776896142172006726e-02
3.535999999999999943e+01,8.668537077271291913e-02
3.539999999999999858e+01,8.771899112784840857e-02
3.543999999999999773e+01,1.096632323890656679e-01
3.547999999999999687e+01,8.736044721303912186e-02
3.552000000000000313e+01,7.020922209192029251e-02
3.556000000000000227e+01,8.760626141960277391e-02
3.560000000000000142e+01,9.591109404937163407e-02
3.564000000000000057e+01,9.330536594905142200e-02
3.567999999999999972e+01,7.797072308646654792e-02
3.571999999999999886e+01,6.506010533099340631e-02
3.575999999999999801e+01,9.094056992894895830e-02
3.579999999999999716e+01,1.137899986516418827e-01
3.584000000000000341e+01,9.148321445070996261e-02
3.588000000000000256e+01,8.917786244117474614e-02
3.592000000000000171e+01,1.038433533121782687e-01
3.596000000000000085e+01,1.063860392611932770e-01
3.600000000000000000e+01,1.122619189772669779e-01
3.603999999999999915e+01,1.284413441986703430e-01
3.607999999999999829e+01,1.224970201064999042e-01
3.611999999999999744e+01,1.392816508978483858e-01
3.615999999999999659e+01,1.315180595899541338e-01
3.620000000000000284e+01,1.325427152324283042e-01
3.624000000000000199e+01,1.341730285800130373e-01
3.628000000000000114e+01,1.467129983873557697e-01
3.632000000000000028e+01,1.222793300323537918e-01
3.635999999999999943e+01,1.499713153840037394e-01
3.639999999999999858e+01,1.425080132630280050e-01
3.643999999999999773e+01,1.353473044567316819e-01
3.647999999999999687e+01,1.506124816869145733e-01
3.652000000000000313e+01,1.498150737412615729e-01
3.656000000000000227e+01,1.244694325548445640e-01
3.660000000000000142e+01,1.279139092755323392e-01
3.664000000000000057e+01,1.349946207565152489e-01
3.667999999999999972e+01,1.226790955886774143e-01
3.671999999999999886e+01,1.261221557396533799e-01
3.675999999999999801e+01,1.335045061281385226e-01
3.679999999999999716e+01,1.193692047876524914e-01
3.684000000000000341e+01,1.394790734234289953e-01
3.688000000000000256e+01,1.523150526264470395e-01
3.692000000000000171e+01,1.503006707907900419e-01
3.696000000000000085e+01,1.458613384087996956e-01
3.700000000000000000e+01,1.783947009234983228e-01
3.703999999999999915e+01,1.827431109915604035e-01
3.707999999999999829e+01,1.658769203512568957e-01
3.711999999999999744e+01,1.796191860521040573e-01
3.715999999999999659e+01,1.748743781933164709e-01
3.720000000000000284e+01,1.874034363818699589e-01
3.724000000000000199e+01,1.762934188480848319e-01
3.728000000000000114e+01,1.839725592316892588e-01
3.732000000000000028e+01,1.992276800907200607e-01
3.735999999999999943e+01,2.011477217537552820e-01
3.739999999999999858e+01,2.379190354342640423e-01
3.743999999999999773e+01,2.243820916906631158e-01
3.747999999999999687e+01,2.459994765559021246e-01
3.752000000000000313e+01,2.603429541619485255e-01
3.756000000000000227e+01,2.889296995912609689e-01
3.760000000000000142e+01,2.841794770414071691e-01
3.764000000000000057e+01,3.294334608076430193e-01
3.767999999999999972e+01,3.383198861697025994e-01
3.771999999999999886e+01,3.414476928001617950e-01
3.775999999999999801e+01,4.006408787976655783e-01
3.779999999999999716e+01,4.246787383272191962e-01
3.784000000000000341e+01,5.114492690282657072e-01
3.788000000000000256e+01,5.076047070333423727e-01
3.792000000000000171e+01,5.731601080143605698e-01
3.796000000000000085e+01,6.802340594474751700e-01
3.800000000000000000e+01,7.476067965468201626e-01
3.803999999999999915e+01,8.113423177390417518e-01
3.807999999999999829e+01,9.126566213851858844e-01
3.811999999999999744e+01,9.291139432241881657e-01
3.815999999999999659e+01,9.904234569609027261e-01
3.820000000000000284e+01,9.853625746620762182e-01
3.824000000000000199e+01,1.000000000000000000e+00
3.828000000000000114e+01,9.582679681232076918e-01
3.832000000000000028e+01,9.668431824415889553e-01
3.835999999999999943e+01,9.869341129231584686e-01
3.839999999999999858e+01,9.930838176014358254e-01
3.843999999999999773e+01,9.655934720836816254e-01
3.847999999999999687e+01,9.068875458131082645e-01
3.852000000000000313e+01,8.969735660685950185e-01
3.856000000000000227e+01,8.640265914740640207e-01
3.860000000000000142e+01,8.332005029480206160e-01
3.864000000000000057e+01,7.899484760321248134e-01
3.867999999999999972e+01,7.097227452189085461e-01
3.871999999999999886e+01,6.961694257215557124e-01
3.875999999999999801e+01,6.901920465901522084e-01
3.879999999999999716e+01,6.514837836943596638e-01
3.884000000000000341e+01,6.233820471329178936e-01
3.888000000000000256e+01,6.028562475949692523e-01
3.892000000000000171e+01,5.799054429172325609e-01
3.896000000000000085e+01,5.318002205102623225e-01
3.900000000000000000e+01,5.427909311283264371e-01
3.903999999999999915e+01,5.210507512970885546e-01
3.907999999999999829e+01,5.156752086890297182e-01
3.911999999999999744e+01,5.424233608128675721e-01
3.915999999999999659e+01,5.215907369810889316e-01
3.920000000000000284e+01,5.725825110297479981e-01
3.924000000000000199e+01,5.917525655173562216e-01
3.928000000000000114e+01,6.494105454933345456e-01
3.932000000000000028e+01,6.828232741717221721e-01
3.935999999999999943e+01,7.307822793562004371e-01
3.939999999999999858e+01,7.363125018345491046e-01
3.943999999999999773e+01,7.969988804265409899e-01
3.947999999999999687e+01,8.440470619528037677e-01
3.952000000000000313e+01,8.162391637257289112e-01
3.956000000000000227e+01,8.838942412860273379e-01
3.960000000000000142e+01,8.312344139140981358e-01
3.964000000000000057e+01,8.094860315114055238e-01
3.967999999999999972e+01,7.871309757180576794e-01
3.971999999999999886e+01,7.247715988627276840e-01
3.975999999999999801e+01,6.957481341915426887e-01
3.979999999999999716e+01,6.309631697054594035e-01
3.984000000000000341e+01,5.789061154376176077e-01
3.988000000000000256e+01,5.601849700114642783e-01
3.992000000000000171e+01,4.693352630674872961e-01
3.996000000000000085e+01,4.597047562448454139e-01
4.000000000000000000e+01,4.291626262004026304e-01
4.003999999999999915e+01,3.995291068362883391e-01
4.007999999999999829e+01,3.541359619564687922e-01
4.011999999999999744e+01,3.654142483480590231e-01
4.015999999999999659e+01,3.572962011595929299e-01
4.020000000000000284e+01,2.937178197361198784e-01
4.024000000000000199e+01,2.759007487334595998e-01
4.028000000000000114e+01,2.844492225785431594e-01
4.032000000000000028e+01,2.472352410756217811e-01
4.035999999999999943e+01,2.572978607494097458e-01
4.039999999999999858e+01,2.622079046827453519e-01
4.043999999999999773e+01,2.395390191058540952e-01
4.047999999999999687e+01,2.295980259207701935e-01
4.052000000000000313e+01,2.269298652592711685e-01
4.056000000000000227e+01,2.166846538433467584e-01
4.060000000000000142e+01,2.212887432144674260e-01
4.064000000000000057e+01,2.161943678651642997e-01
4.067999999999999972e+01,2.138269382877789615e-01
4.071999999999999886e+01,2.041855123190303711e-01
4.075999999999999801e+01,1.915129123201541328e-01
4.079999999999999716e+01,2.197526660292317691e-01
4.084000000000000341e+01,1.810158325293863557e-01
4.088000000000000256e+01,1.977381738533781075e-01
4.092000000000000171e+01,1.702133372154356061e-01
4.096000000000000085e+01,1.766304969764151134e-01
4.100000000000000000e+01,1.818348289403778073e-01
4.103999999999999915e+01,1.743100968456897659e-01
4.107999999999999829e+01,1.873927697419620064e-01
4.111999999999999744e+01,1.434997886793753508e-01
4.115999999999999659e+01,1.947666800184059133e-01
4.120000000000000284e+01,1.766325035637799079e-01
4.124000000000000199e+01,1.666803160370119441e-01
4.128000000000000114e+01,1.630917634059266819e-01
4.132000000000000028e+01,1.582903740646074697e-01
4.135999999999999943e+01,1.343956765383383933e-01
4.139999999999999858e+01,1.398970808602591764e-01
4.143999999999999773e+01,1.538835273589480301e-01
4.147999999999999687e+01,1.605959562973830468e-01
4.152000000000000313e+01,1.421538962008480622e-01
4.156000000000000227e+01,1.385611101517067734e-01
4.160000000000000142e+01,1.410288912653605287e-01
4.164000000000000057e+01,1.356165327228106565e-01
4.167999999999999972e+01,1.274760333443047677e-01
4.171999999999999886e+01,1.587325679499006492e-01
4.175999999999999801e+01,1.275583720161331258e-01
4.179999999999999716e+01,1.366903842971748662e-01
4.184000000000000341e+01,1.446095453840049172e-01
4.188000000000000256e+01,1.279803250478369903e-01
4.192000000000000171e+01,1.480206037479749603e-01
4.196000000000000085e+01,1.329054401083404890e-01
4.200000000000000000e+01,1.165774208178858573e-01
4.203999999999999915e+01,1.405556030573276716e-01
4.207999999999999829e+01,1.199835162047529075e-01
4.211999999999999744e+01,1.257769229489237306e-01
4.215999999999999659e+01,1.367217047987480394e-01
4.220000000000000284e+01,1.058437435911343261e-01
4.224000000000000199e+01,1.134536254246330533e-01
4.228000000000000114e+01,1.059099381034002002e-01
4.232000000000000028e+01,1.095787978246236388e-01
4.235999999999999943e+01,1.083980860316107603e-01
4.239999999999999858e+01,1.008525075118566483e-01
4.243999999999999773e+01,1.136112372822196959e-01
4.247999999999999687e+01,1.075796864910435746e-01
4.252000000000000313e+01,9.700161854869317202e-02
4.256000000000000227e+01,9.672691450487455600e-02
4.260000000000000142e+01,1.019066321307063872e-01
4.264000000000000057e+01,9.647865286949608432e-02
4.267999999999999972e+01,1.204467398036074000e-01
4.271999999999999886e+01,1.044104221143265093e-01
4.275999999999999801e+01,1.023141685888636493e-01
4.279999999999999716e+01,1.035509194245965298e-01
4.284000000000000341e+01,1.163032616384785112e-01
4.288000000000000256e+01,8.996037123137158587e-02
4.292000000000000171e+01,1.036205990231434393e-01
4.296000000000000085e+01,1.227352384571965965e-01
4.300000000000000000e+01,1.145739358949568187e-01
4.303999999999999915e+01,1.130792780253762064e-01
4.307999999999999829e+01,1.109778520622089620e-01
4.311999999999999744e+01,1.079665980716324192e-01
4.315999999999999659e+01,1.019241032018002868e-01
4.320000000000000284e+01,1.077002485024185635e-01
4.324000000000000199e+01,1.046870331217362171e-01
4.328000000000000114e+01,9.318751476527163680e-02
4.332000000000000028e+01,1.032045154662594444e-01
4.335999999999999943e+01,1.183728578483366489e-01
4.339999999999999858e+01,9.596124722379986705e-02
4.343999999999999773e+01,1.187047402485640890e-01
4.347999999999999687e+01,1.099294544318216715e-01
4.352000000000000313e+01,1.205492703640769908e-01
4.356000000000000227e+01,1.169246579477442038e-01
4.360000000000000142e+01,1.229972628226465442e-01
4.364000000000000057e+01,1.120979077436212723e-01
4.367999999999999972e+01,1.205936499569853076e-01
4.371999999999999886e+01,1.154510770044938073e-01
4.375999999999999801e+01,1.357647755094987529e-01
4.379999999999999716e+01,1.194076863253801801e-01
4.384000000000000341e+01,1.324466310261713520e-01
4.388000000000000256e+01,1.421512559732979464e-01
4.392000000000000171e+01,1.267013250363264731e-01
4.396000000000000085e+01,1.427688363795023563e-01
4.400000000000000000e+01,1.324695543315936030e-01
4.403999999999999915e+01,1.352011243356227854e-01
4.407999999999999829e+01,1.403564865889677105e-01
4.411999999999999744e+01,1.415714047643941154e-01
4.415999999999999659e+01,1.443009365018202428e-01
4.420000000000000284e+01,1.509695512444585996e-01
4.424000000000000199e+01,1.430906598782518691e-01
4.428000000000000114e+01,1.679414371576577192e-01
4.432000000000000028e+01,1.482418829525274651e-01
4.435999999999999943e+01,1.655148186400933474e-01
4.439999999999999858e+01,1.739983613359466774e-01
4.443999999999999773e+01,1.833903921553936001e-01
4.447999999999999687e+01,1.721737337876713125e-01
4.452000000000000313e+01,1.515615614464387584e-01
4.456000000000000227e+01,1.824686967713294028e-01
4.460000000000000142e+01,1.703407869109718475e-01
4.464000000000000057e+01,1.797293593410463075e-01
4.467999999999999972e+01,1.739642957672611623e-01
4.471999999999999886e+01,1.927463004523094769e-01
4.475999999999999801e+01,1.933440787084881873e-01
4.479999999999999716e+01,1.787882176183507588e-01
4.484000000000000341e+01,1.808998921331555487e-01
4.488000000000000256e+01,1.972546305813858147e-01
4.492000000000000171e+01,1.642100797180686966e-01
4.496000000000000085e+01,1.584401198057074633e-01
4.500000000000000000e+01,1.920671025169728707e-01
4.503999999999999915e+01,1.699305573611524234e-01
4.507999999999999829e+01,1.559758941745854055e-01
4.511999999999999744e+01,1.568704058758720044e-01
4.515999999999999659e+01,1.620070326623901935e-01
4.520000000000000284e+01,1.483533031250240386e-01
4.524000000000000199e+01,1.353049806085383222e-01
4.528000000000000114e+01,1.540771224248499716e-01
4.532000000000000028e+01,1.440579635256919178e-01
4.535999999999999943e+01,1.440390317147457466e-01
4.539999999999999858e+01,1.367459731566363912e-01
4.543999999999999773e+01,1.318766689666702185e-01
4.547999999999999687e+01,1.351892356044359089e-01
4.552000000000000313e+01,1.075890842182773005e-01
4.556000000000000227e+01,1.148399775625568858e-01
4.560000000000000142e+01,1.033005034414308937e-01
4.564000000000000057e+01,1.229753659863917908e-01
4.567999999999999972e+01,1.068885649360907519e-01
4.571999999999999886e+01,1.132273925531258191e-01
4.575999999999999801e+01,9.622996595308812295e-02
4.579999999999999716e+01,1.007489893330704295e-01
4.584000000000000341e+01,1.067825794806629008e-01
4.588000000000000256e+01,1.106940294456663781e-01
4.592000000000000171e+01,9.036004427797683647e-02
4.596000000000000085e+01,7.851097538786415420e-02
4.600000000000000000e+01,6.847952762842349217e-02
4.603999999999999915e+01,7.420640559034932804e-02
4.607999999999999829e+01,7.447749078254915778e-02
4.611999999999999744e+01,8.293042897604681329e-02
4.615999999999999659e+01,7.350216056502063833e-02
4.620000000000000284e+01,5.801197840247094423e-02
4.624000000000000199e+01,6.343211632492672114e-02
4.628000000000000114e+01,7.733716161174228332e-02
4.632000000000000028e+01,6.184476068994373271e-02
4.635999999999999943e+01,6.029232365827109918e-02
4.639999999999999858e+01,5.025349674694949698e-02
4.643999999999999773e+01,6.203416080888460998e-02
4.647999999999999687e+01,6.290396220550201201e-02
4.652000000000000313e+01,4.922619398660271067e-02
4.656000000000000227e+01,7.494532493939691509e-02
4.660000000000000142e+01,4.096111991745451236e-02
4.664000000000000057e+01,5.031357649461888626e-02
4.667999999999999972e+01,4.420928254064617619e-02
4.671999999999999886e+01,5.689388356415943371e-02
4.675999999999999801e+01,4.624220251679636573e-02
4.679999999999999716e+01,5.195494366125044672e-02
4.684000000000000341e+01,5.221187086708794362e-02
4.688000000000000256e+01,5.337721823323887671e-02
4.692000000000000171e+01,5.302651408818651046e-02
4.696000000000000085e+01,4.631081620304943608e-02
4.700000000000000000e+01,4.201882923412228465e-02
4.703999999999999915e+01,3.893831678857060524e-02
4.707999999999999829e+01,6.282927742424103401e-02
4.711999999999999744e+01,7.853688694519486702e-02
4.715999999999999659e+01,5.575526227022239989e-02
4.720000000000000284e+01,2.842699008827595519e-02
4.724000000000000199e+01,2.776712771127259893e-02
4.728000000000000114e+01,3.498602720548443790e-02
4.732000000000000028e+01,3.553686411257191841e-02
4.735999999999999943e+01,4.002669600685290069e-02
4.739999999999999858e+01,4.057599246274037202e-02
4.743999999999999773e+01,4.536734049718771367e-02
4.747999999999999687e+01,3.652026863547878921e-02
4.752000000000000313e+01,2.100512861588484798e-02
4.756000000000000227e+01,5.519085978298044620e-02
4.760000000000000142e+01,5.452405033452327465e-02
4.764000000000000057e+01,4.355246354967772654e-02
4.767999999999999972e+01,4.621774506826701462e-02
4.771999999999999886e+01,4.857918807129253669e-02
4.775999999999999801e+01,4.275726213316728697e-02
4.779999999999999716e+01,3.754067191018584798e-02
4.784000000000000341e+01,4.505176907501894090e-02
4.788000000000000256e+01,4.165196457920965212e-02
4.792000000000000171e+01,4.097890419378170251e-02
4.796000000000000085e+01,1.757564595225477241e-02
4.800000000000000000e+01,1.447654113369820604e-02
4.803999999999999915e+01,2.652958868956025937e-02
4.807999999999999829e+01,4.646137583359475492e-02
4.811999999999999744e+01,4.123849010755712557e-02
4.815999999999999659e+01,3.995457708567038552e-02
4.820000000000000284e+01,3.624540044070021644e-02
4.824000000000000199e+01,3.829354718960012449e-02
4.828000000000000114e+01,4.579595739854730452e-02
4.832000000000000028e+01,2.996204208468515942e-02
4.835999999999999943e+01,2.685579967465978948e-02
4.839999999999999858e+01,3.405275849695455631e-02
4.843999999999999773e+01,2.488374130640669257e-02
4.847999999999999687e+01,2.753321721822751811e-02
4.852000000000000313e+01,2.866659705275972914e-02
4.856000000000000227e+01,3.404199726959194344e-02
4.860000000000000142e+01,5.941847537744197189e-02
4.864000000000000057e+01,4.509344278705455789e-02
4.867999999999999972e+01,4.107160362992220981e-02
4.871999999999999886e+01,5.098966262793981630e-02
4.875999999999999801e+01,4.484479551956840199e-02
4.879999999999999716e+01,3.324405987912579241e-02
4.884000000000000341e+01,3.285568967434154136e-02
4.888000000000000256e+01,2.913286044687590781e-02
4.892000000000000171e+01,3.359180623005862676e-02
4.896000000000000085e+01,4.502029063105526113e-02
4.900000000000000000e+01,3.432466584733847442e-02
4.903999999999999915e+01,4.090257732193085943e-02
4.907999999999999829e+01,3.687261253098741282e-02
4.911999999999999744e+01,2.829594675376750218e-02
4.915999999999999659e+01,3.972034326943550686e-02
4.920000000000000284e+01,4.781027184920508266e-02
4.924000000000000199e+01,3.801890803473650243e-02
4.928000000000000114e+01,3.853072094124104785e-02
4.932000000000000028e+01,2.813159207762636754e-02
4.935999999999999943e+01,2.803563770668059466e-02
4.939999999999999858e+01,3.975815081260439254e-02
4.943999999999999773e+01,4.814618929771697503e-02
4.947999999999999687e+01,5.713951670358363710e-02
4.952000000000000313e+01,3.643224994899475766e-02
4.956000000000000227e+01,4.057497546050166382e-02
4.960000000000000142e+01,3.683733959953015835e-02
4.964000000000000057e+01,5.097934092392700234e-02
4.967999999999999972e+01,4.814921405742386695e-02
4.971999999999999886e+01,3.077142844323328338e-02
4.975999999999999801e+01,5.036598231120083258e-02
4.979999999999999716e+01,3.147122844920119400e-02
4.984000000000000341e+01,4.166928252962049523e-02
4.988000000000000256e+01,4.732061445487270590e-02
4.992000000000000171e+01,5.963839943861706100e-02
4.996000000000000085e+01,5.286263669470252224e-02
5.000000000000000000e+01,4.941967776459944145e-02
5.003999999999999915e+01,6.355328605867277547e-02
5.007999999999999829e+01,5.344134334823104349e-02
5.011999999999999744e+01,4.696525992881498551e-02
5.015999999999999659e+01,3.806385829286093592e-02
5.020000000000000284e+01,5.522466637525082211e-02
5.024000000000000199e+01,6.359591879971648876e-02
5.028000000000000114e+01,4.014514415714196677e-02
5.032000000000000028e+01,4.912081110353713059e-02
5.035999999999999943e+01,4.567021321350463875e-02
5.039999999999999858e+01,6.009923133994988370e-02
5.043999999999999773e+01,5.543468836891064788e-02
5.047999999999999687e+01,4.198058305503427068e-02
5.052000000000000313e+01,4.579997277583811727e-02
5.056000000000000227e+01,5.749803300738220990e-02
5.060000000000000142e+01,5.949735109462101629e-02
5.064000000000000057e+01,5.028263182504964096e-02
5.067999999999999972e+01,4.773434444507975577e-02
5.071999999999999886e+01,5.942895833232370029e-02
5.075999999999999801e+01,6.566764909404189388e-02
5.079999999999999716e+01,5.614641574728267137e-02
5.084000000000000341e+01,6.268643324330429312e-02
5.088000000000000256e+01,4.649617155012094466e-02
5.092000000000000171e+01,5.242833486482571109e-02
5.096000000000000085e+01,5.411680476192640837e-02
5.100000000000000000e+01,6.732063875014070164e-02
5.103999999999999915e+01,4.173207165000109020e-02
5.107999999999999829e+01,5.766168956005780083e-02
5.111999999999999744e+01,5.722525680907884077e-02
5.115999999999999659e+01,5.739406618446439567e-02
5.120000000000000284e+01,7.362411637526147801e-02
5.124000000000000199e+01,5.924434803804951716e-02
5.128000000000000114e+01,4.971264196013368275e-02
5.132000000000000028e+01,6.775840850265479887e-02
5.135999999999999943e+01,5.398211789602824079e-02
5.139999999999999858e+01,5.778235663240543357e-02
5.143999999999999773e+01,5.127771218794140856e-02
5.147999999999999687e+01,6.325877131718871116e-02
5.152000000000000313e+01,4.735753349639714588e-02
5.156000000000000227e+01,5.539705577508290124e-02
5.160000000000000142e+01,5.040416103928379438e-02
5.164000000000000057e+01,3.540943637155333917e-02
5.167999999999999972e+01,6.314511528041945321e-02
5.171999999999999886e+01,3.602625671780494004e-02
5.175999999999999801e+01,4.557662311007118494e-02
5.179999999999999716e+01,5.270162560556197751e-02
5.184000000000000341e+01,3.830855745087899389e-02
5.188000000000000256e+01,5.694800507257343630e-02
5.192000000000000171e+01,4.225008584863739619e-02
5.196000000000000085e+01,4.391644509089293741e-02
5.200000000000000000e+01,4.770331716067104100e-02
5.203999999999999915e+01,4.482199517337272232e-02
5.207999999999999829e+01,2.890824280176386429e-02
5.211999999999999744e+01,5.087594063634897495e-02
5.215999999999999659e+01,5.496226474358995723e-02
5.220000000000000284e+01,5.268344915681672652e-02
5.224000000000000199e+01,6.070772784375868397e-02
5.228000000000000114e+01,3.175792382165407157e-02
5.232000000000000028e+01,5.008438784477037276e-02
5.235999999999999943e+01,4.628664909439401259e-02
5.239999999999999858e+01,3.582070625957212151e-02
5.243999999999999773e+01,6.293314589805637516e-02
5.247999999999999687e+01,5.276843843706283121e-02
5.252000000000000313e+01,3.684470000817908347e-02
5.256000000000000227e+01,4.092192916925177504e-02
5.260000000000000142e+01,4.348294860951805452e-02
5.264000000000000057e+01,4.028493373943772132e-02
5.267999999999999972e+01,3.708600101859946263e-02
5.271999999999999886e+01,5.661556080814438702e-02
5.275999999999999801e+01,4.583831855156967477e-02
5.279999999999999716e+01,5.839568421641510437e-02
5.284000000000000341e+01,3.943401032815425228e-02
5.288000000000000256e+01,4.865588324773835460e-02
5.292000000000000171e+01,4.726977294318174955e-02
5.296000000000000085e+01,3.951850177572020784e-02
5.300000000000000000e+01,3.509995086066009656e-02
5.303999999999999915e+01,4.219670721495481086e-02
5.307999999999999829e+01,5.414147569169946994e-02
5.311999999999999744e+01,5.608437301288382582e-02
5.315999999999999659e+01,4.620704514633238585e-02
5.320000000000000284e+01,4.057160842043330828e-02
5.324000000000000199e+01,2.796488539322328562e-02
5.328000000000000114e+01,3.960193337661944979e-02
5.332000000000000028e+01,4.608604574842386364e-02
5.335999999999999943e+01,4.378051555843737869e-02
5.339999999999999858e+01,5.268722379076593715e-02
5.343999999999999773e+01,4.613699320024679945e-02
5.347999999999999687e+01,4.170723421362110273e-02
5.352000000000000313e+01,3.970100453640734717e-02
5.356000000000000227e+01,5.648347931666442695e-02
5.360000000000000142e+01,4.265606983393650103e-02
5.364000000000000057e+01,3.579806861322270412e-02
5.367999999999999972e+01,5.106241552389964578e-02
5.371999999999999886e+01,4.935452171431112256e-02
5.375999999999999801e+01,2.703768023425805536e-02
5.379999999999999716e+01,4.139000688732678845e-02
5.384000000000000341e+01,3.937620711701481091e-02
5.388000000000000256e+01,5.312051469425084493e-02
5.392000000000000171e+01,4.352834076737855523e-02
5.396000000000000085e+01,5.272486015645581892e-02
5.400000000000000000e+01,5.010113096060231364e-02
5.403999999999999915e+01,5.353762242622989165e-02
5.407999999999999829e+01,6.000374524248062308e-02
5.411999999999999744e+01,3.767832222979210915e-02
5.415999999999999659e+01,5.353735142120918250e-02
5.420000000000000284e+01,3.545283262098294919e-02
5.424000000000000199e+01,5.282523441952284571e-02
5.428000000000000114e+01,4.292138003086772707e-02
5.432000000000000028e+01,5.998879706189842731e-02
5.435999999999999943e+01,5.584113207084145936e-02
5.439999999999999858e+01,4.441908964839098861e-02
5.443999999999999773e+01,5.390713890975837308e-02
5.447999999999999687e+01,4.702904392131086048e-02
5.452000000000000313e+01,5.530292081463605847e-02
5.456000000000000227e+01,4.054335719708936081e-02
5.460000000000000142e+01,5.669482185588098355e-02
5.464000000000000057e+01,5.557096134923743963e-02
5.467999999999999972e+01,4.353600977608857586e-02
5.471999999999999886e+01,5.392643618604560374e-02
5.475999999999999801e+01,4.007118123568781387e-02
5.479999999999999716e+01,3.651894925330851499e-02
5.484000000000000341e+01,4.387585676409673507e-02
5.488000000000000256e+01,5.880825563752417606e-02
5.492000000000000171e+01,3.858485118588753787e-02
5.496000000000000085e+01,5.836422957333717992e-02
5.500000000000000000e+01,4.904897880083002731e-02
5.503999999999999915e+01,4.185415618028317380e-02
5.507999999999999829e+01,5.738776033514337432e-02
5.511999999999999744e+01,3.958390851220233014e-02
5.515999999999999659e+01,4.269012831834084060e-02
5.520000000000000284e+01,4.852288945917213048e-02
5.524000000000000199e+01,5.132407324680316602e-02
5.528000000000000114e+01,5.048756092774075999e-02
5.532000000000000028e+01,5.904488063366741812e-02
5.535999999999999943e+01,5.184214921777326179e-02
5.539999999999999858e+01,4.979042412317589289e-02
5.543999999999999773e+01,5.501111597341728360e-02
5.547999999999999687e+01,5.295740031015751248e-02
5.552000000000000313e+01,4.544762893726802394e-02
5.556000000000000227e+01,6.248462388798355777e-02
5.560000000000000142e+01,5.921567873690685574e-02
5.564000000000000057e+01,5.139985099275572872e-02
5.567999999999999972e+01,6.691855095107099305e-02
5.571999999999999886e+01,5.425177815370265527e-02
5.575999999999999801e+01,4.764517810927357960e-02
5.579999999999999716e+01,6.103945540847808410e-02
5.584000000000000341e+01,6.109813877340088129e-02
5.588000000000000256e+01,6.054969751605383810e-02
5.592000000000000171e+01,6.272777753866121131e-02
5.596000000000000085e+01,6.551096598937689031e-02
5.600000000000000000e+01,5.101879139348478726e-02
5.603999999999999915e+01,6.380089912840715416e-02
5.607999999999999829e+01,4.930670053928866425e-02
5.611999999999999744e+01,6.087454677399799230e-02
5.615999999999999659e+01,6.334961363659659395e-02
5.620000000000000284e+01,5.400437063589720588e-02
5.624000000000000199e+01,6.617528682151066488e-02
5.628000000000000114e+01,5.682800868606332351e-02
5.632000000000000028e+01,6.414794639389551079e-02
5.635999999999999943e+01,5.964756978182111230e-02
5.639999999999999858e+01,7.605723026010993704e-02
5.643999999999999773e+01,6.761504494435312262e-02
5.647999999999999687e+01,7.008195344152641504e-02
5.652000000000000313e+01,6.406219017856074061e-02
5.656000000000000227e+01,8.046775364770275552e-02
5.660000000000000142e+01,7.111229040717885475e-02
5.664000000000000057e+01,6.114968137549463278e-02
5.667999999999999972e+01,5.845945474993296392e-02
5.671999999999999886e+01,8.152819741624656169e-02
5.675999999999999801e+01,7.853285009661524485e-02
5.679999999999999716e+01,8.159764656196766275e-02
5.684000000000000341e+01,9.648070327189263440e-02
5.688000000000000256e+01,7.802625498132244319e-02
5.692000000000000171e+01,7.926959401845541653e-02
5.696000000000000085e+01,7.960271953154045288e-02
5.700000000000000000e+01,8.660210089818978774e-02
5.703999999999999915e+01,9.754020762721596349e-02
5.707999999999999829e+01,9.877939171929114859e-02
5.711999999999999744e+01,1.024420048470860295e-01
5.715999999999999659e+01,8.913228143753200439e-02
5.720000000000000284e+01,1.055212786057450614e-01
5.724000000000000199e+01,1.031195840902813521e-01
5.728000000000000114e+01,9.495872602282343089e-02
5.732000000000000028e+01,8.437235030559535331e-02
5.735999999999999943e+01,1.013632789718319910e-01
5.739999999999999858e+01,9.259315864536006579e-02
5.743999999999999773e+01,9.897492886755497599e-02
5.747999999999999687e+01,9.414247121292464160e-02
5.752000000000000313e+01,9.779460784590425504e-02
5.756000000000000227e+01,8.053463214429588957e-02
5.760000000000000142e+01,8.266936601013388786e-02
5.764000000000000057e+01,1.108661023620188257e-01
5.767999999999999972e+01,1.011794291353072806e-01
5.771999999999999886e+01,8.543052128125734612e-02
5.775999999999999801e+01,6.877137762011668876e-02
5.779999999999999716e+01,6.483964392290923751e-02
5.784000000000000341e+01,9.151578943604646299e-02
5.788000000000000256e+01,8.394522563587342168e-02
5.792000000000000171e+01,7.485830393266004745e-02
5.796000000000000085e+01,7.789267009743004733e-02
5.800000000000000000e+01,7.789538203250247206e-02
5.803999999999999915e+01,7.607867390240757866e-02
5.807999999999999829e+01,6.910889757661697885e-02
5.811999999999999744e+01,6.819922826878965783e-02
5.815999999999999659e+01,7.789554715983208755e-02
5.820000000000000284e+01,6.758891234886427180e-02
5.824000000000000199e+01,6.394849885274442314e-02
5.828000000000000114e+01,7.303548195073199245e-02
5.832000000000000028e+01,7.515103725008757951e-02
5.835999999999999943e+01,7.332575183336470515e-02
5.839999999999999858e+01,7.452997743883441051e-02
5.843999999999999773e+01,5.785265439507502466e-02
5.847999999999999687e+01,7.693519266962610403e-02
5.852000000000000313e+01,6.449853318146785142e-02
5.856000000000000227e+01,6.812290950472844886e-02
5.860000000000000142e+01,7.386761482040936355e-02
5.864000000000000057e+01,5.809406008005342514e-02
5.867999999999999972e+01,7.989871400527071010e-02
5.871999999999999886e+01,6.381992938393608872e-02
5.875999999999999801e+01,6.804499847864753370e-02
5.879999999999999716e+01,6.651086168358361084e-02
5.884000000000000341e+01,7.618881178614439476e-02
5.888000000000000256e+01,4.828637770521516936e-02
5.892000000000000171e+01,6.705391019506364014e-02
5.896000000000000085e+01,5.096858565015296993e-02
5.900000000000000000e+01,6.185440216912836686e-02
5.903999999999999915e+01,6.243512381835691905e-02
5.907999999999999829e+01,6.998510220490931910e-02
5.911999999999999744e+01,5.631986598527000815e-02
5.915999999999999659e+01,6.598906053686123818e-02
5.920000000000000284e+01,5.656444999165041038e-02
5.924000000000000199e+01,6.532226805496621491e-02
5.928000000000000114e+01,7.771569026846879280e-02
5.932000000000000028e+01,5.889295125588996094e-02
5.935999999999999943e+01,6.825357855851023337e-02
5.939999999999999858e+01,5.336839525916810961e-02
5.943999999999999773e+01,6.424210548935617437e-02
5.947999999999999687e+01,6.814435561050027901e-02
5.952000000000000313e+01,6.325679159042488231e-02
5.956000000000000227e+01,6.533847093784765636e-02
5.960000000000000142e+01,7.378327489927535843e-02
5.964000000000000057e+01,6.798320262295680372e-02
5.967999999999999972e+01,6.218201751925678950e-02
5.971999999999999886e+01,7.001736535919904358e-02
5.975999999999999801e+01,6.482006889762094437e-02
5.979999999999999716e+01,6.204612682356965003e-02
5.984000000000000341e+01,7.109036143268078478e-02
5.988000000000000256e+01,6.194994846341535244e-02
5.992000000000000171e+01,7.765923919484285509e-02
5.996000000000000085e+01,6.851658608683677820e-02
