2.003999999999999915e+01,5.017420672786368496e-02
2.007999999999999829e+01,6.252539683381523605e-02
2.012000000000000099e+01,5.338809892089346754e-02
2.016000000000000014e+01,5.067218732496243938e-02
2.019999999999999929e+01,5.437766180830567314e-02
2.023999999999999844e+01,4.647424917859569599e-02
2.028000000000000114e+01,6.228152498591672803e-02
2.032000000000000028e+01,1.856384535277210562e-02
2.035999999999999943e+01,3.387642946902710839e-02
2.039999999999999858e+01,6.005621920451101325e-02
2.044000000000000128e+01,1.658446112694205582e-02
2.048000000000000043e+01,7.092040244006315997e-02
2.051999999999999957e+01,3.238773166013166754e-02
2.055999999999999872e+01,2.423447874602153301e-02
2.060000000000000142e+01,4.621365341954263017e-02
2.064000000000000057e+01,6.596956014086842457e-02
2.067999999999999972e+01,2.471856903944045017e-02
2.071999999999999886e+01,4.002793914322767127e-02
2.076000000000000156e+01,3.903560827464654798e-02
2.080000000000000071e+01,5.236834121477305232e-02
2.083999999999999986e+01,3.211006987391033796e-02
2.087999999999999901e+01,6.742419862550273757e-02
2.092000000000000171e+01,6.840635249925175465e-02
2.096000000000000085e+01,6.469533611433710141e-02
2.100000000000000000e+01,3.208612526657778075e-02
2.103999999999999915e+01,6.838677574601306763e-02
2.107999999999999829e+01,2.120443234238986521e-02
2.112000000000000099e+01,6.120921278561475276e-02
2.116000000000000014e+01,6.416512647948541259e-02
2.119999999999999929e+01,5.921699796223330731e-02
2.123999999999999844e+01,5.550345849368480688e-02
2.128000000000000114e+01,6.315109949556342583e-02
2.132000000000000028e+01,4.115957401144824251e-02
2.135999999999999943e+01,3.867989985797454233e-02
2.139999999999999858e+01,5.842896724264205061e-02
2.144000000000000128e+01,4.508100686152991671e-02
2.148000000000000043e+01,6.186546883829936033e-02
2.151999999999999957e+01,5.395056394997773536e-02
2.155999999999999872e+01,2.998094337544384216e-02
2.160000000000000142e+01,6.825244970728025495e-02
2.164000000000000057e+01,4.131822182312091390e-02
2.167999999999999972e+01,3.932962425830665437e-02
2.171999999999999886e+01,4.277444357766572308e-02
2.176000000000000156e+01,4.671287873399941615e-02
2.180000000000000071e+01,2.471699515886018397e-02
2.183999999999999986e+01,3.754634257116756801e-02
2.187999999999999901e+01,3.926077320501809159e-02
2.192000000000000171e+01,4.838453985825513781e-02
2.196000000000000085e+01,4.960425978376688944e-02
2.200000000000000000e+01,4.415488294620836807e-02
2.203999999999999915e+01,5.525347291243142694e-02
2.207999999999999829e+01,6.709266685437614841e-02
2.212000000000000099e+01,2.978047635855257322e-02
2.216000000000000014e+01,5.619134968392153207e-02
2.219999999999999929e+01,5.839683218397736381e-02
2.223999999999999844e+01,2.799926224488373180e-02
2.228000000000000114e+01,4.378846254017185191e-02
2.232000000000000028e+01,2.573965971850826831e-02
2.235999999999999943e+01,3.979919434876898199e-02
2.239999999999999858e+01,7.337057412905782783e-02
2.244000000000000128e+01,6.470628870312690462e-02
2.248000000000000043e+01,6.172240568524087895e-02
2.251999999999999957e+01,5.256340289492610063e-02
2.255999999999999872e+01,5.254266260386211695e-02
2.260000000000000142e+01,5.597941364342857301e-02
2.264000000000000057e+01,5.077114379267706756e-02
2.267999999999999972e+01,7.618926924927797717e-02
2.271999999999999886e+01,3.541369390965736635e-02
2.276000000000000156e+01,5.860816886596464242e-02
2.280000000000000071e+01,3.833202627423834552e-02
2.283999999999999986e+01,4.744732783663004050e-02
2.287999999999999901e+01,3.038131420874555511e-02
2.292000000000000171e+01,5.653818652609850920e-02
2.296000000000000085e+01,7.651993645614757478e-02
2.300000000000000000e+01,4.907922700199748856e-02
2.303999999999999915e+01,3.868045848967965883e-02
2.307999999999999829e+01,4.705256096479697170e-02
2.312000000000000099e+01,3.047829702571328361e-02
2.316000000000000014e+01,5.712691760557161297e-02
2.319999999999999929e+01,4.277481866497857138e-02
2.323999999999999844e+01,5.336834077281026739e-02
2.328000000000000114e+01,5.284693778212844195e-02
2.332000000000000028e+01,5.825292224793167384e-02
2.335999999999999943e+01,5.130903093741882165e-02
2.339999999999999858e+01,2.238265203438282586e-02
2.344000000000000128e+01,7.916144294782764823e-02
2.348000000000000043e+01,9.370456247443924302e-02
2.351999999999999957e+01,6.996385102408751722e-02
2.355999999999999872e+01,7.684952965133834413e-02
2.360000000000000142e+01,4.149953617860818039e-02
2.364000000000000057e+01,6.295687659830613570e-02
2.367999999999999972e+01,5.650396679009074552e-02
2.371999999999999886e+01,5.968329266831345209e-02
2.376000000000000156e+01,5.792244160728474145e-02
2.380000000000000071e+01,6.826372616200361565e-02
2.383999999999999986e+01,6.205630139975529258e-02
2.387999999999999901e+01,4.572190813515112501e-02
2.392000000000000171e+01,5.334517171590492240e-02
2.396000000000000085e+01,8.393813174240426223e-02
2.400000000000000000e+01,6.266280571327256799e-02
2.403999999999999915e+01,8.979714982328967920e-02
2.407999999999999829e+01,7.938862974974329745e-02
2.412000000000000099e+01,6.107605011181287125e-02
2.416000000000000014e+01,7.190791674290165914e-02
2.419999999999999929e+01,7.656465361749346943e-02
2.423999999999999844e+01,4.911230624808909234e-02
2.428000000000000114e+01,4.956945423218553359e-02
2.432000000000000028e+01,7.126736623926538394e-02
2.435999999999999943e+01,4.949465142739131046e-02
2.439999999999999858e+01,7.267374404858532866e-02
2.444000000000000128e+01,9.214760589172796279e-02
2.448000000000000043e+01,6.222307923139016456e-02
2.451999999999999957e+01,6.094901661968016304e-02
2.455999999999999872e+01,5.473477231440061763e-02
2.460000000000000142e+01,7.321915093473109482e-02
2.464000000000000057e+01,6.354628358149218281e-02
2.467999999999999972e+01,6.152972588571663931e-02
2.471999999999999886e+01,6.840442781205913203e-02
2.476000000000000156e+01,7.947757835379529179e-02
2.480000000000000071e+01,5.770067120209024236e-02
2.483999999999999986e+01,4.506201299982946773e-02
2.487999999999999901e+01,5.662799597821915193e-02
2.492000000000000171e+01,2.991013965958898638e-02
2.496000000000000085e+01,4.098137627225429541e-02
2.500000000000000000e+01,8.885374541660287506e-02
2.503999999999999915e+01,6.658055932962142487e-02
2.507999999999999829e+01,7.196987380134846346e-02
2.512000000000000099e+01,3.290059677562295892e-02
2.516000000000000014e+01,2.964449116882051163e-02
2.519999999999999929e+01,7.455105876693154943e-02
2.523999999999999844e+01,4.165537869043507008e-02
2.528000000000000114e+01,5.420548089820478865e-02
2.532000000000000028e+01,8.305654037657783650e-02
2.535999999999999943e+01,5.905134555508249894e-02
2.539999999999999858e+01,5.702787845966361679e-02
2.544000000000000128e+01,5.525101529088220081e-02
2.548000000000000043e+01,4.655804463727220011e-02
2.551999999999999957e+01,2.403324512784254727e-02
2.555999999999999872e+01,4.794218640056437108e-02
2.560000000000000142e+01,4.048300546837145519e-02
2.564000000000000057e+01,1.622811448152157096e-02
2.567999999999999972e+01,6.335295765156231940e-02
2.571999999999999886e+01,4.206117183242149421e-02
2.576000000000000156e+01,3.410646018331940643e-02
2.580000000000000071e+01,5.949501574494471534e-02
2.583999999999999986e+01,3.770808508501564960e-02
2.587999999999999901e+01,6.235489330551079179e-02
2.592000000000000171e+01,2.451283231962392631e-02
2.596000000000000085e+01,4.471304164101347345e-02
2.600000000000000000e+01,2.094863431614881269e-02
2.603999999999999915e+01,3.200943301856083029e-02
2.607999999999999829e+01,3.689509079182826806e-02
2.612000000000000099e+01,6.820829274082013116e-02
2.616000000000000014e+01,4.172543482614302079e-02
2.619999999999999929e+01,2.932061858805201995e-02
2.623999999999999844e+01,2.975889358646081201e-02
2.628000000000000114e+01,2.550396670999045476e-02
2.632000000000000028e+01,3.359815051363962413e-02
2.635999999999999943e+01,4.885465390973583316e-02
2.639999999999999858e+01,5.472514394879667010e-02
2.644000000000000128e+01,4.799874986694244866e-02
2.648000000000000043e+01,3.238032203356931010e-02
2.651999999999999957e+01,6.591251972238147683e-02
2.655999999999999872e+01,4.016671492752052486e-02
2.660000000000000142e+01,4.233039169863817008e-02
2.664000000000000057e+01,2.349952178414073736e-02
2.667999999999999972e+01,5.258432623859441574e-02
2.671999999999999886e+01,4.387926077976055800e-02
2.676000000000000156e+01,3.838467188862879770e-02
2.680000000000000071e+01,3.832346969175022544e-02
2.683999999999999986e+01,6.518378747265810014e-02
2.687999999999999901e+01,2.585037973489019356e-02
2.692000000000000171e+01,1.417946162089929983e-02
2.696000000000000085e+01,1.510464042404770224e-02
2.700000000000000000e+01,3.480066691847287508e-02
2.703999999999999915e+01,2.633943317637415030e-02
2.707999999999999829e+01,4.257680762149942955e-02
2.712000000000000099e+01,4.745224410690990213e-02
2.716000000000000014e+01,2.836925033070919477e-02
2.719999999999999929e+01,3.028001342147287889e-02
2.723999999999999844e+01,6.084122439618269707e-02
2.728000000000000114e+01,6.299818366759932231e-02
2.732000000000000028e+01,5.799203447878178291e-02
2.735999999999999943e+01,3.050939408261849062e-02
2.739999999999999858e+01,4.130981219802878218e-02
2.744000000000000128e+01,1.851918680932562733e-02
2.748000000000000043e+01,1.968619710926482538e-02
2.751999999999999957e+01,4.357589265775995563e-02
2.755999999999999872e+01,2.942872326045961606e-02
2.760000000000000142e+01,3.652229839343842238e-02
2.764000000000000057e+01,2.953704203118032168e-02
2.767999999999999972e+01,5.416611142368318171e-02
2.771999999999999886e+01,1.927018139827780738e-02
2.776000000000000156e+01,2.735011851401128111e-02
2.780000000000000071e+01,4.308634674536754305e-02
2.783999999999999986e+01,2.523152909545123279e-02
2.787999999999999901e+01,2.664153398800980788e-02
2.792000000000000171e+01,3.348491891877638377e-02
2.796000000000000085e+01,3.390616170727666495e-02
2.800000000000000000e+01,2.741128203484663114e-02
2.803999999999999915e+01,2.289192112083887620e-02
2.807999999999999829e+01,1.985409864658948739e-02
2.812000000000000099e+01,2.323761518386488825e-02
2.816000000000000014e+01,3.156053025210443785e-02
2.819999999999999929e+01,2.259373997092073774e-02
2.823999999999999844e+01,5.141602312832836003e-02
2.828000000000000114e+01,2.960494499687377212e-02
2.832000000000000028e+01,3.965517885719958835e-02
2.835999999999999943e+01,1.685533386736868394e-02
2.839999999999999858e+01,4.098319286280813212e-02
2.844000000000000128e+01,4.598087999556435719e-03
2.848000000000000043e+01,1.711660696993659581e-02
2.851999999999999957e+01,1.827317966054519890e-02
2.855999999999999872e+01,4.017651109530336051e-02
2.860000000000000142e+01,5.244682605817693050e-02
2.864000000000000057e+01,3.631288123541668439e-02
2.867999999999999972e+01,5.549810683163149128e-02
2.871999999999999886e+01,5.714663394764227938e-02
2.876000000000000156e+01,2.742702007918182763e-02
2.880000000000000071e+01,4.290617753551389385e-02
2.883999999999999986e+01,2.849913377478770909e-02
2.887999999999999901e+01,1.335071333523441504e-02
2.892000000000000171e+01,3.203952164551635701e-02
2.896000000000000085e+01,2.923978940171235996e-02
2.900000000000000000e+01,2.619265984688190496e-02
2.903999999999999915e+01,3.919947541460169077e-02
2.907999999999999829e+01,3.195269991745859628e-02
2.912000000000000099e+01,2.915133716514963294e-02
2.916000000000000014e+01,2.807849647474375959e-02
2.919999999999999929e+01,3.021611785136944436e-02
2.923999999999999844e+01,2.642556955976848448e-02
2.928000000000000114e+01,2.782140318356025877e-02
2.932000000000000028e+01,2.896983759459841393e-02
2.935999999999999943e+01,1.727438049098628872e-02
2.939999999999999858e+01,8.048414144404080969e-03
2.944000000000000128e+01,4.822004600722004652e-02
2.948000000000000043e+01,3.504141900448116964e-02
2.951999999999999957e+01,9.512879617176695293e-03
2.955999999999999872e+01,5.264716088310495562e-02
2.960000000000000142e+01,1.773217852291761321e-02
2.964000000000000057e+01,3.295576330497141521e-02
2.967999999999999972e+01,2.199799248504485591e-02
2.971999999999999886e+01,4.882928630822112176e-02
2.976000000000000156e+01,1.539459846855566194e-02
2.980000000000000071e+01,4.988175973440498595e-02
2.983999999999999986e+01,3.719341100710949616e-02
2.987999999999999901e+01,3.685415180321802847e-02
2.992000000000000171e+01,4.293622091363557408e-02
2.996000000000000085e+01,1.888509211047552719e-02
3.000000000000000000e+01,1.656867365558870389e-02
3.003999999999999915e+01,1.993261268044088652e-02
3.007999999999999829e+01,3.688059024248824952e-02
3.012000000000000099e+01,5.333417379698975058e-02
3.016000000000000014e+01,2.952796658989465320e-02
3.019999999999999929e+01,3.807704028288087100e-02
3.023999999999999844e+01,3.378221723146699468e-02
3.028000000000000114e+01,2.701707889785038424e-02
3.032000000000000028e+01,1.210085411341024764e-02
3.035999999999999943e+01,3.200980968292913009e-02
3.039999999999999858e+01,2.746633565490033679e-02
3.044000000000000128e+01,1.526575454384839978e-02
3.048000000000000043e+01,1.245037890477258824e-02
3.051999999999999957e+01,5.137590380206763507e-02
3.055999999999999872e+01,5.830418315738204217e-03
3.060000000000000142e+01,3.018269750439839597e-02
3.064000000000000057e+01,2.662468510257753537e-02
3.067999999999999972e+01,2.553615585087775849e-02
3.071999999999999886e+01,3.407982068533256526e-02
3.076000000000000156e+01,4.163510762783848712e-02
3.080000000000000071e+01,2.943077336464636207e-02
3.083999999999999986e+01,2.512970219114212325e-02
3.087999999999999901e+01,6.726234018357406252e-02
3.092000000000000171e+01,2.171309512677468273e-02
3.096000000000000085e+01,4.556763252457358276e-02
3.100000000000000000e+01,1.903578250930270527e-02
3.103999999999999915e+01,3.671473034483729858e-02
3.107999999999999829e+01,4.006783620109292260e-02
3.112000000000000099e+01,4.070363174263781636e-02
3.116000000000000014e+01,2.256776410093764423e-02
3.119999999999999929e+01,4.938366348060171246e-02
3.123999999999999844e+01,6.582556057770923286e-02
3.128000000000000114e+01,3.435096900247706225e-02
3.132000000000000028e+01,5.400289474731444217e-02
3.135999999999999943e+01,6.229285733455108831e-02
3.139999999999999858e+01,5.082319515035089302e-02
3.144000000000000128e+01,5.096164309721212815e-02
3.148000000000000043e+01,3.158745583767866294e-02
3.151999999999999957e+01,4.876737232166186709e-02
3.155999999999999872e+01,5.260940413567170848e-02
3.160000000000000142e+01,5.299315266095765142e-02
3.164000000000000057e+01,5.164754794312249181e-02
3.167999999999999972e+01,5.104249014919169658e-02
3.171999999999999886e+01,6.500942130800051177e-02
3.176000000000000156e+01,5.452391478692093785e-02
3.180000000000000071e+01,8.948415180241507672e-02
3.183999999999999986e+01,7.282304621043475534e-02
3.187999999999999901e+01,1.077824346914497550e-01
3.192000000000000171e+01,7.556010753968847582e-02
3.196000000000000085e+01,6.457849900717274605e-02
3.200000000000000000e+01,9.706671249885837072e-02
3.203999999999999915e+01,7.719261207306768457e-02
3.207999999999999829e+01,5.336624542501382934e-02
3.211999999999999744e+01,5.349748689055745104e-02
3.215999999999999659e+01,4.646559113224241200e-02
3.220000000000000284e+01,7.870468552148901509e-02
3.224000000000000199e+01,4.400905241670614865e-02
3.228000000000000114e+01,5.550013011732860685e-02
3.232000000000000028e+01,8.082222308352980666e-02
3.235999999999999943e+01,7.502314371130239246e-02
3.239999999999999858e+01,6.329587589129166691e-02
3.243999999999999773e+01,4.662837954767812265e-02
3.247999999999999687e+01,7.417167249709737120e-02
3.252000000000000313e+01,4.095498730032907930e-02
3.256000000000000227e+01,6.553354314723881802e-02
3.260000000000000142e+01,4.614744312476989907e-02
3.264000000000000057e+01,6.455039039214284513e-02
3.267999999999999972e+01,6.516962560496288026e-02
3.271999999999999886e+01,5.294494933499681311e-02
3.275999999999999801e+01,3.553305259922648340e-02
3.279999999999999716e+01,3.713895912640070157e-02
3.284000000000000341e+01,5.875062884069995328e-02
3.288000000000000256e+01,4.454831235725550953e-02
3.292000000000000171e+01,3.355643583326364116e-02
3.296000000000000085e+01,2.947984963812037493e-02
3.300000000000000000e+01,3.651738422216999763e-02
3.303999999999999915e+01,3.342789586692156145e-02
3.307999999999999829e+01,4.194650789638242755e-02
3.311999999999999744e+01,3.490431562068261467e-02
3.315999999999999659e+01,2.366286066391611390e-02
3.320000000000000284e+01,1.810174440733211543e-02
3.324000000000000199e+01,1.550407616799937514e-02
3.328000000000000114e+01,2.649042744858939868e-02
3.332000000000000028e+01,2.685577404492180825e-02
3.335999999999999943e+01,5.957638276177892878e-02
3.339999999999999858e+01,4.610942049067219550e-02
3.343999999999999773e+01,5.017831743621074120e-02
3.347999999999999687e+01,3.918038801809368282e-02
3.352000000000000313e+01,4.868219782687954050e-02
3.356000000000000227e+01,3.274359909666472307e-02
3.360000000000000142e+01,7.040140454145416005e-02
3.364000000000000057e+01,4.754621522448487791e-02
3.367999999999999972e+01,5.087153511445995785e-02
3.371999999999999886e+01,2.974440567646707834e-02
3.375999999999999801e+01,4.714728699369313131e-02
3.379999999999999716e+01,2.626627624096825042e-02
3.384000000000000341e+01,5.824069811552994719e-02
3.388000000000000256e+01,4.254560590669220765e-02
3.392000000000000171e+01,5.574791192371863352e-02
3.396000000000000085e+01,4.425077714600766932e-02
3.400000000000000000e+01,1.126507186200704017e-02
3.403999999999999915e+01,5.756273234744505723e-02
3.407999999999999829e+01,6.113067837038670127e-02
3.411999999999999744e+01,6.914400742367433905e-02
3.415999999999999659e+01,8.036776906722142844e-02
3.420000000000000284e+01,5.009676573749504563e-02
3.424000000000000199e+01,7.836196358880109791e-02
3.428000000000000114e+01,5.401784417006597061e-02
3.432000000000000028e+01,3.831793728115754499e-02
3.435999999999999943e+01,5.818415709603994013e-02
3.439999999999999858e+01,6.644140564643867541e-02
3.443999999999999773e+01,7.667413492071500913e-02
3.447999999999999687e+01,4.862296808387014946e-02
3.452000000000000313e+01,6.749946886176232119e-02
3.456000000000000227e+01,7.575495758620370834e-02
3.460000000000000142e+01,6.252187223861691012e-02
3.464000000000000057e+01,8.757180237602496531e-02
3.467999999999999972e+01,4.000621958782848292e-02
3.471999999999999886e+01,6.332633715177993228e-02
3.475999999999999801e+01,4.688061669775406282e-02
3.479999999999999716e+01,6.451908008979921616e-02
3.484000000000000341e+01,7.326546004770119469e-02
3.488000000000000256e+01,7.731858702180435805e-02
3.492000000000000171e+01,8.334719186719422024e-02
3.496000000000000085e+01,4.911597742507900488e-02
3.500000000000000000e+01,3.736041373817124145e-02
3.503999999999999915e+01,4.906846073065158215e-02
3.507999999999999829e+01,6.793877549351173828e-02
3.511999999999999744e+01,5.445295131317513110e-02
3.515999999999999659e+01,4.664745418494178897e-02
3.520000000000000284e+01,6.329352694712953031e-02
3.524000000000000199e+01,4.536054968870565501e-02
3.528000000000000114e+01,5.583098249285702031e-02
3.532000000000000028e+01,6.728893062923954616e-02
3.535999999999999943e+01,6.664392171500854722e-02
3.539999999999999858e+01,5.019110490533604252e-02
3.543999999999999773e+01,4.509938441466042336e-02
3.547999999999999687e+01,6.248331182660146060e-02
3.552000000000000313e+01,7.319806212749604968e-02
3.556000000000000227e+01,5.995433224643944431e-02
3.560000000000000142e+01,6.449343878584332113e-02
3.564000000000000057e+01,7.298393924144062905e-02
3.567999999999999972e+01,5.010625758771519028e-02
3.571999999999999886e+01,5.834887382690537999e-02
3.575999999999999801e+01,5.374756051690056380e-02
3.579999999999999716e+01,6.026035134597534232e-02
3.584000000000000341e+01,7.467637555024997376e-02
3.588000000000000256e+01,7.353157904696647207e-02
3.592000000000000171e+01,7.633817479586514632e-02
3.596000000000000085e+01,8.309616255922996908e-02
3.600000000000000000e+01,1.029441735968877891e-01
3.603999999999999915e+01,7.932148840254736599e-02
3.607999999999999829e+01,8.731307904262780584e-02
3.611999999999999744e+01,9.505723005825053584e-02
3.615999999999999659e+01,9.860210056411378154e-02
3.620000000000000284e+01,1.056043815771995353e-01
3.624000000000000199e+01,8.914215844811190781e-02
3.628000000000000114e+01,9.935440915538293338e-02
3.632000000000000028e+01,9.894563734970350521e-02
3.635999999999999943e+01,7.531935072917711471e-02
3.639999999999999858e+01,1.005966408745332108e-01
3.643999999999999773e+01,9.277681411064549188e-02
3.647999999999999687e+01,8.841439618996893568e-02
3.652000000000000313e+01,9.887092873659743264e-02
3.656000000000000227e+01,1.211825310271256589e-01
3.660000000000000142e+01,7.754734007448739475e-02
3.664000000000000057e+01,8.726154518997052134e-02
3.667999999999999972e+01,8.586074557211170744e-02
3.671999999999999886e+01,5.654961823095439738e-02
3.675999999999999801e+01,6.305159337110766149e-02
3.679999999999999716e+01,7.622184597890847846e-02
3.684000000000000341e+01,6.345769047405608321e-02
3.688000000000000256e+01,7.045228410654826023e-02
3.692000000000000171e+01,6.608488153892892736e-02
3.696000000000000085e+01,7.258458617615375086e-02
3.700000000000000000e+01,7.315607502826615427e-02
3.703999999999999915e+01,5.791974623858496540e-02
3.707999999999999829e+01,5.355052394060028087e-02
3.711999999999999744e+01,5.337967680379463592e-02
3.715999999999999659e+01,6.086506515708994813e-02
3.720000000000000284e+01,4.735584406777137295e-02
3.724000000000000199e+01,5.780420066441448179e-02
3.728000000000000114e+01,3.540242540025381746e-02
3.732000000000000028e+01,3.893414767041590563e-02
3.735999999999999943e+01,3.184484124701401214e-02
3.739999999999999858e+01,4.574923107302052844e-02
3.743999999999999773e+01,5.347841245856541081e-02
3.747999999999999687e+01,4.935161423502794353e-02
3.752000000000000313e+01,3.806164693370064911e-02
3.756000000000000227e+01,2.059647047876396811e-02
3.760000000000000142e+01,2.239605880133736446e-02
3.764000000000000057e+01,9.622776118749325897e-03
3.767999999999999972e+01,4.180122194754885140e-02
3.771999999999999886e+01,1.371363880804135627e-02
3.775999999999999801e+01,2.860186338069660786e-02
3.779999999999999716e+01,3.188109648301627047e-02
3.784000000000000341e+01,2.700919844392238311e-02
3.788000000000000256e+01,3.374537226362916975e-02
3.792000000000000171e+01,2.146285268562886026e-02
3.796000000000000085e+01,4.425245833603963508e-02
3.800000000000000000e+01,3.962570873719117176e-02
3.803999999999999915e+01,1.746220527033272296e-02
3.807999999999999829e+01,1.234055336412620725e-02
3.811999999999999744e+01,2.598968306417473104e-02
3.815999999999999659e+01,4.457815186621108539e-02
3.820000000000000284e+01,1.599106099247849661e-02
3.824000000000000199e+01,0.000000000000000000e+00
3.828000000000000114e+01,1.710514201041223384e-02
3.832000000000000028e+01,1.854126060355440909e-03
3.835999999999999943e+01,4.385930128361748871e-03
3.839999999999999858e+01,2.346560377434456571e-02
3.843999999999999773e+01,3.933394352265765642e-02
3.847999999999999687e+01,3.494863634287039694e-02
3.852000000000000313e+01,2.290617406144737286e-02
3.856000000000000227e+01,3.408031149993870357e-02
3.860000000000000142e+01,2.154294073054411826e-02
3.864000000000000057e+01,1.740276677718441065e-02
3.867999999999999972e+01,4.191297272102211674e-02
3.871999999999999886e+01,3.060915776059398852e-02
3.875999999999999801e+01,3.560622019822501372e-02
3.879999999999999716e+01,1.936167364413195896e-02
3.884000000000000341e+01,3.621332676490698205e-02
3.888000000000000256e+01,2.194376879956094067e-02
3.892000000000000171e+01,1.162558525770412271e-02
3.896000000000000085e+01,2.773486958476629322e-02
3.900000000000000000e+01,5.026542826462711278e-02
3.903999999999999915e+01,4.686156575745990122e-02
3.907999999999999829e+01,2.863783364688453348e-02
3.911999999999999744e+01,4.276932942574358798e-02
3.915999999999999659e+01,3.393028379011649165e-02
3.920000000000000284e+01,2.138591965926926394e-02
3.924000000000000199e+01,5.107638432367386794e-02
3.928000000000000114e+01,3.062740240829051053e-02
3.932000000000000028e+01,4.302762727471027421e-02
3.935999999999999943e+01,6.036718411164072179e-02
3.939999999999999858e+01,4.979639729830707962e-02
3.943999999999999773e+01,4.416494198005244121e-02
3.947999999999999687e+01,4.791863864769503600e-02
3.952000000000000313e+01,4.944895516123509055e-02
3.956000000000000227e+01,4.850890124248259661e-02
3.960000000000000142e+01,4.707439697751454599e-02
3.964000000000000057e+01,5.823591427374393698e-02
3.967999999999999972e+01,5.778842892699023737e-02
3.971999999999999886e+01,3.239447851393470468e-02
3.975999999999999801e+01,6.331378611284951829e-02
3.979999999999999716e+01,5.100936517494510797e-02
3.984000000000000341e+01,5.031300444776213437e-02
3.988000000000000256e+01,5.480296264125721767e-02
3.992000000000000171e+01,4.274411595599132696e-02
3.996000000000000085e+01,4.402225905161791242e-02
4.000000000000000000e+01,6.481214270227433905e-02
4.003999999999999915e+01,6.757128051817724856e-02
4.007999999999999829e+01,6.069733363773107543e-02
4.011999999999999744e+01,5.629281380645215910e-02
4.015999999999999659e+01,5.929752159610723883e-02
4.020000000000000284e+01,5.563302446195501211e-02
4.024000000000000199e+01,6.851638597084772075e-02
4.028000000000000114e+01,4.805561770929547144e-02
4.032000000000000028e+01,7.131161206751035486e-02
4.035999999999999943e+01,6.764521723217588323e-02
4.039999999999999858e+01,8.447852073660870598e-02
4.043999999999999773e+01,1.072391099551192883e-01
4.047999999999999687e+01,1.080171100764154291e-01
4.052000000000000313e+01,1.070657041816596156e-01
4.056000000000000227e+01,1.085837227211961104e-01
4.060000000000000142e+01,1.488787014070058756e-01
4.064000000000000057e+01,1.348353947426266797e-01
4.067999999999999972e+01,1.393158644302104343e-01
4.071999999999999886e+01,1.349042157394129970e-01
4.075999999999999801e+01,1.660586557178615752e-01
4.079999999999999716e+01,1.559652815403863579e-01
4.084000000000000341e+01,1.730403341806049100e-01
4.088000000000000256e+01,1.861630683010612186e-01
4.092000000000000171e+01,2.128697765377025042e-01
4.096000000000000085e+01,2.111721517722110475e-01
4.100000000000000000e+01,2.371369329544981142e-01
4.103999999999999915e+01,2.794025779850377589e-01
4.107999999999999829e+01,2.875831183693918769e-01
4.111999999999999744e+01,3.076187013980327123e-01
4.115999999999999659e+01,3.427201973594077300e-01
4.120000000000000284e+01,3.946165362991200243e-01
4.124000000000000199e+01,4.514521960366956188e-01
4.128000000000000114e+01,5.213778476700646758e-01
4.132000000000000028e+01,5.552424729071598897e-01
4.135999999999999943e+01,6.543119881046578490e-01
4.139999999999999858e+01,7.158385361876055120e-01
4.143999999999999773e+01,8.205878601533264094e-01
4.147999999999999687e+01,8.922400372575997052e-01
4.152000000000000313e+01,9.233853660484850900e-01
4.156000000000000227e+01,9.799701870948593907e-01
4.160000000000000142e+01,1.000000000000000000e+00
4.164000000000000057e+01,9.777940335952866047e-01
4.167999999999999972e+01,9.597864152521388137e-01
4.171999999999999886e+01,8.770669234405593651e-01
4.175999999999999801e+01,7.940999584865797711e-01
4.179999999999999716e+01,6.864335061455453246e-01
4.184000000000000341e+01,6.481707716003829445e-01
4.188000000000000256e+01,5.686602164809674287e-01
4.192000000000000171e+01,4.985347988467789815e-01
4.196000000000000085e+01,4.553308113337648511e-01
4.200000000000000000e+01,3.874273352451165220e-01
4.203999999999999915e+01,3.573128505830721613e-01
4.207999999999999829e+01,2.980530561414274637e-01
4.211999999999999744e+01,2.728774020438430314e-01
4.215999999999999659e+01,2.558519338028197310e-01
4.220000000000000284e+01,2.277114280236597343e-01
4.224000000000000199e+01,2.141428486779561602e-01
4.228000000000000114e+01,1.734048786878657489e-01
4.232000000000000028e+01,1.803355000793332441e-01
4.235999999999999943e+01,1.346567561821467862e-01
4.239999999999999858e+01,1.482551350933704326e-01
4.243999999999999773e+01,1.250515108308525858e-01
4.247999999999999687e+01,1.016004091470482096e-01
4.252000000000000313e+01,1.058117043778177974e-01
4.256000000000000227e+01,1.359564660021266858e-01
4.260000000000000142e+01,1.068231298186847200e-01
4.264000000000000057e+01,1.004123890271865216e-01
4.267999999999999972e+01,1.125254127018560507e-01
4.271999999999999886e+01,1.004329236029530836e-01
4.275999999999999801e+01,8.191820440689914773e-02
4.279999999999999716e+01,8.538510953050298946e-02
4.284000000000000341e+01,7.452610278635185548e-02
4.288000000000000256e+01,6.341961624375516693e-02
4.292000000000000171e+01,8.392736488615944179e-02
4.296000000000000085e+01,6.936203754783437647e-02
4.300000000000000000e+01,4.639855836226972063e-02
4.303999999999999915e+01,6.739881567226484183e-02
4.307999999999999829e+01,4.715124527652951592e-02
4.311999999999999744e+01,6.716256029381026393e-02
4.315999999999999659e+01,5.407671846557509515e-02
4.320000000000000284e+01,5.482182724419241981e-02
4.324000000000000199e+01,7.804253780854071565e-02
4.328000000000000114e+01,7.137696134038906681e-02
4.332000000000000028e+01,7.854233476594220387e-02
4.335999999999999943e+01,7.558062392149379749e-02
4.339999999999999858e+01,7.286541026924130138e-02
4.343999999999999773e+01,6.891475332862402603e-02
4.347999999999999687e+01,6.199972257860719010e-02
4.352000000000000313e+01,6.471680984565547634e-02
4.356000000000000227e+01,6.891534355640666076e-02
4.360000000000000142e+01,6.422174177323153321e-02
4.364000000000000057e+01,5.952764571548269101e-02
4.367999999999999972e+01,6.026683603587518201e-02
4.371999999999999886e+01,6.298145193005517950e-02
4.375999999999999801e+01,6.618955291746222991e-02
4.379999999999999716e+01,7.236103916512139078e-02
4.384000000000000341e+01,4.617633464751667166e-02
4.388000000000000256e+01,5.926255086442926145e-02
4.392000000000000171e+01,4.863722725724053259e-02
4.396000000000000085e+01,5.579469038788819474e-02
4.400000000000000000e+01,5.529496584982109691e-02
4.403999999999999915e+01,5.652367494334013809e-02
4.407999999999999829e+01,6.343265807831560688e-02
4.411999999999999744e+01,3.798544878401578784e-02
4.415999999999999659e+01,4.983323823642890615e-02
4.420000000000000284e+01,6.217451016719389989e-02
4.424000000000000199e+01,7.723217470286215802e-02
4.428000000000000114e+01,8.438565986533014263e-02
4.432000000000000028e+01,5.720703108615036309e-02
4.435999999999999943e+01,7.152223055316410394e-02
4.439999999999999858e+01,6.928859851723541408e-02
4.443999999999999773e+01,7.569911886900954068e-02
4.447999999999999687e+01,5.617518570439258146e-02
4.452000000000000313e+01,5.962082679954591041e-02
4.456000000000000227e+01,5.615024701938425150e-02
4.460000000000000142e+01,6.354672904032879210e-02
4.464000000000000057e+01,5.365340801061316972e-02
4.467999999999999972e+01,3.733784547338303561e-02
4.471999999999999886e+01,5.708232815247246683e-02
4.475999999999999801e+01,7.089854892956390375e-02
4.479999999999999716e+01,5.828633420758866368e-02
4.484000000000000341e+01,5.629418981995020638e-02
4.488000000000000256e+01,6.393415536703608848e-02
4.492000000000000171e+01,4.440471458048527581e-02
4.496000000000000085e+01,7.649569013382863381e-02
4.500000000000000000e+01,5.227243410215644259e-02
4.503999999999999915e+01,5.422961976611151425e-02
4.507999999999999829e+01,3.865000972405722296e-02
4.511999999999999744e+01,4.702793053793127842e-02
4.515999999999999659e+01,5.194748747738945488e-02
4.520000000000000284e+01,4.550499900954383531e-02
4.524000000000000199e+01,3.758006651564357176e-02
4.528000000000000114e+01,4.151015194357576821e-02
4.532000000000000028e+01,3.136130080584095814e-02
4.535999999999999943e+01,4.319405877394605353e-02
4.539999999999999858e+01,5.156845144133983400e-02
4.543999999999999773e+01,2.585771355151454676e-02
4.547999999999999687e+01,4.608661798037184953e-02
4.552000000000000313e+01,4.062805275269869981e-02
4.556000000000000227e+01,3.418102167819189047e-02
4.560000000000000142e+01,4.526977755469518278e-02
4.564000000000000057e+01,2.993009294009790419e-02
4.567999999999999972e+01,2.669241391064806554e-02
4.571999999999999886e+01,3.308683982388857525e-02
4.575999999999999801e+01,4.540851983499150091e-02
4.579999999999999716e+01,2.636195759464770444e-02
4.584000000000000341e+01,4.955018492643124134e-02
4.588000000000000256e+01,4.408705997655176095e-02
4.592000000000000171e+01,2.701489530000798084e-02
4.596000000000000085e+01,3.711112701352208693e-02
4.600000000000000000e+01,3.115249779640596670e-02
4.603999999999999915e+01,1.803064886801203706e-02
4.607999999999999829e+01,3.133622549510613892e-02
4.611999999999999744e+01,4.809915367587817847e-02
4.615999999999999659e+01,5.769886143222480168e-02
4.620000000000000284e+01,4.605691621940487257e-02
4.624000000000000199e+01,4.577600314228737199e-02
4.628000000000000114e+01,6.303087297500961639e-02
4.632000000000000028e+01,3.261615479468585321e-02
4.635999999999999943e+01,1.973721904876998140e-02
4.639999999999999858e+01,2.711095594476152157e-02
4.643999999999999773e+01,2.929739107610943374e-02
4.647999999999999687e+01,4.580873740255378412e-02
4.652000000000000313e+01,4.305434918189737781e-02
4.656000000000000227e+01,3.363071824060485937e-02
4.660000000000000142e+01,6.051411138345849650e-02
4.664000000000000057e+01,5.034848635192632621e-02
4.667999999999999972e+01,4.586311991031679497e-02
4.671999999999999886e+01,5.940751384462027163e-02
4.675999999999999801e+01,5.343918176505330075e-02
4.679999999999999716e+01,5.092819719799407396e-02
4.684000000000000341e+01,4.816970929861465189e-02
4.688000000000000256e+01,4.170585726256138825e-02
4.692000000000000171e+01,4.709701340198834546e-02
4.696000000000000085e+01,6.039133683159365190e-02
4.700000000000000000e+01,6.207661411620535308e-02
4.703999999999999915e+01,5.857458607043473930e-02
4.707999999999999829e+01,5.852990387316040627e-02
4.711999999999999744e+01,4.638219473679649346e-02
4.715999999999999659e+01,6.510772546612521305e-02
4.720000000000000284e+01,6.654343793097583504e-02
4.724000000000000199e+01,6.674368452445075817e-02
4.728000000000000114e+01,7.188321602068710459e-02
4.732000000000000028e+01,8.048009193912451786e-02
4.735999999999999943e+01,5.795570637566881816e-02
4.739999999999999858e+01,6.852746961587766195e-02
4.743999999999999773e+01,7.366493510807102518e-02
4.747999999999999687e+01,1.039948676333249389e-01
4.752000000000000313e+01,9.184199586401241289e-02
4.756000000000000227e+01,9.105014838577735192e-02
4.760000000000000142e+01,8.926982293719765149e-02
4.764000000000000057e+01,9.712159102094475305e-02
4.767999999999999972e+01,1.138644822778804439e-01
4.771999999999999886e+01,1.054138708848590539e-01
4.775999999999999801e+01,1.345052268845932653e-01
4.779999999999999716e+01,1.332162889089820446e-01
4.784000000000000341e+01,1.452642938842299558e-01
4.788000000000000256e+01,1.590407096703372603e-01
4.792000000000000171e+01,1.384849901203652756e-01
4.796000000000000085e+01,1.381819339413803693e-01
4.800000000000000000e+01,1.699870628384248517e-01
4.803999999999999915e+01,1.723998564957248958e-01
4.807999999999999829e+01,1.691313585610808856e-01
4.811999999999999744e+01,1.787058218323364922e-01
4.815999999999999659e+01,1.951954851003968039e-01
4.820000000000000284e+01,2.272449995441403470e-01
4.824000000000000199e+01,2.511433210403349325e-01
4.828000000000000114e+01,2.367576644134211095e-01
4.832000000000000028e+01,2.670766830249898804e-01
4.835999999999999943e+01,2.791179163164226873e-01
4.839999999999999858e+01,2.857248461546583740e-01
4.843999999999999773e+01,2.626924483355165263e-01
4.847999999999999687e+01,2.848587048849419157e-01
4.852000000000000313e+01,2.667650615611703580e-01
4.856000000000000227e+01,2.602794266260528011e-01
4.860000000000000142e+01,2.320581443778662323e-01
4.864000000000000057e+01,2.292763123094529731e-01
4.867999999999999972e+01,2.052528125334870668e-01
4.871999999999999886e+01,1.958012006810011252e-01
4.875999999999999801e+01,1.601681198360481728e-01
4.879999999999999716e+01,1.798602831173744254e-01
4.884000000000000341e+01,1.353345106977861256e-01
4.888000000000000256e+01,1.500858225766313614e-01
4.892000000000000171e+01,1.277881027312843254e-01
4.896000000000000085e+01,1.264840104354490180e-01
4.900000000000000000e+01,1.014683481255926195e-01
4.903999999999999915e+01,8.484982082563571892e-02
4.907999999999999829e+01,8.132123906687079018e-02
4.911999999999999744e+01,8.495484164020306039e-02
4.915999999999999659e+01,8.117821591994296704e-02
4.920000000000000284e+01,1.013590968085887611e-01
4.924000000000000199e+01,7.510532253329814389e-02
4.928000000000000114e+01,7.898380540333492517e-02
4.932000000000000028e+01,6.557245740995051864e-02
4.935999999999999943e+01,7.611861507460854215e-02
4.939999999999999858e+01,7.011591152183599407e-02
4.943999999999999773e+01,5.941986845667509426e-02
4.947999999999999687e+01,3.563282426528966568e-02
4.952000000000000313e+01,5.235161749284958366e-02
4.956000000000000227e+01,5.375649875448593878e-02
4.960000000000000142e+01,5.861871088851657030e-02
4.964000000000000057e+01,4.545012013597654610e-02
4.967999999999999972e+01,4.635943152078643437e-02
4.971999999999999886e+01,2.676803913885254099e-02
4.975999999999999801e+01,4.200171181866350911e-02
4.979999999999999716e+01,4.365040138957443361e-02
4.984000000000000341e+01,3.838283870667088399e-02
4.988000000000000256e+01,3.953648571783979770e-02
4.992000000000000171e+01,4.587639198299466731e-02
4.996000000000000085e+01,3.863131418838588321e-02
5.000000000000000000e+01,2.446998318909895248e-02
5.003999999999999915e+01,3.105528328052034256e-02
5.007999999999999829e+01,3.615811058226253705e-02
5.011999999999999744e+01,5.015204655652313187e-02
5.015999999999999659e+01,2.660296335645013360e-02
5.020000000000000284e+01,3.343312187471278452e-02
5.024000000000000199e+01,3.458197596437253413e-02
5.028000000000000114e+01,4.684484813995411917e-02
5.032000000000000028e+01,3.317323209262249689e-02
5.035999999999999943e+01,3.827232491047889706e-02
5.039999999999999858e+01,7.310337370551013569e-03
5.043999999999999773e+01,3.117960412960206831e-02
5.047999999999999687e+01,3.331321240293646374e-02
5.052000000000000313e+01,2.704862413844116506e-02
5.056000000000000227e+01,2.745223156732212386e-02
5.060000000000000142e+01,3.106617388522559323e-02
5.064000000000000057e+01,1.837823765697961173e-02
5.067999999999999972e+01,2.791886895883219713e-02
5.071999999999999886e+01,1.745277063199161122e-02
5.075999999999999801e+01,2.575737879318000523e-02
5.079999999999999716e+01,2.640475887394976712e-02
5.084000000000000341e+01,1.717200027231787288e-02
5.088000000000000256e+01,2.843887772888614371e-02
5.092000000000000171e+01,2.537979529908657508e-02
5.096000000000000085e+01,1.787435436416851681e-02
5.100000000000000000e+01,3.605533962425956640e-02
5.103999999999999915e+01,3.620551367772317786e-02
5.107999999999999829e+01,1.313808543688680698e-02
5.111999999999999744e+01,2.390775401355800869e-02
5.115999999999999659e+01,3.566484378696203189e-02
5.120000000000000284e+01,3.161403176714210062e-02
5.124000000000000199e+01,2.509277990198529457e-02
5.128000000000000114e+01,1.955894852041351398e-02
5.132000000000000028e+01,2.316320872035703554e-02
5.135999999999999943e+01,1.911023751185930361e-02
5.139999999999999858e+01,2.987612834035000345e-02
5.143999999999999773e+01,1.618946453272689101e-02
5.147999999999999687e+01,4.053872609122849413e-02
5.152000000000000313e+01,3.179078112158997826e-02
5.156000000000000227e+01,2.279530476915446469e-02
5.160000000000000142e+01,3.504043031745526782e-02
5.164000000000000057e+01,2.530290044580400105e-02
5.167999999999999972e+01,1.778773888294930827e-02
5.171999999999999886e+01,2.533842749583001264e-02
5.175999999999999801e+01,2.572586240405856997e-02
5.179999999999999716e+01,2.166693381513460845e-02
5.184000000000000341e+01,2.970997420310873480e-02
5.188000000000000256e+01,4.022237175177402480e-02
5.192000000000000171e+01,2.307134128557097874e-02
5.196000000000000085e+01,2.567897033781630853e-02
5.200000000000000000e+01,1.643053349010571360e-02
5.203999999999999915e+01,1.310931341886043856e-02
5.207999999999999829e+01,2.460695134343320739e-02
5.211999999999999744e+01,3.067026370722975015e-02
5.215999999999999659e+01,4.019089172960259304e-02
5.220000000000000284e+01,3.859642278486236089e-02
5.224000000000000199e+01,1.872414546154346771e-02
5.228000000000000114e+01,3.293594810244505899e-02
5.232000000000000028e+01,3.529168294166349501e-02
5.235999999999999943e+01,2.801426010574996697e-02
5.239999999999999858e+01,1.357357976172993315e-02
5.243999999999999773e+01,2.062048636688620581e-02
5.247999999999999687e+01,3.211266689078812880e-02
5.252000000000000313e+01,2.557402741257421702e-02
5.256000000000000227e+01,2.767949206573423401e-02
5.260000000000000142e+01,1.101316611992416566e-02
5.264000000000000057e+01,3.188877856552928269e-02
5.267999999999999972e+01,3.078172941056882619e-02
5.271999999999999886e+01,3.288500254568792192e-02
5.275999999999999801e+01,3.029491643799860079e-02
5.279999999999999716e+01,2.795127165926760901e-02
5.284000000000000341e+01,2.758299825509772860e-02
5.288000000000000256e+01,3.882270756626412384e-02
5.292000000000000171e+01,3.400751482194867836e-02
5.296000000000000085e+01,2.005314091771091475e-02
5.300000000000000000e+01,3.030324107984227328e-02
5.303999999999999915e+01,4.648055207554140089e-02
5.307999999999999829e+01,2.931365723170599458e-02
5.311999999999999744e+01,1.856795282695474295e-02
5.315999999999999659e+01,2.437003028301110846e-02
5.320000000000000284e+01,3.140650685276309001e-02
5.324000000000000199e+01,3.127972092237451401e-02
5.328000000000000114e+01,2.053181168749165786e-02
5.332000000000000028e+01,2.633168336255278796e-02
5.335999999999999943e+01,3.879973409087671826e-02
5.339999999999999858e+01,3.965870063966216857e-02
5.343999999999999773e+01,3.681226406636534804e-02
5.347999999999999687e+01,4.260992615697669489e-02
5.352000000000000313e+01,3.482258303110885578e-02
5.356000000000000227e+01,3.073953728423482051e-02
5.360000000000000142e+01,4.098136041902615545e-02
5.364000000000000057e+01,4.776476928362981267e-02
5.367999999999999972e+01,3.058959028097726907e-02
5.371999999999999886e+01,2.131753839451512589e-02
5.375999999999999801e+01,3.056918512691494949e-02
5.379999999999999716e+01,2.722378514072068892e-02
5.384000000000000341e+01,3.104054143614673467e-02
5.388000000000000256e+01,3.065791191366723858e-02
5.392000000000000171e+01,3.620248799500556253e-02
5.396000000000000085e+01,3.655971762111012019e-02
5.400000000000000000e+01,4.827793326603144197e-02
5.403999999999999915e+01,4.196531987563246330e-02
5.407999999999999829e+01,4.503777170482548692e-02
5.411999999999999744e+01,2.711551353757693517e-02
5.415999999999999659e+01,3.191578230009143452e-02
5.420000000000000284e+01,1.572134059073245632e-02
5.424000000000000199e+01,4.472551901885050973e-02
5.428000000000000114e+01,2.778899241177629209e-02
5.432000000000000028e+01,3.382198182407567671e-02
5.435999999999999943e+01,4.405324394199906790e-02
5.439999999999999858e+01,3.230183423757296973e-02
5.443999999999999773e+01,3.215839797756284840e-02
5.447999999999999687e+01,3.176741298149464432e-02
5.452000000000000313e+01,3.952654038777297929e-02
5.456000000000000227e+01,4.679112854208718891e-02
5.460000000000000142e+01,5.479612740909221846e-02
5.464000000000000057e+01,4.477029367503840979e-02
5.467999999999999972e+01,3.301496977350222573e-02
5.471999999999999886e+01,2.792781684288817359e-02
5.475999999999999801e+01,2.679194420026494161e-02
5.479999999999999716e+01,3.627608270071804031e-02
5.484000000000000341e+01,3.983189939476495384e-02
5.488000000000000256e+01,4.338715501606900393e-02
5.492000000000000171e+01,5.114068001497425880e-02
5.496000000000000085e+01,3.542958962066260209e-02
5.500000000000000000e+01,3.577229007127861321e-02
5.503999999999999915e+01,3.166860776975376213e-02
5.507999999999999829e+01,5.201637721384501367e-02
5.511999999999999744e+01,4.173681914010605315e-02
5.515999999999999659e+01,2.898679792487153864e-02
5.520000000000000284e+01,3.080862612314036811e-02
5.524000000000000199e+01,2.818407038068871870e-02
5.528000000000000114e+01,3.272166236208483292e-02
5.532000000000000028e+01,3.528277033206995983e-02
5.535999999999999943e+01,4.327709526715210059e-02
5.539999999999999858e+01,3.867436397500398360e-02
5.543999999999999773e+01,4.395066990105533922e-02
5.547999999999999687e+01,3.539496892207399936e-02
5.552000000000000313e+01,3.350743415969663352e-02
5.556000000000000227e+01,4.470980642853477488e-02
5.560000000000000142e+01,6.332131455996742320e-02
5.564000000000000057e+01,4.389579086903923344e-02
5.567999999999999972e+01,3.953609381997186256e-02
5.571999999999999886e+01,3.319991038233438552e-02
5.575999999999999801e+01,4.044761286828112146e-02
5.579999999999999716e+01,3.806213723552806516e-02
5.584000000000000341e+01,3.913395539148816632e-02
5.588000000000000256e+01,4.761490774603144988e-02
5.592000000000000171e+01,5.634228288769238535e-02
5.596000000000000085e+01,5.099065823125566860e-02
5.600000000000000000e+01,4.736739612934946775e-02
5.603999999999999915e+01,5.584607804417135446e-02
5.607999999999999829e+01,5.098672956917026100e-02
5.611999999999999744e+01,5.353651386645694177e-02
5.615999999999999659e+01,5.361582907935041192e-02
5.620000000000000284e+01,3.640527254168715587e-02
5.624000000000000199e+01,4.562208117967178622e-02
5.628000000000000114e+01,7.286859337946811899e-02
5.632000000000000028e+01,5.615030874435415070e-02
5.635999999999999943e+01,5.474483675040468789e-02
5.639999999999999858e+01,8.297759950740318802e-02
5.643999999999999773e+01,7.391429580914510300e-02
5.647999999999999687e+01,5.003101910106019790e-02
5.652000000000000313e+01,7.282828922349035561e-02
5.656000000000000227e+01,6.252832286557642727e-02
5.660000000000000142e+01,6.605922747968683006e-02
5.664000000000000057e+01,6.119189918543405798e-02
5.667999999999999972e+01,4.298653693561967776e-02
5.671999999999999886e+01,6.232308883019814505e-02
5.675999999999999801e+01,6.436976564619718844e-02
5.679999999999999716e+01,6.765082018146040266e-02
5.684000000000000341e+01,7.438916256253910730e-02
5.688000000000000256e+01,6.877742996137324594e-02
5.692000000000000171e+01,5.649639307115179171e-02
5.696000000000000085e+01,6.298602582299400732e-02
5.700000000000000000e+01,6.502926417461604713e-02
5.703999999999999915e+01,6.756590869778442143e-02
5.707999999999999829e+01,6.121033761676648172e-02
5.711999999999999744e+01,6.646272405319886278e-02
5.715999999999999659e+01,5.887105376242719734e-02
5.720000000000000284e+01,7.153199193026840708e-02
5.724000000000000199e+01,6.097529119556029803e-02
5.728000000000000114e+01,7.042420840355925749e-02
5.732000000000000028e+01,6.159528704305959612e-02
5.735999999999999943e+01,5.622365043806863000e-02
5.739999999999999858e+01,5.554424855324114479e-02
5.743999999999999773e+01,4.078583807482741297e-02
5.747999999999999687e+01,4.381013398627411209e-02
5.752000000000000313e+01,6.856897669745148916e-02
5.756000000000000227e+01,6.121853714728348050e-02
5.760000000000000142e+01,4.917470959068258318e-02
5.764000000000000057e+01,5.590154763497502677e-02
5.767999999999999972e+01,5.052529598317889725e-02
5.771999999999999886e+01,5.823893852593927528e-02
5.775999999999999801e+01,6.323511243519611136e-02
5.779999999999999716e+01,3.266414209017458326e-02
5.784000000000000341e+01,5.593642190479289344e-02
5.788000000000000256e+01,5.623804905388146008e-02
5.792000000000000171e+01,5.900899746855965688e-02
5.796000000000000085e+01,4.498404375412941303e-02
5.800000000000000000e+01,6.430216588912292253e-02
5.803999999999999915e+01,3.693859052220677119e-02
5.807999999999999829e+01,5.304468218872179092e-02
5.811999999999999744e+01,5.680069150379916249e-02
5.815999999999999659e+01,4.870059831067114625e-02
5.820000000000000284e+01,3.961196415248359470e-02
5.824000000000000199e+01,4.386021113901990981e-02
5.828000000000000114e+01,6.613814980157269041e-02
5.832000000000000028e+01,4.618021002673880493e-02
5.835999999999999943e+01,5.141467262623922868e-02
5.839999999999999858e+01,4.578099145313545976e-02
5.843999999999999773e+01,5.175525995285715219e-02
5.847999999999999687e+01,5.748195594493034355e-02
5.852000000000000313e+01,3.752110502280384813e-02
5.856000000000000227e+01,5.040934654113014834e-02
5.860000000000000142e+01,5.020653273400563221e-02
5.864000000000000057e+01,6.111768733017872851e-02
5.867999999999999972e+01,5.745584588262432624e-02
5.871999999999999886e+01,5.033555997496235584e-02
5.875999999999999801e+01,4.000381940995093727e-02
5.879999999999999716e+01,4.473788694495962892e-02
5.884000000000000341e+01,3.959176825438565778e-02
5.888000000000000256e+01,4.654757670271049419e-02
5.892000000000000171e+01,6.733424233553711447e-02
5.896000000000000085e+01,4.218017512041064010e-02
5.900000000000000000e+01,7.161032129258528001e-02
5.903999999999999915e+01,4.694906280572879592e-02
5.907999999999999829e+01,4.007050120009654492e-02
5.911999999999999744e+01,4.084804457853339482e-02
5.915999999999999659e+01,5.175159310806459745e-02
5.920000000000000284e+01,5.055204290830286190e-02
5.924000000000000199e+01,5.305675633187646040e-02
5.928000000000000114e+01,4.000050998408742620e-02
5.932000000000000028e+01,4.546792921264957571e-02
5.935999999999999943e+01,4.673593005622719843e-02
5.939999999999999858e+01,5.516605413891436521e-02
5.943999999999999773e+01,4.161347644704792292e-02
5.947999999999999687e+01,5.275931439252226629e-02
5.952000000000000313e+01,6.143466328546741406e-02
5.956000000000000227e+01,5.677196110730572953e-02
5.960000000000000142e+01,4.173508810601096741e-02
5.964000000000000057e+01,5.930031108636544396e-02
5.967999999999999972e+01,4.475623920643165277e-02
5.971999999999999886e+01,5.244068113280190430e-02
5.975999999999999801e+01,5.197386164944256537e-02
5.979999999999999716e+01,4.261481039721535385e-02
5.984000000000000341e+01,4.906253118581710426e-02
5.988000000000000256e+01,6.489528272520467267e-02
5.992000000000000171e+01,5.528746907081009965e-02
5.996000000000000085e+01,4.666702431564900139e-02
