2.003999999999999915e+01,4.083493539708682452e-02
2.007999999999999829e+01,4.073617553061916613e-02
2.012000000000000099e+01,3.319879665841554001e-02
2.016000000000000014e+01,3.917297569284189374e-02
2.019999999999999929e+01,4.438830058089018871e-02
2.023999999999999844e+01,4.869295743239610008e-02
2.028000000000000114e+01,2.992226425383548438e-02
2.032000000000000028e+01,4.789049612626632146e-02
2.035999999999999943e+01,5.508021951643270880e-02
2.039999999999999858e+01,3.099669414899651129e-02
2.044000000000000128e+01,3.120343436781511035e-02
2.048000000000000043e+01,3.976008640169370612e-02
2.051999999999999957e+01,3.328746518933684700e-02
2.055999999999999872e+01,3.364662494394021763e-02
2.060000000000000142e+01,4.038212600839695410e-02
2.064000000000000057e+01,5.030589682311383676e-02
2.067999999999999972e+01,4.565582901523902726e-02
2.071999999999999886e+01,4.328315164341051818e-02
2.076000000000000156e+01,3.574903241083465799e-02
2.080000000000000071e+01,4.476271264723591381e-02
2.083999999999999986e+01,3.464816373013142325e-02
2.087999999999999901e+01,2.878456870743136345e-02
2.092000000000000171e+01,2.929730694104349178e-02
2.096000000000000085e+01,3.907082221023256557e-02
2.100000000000000000e+01,4.383470246199000497e-02
2.103999999999999915e+01,4.115994055407994762e-02
2.107999999999999829e+01,3.954805695421078487e-02
2.112000000000000099e+01,4.658969482926225009e-02
2.116000000000000014e+01,4.133467525348192423e-02
2.119999999999999929e+01,3.820522114996467711e-02
2.123999999999999844e+01,2.718168120290241976e-02
2.128000000000000114e+01,3.726031514864890093e-02
2.132000000000000028e+01,3.747129375233616139e-02
2.135999999999999943e+01,2.963637060892894415e-02
2.139999999999999858e+01,2.969589747623658377e-02
2.144000000000000128e+01,4.023069236658124298e-02
2.148000000000000043e+01,3.846882175255285363e-02
2.151999999999999957e+01,1.879320793901536127e-02
2.155999999999999872e+01,3.327566894998254532e-02
2.160000000000000142e+01,2.802263014639806010e-02
2.164000000000000057e+01,2.459151997451464872e-02
2.167999999999999972e+01,4.651333436571413599e-02
2.171999999999999886e+01,4.050175021482563253e-02
2.176000000000000156e+01,5.118975425576224175e-02
2.180000000000000071e+01,5.489453566028552195e-02
2.183999999999999986e+01,3.780112102580078515e-02
2.187999999999999901e+01,3.892542039777778518e-02
2.192000000000000171e+01,3.170017816202040650e-02
2.196000000000000085e+01,4.663978288959698404e-02
2.200000000000000000e+01,3.804855564890919500e-02
2.203999999999999915e+01,4.099527151516862977e-02
2.207999999999999829e+01,3.316343561138000023e-02
2.212000000000000099e+01,3.641410215073911244e-02
2.216000000000000014e+01,4.376387748686662998e-02
2.219999999999999929e+01,3.836153054773923377e-02
2.223999999999999844e+01,3.963910941100971808e-02
2.228000000000000114e+01,2.877181551952582433e-02
2.232000000000000028e+01,4.781181658818586810e-02
2.235999999999999943e+01,4.195466067710464098e-02
2.239999999999999858e+01,3.655309831932140874e-02
2.244000000000000128e+01,3.767964384700112773e-02
2.248000000000000043e+01,2.286598949967713276e-02
2.251999999999999957e+01,4.327307600053467707e-02
2.255999999999999872e+01,4.348919987580249918e-02
2.260000000000000142e+01,3.581120367997530501e-02
2.264000000000000057e+01,3.450949745267667401e-02
2.267999999999999972e+01,3.791413846902789292e-02
2.271999999999999886e+01,4.222980363555008804e-02
2.276000000000000156e+01,5.064456249845114555e-02
2.280000000000000071e+01,5.404964104275155473e-02
2.283999999999999986e+01,6.929626832708930817e-02
2.287999999999999901e+01,6.435192493229620336e-02
2.292000000000000171e+01,5.272795648063855617e-02
2.296000000000000085e+01,6.008073927209849063e-02
2.300000000000000000e+01,7.274711278755287280e-02
2.303999999999999915e+01,5.641736435576195224e-02
2.307999999999999829e+01,5.830529972965321078e-02
2.312000000000000099e+01,4.546752218923004463e-02
2.316000000000000014e+01,3.551432521048770302e-02
2.319999999999999929e+01,3.254465564046254977e-02
2.323999999999999844e+01,4.293465357826278805e-02
2.328000000000000114e+01,4.042068917663538263e-02
2.332000000000000028e+01,4.549750069753297904e-02
2.335999999999999943e+01,2.901701350774508331e-02
2.339999999999999858e+01,3.439771127341307438e-02
2.344000000000000128e+01,1.685479236376722506e-02
2.348000000000000043e+01,1.935130179453456098e-02
2.351999999999999957e+01,3.034945941519254231e-02
2.355999999999999872e+01,3.846329795868971141e-02
2.360000000000000142e+01,3.519129494393263141e-02
2.364000000000000057e+01,2.387333280060028110e-02
2.367999999999999972e+01,4.124812832209048125e-02
2.371999999999999886e+01,3.569930012141835085e-02
2.376000000000000156e+01,3.060603124649413989e-02
2.380000000000000071e+01,3.416621639808345434e-02
2.383999999999999986e+01,3.317213370747766621e-02
2.387999999999999901e+01,1.608600302415409689e-02
2.392000000000000171e+01,1.569940617125281310e-02
2.396000000000000085e+01,6.204151951935056586e-03
2.400000000000000000e+01,1.690012586949758006e-02
2.403999999999999915e+01,2.106825942627296722e-02
2.407999999999999829e+01,3.449709149659917901e-02
2.412000000000000099e+01,4.777422229855371461e-02
2.416000000000000014e+01,2.309824284105346445e-02
2.419999999999999929e+01,3.971547728950162309e-02
2.423999999999999844e+01,2.779199824033941682e-02
2.428000000000000114e+01,1.920851021587825433e-02
2.432000000000000028e+01,3.370068706071385062e-02
2.435999999999999943e+01,2.435834677547601620e-02
2.439999999999999858e+01,2.169587793123322825e-02
2.444000000000000128e+01,1.964076418243492980e-02
2.448000000000000043e+01,2.578364869596085421e-02
2.451999999999999957e+01,2.312148751631613181e-02
2.455999999999999872e+01,1.438691153929422782e-02
2.460000000000000142e+01,1.324307927063272591e-02
2.464000000000000057e+01,1.710917068462460347e-02
2.467999999999999972e+01,1.475103139768983544e-02
2.471999999999999886e+01,1.816187819738020529e-02
2.476000000000000156e+01,2.111738185467386050e-02
2.480000000000000071e+01,3.697707510836539119e-02
2.483999999999999986e+01,2.793954896737170512e-02
2.487999999999999901e+01,1.222234844157378715e-02
2.492000000000000171e+01,2.443880995576935833e-02
2.496000000000000085e+01,2.557302145110346495e-02
2.500000000000000000e+01,2.852907701595660400e-02
2.503999999999999915e+01,2.009925478162022383e-02
2.507999999999999829e+01,1.060682981745994860e-02
2.512000000000000099e+01,1.690303118211396172e-02
2.516000000000000014e+01,2.942364621018852752e-02
2.519999999999999929e+01,1.810972296764414013e-02
2.523999999999999844e+01,2.228079726689321735e-02
2.528000000000000114e+01,2.645195398715539936e-02
2.532000000000000028e+01,1.832634856055091743e-02
2.535999999999999943e+01,2.826655667467646918e-02
2.539999999999999858e+01,6.174325777261754564e-03
2.544000000000000128e+01,2.795609659733800517e-02
2.548000000000000043e+01,1.831267792637458758e-02
2.551999999999999957e+01,3.432571294294304437e-02
2.555999999999999872e+01,1.557367301871454696e-02
2.560000000000000142e+01,2.111176881738978037e-02
2.564000000000000057e+01,7.976953309856248467e-03
2.567999999999999972e+01,1.305975617298306413e-02
2.571999999999999886e+01,2.618871320749070059e-02
2.576000000000000156e+01,9.562415422295987566e-03
2.580000000000000071e+01,1.312730047281267243e-02
2.583999999999999986e+01,2.731915569364674889e-02
2.587999999999999901e+01,2.314171933505919723e-02
2.592000000000000171e+01,2.412598732843164798e-02
2.596000000000000085e+01,2.769113964805686515e-02
2.600000000000000000e+01,2.214758325994074101e-02
2.603999999999999915e+01,2.799005642603620905e-02
2.607999999999999829e+01,2.563469617183372629e-02
2.612000000000000099e+01,3.087004137167125364e-02
2.616000000000000014e+01,2.805936402129693280e-02
2.619999999999999929e+01,3.496477048017759826e-02
2.623999999999999844e+01,1.241853580598713432e-02
2.628000000000000114e+01,2.342300563268364527e-02
2.632000000000000028e+01,2.835501636752672458e-02
2.635999999999999943e+01,1.719491669470800399e-02
2.639999999999999858e+01,1.666177309850970165e-02
2.644000000000000128e+01,1.643230849618078707e-02
2.648000000000000043e+01,2.774067525791574715e-02
2.651999999999999957e+01,2.295692758521844859e-02
2.655999999999999872e+01,8.912644227611269190e-03
2.660000000000000142e+01,9.746072650361894268e-03
2.664000000000000057e+01,3.244060448646420014e-02
2.667999999999999972e+01,3.464044424069167433e-02
2.671999999999999886e+01,1.877459704189486656e-02
2.676000000000000156e+01,3.008330115787253775e-02
2.680000000000000071e+01,2.955064452976987471e-02
2.683999999999999986e+01,2.446364455752374906e-02
2.687999999999999901e+01,1.178604256501277099e-02
2.692000000000000171e+01,1.520064736708986140e-02
2.696000000000000085e+01,1.648991194048876271e-02
2.700000000000000000e+01,2.172635061737483025e-02
2.703999999999999915e+01,2.665920165385475549e-02
2.707999999999999829e+01,1.838436894816291439e-02
2.712000000000000099e+01,4.092758770032648569e-02
2.716000000000000014e+01,3.826990290268855038e-02
2.719999999999999929e+01,2.498535036181548721e-02
2.723999999999999844e+01,3.538364073556186928e-02
2.728000000000000114e+01,2.301003067497202001e-02
2.732000000000000028e+01,3.097937807924440110e-02
2.735999999999999943e+01,3.894875555651258758e-02
2.739999999999999858e+01,3.598763449013941962e-02
2.744000000000000128e+01,3.955449547264893589e-02
2.748000000000000043e+01,3.143179148077461516e-02
2.751999999999999957e+01,3.818677611532724642e-02
2.755999999999999872e+01,4.494178578941231822e-02
2.760000000000000142e+01,4.061447900292151914e-02
2.764000000000000057e+01,5.086123205583684137e-02
2.767999999999999972e+01,6.232251019597816188e-02
2.771999999999999886e+01,5.890614676867953620e-02
2.776000000000000156e+01,6.596489230698002193e-02
2.780000000000000071e+01,5.708330408015500901e-02
2.783999999999999986e+01,4.698723077824223937e-02
2.787999999999999901e+01,7.514802109712569178e-02
2.792000000000000171e+01,5.882765253817365259e-02
2.796000000000000085e+01,6.330566398741577228e-02
2.800000000000000000e+01,7.188263725630043843e-02
2.803999999999999915e+01,8.698757747367805160e-02
2.807999999999999829e+01,8.842937013115335920e-02
2.812000000000000099e+01,7.772614305674821478e-02
2.816000000000000014e+01,9.693006396536116287e-02
2.819999999999999929e+01,9.837188644026477469e-02
2.823999999999999844e+01,1.043681033450693102e-01
2.828000000000000114e+01,1.199285388276399023e-01
2.832000000000000028e+01,1.086180998481364457e-01
2.835999999999999943e+01,1.250894234495874280e-01
2.839999999999999858e+01,1.228877662830372558e-01
2.844000000000000128e+01,1.302503236674824871e-01
2.848000000000000043e+01,1.133228215820977491e-01
2.851999999999999957e+01,1.137019890913670145e-01
2.855999999999999872e+01,1.309323865381832874e-01
2.860000000000000142e+01,1.097541233322469889e-01
2.864000000000000057e+01,1.119550420397446427e-01
2.867999999999999972e+01,1.032254299894364846e-01
2.871999999999999886e+01,9.358493648374538454e-02
2.876000000000000156e+01,8.348899916639303254e-02
2.880000000000000071e+01,6.534697285711443815e-02
2.883999999999999986e+01,7.756751606749312522e-02
2.887999999999999901e+01,5.137939157827077497e-02
2.892000000000000171e+01,6.132272416723544978e-02
2.896000000000000085e+01,5.471844226310232373e-02
2.900000000000000000e+01,4.856958780798060343e-02
2.903999999999999915e+01,3.316013525300524900e-02
2.907999999999999829e+01,5.130131673043187429e-02
2.912000000000000099e+01,3.513277232183049936e-02
2.916000000000000014e+01,3.596725563385802515e-02
2.919999999999999929e+01,3.680172271101950221e-02
2.923999999999999844e+01,2.716108358709247786e-02
2.928000000000000114e+01,2.161937406864332389e-02
2.932000000000000028e+01,2.822267597296600206e-02
2.935999999999999943e+01,2.769075209249410516e-02
2.939999999999999858e+01,1.228114436349117024e-02
2.944000000000000128e+01,1.827713092894048610e-02
2.948000000000000043e+01,2.715753899863283111e-02
2.951999999999999957e+01,2.434833075261646704e-02
2.955999999999999872e+01,2.078003279414322030e-02
2.960000000000000142e+01,2.738317172646451483e-02
2.964000000000000057e+01,1.516148579984116437e-02
2.967999999999999972e+01,1.675474395394187591e-02
2.971999999999999886e+01,1.288270898120014163e-02
2.976000000000000156e+01,2.237017742538281381e-02
2.980000000000000071e+01,1.743539060452228839e-02
2.983999999999999986e+01,8.553436471455804282e-03
2.987999999999999901e+01,2.563145206336596427e-02
2.992000000000000171e+01,1.872299771145379682e-02
2.996000000000000085e+01,7.260121493372047666e-03
3.000000000000000000e+01,9.763994185944572038e-03
3.003999999999999915e+01,9.838823367562391994e-03
3.007999999999999829e+01,2.251408349520627600e-02
3.012000000000000099e+01,1.393550054805063609e-02
3.016000000000000014e+01,9.911263709549072293e-03
3.019999999999999929e+01,3.002523394082552352e-02
3.023999999999999844e+01,2.190196543753805680e-02
3.028000000000000114e+01,2.167292345919841906e-02
3.032000000000000028e+01,1.552313460321230569e-02
3.035999999999999943e+01,2.683178191749003433e-02
3.039999999999999858e+01,2.144096561426323336e-02
3.044000000000000128e+01,3.601445424039739947e-03
3.048000000000000043e+01,1.551720194518940374e-02
3.051999999999999957e+01,1.058167894528514071e-02
3.055999999999999872e+01,1.915745211192388525e-02
3.060000000000000142e+01,2.560779344085381201e-02
3.064000000000000057e+01,1.581410376253761241e-02
3.067999999999999972e+01,1.649544956125752887e-02
3.071999999999999886e+01,1.322960590053339457e-02
3.076000000000000156e+01,1.907247975221693093e-02
3.080000000000000071e+01,1.231482777319863574e-02
3.083999999999999986e+01,2.301559988413240734e-02
3.087999999999999901e+01,2.870648832455137758e-02
3.092000000000000171e+01,9.500004353003214594e-03
3.096000000000000085e+01,1.655708869267321151e-02
3.100000000000000000e+01,1.875609922522194356e-02
3.103999999999999915e+01,1.336440304147061726e-02
3.107999999999999829e+01,2.922644699430178988e-02
3.112000000000000099e+01,0.000000000000000000e+00
3.116000000000000014e+01,2.330074512401363387e-02
3.119999999999999929e+01,1.957873042061140587e-02
3.123999999999999844e+01,8.417816850917360719e-03
3.128000000000000114e+01,2.245777335460016899e-02
3.132000000000000028e+01,2.602257130917700473e-02
3.135999999999999943e+01,1.668320357241200036e-02
3.139999999999999858e+01,1.599709859055810715e-02
3.144000000000000128e+01,1.986530750319354804e-02
3.148000000000000043e+01,4.028104709787020538e-02
3.151999999999999957e+01,1.909998199833073604e-02
3.155999999999999872e+01,4.680258974686551943e-02
3.160000000000000142e+01,4.869693066882951893e-02
3.164000000000000057e+01,4.497411725923265713e-02
3.167999999999999972e+01,6.068327428417131381e-02
3.171999999999999886e+01,6.379188232447714768e-02
3.176000000000000156e+01,4.458391583128493846e-02
3.180000000000000071e+01,5.422031552778000529e-02
3.183999999999999986e+01,4.047744849309158760e-02
3.187999999999999901e+01,3.872771556937443238e-02
3.192000000000000171e+01,4.305041329454940835e-02
3.196000000000000085e+01,3.173629832550681207e-02
3.200000000000000000e+01,3.742513960191534012e-02
3.203999999999999915e+01,3.233517844180730516e-02
3.207999999999999829e+01,9.483021198803591109e-03
3.211999999999999744e+01,3.156738773991937808e-02
3.215999999999999659e+01,3.497867888392540425e-02
3.220000000000000284e+01,3.838987829111722982e-02
3.224000000000000199e+01,2.889688985972902607e-02
3.228000000000000114e+01,3.200427700627138383e-02
3.232000000000000028e+01,2.721729945540625473e-02
3.235999999999999943e+01,1.559864638474111644e-02
3.239999999999999858e+01,2.842177078270156226e-02
3.243999999999999773e+01,2.348269003753241518e-02
3.247999999999999687e+01,3.175123137071650392e-02
3.252000000000000313e+01,1.891768211101384906e-02
3.256000000000000227e+01,1.762181119809315410e-02
3.260000000000000142e+01,1.344139369547424877e-02
3.264000000000000057e+01,3.036286418495318107e-02
3.267999999999999972e+01,1.297451919275888384e-02
3.271999999999999886e+01,2.033156938259194843e-02
3.275999999999999801e+01,2.738488797497077437e-02
3.279999999999999716e+01,2.502570095491591165e-02
3.284000000000000341e+01,1.659389075210659578e-02
3.288000000000000256e+01,7.402907281350679103e-03
3.292000000000000171e+01,7.927838495485632977e-03
3.296000000000000085e+01,2.150856682419054894e-02
3.300000000000000000e+01,1.140637346068244275e-02
3.303999999999999915e+01,2.954126354550376532e-02
3.307999999999999829e+01,1.609895998421151039e-02
3.311999999999999744e+01,2.649116423719148281e-02
3.315999999999999659e+01,1.972839676046005478e-02
3.320000000000000284e+01,1.827896330109896397e-02
3.324000000000000199e+01,1.440040579537165549e-02
3.328000000000000114e+01,1.902325084652971288e-02
3.332000000000000028e+01,2.212784713876500553e-02
3.335999999999999943e+01,1.126553722072610141e-02
3.339999999999999858e+01,1.892427714861027316e-02
3.343999999999999773e+01,2.051037879335021116e-02
3.347999999999999687e+01,4.334249120951873605e-03
3.352000000000000313e+01,2.201226750501491733e-02
3.356000000000000227e+01,1.190840224943871643e-02
3.360000000000000142e+01,1.941470450549371771e-02
3.364000000000000057e+01,2.191105362924141223e-02
3.367999999999999972e+01,3.290879524294806208e-02
3.371999999999999886e+01,1.900909397620254015e-02
3.375999999999999801e+01,1.816516969017411762e-02
3.379999999999999716e+01,1.474029438061096563e-02
3.384000000000000341e+01,1.344066642843546114e-02
3.388000000000000256e+01,2.929576029062817139e-02
3.392000000000000171e+01,3.270206268356418838e-02
3.396000000000000085e+01,3.216109407495194167e-02
3.400000000000000000e+01,3.222723996224219345e-02
3.403999999999999915e+01,1.802283675854049125e-02
3.407999999999999829e+01,2.431303377211559841e-02
3.411999999999999744e+01,2.984402631027233826e-02
3.415999999999999659e+01,2.763242072663136747e-02
3.420000000000000284e+01,2.071447368392898350e-02
3.424000000000000199e+01,2.169065350360275396e-02
3.428000000000000114e+01,3.815160335253244689e-02
3.432000000000000028e+01,3.457310749170657005e-02
3.435999999999999943e+01,3.220896860043520604e-02
3.439999999999999858e+01,2.635298628441085436e-02
3.443999999999999773e+01,3.385638960227155964e-02
3.447999999999999687e+01,3.908245054976553640e-02
3.452000000000000313e+01,3.368145952927049241e-02
3.456000000000000227e+01,3.571914866719612391e-02
3.460000000000000142e+01,3.153235744441944266e-02
3.464000000000000057e+01,2.810447749393446548e-02
3.467999999999999972e+01,3.105258449749201746e-02
3.471999999999999886e+01,2.504357621778330323e-02
3.475999999999999801e+01,3.360844858619008169e-02
3.479999999999999716e+01,2.775093985297312840e-02
3.484000000000000341e+01,2.811760116355678865e-02
3.488000000000000256e+01,2.742141310461881226e-02
3.492000000000000171e+01,3.416389614386770163e-02
3.496000000000000085e+01,3.361919957788040564e-02
3.500000000000000000e+01,2.821632853550737688e-02
3.503999999999999915e+01,3.298475747372933697e-02
3.507999999999999829e+01,3.122506820399435432e-02
3.511999999999999744e+01,3.159059407748233961e-02
3.515999999999999659e+01,4.273466844537318621e-02
3.520000000000000284e+01,3.110664305378427197e-02
3.524000000000000199e+01,3.450792488041343198e-02
3.528000000000000114e+01,3.168470923256531263e-02
3.532000000000000028e+01,3.265664541266288801e-02
3.535999999999999943e+01,2.937764959002676923e-02
3.539999999999999858e+01,3.672538333816615513e-02
3.543999999999999773e+01,5.576253583468859798e-02
3.547999999999999687e+01,3.775717047856665121e-02
3.552000000000000313e+01,3.857642738060047122e-02
3.556000000000000227e+01,4.334264295389552574e-02
3.560000000000000142e+01,5.099312600745910251e-02
3.564000000000000057e+01,5.257091540978305055e-02
3.567999999999999972e+01,4.534337825168870822e-02
3.571999999999999886e+01,4.783168531000003831e-02
3.575999999999999801e+01,5.123068833668047856e-02
3.579999999999999716e+01,3.443839552250605590e-02
3.584000000000000341e+01,4.861574759066212420e-02
3.588000000000000256e+01,3.622566069877724421e-02
3.592000000000000171e+01,3.901667679480697037e-02
3.596000000000000085e+01,4.848727339765757788e-02
3.600000000000000000e+01,5.127791575514898531e-02
3.603999999999999915e+01,5.239842801514636023e-02
3.607999999999999829e+01,5.200062205442846502e-02
3.611999999999999744e+01,4.112753674148728750e-02
3.615999999999999659e+01,5.560701156889182734e-02
3.620000000000000284e+01,7.828418969767587943e-02
3.624000000000000199e+01,5.981988299292619049e-02
3.628000000000000114e+01,4.621339413979882321e-02
3.632000000000000028e+01,5.628951968206073742e-02
3.635999999999999943e+01,6.196287517080136670e-02
3.639999999999999858e+01,5.533918965881278601e-02
3.643999999999999773e+01,4.992980876836125570e-02
3.647999999999999687e+01,6.850666401347130230e-02
3.652000000000000313e+01,5.808705805591489468e-02
3.656000000000000227e+01,4.751543774857456409e-02
3.660000000000000142e+01,6.275180515837526507e-02
3.664000000000000057e+01,5.779685558677555984e-02
3.667999999999999972e+01,6.043234570235786474e-02
3.671999999999999886e+01,6.139768860667114275e-02
3.675999999999999801e+01,7.131978513602413305e-02
3.679999999999999716e+01,5.755886433736289581e-02
3.684000000000000341e+01,5.427282398507056460e-02
3.688000000000000256e+01,7.967920908902823007e-02
3.692000000000000171e+01,5.711251248946209308e-02
3.696000000000000085e+01,6.505999393441799783e-02
3.700000000000000000e+01,5.251252357079689431e-02
3.703999999999999915e+01,5.803057279365381876e-02
3.707999999999999829e+01,5.504688598879287076e-02
3.711999999999999744e+01,5.540286706029421554e-02
3.715999999999999659e+01,4.619441990639217704e-02
3.720000000000000284e+01,5.717686868079790291e-02
3.724000000000000199e+01,5.373687494532865955e-02
3.728000000000000114e+01,5.894999598095183174e-02
3.732000000000000028e+01,5.505412341481542848e-02
3.735999999999999943e+01,4.979171329727058448e-02
3.739999999999999858e+01,5.166428609602578131e-02
3.743999999999999773e+01,5.368844816470175890e-02
3.747999999999999687e+01,4.463004511971872812e-02
3.752000000000000313e+01,5.606615571644520124e-02
3.756000000000000227e+01,5.793782802084188749e-02
3.760000000000000142e+01,6.937348434361852167e-02
3.764000000000000057e+01,6.653850097306517053e-02
3.767999999999999972e+01,6.947217752072031016e-02
3.771999999999999886e+01,7.787088721294845028e-02
3.775999999999999801e+01,6.046117504793855485e-02
3.779999999999999716e+01,7.903088359187734890e-02
3.784000000000000341e+01,7.482842593462191161e-02
3.788000000000000256e+01,8.671789923817015133e-02
3.792000000000000171e+01,9.207918285858374130e-02
3.796000000000000085e+01,9.531484940984207010e-02
3.800000000000000000e+01,1.087217414464396875e-01
3.803999999999999915e+01,9.996371378226558135e-02
3.807999999999999829e+01,1.211125844413337427e-01
3.811999999999999744e+01,1.311788738796605958e-01
3.815999999999999659e+01,1.410931087004976547e-01
3.820000000000000284e+01,1.725645302335695186e-01
3.824000000000000199e+01,2.020621405341090082e-01
3.828000000000000114e+01,2.537241870673836996e-01
3.832000000000000028e+01,2.936963958125679564e-01
3.835999999999999943e+01,2.878208669818935750e-01
3.839999999999999858e+01,3.191392468275497940e-01
3.843999999999999773e+01,3.604770282014548299e-01
3.847999999999999687e+01,3.755509309472398471e-01
3.852000000000000313e+01,3.929017761508445949e-01
3.856000000000000227e+01,4.110114339708619835e-01
3.860000000000000142e+01,4.869615475858634634e-01
3.864000000000000057e+01,5.987392478857969103e-01
3.867999999999999972e+01,6.775732976514032835e-01
3.871999999999999886e+01,8.371715455961048491e-01
3.875999999999999801e+01,9.238993526401034773e-01
3.879999999999999716e+01,1.000000000000000000e+00
3.884000000000000341e+01,9.807618976920342568e-01
3.888000000000000256e+01,9.114252839840045750e-01
3.892000000000000171e+01,7.371857069360263637e-01
3.896000000000000085e+01,6.134995582161688610e-01
3.900000000000000000e+01,5.021099901829348955e-01
3.903999999999999915e+01,3.945154803552307077e-01
3.907999999999999829e+01,3.168278436834526257e-01
3.911999999999999744e+01,2.819511742559812628e-01
3.915999999999999659e+01,2.487441796453613296e-01
3.920000000000000284e+01,2.211539938151579898e-01
3.924000000000000199e+01,2.123883366206945345e-01
3.928000000000000114e+01,1.849494248378307504e-01
3.932000000000000028e+01,1.640381961161342383e-01
3.935999999999999943e+01,1.666576923977146074e-01
3.939999999999999858e+01,1.641152776997754636e-01
3.943999999999999773e+01,1.670378528586256572e-01
3.947999999999999687e+01,1.538679874146267335e-01
3.952000000000000313e+01,1.662024104322629980e-01
3.956000000000000227e+01,1.727676669097234219e-01
3.960000000000000142e+01,1.696166208700577438e-01
3.964000000000000057e+01,1.575083357239304704e-01
3.967999999999999972e+01,1.774322890019400523e-01
3.971999999999999886e+01,1.917388845964746458e-01
3.975999999999999801e+01,2.115104619942573816e-01
3.979999999999999716e+01,2.321926336844520600e-01
3.984000000000000341e+01,2.427030581669504805e-01
3.988000000000000256e+01,2.708234921103348514e-01
3.992000000000000171e+01,3.042570909467253171e-01
3.996000000000000085e+01,3.325287647098993382e-01
4.000000000000000000e+01,3.667208528865798511e-01
4.003999999999999915e+01,4.095659863725603644e-01
4.007999999999999829e+01,4.644040475975202420e-01
4.011999999999999744e+01,5.288060294192233890e-01
4.015999999999999659e+01,5.689176578168444465e-01
4.020000000000000284e+01,6.363553121639830001e-01
4.024000000000000199e+01,6.883077583149982415e-01
4.028000000000000114e+01,7.531640044723579841e-01
4.032000000000000028e+01,7.884164422573642916e-01
4.035999999999999943e+01,8.048437853897975058e-01
4.039999999999999858e+01,8.124656831720803440e-01
4.043999999999999773e+01,7.816786223205879347e-01
4.047999999999999687e+01,7.428451785229172044e-01
4.052000000000000313e+01,6.977871053740329899e-01
4.056000000000000227e+01,6.369401902085409795e-01
4.060000000000000142e+01,5.572681743503202778e-01
4.064000000000000057e+01,5.065921150861835143e-01
4.067999999999999972e+01,4.337510696795607301e-01
4.071999999999999886e+01,3.768500708750925354e-01
4.075999999999999801e+01,3.293611636768138395e-01
4.079999999999999716e+01,2.730668010614584196e-01
4.084000000000000341e+01,2.395440617843948572e-01
4.088000000000000256e+01,2.058691994347416898e-01
4.092000000000000171e+01,1.870716884694797744e-01
4.096000000000000085e+01,1.673629880008858095e-01
4.100000000000000000e+01,1.526637994776536555e-01
4.103999999999999915e+01,1.361425421368754329e-01
4.107999999999999829e+01,1.206836597578161141e-01
4.111999999999999744e+01,1.267818906024285042e-01
4.115999999999999659e+01,1.108669361077142812e-01
4.120000000000000284e+01,8.903096091495446562e-02
4.124000000000000199e+01,9.421735973076048043e-02
4.128000000000000114e+01,8.665115607892039107e-02
4.132000000000000028e+01,8.227270171724358760e-02
4.135999999999999943e+01,8.776176251178106902e-02
4.139999999999999858e+01,8.778523622522399483e-02
4.143999999999999773e+01,6.442920160124886164e-02
4.147999999999999687e+01,7.963331408951380974e-02
4.152000000000000313e+01,7.737861868236182994e-02
4.156000000000000227e+01,6.616663584750147320e-02
4.160000000000000142e+01,6.391128482787086784e-02
4.164000000000000057e+01,5.755665663823286010e-02
4.167999999999999972e+01,7.017830855955493885e-02
4.171999999999999886e+01,5.926863221313897340e-02
4.175999999999999801e+01,5.382388733533891717e-02
4.179999999999999716e+01,4.488711279464672327e-02
4.184000000000000341e+01,4.991678918358615630e-02
4.188000000000000256e+01,6.025958113759211088e-02
4.192000000000000171e+01,4.570472383915383935e-02
4.196000000000000085e+01,4.845619788664116967e-02
4.200000000000000000e+01,3.799961269560042654e-02
4.203999999999999915e+01,4.712655008917174954e-02
4.207999999999999829e+01,3.925010414404349335e-02
4.211999999999999744e+01,3.896396097589760465e-02
4.215999999999999659e+01,4.900075148052753654e-02
4.220000000000000284e+01,4.446316176192312980e-02
4.224000000000000199e+01,4.812312333410898729e-02
4.228000000000000114e+01,4.054858610604706454e-02
4.232000000000000028e+01,3.570633435041797171e-02
4.235999999999999943e+01,3.192642534234314128e-02
4.239999999999999858e+01,4.272020470408872950e-02
4.243999999999999773e+01,3.893959780244418689e-02
4.247999999999999687e+01,3.303326007537548542e-02
4.252000000000000313e+01,3.987885309639203207e-02
4.256000000000000227e+01,4.247333290999884964e-02
4.260000000000000142e+01,3.671775065577433106e-02
4.264000000000000057e+01,3.490894888821301917e-02
4.267999999999999972e+01,2.839359224274981899e-02
4.271999999999999886e+01,3.645191591356588406e-02
4.275999999999999801e+01,4.116999864433782547e-02
4.279999999999999716e+01,3.450175660438617453e-02
4.284000000000000341e+01,3.861186977384964414e-02
4.288000000000000256e+01,2.602220523770366542e-02
4.292000000000000171e+01,3.256060248851717215e-02
4.296000000000000085e+01,3.378518628069444862e-02
4.300000000000000000e+01,3.379490346127194539e-02
4.303999999999999915e+01,1.847115486071238336e-02
4.307999999999999829e+01,2.895523089308548945e-02
4.311999999999999744e+01,3.458092809046613841e-02
4.315999999999999659e+01,2.244415035108856399e-02
4.320000000000000284e+01,4.476852858243828698e-02
4.324000000000000199e+01,2.868387771152762500e-02
4.328000000000000114e+01,3.294178263511424870e-02
4.332000000000000028e+01,3.173405215635946575e-02
4.335999999999999943e+01,3.174045214131421960e-02
4.339999999999999858e+01,3.721174232048645586e-02
4.343999999999999773e+01,2.977856278713835944e-02
4.347999999999999687e+01,3.843717327762381092e-02
4.352000000000000313e+01,3.601306664386099560e-02
4.356000000000000227e+01,2.994507316925823504e-02
4.360000000000000142e+01,3.905798939758237109e-02
4.364000000000000057e+01,3.511461799645151233e-02
4.367999999999999972e+01,3.329624630631779214e-02
4.371999999999999886e+01,3.739819540727473690e-02
4.375999999999999801e+01,3.527543361491387169e-02
4.379999999999999716e+01,4.165380961927302866e-02
4.384000000000000341e+01,3.877121504750012659e-02
4.388000000000000256e+01,4.165712435657589058e-02
4.392000000000000171e+01,4.317633101664961753e-02
4.396000000000000085e+01,3.148742911025573937e-02
4.400000000000000000e+01,4.287369678037760562e-02
4.403999999999999915e+01,4.712436920950452413e-02
4.407999999999999829e+01,4.864201901161572389e-02
4.411999999999999744e+01,5.410641205276240512e-02
4.415999999999999659e+01,4.970257493035006718e-02
4.420000000000000284e+01,6.063144529394642879e-02
4.424000000000000199e+01,5.744132274339803362e-02
4.428000000000000114e+01,6.867302836464431182e-02
4.432000000000000028e+01,7.155462863027557685e-02
4.435999999999999943e+01,7.640939860965753616e-02
4.439999999999999858e+01,8.779172380024098665e-02
4.443999999999999773e+01,9.067212773166000161e-02
4.447999999999999687e+01,8.064803577654990063e-02
4.452000000000000313e+01,8.595664325390739435e-02
4.456000000000000227e+01,9.278297676113803072e-02
4.460000000000000142e+01,9.991253222377759202e-02
4.464000000000000057e+01,9.170858163757436565e-02
4.467999999999999972e+01,8.684410866282370189e-02
4.471999999999999886e+01,9.382063376723411008e-02
4.475999999999999801e+01,8.834809458868123078e-02
4.479999999999999716e+01,9.137666803953226058e-02
4.484000000000000341e+01,8.969863225107854721e-02
4.488000000000000256e+01,8.179585738191304245e-02
4.492000000000000171e+01,8.877033322787429570e-02
4.496000000000000085e+01,9.043094528056716541e-02
4.500000000000000000e+01,9.497558824075710837e-02
4.503999999999999915e+01,1.068068347224234715e-01
4.507999999999999829e+01,9.966105487831325438e-02
4.511999999999999744e+01,1.284945115183977471e-01
4.515999999999999659e+01,1.277240379763190103e-01
4.520000000000000284e+01,1.450188786554189035e-01
4.524000000000000199e+01,1.585179773291163496e-01
4.528000000000000114e+01,1.761156029312340165e-01
4.532000000000000028e+01,1.928019293005213408e-01
4.535999999999999943e+01,2.096396456145859788e-01
4.539999999999999858e+01,2.220743643625917862e-01
4.543999999999999773e+01,2.234263176651024307e-01
4.547999999999999687e+01,2.138473173988967024e-01
4.552000000000000313e+01,2.062414576523549925e-01
4.556000000000000227e+01,1.799621852666677957e-01
4.560000000000000142e+01,1.673456434145607630e-01
4.564000000000000057e+01,1.516924139074821987e-01
4.567999999999999972e+01,1.235900969635094909e-01
4.571999999999999886e+01,1.256981118314269286e-01
4.575999999999999801e+01,1.100435863275643217e-01
4.579999999999999716e+01,7.480476484357162503e-02
4.584000000000000341e+01,6.886539485056249188e-02
4.588000000000000256e+01,6.019295692936868503e-02
4.592000000000000171e+01,6.852312492458591253e-02
4.596000000000000085e+01,5.225916775834462541e-02
4.600000000000000000e+01,4.844342799098559638e-02
4.603999999999999915e+01,5.282514387861560190e-02
4.607999999999999829e+01,4.293600766076770964e-02
4.611999999999999744e+01,4.853134349115313662e-02
4.615999999999999659e+01,5.412623624899137731e-02
4.620000000000000284e+01,4.863834443417425907e-02
4.624000000000000199e+01,3.130860262265181687e-02
4.628000000000000114e+01,3.052601901689221478e-02
4.632000000000000028e+01,2.776942082668609757e-02
4.635999999999999943e+01,2.911132238419882404e-02
4.639999999999999858e+01,3.303359384802317944e-02
4.643999999999999773e+01,2.389950721390740954e-02
4.647999999999999687e+01,3.692965044053481138e-02
4.652000000000000313e+01,2.566928017894970840e-02
4.656000000000000227e+01,2.184728806799197259e-02
4.660000000000000142e+01,1.923934487863973239e-02
4.664000000000000057e+01,2.012264285627195573e-02
4.667999999999999972e+01,3.041788344958249596e-02
4.671999999999999886e+01,2.613863006338994210e-02
4.675999999999999801e+01,2.732418230923273211e-02
4.679999999999999716e+01,2.122225696881666415e-02
4.684000000000000341e+01,2.544314751813704992e-02
4.688000000000000256e+01,2.419831306947062277e-02
4.692000000000000171e+01,1.855044280042489682e-02
4.696000000000000085e+01,2.428807558533774280e-02
4.700000000000000000e+01,2.471179323565736788e-02
4.703999999999999915e+01,2.300966529759144660e-02
4.707999999999999829e+01,4.028368156697863939e-02
4.711999999999999744e+01,3.007909869486326271e-02
4.715999999999999659e+01,2.458024697049952106e-02
4.720000000000000284e+01,2.211718366900894059e-02
4.724000000000000199e+01,2.572616545312778405e-02
4.728000000000000114e+01,1.384976186321783785e-02
4.732000000000000028e+01,2.747745042987739805e-02
4.735999999999999943e+01,1.590372706695019484e-02
4.739999999999999858e+01,1.632274721824833463e-02
4.743999999999999773e+01,1.992936263573518926e-02
4.747999999999999687e+01,2.596450789536084575e-02
4.752000000000000313e+01,2.395309303090280978e-02
4.756000000000000227e+01,2.406658022825544987e-02
4.760000000000000142e+01,2.190239486005408562e-02
4.764000000000000057e+01,3.082006966509348578e-02
4.767999999999999972e+01,2.804767111596384588e-02
4.771999999999999886e+01,2.740017060187430187e-02
4.775999999999999801e+01,2.781487693183200965e-02
4.779999999999999716e+01,2.549646701235824819e-02
4.784000000000000341e+01,2.241850732188906126e-02
4.788000000000000256e+01,1.979549992150341983e-02
4.792000000000000171e+01,2.430721067725243739e-02
4.796000000000000085e+01,2.350498213778471138e-02
4.800000000000000000e+01,2.330951575179408472e-02
4.803999999999999915e+01,3.024876450186013768e-02
4.807999999999999829e+01,2.504249118041635899e-02
4.811999999999999744e+01,3.152531748578744214e-02
4.815999999999999659e+01,2.237092338642009126e-02
4.820000000000000284e+01,1.928855021203874226e-02
4.824000000000000199e+01,1.833106198569313394e-02
4.828000000000000114e+01,2.314196690400526987e-02
4.832000000000000028e+01,1.398558910899434446e-02
4.835999999999999943e+01,1.909912391965703712e-02
4.839999999999999858e+01,2.087227584661271659e-02
4.843999999999999773e+01,2.310036596995494740e-02
4.847999999999999687e+01,1.105754358626061251e-02
4.852000000000000313e+01,1.571363591701252158e-02
4.856000000000000227e+01,2.841530759764540962e-02
4.860000000000000142e+01,2.654243798422091863e-02
4.864000000000000057e+01,2.527631441719124447e-02
4.867999999999999972e+01,2.932313527747855419e-02
4.871999999999999886e+01,1.302652225171556898e-02
4.875999999999999801e+01,2.208215225811544294e-02
4.879999999999999716e+01,2.051037090725235310e-02
4.884000000000000341e+01,2.683234897595031948e-02
4.888000000000000256e+01,1.782071428638516697e-02
4.892000000000000171e+01,2.064997197325344619e-02
4.896000000000000085e+01,1.588807194551715429e-02
4.900000000000000000e+01,1.507279234031370062e-02
4.903999999999999915e+01,2.215126712120809790e-02
4.907999999999999829e+01,1.359249834343322430e-02
4.911999999999999744e+01,1.034666291935632150e-02
4.915999999999999659e+01,2.698779665554368670e-02
4.920000000000000284e+01,1.721296908651109153e-02
4.924000000000000199e+01,1.381376203539866343e-02
4.928000000000000114e+01,2.210362541701436576e-02
4.932000000000000028e+01,2.553495392627777930e-02
4.935999999999999943e+01,2.759944287633955134e-02
4.939999999999999858e+01,2.404633052330653470e-02
4.943999999999999773e+01,2.231444715058696765e-02
4.947999999999999687e+01,3.105712610936073662e-02
4.952000000000000313e+01,2.446617620278915620e-02
4.956000000000000227e+01,3.700312097219813495e-02
4.960000000000000142e+01,2.616035203888968444e-02
4.964000000000000057e+01,3.824079785496274642e-02
4.967999999999999972e+01,3.726480403099152044e-02
4.971999999999999886e+01,3.886909655784251405e-02
4.975999999999999801e+01,4.912618976768099582e-02
4.979999999999999716e+01,5.695374216039860576e-02
4.984000000000000341e+01,5.977093371028810442e-02
4.988000000000000256e+01,6.607928488505791786e-02
4.992000000000000171e+01,6.449282841765681396e-02
4.996000000000000085e+01,5.592244060222088115e-02
5.000000000000000000e+01,5.357584129407334111e-02
5.003999999999999915e+01,4.606706322616306581e-02
5.007999999999999829e+01,4.538932318604170513e-02
5.011999999999999744e+01,3.985302813971516867e-02
5.015999999999999659e+01,3.461981511852006005e-02
5.020000000000000284e+01,3.242231501824976297e-02
5.024000000000000199e+01,2.794707591071098757e-02
5.028000000000000114e+01,3.576813360247004664e-02
5.032000000000000028e+01,2.901460671238808089e-02
5.035999999999999943e+01,3.258380712308980853e-02
5.039999999999999858e+01,2.977631664602341244e-02
5.043999999999999773e+01,1.573412200340984848e-02
5.047999999999999687e+01,2.264155348450348076e-02
5.052000000000000313e+01,2.150234933956509525e-02
5.056000000000000227e+01,1.687089506604544722e-02
5.060000000000000142e+01,2.833105162506871846e-02
5.064000000000000057e+01,2.703837015036713448e-02
5.067999999999999972e+01,1.648454595509135645e-02
5.071999999999999886e+01,2.794303202766705574e-02
5.075999999999999801e+01,3.150668931752629437e-02
5.079999999999999716e+01,2.535376221631906526e-02
5.084000000000000341e+01,3.043442763641256502e-02
5.088000000000000256e+01,2.564669376858284833e-02
5.092000000000000171e+01,8.561553470594122223e-03
5.096000000000000085e+01,2.897363151438866330e-02
5.100000000000000000e+01,2.767590233940915578e-02
5.103999999999999915e+01,3.078018089605193824e-02
5.107999999999999829e+01,2.826681586850888009e-02
5.111999999999999744e+01,2.514563140464506560e-02
5.115999999999999659e+01,3.310621852506939050e-02
5.120000000000000284e+01,3.757453940983011831e-02
5.124000000000000199e+01,2.640556237451888166e-02
5.128000000000000114e+01,2.738104408771796158e-02
5.132000000000000028e+01,2.562332096253277028e-02
5.135999999999999943e+01,3.798362205760143911e-02
5.139999999999999858e+01,2.407971936282617478e-02
5.143999999999999773e+01,3.325079899973489017e-02
5.147999999999999687e+01,3.847416670371720665e-02
5.152000000000000313e+01,3.307005459533678832e-02
5.156000000000000227e+01,3.631869786877484768e-02
5.160000000000000142e+01,2.954711085035069407e-02
5.164000000000000057e+01,3.066921278300249742e-02
5.167999999999999972e+01,1.752032167320625305e-02
5.171999999999999886e+01,2.091845185897318882e-02
5.175999999999999801e+01,2.795950723853763906e-02
5.179999999999999716e+01,1.480886410018964448e-02
5.184000000000000341e+01,2.609950917784221308e-02
5.188000000000000256e+01,2.797716845066979333e-02
5.192000000000000171e+01,9.511313302035551490e-03
5.196000000000000085e+01,2.080019427082462416e-02
5.200000000000000000e+01,2.419421524942528059e-02
5.203999999999999915e+01,1.270998259145827633e-02
5.207999999999999829e+01,2.004995542089240551e-02
5.211999999999999744e+01,2.526395481197523177e-02
5.215999999999999659e+01,2.440484478775643840e-02
5.220000000000000284e+01,2.324151391345840104e-02
5.224000000000000199e+01,2.632834768653193394e-02
5.228000000000000114e+01,2.470838497546896592e-02
5.232000000000000028e+01,2.308782416119172648e-02
5.235999999999999943e+01,1.463508448079240375e-02
5.239999999999999858e+01,2.136303303093834219e-02
5.243999999999999773e+01,2.520593567183450345e-02
5.247999999999999687e+01,2.085034047528768614e-02
5.252000000000000313e+01,1.603870349164904577e-02
5.256000000000000227e+01,1.684353905308380236e-02
5.260000000000000142e+01,1.582601486279840500e-02
5.264000000000000057e+01,1.936227101990105684e-02
5.267999999999999972e+01,2.517511326562735241e-02
5.271999999999999886e+01,1.869050378002562116e-02
5.275999999999999801e+01,1.918867775727716232e-02
5.279999999999999716e+01,1.513185504685929557e-02
5.284000000000000341e+01,1.426249169912315387e-02
5.288000000000000256e+01,2.143859897846247392e-02
5.292000000000000171e+01,1.813900409466797162e-02
5.296000000000000085e+01,2.000043303860610591e-02
5.300000000000000000e+01,2.079855658125488033e-02
5.303999999999999915e+01,2.038156083245021288e-02
5.307999999999999829e+01,2.512558589130027206e-02
5.311999999999999744e+01,3.002080559655459155e-02
5.315999999999999659e+01,3.036101955390573676e-02
5.320000000000000284e+01,1.885920835003147486e-02
5.324000000000000199e+01,1.540285871299887539e-02
5.328000000000000114e+01,2.135828558735830551e-02
5.332000000000000028e+01,2.776852784160173393e-02
5.335999999999999943e+01,3.311545563432197192e-02
5.339999999999999858e+01,2.039602501002427126e-02
5.343999999999999773e+01,1.891012147200541935e-02
5.347999999999999687e+01,2.091528695652890291e-02
5.352000000000000313e+01,1.912450205027258279e-02
5.356000000000000227e+01,2.158384857053061157e-02
5.360000000000000142e+01,1.630010771636587752e-02
5.364000000000000057e+01,2.209807603154531619e-02
5.367999999999999972e+01,2.136745802668833100e-02
5.371999999999999886e+01,2.594965760587523637e-02
5.375999999999999801e+01,2.294057866734026951e-02
5.379999999999999716e+01,2.615519260029256290e-02
5.384000000000000341e+01,2.557384808892392350e-02
5.388000000000000256e+01,2.301829872819905615e-02
5.392000000000000171e+01,2.896363247095523272e-02
5.396000000000000085e+01,2.443323787656884530e-02
5.400000000000000000e+01,2.810009860533532397e-02
5.403999999999999915e+01,2.857824739020340191e-02
5.407999999999999829e+01,2.465318015670889609e-02
5.411999999999999744e+01,3.029168117753237507e-02
5.415999999999999659e+01,3.122333839966504390e-02
5.420000000000000284e+01,2.441189314698531329e-02
5.424000000000000199e+01,2.033243337233051409e-02
5.428000000000000114e+01,2.262846727232266375e-02
5.432000000000000028e+01,3.129999384026913717e-02
5.435999999999999943e+01,2.160151206363131876e-02
5.439999999999999858e+01,2.753910683332085399e-02
5.443999999999999773e+01,2.451909002027054946e-02
5.447999999999999687e+01,2.392742687814635588e-02
5.452000000000000313e+01,2.591592928372710852e-02
5.456000000000000227e+01,2.410845512451929504e-02
5.460000000000000142e+01,1.820137762688741473e-02
5.464000000000000057e+01,2.489411296599812473e-02
5.467999999999999972e+01,2.581730123511349201e-02
5.471999999999999886e+01,1.656836780686895411e-02
5.475999999999999801e+01,2.310731474818944475e-02
5.479999999999999716e+01,2.281402141513655391e-02
5.484000000000000341e+01,2.327913097459006347e-02
5.488000000000000256e+01,1.721562401322782043e-02
5.492000000000000171e+01,2.633274186077424681e-02
5.496000000000000085e+01,2.330416448567602938e-02
5.500000000000000000e+01,1.875679272424191774e-02
5.503999999999999915e+01,2.255846299542340130e-02
5.507999999999999829e+01,2.226051784786906018e-02
5.511999999999999744e+01,2.165827836167243114e-02
5.515999999999999659e+01,2.485069138387006188e-02
5.520000000000000284e+01,2.409529885072538707e-02
5.524000000000000199e+01,2.425011202663208271e-02
5.528000000000000114e+01,2.151980781811136528e-02
5.532000000000000028e+01,2.303959074162857321e-02
5.535999999999999943e+01,3.306022052769166941e-02
5.539999999999999858e+01,2.440719002821878716e-02
5.543999999999999773e+01,1.878974057293438665e-02
5.547999999999999687e+01,2.531664416343263474e-02
5.552000000000000313e+01,2.425222494173269114e-02
5.556000000000000227e+01,2.516069355984316622e-02
5.560000000000000142e+01,2.166590790527051294e-02
5.564000000000000057e+01,2.409114304738063303e-02
5.567999999999999972e+01,2.833745012575175984e-02
5.571999999999999886e+01,2.772506126094752277e-02
5.575999999999999801e+01,2.878192943554753330e-02
5.579999999999999716e+01,2.907904750731600887e-02
5.584000000000000341e+01,3.150085925551781435e-02
5.588000000000000256e+01,3.118935140237396805e-02
5.592000000000000171e+01,2.981446465937771448e-02
5.596000000000000085e+01,2.904613973802241261e-02
5.600000000000000000e+01,2.675899526301506876e-02
5.603999999999999915e+01,2.948098421693535684e-02
5.607999999999999829e+01,3.083596448728978187e-02
5.611999999999999744e+01,2.930580623267125054e-02
5.615999999999999659e+01,2.898945630011617522e-02
5.620000000000000284e+01,3.125322963417504624e-02
5.624000000000000199e+01,2.380028166696776526e-02
5.628000000000000114e+01,2.849166661169030487e-02
5.632000000000000028e+01,2.528808284341887980e-02
5.635999999999999943e+01,2.618274714970525094e-02
5.639999999999999858e+01,3.072021987344237398e-02
5.643999999999999773e+01,3.282798466907971974e-02
5.647999999999999687e+01,2.840709267619558401e-02
5.652000000000000313e+01,3.370152141954216307e-02
5.656000000000000227e+01,3.231547847751050501e-02
5.660000000000000142e+01,2.470440149382230680e-02
5.664000000000000057e+01,3.986455020483146983e-02
5.667999999999999972e+01,2.602773034008159722e-02
5.671999999999999886e+01,3.708751452524405856e-02
5.675999999999999801e+01,3.281348763369253130e-02
5.679999999999999716e+01,3.688845848028021041e-02
5.684000000000000341e+01,3.534564077894126327e-02
5.688000000000000256e+01,3.501661327919822903e-02
5.692000000000000171e+01,3.104336270327207048e-02
5.696000000000000085e+01,3.238284816928561904e-02
5.700000000000000000e+01,3.539155946723147178e-02
5.703999999999999915e+01,3.581873485321640516e-02
5.707999999999999829e+01,2.485922607920384303e-02
5.711999999999999744e+01,3.135747999807623337e-02
5.715999999999999659e+01,3.071980848076640361e-02
5.720000000000000284e+01,3.919018905202654307e-02
5.724000000000000199e+01,3.369306241750399250e-02
5.728000000000000114e+01,3.533041837303737415e-02
5.732000000000000028e+01,4.228050131027664277e-02
5.735999999999999943e+01,3.495944825471236639e-02
5.739999999999999858e+01,2.551228887736776627e-02
5.743999999999999773e+01,3.200475530465247270e-02
5.747999999999999687e+01,2.893228210667058570e-02
5.752000000000000313e+01,4.407662595200448341e-02
5.756000000000000227e+01,3.857368766527080606e-02
5.760000000000000142e+01,3.883890796380885108e-02
5.764000000000000057e+01,3.621895148305347145e-02
5.767999999999999972e+01,4.103709329237045095e-02
5.771999999999999886e+01,3.370947041725034371e-02
5.775999999999999801e+01,3.670438860477485965e-02
5.779999999999999716e+01,3.074161064737743199e-02
5.784000000000000341e+01,3.069879811856731158e-02
5.788000000000000256e+01,2.716355123642207395e-02
5.792000000000000171e+01,3.729072482652272952e-02
5.796000000000000085e+01,3.739750806063072558e-02
5.800000000000000000e+01,4.023618214365506235e-02
5.803999999999999915e+01,4.793212643750330987e-02
5.807999999999999829e+01,4.621492888916682584e-02
5.811999999999999744e+01,4.054985229692503051e-02
5.815999999999999659e+01,4.171561038055805054e-02
5.820000000000000284e+01,4.849769906560170984e-02
5.824000000000000199e+01,5.087646703624776334e-02
5.828000000000000114e+01,4.338664948083150591e-02
5.832000000000000028e+01,4.227222392410515811e-02
5.835999999999999943e+01,4.130886113704670959e-02
5.839999999999999858e+01,5.157890060637921464e-02
5.843999999999999773e+01,4.454151923277788194e-02
5.847999999999999687e+01,5.450642767409723255e-02
5.852000000000000313e+01,4.427946847313993933e-02
5.856000000000000227e+01,5.636824799521868851e-02
5.860000000000000142e+01,5.054235111370725814e-02
5.864000000000000057e+01,5.352084431288770677e-02
5.867999999999999972e+01,5.907939836373810732e-02
5.871999999999999886e+01,5.355485274713549931e-02
5.875999999999999801e+01,4.878861136716014513e-02
5.879999999999999716e+01,4.417342168323361296e-02
5.884000000000000341e+01,5.580144833663677056e-02
5.888000000000000256e+01,5.391736516027316461e-02
5.892000000000000171e+01,6.432936133759628583e-02
5.896000000000000085e+01,5.439766591555219438e-02
5.900000000000000000e+01,5.843198955199550154e-02
5.903999999999999915e+01,5.062414105008735538e-02
5.907999999999999829e+01,4.995072983706614483e-02
5.911999999999999744e+01,5.580450337235347280e-02
5.915999999999999659e+01,5.148604346739733828e-02
5.920000000000000284e+01,5.035488286099254474e-02
5.924000000000000199e+01,4.375768618857398679e-02
5.928000000000000114e+01,4.550942483935067201e-02
5.932000000000000028e+01,4.801945363305760994e-02
5.935999999999999943e+01,4.475981757372990422e-02
5.939999999999999858e+01,4.013308927534690179e-02
5.943999999999999773e+01,3.687189963370196555e-02
5.947999999999999687e+01,4.621040101898968300e-02
5.952000000000000313e+01,4.051864763271385839e-02
5.956000000000000227e+01,3.907687466905569729e-02
5.960000000000000142e+01,4.112601670396538039e-02
5.964000000000000057e+01,3.786092548940622748e-02
5.967999999999999972e+01,3.489867670712917813e-02
5.971999999999999886e+01,3.664184297111357930e-02
5.975999999999999801e+01,3.261533431513689157e-02
5.979999999999999716e+01,3.708956077882261115e-02
5.984000000000000341e+01,3.503504589180465867e-02
5.988000000000000256e+01,2.796991748210495357e-02
5.992000000000000171e+01,3.836248129680508434e-02
5.996000000000000085e+01,2.750045104399324869e-02
