2.003999999999999915e+01,6.039096553717123242e-03
2.007999999999999829e+01,2.335342743025035396e-03
2.012000000000000099e+01,4.443687846981278500e-03
2.016000000000000014e+01,7.408460071983776103e-03
2.019999999999999929e+01,2.052489372227609202e-03
2.023999999999999844e+01,5.506493360556990839e-03
2.028000000000000114e+01,4.004716934426130401e-03
2.032000000000000028e+01,5.500707593197034541e-03
2.035999999999999943e+01,3.386902922840029015e-03
2.039999999999999858e+01,2.680155986402849196e-03
2.044000000000000128e+01,2.218025303855200320e-03
2.048000000000000043e+01,3.774763831481140440e-03
2.051999999999999957e+01,4.597220602913466500e-03
2.055999999999999872e+01,4.318308881290381686e-03
2.060000000000000142e+01,5.262911829704822533e-03
2.064000000000000057e+01,3.270712397722362261e-03
2.067999999999999972e+01,4.398642927918711837e-03
2.071999999999999886e+01,4.853473174398692178e-03
2.076000000000000156e+01,2.187957841244534893e-03
2.080000000000000071e+01,5.579267109615913302e-03
2.083999999999999986e+01,3.953615776921781851e-03
2.087999999999999901e+01,2.633762576659275448e-03
2.092000000000000171e+01,2.843330258303506004e-03
2.096000000000000085e+01,3.542239610003961817e-03
2.100000000000000000e+01,5.097577503977403050e-03
2.103999999999999915e+01,3.593751426148900953e-03
2.107999999999999829e+01,1.294463405521536960e-03
2.112000000000000099e+01,4.256645784671029414e-03
2.116000000000000014e+01,6.178641820017084091e-03
2.119999999999999929e+01,2.288323120226427431e-03
2.123999999999999844e+01,3.720656157334936015e-03
2.128000000000000114e+01,4.357527590031946840e-03
2.132000000000000028e+01,7.196813056399116969e-03
2.135999999999999943e+01,5.386225606047213843e-03
2.139999999999999858e+01,4.554429642922785786e-03
2.144000000000000128e+01,4.150795027894386112e-03
2.148000000000000043e+01,4.297684096819255270e-03
2.151999999999999957e+01,4.933915783284956516e-03
2.155999999999999872e+01,2.510984377755877319e-03
2.160000000000000142e+01,3.819995831886303841e-03
2.164000000000000057e+01,5.312444436140591024e-03
2.167999999999999972e+01,4.051635821881917170e-03
2.171999999999999886e+01,3.830800370360392185e-03
2.176000000000000156e+01,3.732221137905260104e-03
2.180000000000000071e+01,1.492196230868402191e-03
2.183999999999999986e+01,3.473563662274943478e-03
2.187999999999999901e+01,5.638368649870186683e-03
2.192000000000000171e+01,2.052041254613112386e-03
2.196000000000000085e+01,7.092148055303322193e-03
2.200000000000000000e+01,2.037262088114581357e-03
2.203999999999999915e+01,3.222746222722695179e-03
2.207999999999999829e+01,3.062139899659847234e-03
2.212000000000000099e+01,4.553318757007695887e-03
2.216000000000000014e+01,2.740611001163322912e-03
2.219999999999999929e+01,5.516382997398892873e-03
2.223999999999999844e+01,4.192913772628726991e-03
2.228000000000000114e+01,4.582411133069044275e-03
2.232000000000000028e+01,4.115267514622280264e-03
2.235999999999999943e+01,3.709199996314131720e-03
2.239999999999999858e+01,7.279801227574497248e-03
2.244000000000000128e+01,4.059191676261711748e-03
2.248000000000000043e+01,5.427062350771182792e-03
2.251999999999999957e+01,4.225220630264271346e-03
2.255999999999999872e+01,4.002172359631567602e-03
2.260000000000000142e+01,6.654532763336863666e-03
2.264000000000000057e+01,2.760407259215917272e-03
2.267999999999999972e+01,4.433660464742686033e-03
2.271999999999999886e+01,3.598382747730325369e-03
2.276000000000000156e+01,2.885362941721189133e-03
2.280000000000000071e+01,5.659563489336251474e-03
2.283999999999999986e+01,4.885154037916593535e-03
2.287999999999999901e+01,5.701349918689754999e-03
2.292000000000000171e+01,5.477362433468301560e-03
2.296000000000000085e+01,5.987444538536250936e-03
2.300000000000000000e+01,3.866633926627614012e-03
2.303999999999999915e+01,1.133908090385973323e-03
2.307999999999999829e+01,2.867301226948898094e-03
2.312000000000000099e+01,6.313662369949239045e-03
2.316000000000000014e+01,7.067949932593005011e-03
2.319999999999999929e+01,5.497250787096968731e-03
2.323999999999999844e+01,4.966527376082054482e-03
2.328000000000000114e+01,4.741606158147172213e-03
2.332000000000000028e+01,5.801385346407900677e-03
2.335999999999999943e+01,4.291453560879180534e-03
2.339999999999999858e+01,3.576773244181956878e-03
2.344000000000000128e+01,4.085612402622884436e-03
2.348000000000000043e+01,2.820095533475254317e-03
2.351999999999999957e+01,4.674713431607012762e-03
2.355999999999999872e+01,3.653715023887292839e-03
2.360000000000000142e+01,3.856236362015622639e-03
2.364000000000000057e+01,5.894088854568267297e-03
2.367999999999999972e+01,4.016245964773857910e-03
2.371999999999999886e+01,2.994836219320638759e-03
2.376000000000000156e+01,3.992301233593778184e-03
2.380000000000000071e+01,5.295569320754111610e-03
2.383999999999999986e+01,3.356134771265999184e-03
2.387999999999999901e+01,4.903922402693825996e-03
2.392000000000000171e+01,1.557116912401352703e-03
2.396000000000000085e+01,7.265016940558977065e-03
2.400000000000000000e+01,5.263991814216710530e-03
2.403999999999999915e+01,6.321921200871112589e-03
2.407999999999999829e+01,8.786914547772885914e-03
2.412000000000000099e+01,5.867866038622658251e-03
2.416000000000000014e+01,3.560526881906295009e-03
2.419999999999999929e+01,3.149700961188747154e-03
2.423999999999999844e+01,3.595309064619531172e-03
2.428000000000000114e+01,3.184279505359420039e-03
2.432000000000000028e+01,5.159212457849609614e-03
2.435999999999999943e+01,6.155145614824111648e-03
2.439999999999999858e+01,2.684754400837147462e-03
2.444000000000000128e+01,1.416782499363254634e-03
2.448000000000000043e+01,5.165562146214460089e-03
2.451999999999999957e+01,3.469119479698524501e-03
2.455999999999999872e+01,3.730371792368556306e-03
2.460000000000000142e+01,3.991522861025830447e-03
2.464000000000000057e+01,2.723044401100791021e-03
2.467999999999999972e+01,4.697064939281641108e-03
2.471999999999999886e+01,4.346101341066670350e-03
2.476000000000000156e+01,6.319919864964318283e-03
2.480000000000000071e+01,3.705052426495484674e-03
2.483999999999999986e+01,2.436069100056111308e-03
2.487999999999999901e+01,3.185962428312384773e-03
2.492000000000000171e+01,4.180479590335217308e-03
2.496000000000000085e+01,5.480801787891948287e-03
2.500000000000000000e+01,3.232517640997537457e-03
2.503999999999999915e+01,3.370197224047947419e-03
2.507999999999999829e+01,4.792580191102784916e-03
2.512000000000000099e+01,4.930058978064518448e-03
2.516000000000000014e+01,5.067437468498113724e-03
2.519999999999999929e+01,4.654085523272117990e-03
2.523999999999999844e+01,3.445278673704476290e-03
2.528000000000000114e+01,3.092907607899463614e-03
2.532000000000000028e+01,3.964059198073845332e-03
2.535999999999999943e+01,5.324559902826504071e-03
2.539999999999999858e+01,5.706062571677765483e-03
2.544000000000000128e+01,4.313212529136657529e-03
2.548000000000000043e+01,3.506550997121797662e-04
2.551999999999999957e+01,2.567292525934849589e-03
2.555999999999999872e+01,2.153041566539231830e-03
2.560000000000000142e+01,5.762495073599298171e-04
2.564000000000000057e+01,3.343218484163756193e-03
2.567999999999999972e+01,5.437095569257904999e-03
2.571999999999999886e+01,2.391658041758510343e-03
2.576000000000000156e+01,4.913604435072291797e-03
2.580000000000000071e+01,3.152772228405811058e-03
2.583999999999999986e+01,1.636565412087785968e-03
2.587999999999999901e+01,3.362859624199846485e-03
2.592000000000000171e+01,4.232518948397427649e-03
2.596000000000000085e+01,2.838377368290737317e-03
2.600000000000000000e+01,4.564374751466798025e-03
2.603999999999999915e+01,3.659484561154241304e-03
2.607999999999999829e+01,4.834654189951408630e-03
2.612000000000000099e+01,3.623660916974434220e-03
2.616000000000000014e+01,4.003278525743062671e-03
2.619999999999999929e+01,5.545239145305609109e-03
2.623999999999999844e+01,2.192610568441306831e-03
2.628000000000000114e+01,4.774453596736596452e-03
2.632000000000000028e+01,3.257062307128437070e-03
2.635999999999999943e+01,3.636187908102671545e-03
2.639999999999999858e+01,1.873875617404595654e-03
2.644000000000000128e+01,1.885718084464086969e-03
2.648000000000000043e+01,2.264549292891359419e-03
2.651999999999999957e+01,3.438637248993047565e-03
2.655999999999999872e+01,7.304597177232943946e-03
2.660000000000000142e+01,4.868802434075968945e-03
2.664000000000000057e+01,3.595351446165117974e-03
2.667999999999999972e+01,2.321802733470111017e-03
2.671999999999999886e+01,3.740126263623218174e-03
2.676000000000000156e+01,4.240635192998904596e-03
2.680000000000000071e+01,3.150337114285947475e-03
2.683999999999999986e+01,4.446005811004105288e-03
2.687999999999999901e+01,3.661418562269518756e-03
2.692000000000000171e+01,2.448466056186447692e-03
2.696000000000000085e+01,2.153133310409774057e-03
2.700000000000000000e+01,1.857703381268742317e-03
2.703999999999999915e+01,3.703516029586650417e-03
2.707999999999999829e+01,5.916318434434437480e-03
2.712000000000000099e+01,4.764061484006813785e-03
2.716000000000000014e+01,3.795251023194361716e-03
2.719999999999999929e+01,4.111147533292423134e-03
2.723999999999999844e+01,2.775056645664165499e-03
2.728000000000000114e+01,5.232099361986513285e-03
2.732000000000000028e+01,3.712271720521986319e-03
2.735999999999999943e+01,3.660694722947509944e-03
2.739999999999999858e+01,4.526738230131629667e-03
2.744000000000000128e+01,2.639534264358936455e-03
2.748000000000000043e+01,3.933652900025385972e-03
2.751999999999999957e+01,4.921769561685218619e-03
2.755999999999999872e+01,4.380261635218285834e-03
2.760000000000000142e+01,3.226846199650273538e-03
2.764000000000000057e+01,4.642942295332488228e-03
2.767999999999999972e+01,1.592719569606055284e-03
2.771999999999999886e+01,4.354608617248497369e-03
2.776000000000000156e+01,1.243012894769975930e-03
2.780000000000000071e+01,1.985732790139069660e-03
2.783999999999999986e+01,2.605994655190982563e-03
2.787999999999999901e+01,4.205058971221036987e-03
2.792000000000000171e+01,3.295601162783494582e-03
2.796000000000000085e+01,3.120221404319524321e-03
2.800000000000000000e+01,6.187346261191726052e-03
2.803999999999999915e+01,3.075081151235865319e-03
2.807999999999999829e+01,2.226422646533024203e-03
2.812000000000000099e+01,2.601291535232705312e-03
2.816000000000000014e+01,2.241891594136170580e-03
2.819999999999999929e+01,3.962555059055439775e-03
2.823999999999999844e+01,2.868791270477476230e-03
2.828000000000000114e+01,5.384619375517279809e-03
2.832000000000000028e+01,1.537514585201702876e-03
2.835999999999999943e+01,3.869609455633865689e-03
2.839999999999999858e+01,3.632001879638213984e-03
2.844000000000000128e+01,3.210756154397591874e-03
2.848000000000000043e+01,3.951857297566859634e-03
2.851999999999999957e+01,2.612705270059792126e-03
2.855999999999999872e+01,5.189051280362224836e-03
2.860000000000000142e+01,4.277978171275993377e-03
2.864000000000000057e+01,3.427991787691680569e-03
2.867999999999999972e+01,2.394367660927239263e-03
2.871999999999999886e+01,3.440807819985756966e-03
2.876000000000000156e+01,2.896444287151825076e-03
2.880000000000000071e+01,3.330884761877924132e-03
2.883999999999999986e+01,1.746253741437353482e-03
2.887999999999999901e+01,2.302868411619502387e-03
2.892000000000000171e+01,9.015928560798121792e-04
2.896000000000000085e+01,5.251250037820797550e-03
2.900000000000000000e+01,3.849786815622236423e-03
2.903999999999999915e+01,1.346969447992582645e-03
2.907999999999999829e+01,2.759650997979585033e-03
2.912000000000000099e+01,5.640586169665467824e-03
2.916000000000000014e+01,4.544654096728248209e-03
2.919999999999999929e+01,4.060439903586513660e-03
2.923999999999999844e+01,3.392588914749276961e-03
2.928000000000000114e+01,3.030550270613067455e-03
2.932000000000000028e+01,4.442671257012502026e-03
2.935999999999999943e+01,3.774540493962534344e-03
2.939999999999999858e+01,2.616867535477550039e-03
2.944000000000000128e+01,2.560361935571936476e-03
2.948000000000000043e+01,2.993212421024350669e-03
2.951999999999999957e+01,3.793056791332508580e-03
2.955999999999999872e+01,9.219402642417198670e-04
2.960000000000000142e+01,3.679395289091412936e-03
2.964000000000000057e+01,3.255338624616153052e-03
2.967999999999999972e+01,3.871268590695217324e-03
2.971999999999999886e+01,3.875294634579294108e-03
2.976000000000000156e+01,2.410880946687509428e-03
2.980000000000000071e+01,4.494880590067618607e-03
2.983999999999999986e+01,3.213825480240480644e-03
2.987999999999999901e+01,2.483308266636000215e-03
2.992000000000000171e+01,3.832857369178668816e-03
2.996000000000000085e+01,3.836329346512609272e-03
3.000000000000000000e+01,2.616086534495055526e-03
3.003999999999999915e+01,2.435830962129095518e-03
3.007999999999999829e+01,4.458004244799939654e-03
3.012000000000000099e+01,2.625674175286813426e-03
3.016000000000000014e+01,2.445142889356508118e-03
3.019999999999999929e+01,3.916410454686502368e-03
3.023999999999999844e+01,2.634435284482811515e-03
3.028000000000000114e+01,4.350244050871752630e-03
3.032000000000000028e+01,2.456274339823612003e-03
3.035999999999999943e+01,1.112843337127799280e-03
3.039999999999999858e+01,3.195464412686202342e-03
3.044000000000000128e+01,3.442560102446510367e-03
3.048000000000000043e+01,4.729643776310611669e-03
3.051999999999999957e+01,1.856319104316069392e-03
3.055999999999999872e+01,3.020858122184455659e-03
3.060000000000000142e+01,1.309792745436656356e-03
3.064000000000000057e+01,2.841236450738264009e-03
3.067999999999999972e+01,5.106762808081635394e-03
3.071999999999999886e+01,2.477707548875144120e-03
3.076000000000000156e+01,5.171320133806466858e-03
3.080000000000000071e+01,3.826887114801216447e-03
3.083999999999999986e+01,4.134254029895834473e-03
3.087999999999999901e+01,5.871188786784728355e-04
3.092000000000000171e+01,4.381629267274887718e-03
3.096000000000000085e+01,4.382818859004154396e-03
3.100000000000000000e+01,2.181397207880656983e-03
3.103999999999999915e+01,2.427130572412857564e-03
3.107999999999999829e+01,1.999781181694271562e-03
3.112000000000000099e+01,2.734783126098817331e-03
3.116000000000000014e+01,3.224970389236695573e-03
3.119999999999999929e+01,3.959792111504429127e-03
3.123999999999999844e+01,3.837987946961630373e-03
3.128000000000000114e+01,2.308927756476846557e-03
3.132000000000000028e+01,4.634189139457331463e-03
3.135999999999999943e+01,4.634477620502552679e-03
3.139999999999999858e+01,2.860423474098908962e-03
3.144000000000000128e+01,3.533525020125689777e-03
3.148000000000000043e+01,2.615827476328211939e-03
3.151999999999999957e+01,3.472293285327407095e-03
3.155999999999999872e+01,1.269612921700127286e-03
3.160000000000000142e+01,2.982435739370310496e-03
3.164000000000000057e+01,2.553829531117181566e-03
3.167999999999999972e+01,2.920488800932530098e-03
3.171999999999999886e+01,4.082413616493821285e-03
3.176000000000000156e+01,3.531177547793390003e-03
3.180000000000000071e+01,2.796309014755749434e-03
3.183999999999999986e+01,5.487494996361363085e-03
3.187999999999999901e+01,3.467644726333490076e-03
3.192000000000000171e+01,3.589045290416319374e-03
3.196000000000000085e+01,1.936104174534923313e-03
3.200000000000000000e+01,8.948856758721250798e-04
3.203999999999999915e+01,3.524446566599470122e-03
3.207999999999999829e+01,2.483050823608695667e-03
3.211999999999999744e+01,4.378260996284430960e-03
3.215999999999999659e+01,4.499129827383305247e-03
3.220000000000000284e+01,2.968019652762551603e-03
3.224000000000000199e+01,3.516979719582383201e-03
3.228000000000000114e+01,2.413960916037550218e-03
3.232000000000000028e+01,4.186367232456703058e-03
3.235999999999999943e+01,2.716085327529219485e-03
3.239999999999999858e+01,2.224613521134362511e-03
3.243999999999999773e+01,4.482499196239949127e-04
3.247999999999999687e+01,2.403847586045871308e-03
3.252000000000000313e+01,1.850930910909558916e-03
3.256000000000000227e+01,1.297926459577671736e-03
3.260000000000000142e+01,2.824992858783646320e-03
3.264000000000000057e+01,4.841420689868032416e-03
3.267999999999999972e+01,5.389413729632119496e-03
3.271999999999999886e+01,3.122987095775988080e-03
3.275999999999999801e+01,4.160254264965224623e-03
3.279999999999999716e+01,2.872550968608243716e-03
3.284000000000000341e+01,1.462398101618231578e-03
3.288000000000000256e+01,5.558460067941743687e-03
3.292000000000000171e+01,4.454038469527028810e-03
3.296000000000000085e+01,4.328427917129574684e-03
3.300000000000000000e+01,2.061390639842904538e-03
3.303999999999999915e+01,4.688757125680837259e-03
3.307999999999999829e+01,3.645168669737476261e-03
3.311999999999999744e+01,1.683776373734932868e-03
3.315999999999999659e+01,2.720172887103098746e-03
3.320000000000000284e+01,3.267033634396215164e-03
3.324000000000000199e+01,4.609162499179254337e-03
3.328000000000000114e+01,2.830966967377289683e-03
3.332000000000000028e+01,8.079604088922082150e-04
3.335999999999999943e+01,3.251090216322358346e-03
3.339999999999999858e+01,1.962084489301112004e-03
3.343999999999999773e+01,0.000000000000000000e+00
3.347999999999999687e+01,5.257203113691187764e-03
3.352000000000000313e+01,2.805497180121126026e-03
3.356000000000000227e+01,2.250320319078636441e-03
3.360000000000000142e+01,1.939781977814394572e-03
3.364000000000000057e+01,2.791599235354098266e-03
3.367999999999999972e+01,2.909157002588904674e-03
3.371999999999999886e+01,3.821983699443318085e-03
3.375999999999999801e+01,3.694645370898370050e-03
3.379999999999999716e+01,2.160055280092243804e-03
3.384000000000000341e+01,2.154907931016714854e-03
3.388000000000000256e+01,1.966131636832591303e-03
3.392000000000000171e+01,1.838451001576856111e-03
3.396000000000000085e+01,9.153302156686551417e-04
3.400000000000000000e+01,2.684093989908696489e-03
3.403999999999999915e+01,3.779780017030971197e-03
3.407999999999999829e+01,4.691837437432014139e-03
3.411999999999999744e+01,4.196643636991664178e-03
3.415999999999999659e+01,3.517821365185025851e-03
3.420000000000000284e+01,4.980253785105062149e-03
3.424000000000000199e+01,3.628269103148860919e-03
3.428000000000000114e+01,2.276199555128430221e-03
3.432000000000000028e+01,1.902943354159341866e-03
3.435999999999999943e+01,1.896689227020268050e-03
3.439999999999999858e+01,1.462082498220222638e-03
3.443999999999999773e+01,4.453534683099194709e-03
3.447999999999999687e+01,3.284585222189375861e-03
3.452000000000000313e+01,1.503739960381355201e-03
3.456000000000000227e+01,1.435882060768102443e-03
3.460000000000000142e+01,3.570460663746139775e-03
3.464000000000000057e+01,3.624796450701237190e-03
3.467999999999999972e+01,3.006055573378157986e-03
3.471999999999999886e+01,2.081324903993640642e-03
3.475999999999999801e+01,3.726117812449593857e-03
3.479999999999999716e+01,9.657850801770257549e-04
3.484000000000000341e+01,1.509149670178446803e-03
3.488000000000000256e+01,3.704321029704529204e-03
3.492000000000000171e+01,1.310823549264863433e-03
3.496000000000000085e+01,2.159842460041726860e-03
3.500000000000000000e+01,2.580509784319716740e-03
3.503999999999999915e+01,3.184636930675117505e-03
3.507999999999999829e+01,2.687420150897886460e-03
3.511999999999999744e+01,5.616263435316727788e-03
3.515999999999999659e+01,5.914234576710858740e-03
3.520000000000000284e+01,4.866137458645261073e-03
3.524000000000000199e+01,2.533153282887281536e-03
3.528000000000000114e+01,3.259142637495975742e-03
3.532000000000000028e+01,1.660165790239263037e-03
3.535999999999999943e+01,3.976698485962501875e-03
3.539999999999999858e+01,2.989366969737177956e-03
3.543999999999999773e+01,4.082111109150314901e-03
3.547999999999999687e+01,4.807685608284139982e-03
3.552000000000000313e+01,4.370735791647661211e-03
3.556000000000000227e+01,3.321891933727290792e-03
3.560000000000000142e+01,4.230761733975514464e-03
3.564000000000000057e+01,4.283013091935265401e-03
3.567999999999999972e+01,2.928015868475078269e-03
3.571999999999999886e+01,3.347189103946268673e-03
3.575999999999999801e+01,3.215649770610810518e-03
3.579999999999999716e+01,2.839303606595584579e-03
3.584000000000000341e+01,5.277207384072129907e-03
3.588000000000000256e+01,3.309987348111922446e-03
3.592000000000000171e+01,5.686545741245472435e-03
3.596000000000000085e+01,4.453335199465674119e-03
3.600000000000000000e+01,2.914137031303593636e-03
3.603999999999999915e+01,3.699740070301600885e-03
3.607999999999999829e+01,3.873449947822862460e-03
3.611999999999999744e+01,2.762274256556168997e-03
3.615999999999999659e+01,4.342986780021264662e-03
3.620000000000000284e+01,4.577632735963463664e-03
3.624000000000000199e+01,2.915581985251308478e-03
3.628000000000000114e+01,4.251325322752770065e-03
3.632000000000000028e+01,3.445647552595302015e-03
3.635999999999999943e+01,4.108235653759366966e-03
3.639999999999999858e+01,4.893104743945051079e-03
3.643999999999999773e+01,4.760175611301846119e-03
3.647999999999999687e+01,4.565984200765565125e-03
3.652000000000000313e+01,5.350609859541662766e-03
3.656000000000000227e+01,4.666807291712356774e-03
3.660000000000000142e+01,4.778278526280735523e-03
3.664000000000000057e+01,4.461400949126638309e-03
3.667999999999999972e+01,5.245702980174575709e-03
3.671999999999999886e+01,5.601656334854988352e-03
3.675999999999999801e+01,6.385796958103688407e-03
3.679999999999999716e+01,4.844973883553485398e-03
3.684000000000000341e+01,5.261866565173546444e-03
3.688000000000000256e+01,6.045765584304439721e-03
3.692000000000000171e+01,6.462497399545046560e-03
3.696000000000000085e+01,4.309541251337126525e-03
3.700000000000000000e+01,7.050995566323667654e-03
3.703999999999999915e+01,4.347248750992198721e-03
3.707999999999999829e+01,7.088542741019069650e-03
3.711999999999999744e+01,8.177866049655523398e-03
3.715999999999999659e+01,7.248131940039742767e-03
3.720000000000000284e+01,6.134774502545639607e-03
3.724000000000000199e+01,9.304016593412026137e-03
3.728000000000000114e+01,9.108216519081210882e-03
3.732000000000000028e+01,1.001359713579199999e-02
3.735999999999999943e+01,1.091889809760400107e-02
3.739999999999999858e+01,9.070968438150040988e-03
3.743999999999999773e+01,1.309634813178084042e-02
3.747999999999999687e+01,1.161534630545595949e-02
3.752000000000000313e+01,1.221442365399815454e-02
3.756000000000000227e+01,1.623956519506228671e-02
3.760000000000000142e+01,1.445241974875374411e-02
3.764000000000000057e+01,1.823267832346792822e-02
3.767999999999999972e+01,1.993269922564715538e-02
3.771999999999999886e+01,2.285626376382248956e-02
3.775999999999999801e+01,2.614683612841304725e-02
3.779999999999999716e+01,2.931496731437727155e-02
3.784000000000000341e+01,3.976357461426825723e-02
3.788000000000000256e+01,4.935556726180928555e-02
3.792000000000000171e+01,6.543268141546357275e-02
3.796000000000000085e+01,8.903499642243656309e-02
3.800000000000000000e+01,1.348459845319772699e-01
3.803999999999999915e+01,2.372494431702764084e-01
3.807999999999999829e+01,4.504518572086462780e-01
3.811999999999999744e+01,7.184724890225230309e-01
3.815999999999999659e+01,9.365080559836175267e-01
3.820000000000000284e+01,1.000000000000000000e+00
3.824000000000000199e+01,9.097436758825162562e-01
3.828000000000000114e+01,7.004899678618965453e-01
3.832000000000000028e+01,4.796729474676499905e-01
3.835999999999999943e+01,2.940350012121231149e-01
3.839999999999999858e+01,1.744726018783836208e-01
3.843999999999999773e+01,1.065470018888968751e-01
3.847999999999999687e+01,7.098614407302782092e-02
3.852000000000000313e+01,5.249474497598358852e-02
3.856000000000000227e+01,4.348634403829637618e-02
3.860000000000000142e+01,3.747574111411622333e-02
3.864000000000000057e+01,3.079206822572775129e-02
3.867999999999999972e+01,2.661674441348223577e-02
3.871999999999999886e+01,2.531685654959645038e-02
3.875999999999999801e+01,2.120255923138890039e-02
3.879999999999999716e+01,1.861771304691864359e-02
3.884000000000000341e+01,1.731759352750361636e-02
3.888000000000000256e+01,1.589503465675402849e-02
3.892000000000000171e+01,1.453357990461699549e-02
3.896000000000000085e+01,1.127543304789379273e-02
3.900000000000000000e+01,1.101508488145238815e-02
3.903999999999999915e+01,1.106056557301548539e-02
3.907999999999999829e+01,1.006589024028316584e-02
3.911999999999999744e+01,8.765232560011479435e-03
3.915999999999999659e+01,9.544656829383270716e-03
3.920000000000000284e+01,1.001809888657064114e-02
3.924000000000000199e+01,9.634928592442136217e-03
3.928000000000000114e+01,8.211602612405577775e-03
3.932000000000000028e+01,7.644736170924764859e-03
3.935999999999999943e+01,9.096770883384916115e-03
3.939999999999999858e+01,7.367310419823591000e-03
3.943999999999999773e+01,7.106121038749243363e-03
3.947999999999999687e+01,8.252021673749467684e-03
3.952000000000000313e+01,6.399970738030279736e-03
3.956000000000000227e+01,7.973987378706687626e-03
3.960000000000000142e+01,5.571154438580532171e-03
3.964000000000000057e+01,8.185098696541832919e-03
3.967999999999999972e+01,5.537389693168011905e-03
3.971999999999999886e+01,6.744016475528848316e-03
3.975999999999999801e+01,5.870409104583335091e-03
3.979999999999999716e+01,4.874363938885141988e-03
3.984000000000000341e+01,5.652496202898066313e-03
3.988000000000000256e+01,5.512836064344805651e-03
3.992000000000000171e+01,5.189557199981399520e-03
3.996000000000000085e+01,4.988565347934741274e-03
4.000000000000000000e+01,4.542773771343005910e-03
4.003999999999999915e+01,3.729820269703908956e-03
4.007999999999999829e+01,4.323957799301481573e-03
4.011999999999999744e+01,5.162744880105449817e-03
4.015999999999999659e+01,4.777834361636138470e-03
4.020000000000000284e+01,3.903399920649592691e-03
4.024000000000000199e+01,4.313694513429846243e-03
4.028000000000000114e+01,5.886355939474610319e-03
4.032000000000000028e+01,6.112957768776221962e-03
4.035999999999999943e+01,4.075783057663935616e-03
4.039999999999999858e+01,4.241054662376564366e-03
4.043999999999999773e+01,6.119323577872525302e-03
4.047999999999999687e+01,3.592476462841168432e-03
4.052000000000000313e+01,5.409415559812977975e-03
4.056000000000000227e+01,4.167223711589809927e-03
4.060000000000000142e+01,4.821572847129505963e-03
4.064000000000000057e+01,3.273327050087503510e-03
4.067999999999999972e+01,4.906426188050823367e-03
4.071999999999999886e+01,5.315828674225487813e-03
4.075999999999999801e+01,5.419251587637191440e-03
4.079999999999999716e+01,5.339057264143169494e-03
4.084000000000000341e+01,4.218709894162556671e-03
4.088000000000000256e+01,4.505454908968074303e-03
4.092000000000000171e+01,1.488345051316338841e-03
4.096000000000000085e+01,3.671558027378327149e-03
4.100000000000000000e+01,4.814618227663610729e-03
4.103999999999999915e+01,3.632721903962169655e-03
4.107999999999999829e+01,2.940201292086003747e-03
4.111999999999999744e+01,3.532411202881051426e-03
4.115999999999999659e+01,5.042264899485493328e-03
4.120000000000000284e+01,3.187083063285113104e-03
4.124000000000000199e+01,2.861356489147889957e-03
4.128000000000000114e+01,4.187447512931060864e-03
4.132000000000000028e+01,4.412205168267437951e-03
4.135999999999999943e+01,4.514527668272592595e-03
4.139999999999999858e+01,3.760241471545424340e-03
4.143999999999999773e+01,2.516433450302695950e-03
4.147999999999999687e+01,5.188145326693335488e-03
4.152000000000000313e+01,3.638286334440599470e-03
4.156000000000000227e+01,2.883709536592228909e-03
4.160000000000000142e+01,4.148037682623328774e-03
4.164000000000000057e+01,4.555757537986944612e-03
4.167999999999999972e+01,2.883246488562920488e-03
4.171999999999999886e+01,2.006017904253157725e-03
4.175999999999999801e+01,3.514781339072046290e-03
4.179999999999999716e+01,4.839929228922037335e-03
4.184000000000000341e+01,4.207208752874046567e-03
4.188000000000000256e+01,2.779061526313295668e-03
4.192000000000000171e+01,2.880370712332748929e-03
4.196000000000000085e+01,2.859245758183079095e-03
4.200000000000000000e+01,2.776867865631641591e-03
4.203999999999999915e+01,3.673316381883897589e-03
4.207999999999999829e+01,4.753236631448857705e-03
4.211999999999999744e+01,2.651666307060523715e-03
4.215999999999999659e+01,5.138609505811299674e-03
4.220000000000000284e+01,5.667684947761353863e-03
4.224000000000000199e+01,4.422436102857802212e-03
4.228000000000000114e+01,3.483021597834087563e-03
4.232000000000000028e+01,4.195426450345071494e-03
4.235999999999999943e+01,4.112405364472971302e-03
4.239999999999999858e+01,4.212856553333367039e-03
4.243999999999999773e+01,4.252055548244197680e-03
4.247999999999999687e+01,5.147719428231162589e-03
4.252000000000000313e+01,2.188900936050874966e-03
4.256000000000000227e+01,3.512690973335015187e-03
4.260000000000000142e+01,3.000976198772934561e-03
4.264000000000000057e+01,3.101002043637353985e-03
4.267999999999999972e+01,1.732610016549786594e-03
4.271999999999999886e+01,4.402102253277014564e-03
4.275999999999999801e+01,4.379554071609574085e-03
4.279999999999999716e+01,5.519376986887459223e-03
4.284000000000000341e+01,3.722435082766096560e-03
4.288000000000000256e+01,4.800936165461679520e-03
4.292000000000000171e+01,3.799208441371304621e-03
4.296000000000000085e+01,4.999931364464126407e-03
4.300000000000000000e+01,4.365150152485457354e-03
4.303999999999999915e+01,5.994000857134816444e-03
4.307999999999999829e+01,6.093253232517034136e-03
4.311999999999999744e+01,5.152356419028641075e-03
4.315999999999999659e+01,5.312650177492950383e-03
4.320000000000000284e+01,6.145866636958268077e-03
4.324000000000000199e+01,5.510666171956222700e-03
4.328000000000000114e+01,6.710830091017873887e-03
4.332000000000000028e+01,4.607143198270667421e-03
4.335999999999999943e+01,5.807168043099259977e-03
4.339999999999999858e+01,6.028225306889427836e-03
4.343999999999999773e+01,6.371575470936515460e-03
4.347999999999999687e+01,7.877297882445970581e-03
4.352000000000000313e+01,5.650901881904771273e-03
4.356000000000000227e+01,7.217667030045780627e-03
4.360000000000000142e+01,8.417276276434553645e-03
4.364000000000000057e+01,8.882642884209266190e-03
4.367999999999999972e+01,8.919672591496801209e-03
4.371999999999999886e+01,1.042498062276095774e-02
4.375999999999999801e+01,9.727699000286325892e-03
4.379999999999999716e+01,1.068223923941290059e-02
4.384000000000000341e+01,1.383923161462708926e-02
4.388000000000000256e+01,1.222402690735989103e-02
4.392000000000000171e+01,1.391253488515311817e-02
4.396000000000000085e+01,1.596806117936994465e-02
4.400000000000000000e+01,1.851296812586759183e-02
4.403999999999999915e+01,2.160843692641342684e-02
4.407999999999999829e+01,2.574391672140396645e-02
4.411999999999999744e+01,2.822743767856191258e-02
4.415999999999999659e+01,3.646191709044037388e-02
4.420000000000000284e+01,4.573640769979596399e-02
4.424000000000000199e+01,6.388209473781095160e-02
4.428000000000000114e+01,9.377449157438724758e-02
4.432000000000000028e+01,1.255634356887314340e-01
4.435999999999999943e+01,1.697109010778906357e-01
4.439999999999999858e+01,2.058435701576119548e-01
4.443999999999999773e+01,2.280880541229441949e-01
4.447999999999999687e+01,2.221279676645326051e-01
4.452000000000000313e+01,2.009337112771094891e-01
4.456000000000000227e+01,1.691550512191833389e-01
4.460000000000000142e+01,1.345008104537566695e-01
4.464000000000000057e+01,9.684862678032712946e-02
4.467999999999999972e+01,7.014779883906516189e-02
4.471999999999999886e+01,4.876966236137918881e-02
4.475999999999999801e+01,3.540618731490142307e-02
4.479999999999999716e+01,2.920083789005101585e-02
4.484000000000000341e+01,2.299542146598932899e-02
4.488000000000000256e+01,2.070553069214622899e-02
4.492000000000000171e+01,1.572360315449202253e-02
4.496000000000000085e+01,1.520783160922028338e-02
4.500000000000000000e+01,1.169411776504297382e-02
4.503999999999999915e+01,1.148411850089534059e-02
4.507999999999999829e+01,1.188586398450007520e-02
4.511999999999999744e+01,9.106123969962008971e-03
4.515999999999999659e+01,9.997185543025328275e-03
4.520000000000000284e+01,8.318573094199614368e-03
4.524000000000000199e+01,7.985879272914732027e-03
4.528000000000000114e+01,5.817685174174338537e-03
4.532000000000000028e+01,6.280213654217233106e-03
4.535999999999999943e+01,6.314408076226832658e-03
4.539999999999999858e+01,7.510977994217523691e-03
4.543999999999999773e+01,7.422678112271517865e-03
4.547999999999999687e+01,5.437697157167483038e-03
4.552000000000000313e+01,5.043359839706130013e-03
4.556000000000000227e+01,5.811398288935750930e-03
4.560000000000000142e+01,6.946457829365376355e-03
4.564000000000000057e+01,5.022395019639116533e-03
4.567999999999999972e+01,4.505432715995787152e-03
4.571999999999999886e+01,5.823838924742016053e-03
4.575999999999999801e+01,5.367926802252294405e-03
4.579999999999999716e+01,6.196753120698161692e-03
4.584000000000000341e+01,4.945355572813611884e-03
4.588000000000000256e+01,4.550428662590424826e-03
4.592000000000000171e+01,4.277798848627494856e-03
4.596000000000000085e+01,3.943922796332649874e-03
4.600000000000000000e+01,4.282974182461944147e-03
4.603999999999999915e+01,3.826605856535693784e-03
4.607999999999999829e+01,3.370172629399837208e-03
4.611999999999999744e+01,3.831391580080062507e-03
4.615999999999999659e+01,4.353726898995502644e-03
4.620000000000000284e+01,4.141823910655179075e-03
4.624000000000000199e+01,3.929856291815130888e-03
4.628000000000000114e+01,3.289556171523674508e-03
4.632000000000000028e+01,2.893916092446973103e-03
4.635999999999999943e+01,2.926479524532138270e-03
4.639999999999999858e+01,3.020159730917363651e-03
4.643999999999999773e+01,3.786768120178930427e-03
4.647999999999999687e+01,4.614493419095503854e-03
4.652000000000000313e+01,4.034988477187399607e-03
4.656000000000000227e+01,3.761325116648765992e-03
4.660000000000000142e+01,4.221771343786258172e-03
4.664000000000000057e+01,4.804515885378520153e-03
4.667999999999999972e+01,1.532785093260753337e-03
4.671999999999999886e+01,4.501466159940836591e-03
4.675999999999999801e+01,1.657875737389634656e-03
4.679999999999999716e+01,3.280444420384673668e-03
4.684000000000000341e+01,2.516885258536721501e-03
4.688000000000000256e+01,1.875624817208391233e-03
4.692000000000000171e+01,3.008553784503940724e-03
4.696000000000000085e+01,3.713151400865126722e-03
4.700000000000000000e+01,4.172961136239061036e-03
4.703999999999999915e+01,4.020896253763929507e-03
4.707999999999999829e+01,2.767507748398154426e-03
4.711999999999999744e+01,2.615316515054941313e-03
4.715999999999999659e+01,3.074873548692704656e-03
4.720000000000000284e+01,3.717910978359752639e-03
4.724000000000000199e+01,2.953719385396645202e-03
4.728000000000000114e+01,1.700015848829074120e-03
4.732000000000000028e+01,1.302785386311903788e-03
4.735999999999999943e+01,2.435020540511296724e-03
4.739999999999999858e+01,4.117823233666629938e-03
4.743999999999999773e+01,2.435600951702972077e-03
4.747999999999999687e+01,3.873553975825210632e-03
4.752000000000000313e+01,3.720735048789966179e-03
4.756000000000000227e+01,1.059427226926490558e-03
4.760000000000000142e+01,2.619555327799196181e-03
4.764000000000000057e+01,1.365288998749210163e-03
4.767999999999999972e+01,1.946394498284978979e-03
4.771999999999999886e+01,3.016886944106594859e-03
4.775999999999999801e+01,2.802513515284966571e-03
4.779999999999999716e+01,3.016346034014253698e-03
4.784000000000000341e+01,3.291297763432626030e-03
4.788000000000000256e+01,2.709651759869351455e-03
4.792000000000000171e+01,2.250306236439999618e-03
4.796000000000000085e+01,2.586253735810736722e-03
4.800000000000000000e+01,4.451667934737610528e-03
4.803999999999999915e+01,3.257963844157004286e-03
4.807999999999999829e+01,2.553647308959495175e-03
4.811999999999999744e+01,2.338718396822567040e-03
4.815999999999999659e+01,2.735539443603447751e-03
4.820000000000000284e+01,3.927653919249256276e-03
4.824000000000000199e+01,4.324352405100558190e-03
4.828000000000000114e+01,4.047997237014582667e-03
4.832000000000000028e+01,4.444573432646196053e-03
4.835999999999999943e+01,2.149118684729392319e-03
4.839999999999999858e+01,2.790297397210737135e-03
4.843999999999999773e+01,2.207792519655767723e-03
4.847999999999999687e+01,2.726487215157438835e-03
4.852000000000000313e+01,2.633309796876565079e-03
4.856000000000000227e+01,3.335426416557874842e-03
4.860000000000000142e+01,2.752678582822881258e-03
4.864000000000000057e+01,1.925145642877044636e-03
4.867999999999999972e+01,1.648182407566287349e-03
4.871999999999999886e+01,3.757222967264528188e-03
4.875999999999999801e+01,2.072972846571229100e-03
4.879999999999999716e+01,2.040553047163294609e-03
4.884000000000000341e+01,3.721144770808081006e-03
4.888000000000000256e+01,3.688604576149707645e-03
4.892000000000000171e+01,4.634902430820425114e-03
4.896000000000000085e+01,2.032634479846498650e-03
4.900000000000000000e+01,2.244638736253049601e-03
4.903999999999999915e+01,2.456583099583004200e-03
4.907999999999999829e+01,3.525003514772185893e-03
4.911999999999999744e+01,2.941473551812931291e-03
4.915999999999999659e+01,3.520325446517253223e-03
4.920000000000000284e+01,2.814313902967369857e-03
4.924000000000000199e+01,2.903597547896717961e-03
4.928000000000000114e+01,3.298727376263728504e-03
4.932000000000000028e+01,3.143167578487530544e-03
4.935999999999999943e+01,2.192193685886073898e-03
4.939999999999999858e+01,3.260137934271367926e-03
4.943999999999999773e+01,1.758415334579790023e-03
4.947999999999999687e+01,1.969705340780505791e-03
4.952000000000000313e+01,2.670385338753366884e-03
4.956000000000000227e+01,3.003919518917505613e-03
4.960000000000000142e+01,2.970307948950386308e-03
4.964000000000000057e+01,1.529471417001513093e-03
4.967999999999999972e+01,1.862828963422175337e-03
4.971999999999999886e+01,2.563214571822592172e-03
4.975999999999999801e+01,3.691809443970101457e-03
4.979999999999999716e+01,2.128375808958232057e-03
4.984000000000000341e+01,2.889766729834736692e-03
4.988000000000000256e+01,3.406374642502062611e-03
4.992000000000000171e+01,3.555837346457925777e-03
4.996000000000000085e+01,3.093430373020272534e-03
5.000000000000000000e+01,3.671044410293366599e-03
5.003999999999999915e+01,4.921592721415402050e-03
5.007999999999999829e+01,3.113026194581090464e-03
5.011999999999999744e+01,4.669363976905436045e-03
5.015999999999999659e+01,2.554775715729567642e-03
5.020000000000000284e+01,2.336744680910156791e-03
5.024000000000000199e+01,3.281097331046097833e-03
5.028000000000000114e+01,1.716965688421990188e-03
5.032000000000000028e+01,2.844746218355211510e-03
5.035999999999999943e+01,2.687665272680960817e-03
5.039999999999999858e+01,1.551628589526109128e-03
5.043999999999999773e+01,2.862779745601485258e-03
5.047999999999999687e+01,3.623243238180379449e-03
5.052000000000000313e+01,9.575058327158404974e-04
5.056000000000000227e+01,2.146122553581222836e-03
5.060000000000000142e+01,4.068855629870042102e-03
5.064000000000000057e+01,3.727829558855601765e-03
5.067999999999999972e+01,3.570289771810617515e-03
5.071999999999999886e+01,2.923243861423876957e-03
5.075999999999999801e+01,3.499763649889521457e-03
5.079999999999999716e+01,1.017169818593330983e-03
5.084000000000000341e+01,2.633655123728902061e-03
5.088000000000000256e+01,3.821815710322485401e-03
5.092000000000000171e+01,2.379130818815826907e-03
5.096000000000000085e+01,2.588279903178090664e-03
5.100000000000000000e+01,2.063198801581382462e-03
5.103999999999999915e+01,3.495857481657949420e-03
5.107999999999999829e+01,2.175308686164409509e-03
5.111999999999999744e+01,3.669035684957422990e-03
5.115999999999999659e+01,3.082547818523972277e-03
5.120000000000000284e+01,3.107815054496301018e-03
5.124000000000000199e+01,3.744837460551882647e-03
5.128000000000000114e+01,3.402905618031282307e-03
5.132000000000000028e+01,3.489185678679233155e-03
5.135999999999999943e+01,3.147141832914879863e-03
5.139999999999999858e+01,3.233310025674028098e-03
5.143999999999999773e+01,3.747690324634151728e-03
5.147999999999999687e+01,4.384377127023325084e-03
5.152000000000000313e+01,3.675023282361856037e-03
5.156000000000000227e+01,4.005693087832599107e-03
5.160000000000000142e+01,3.724495990686232678e-03
5.164000000000000057e+01,4.238598142667494677e-03
5.167999999999999972e+01,2.183037236510387748e-03
5.171999999999999886e+01,3.002934273891825958e-03
5.175999999999999801e+01,3.945138288444617093e-03
5.179999999999999716e+01,2.501222850161106005e-03
5.184000000000000341e+01,4.422214631167610197e-03
5.188000000000000256e+01,3.834724826512990285e-03
5.192000000000000171e+01,3.185998867469972372e-03
5.196000000000000085e+01,3.454934967154136508e-03
5.200000000000000000e+01,4.335627522793553991e-03
5.203999999999999915e+01,3.258468970290668600e-03
5.207999999999999829e+01,3.160153813637265816e-03
5.211999999999999744e+01,2.266429231904263080e-03
5.215999999999999659e+01,2.779816120004850299e-03
5.220000000000000284e+01,3.537872997908763067e-03
5.224000000000000199e+01,2.888709312866687140e-03
5.228000000000000114e+01,3.769019568870383280e-03
5.232000000000000028e+01,2.202030117755047253e-03
5.235999999999999943e+01,4.122311033916635156e-03
5.239999999999999858e+01,2.677575366965926143e-03
5.243999999999999773e+01,3.924755459478624676e-03
5.247999999999999687e+01,3.458809724660761274e-03
5.252000000000000313e+01,3.910526996054710172e-03
5.256000000000000227e+01,2.587937441383153341e-03
5.260000000000000142e+01,3.957263916884907334e-03
5.264000000000000057e+01,2.573385556238011896e-03
5.267999999999999972e+01,3.086068617950912633e-03
5.271999999999999886e+01,3.721060281094525253e-03
5.275999999999999801e+01,2.642926590649889544e-03
5.279999999999999716e+01,2.971905452878431317e-03
5.284000000000000341e+01,2.933744046851047196e-03
5.288000000000000256e+01,2.344899037975575491e-03
5.292000000000000171e+01,4.386789466603326602e-03
5.296000000000000085e+01,3.675475600502203614e-03
5.300000000000000000e+01,3.086470809574110453e-03
5.303999999999999915e+01,3.109224234215573427e-03
5.307999999999999829e+01,3.009562333025479069e-03
5.311999999999999744e+01,4.439375794108101937e-03
5.315999999999999659e+01,2.442992823860535949e-03
5.320000000000000284e+01,1.731360814881102847e-03
5.324000000000000199e+01,3.161015712105621524e-03
5.328000000000000114e+01,1.592742319661536897e-03
5.332000000000000028e+01,3.634103186933500870e-03
5.335999999999999943e+01,2.983441570341209461e-03
5.339999999999999858e+01,3.862255789763948451e-03
5.343999999999999773e+01,3.089126940205366451e-03
5.347999999999999687e+01,3.723111793836992971e-03
5.352000000000000313e+01,3.439327322920819694e-03
5.356000000000000227e+01,3.400215142842069171e-03
5.360000000000000142e+01,1.892703566761525218e-03
5.364000000000000057e+01,2.220573903210253976e-03
5.367999999999999972e+01,3.037841269888347240e-03
5.371999999999999886e+01,2.814977382226247805e-03
5.375999999999999801e+01,3.142691794238335664e-03
5.379999999999999716e+01,3.042086428163979801e-03
5.384000000000000341e+01,2.880248156219954257e-03
5.388000000000000256e+01,2.901901582443243508e-03
5.392000000000000171e+01,3.474133579050613357e-03
5.396000000000000085e+01,2.883872459202870171e-03
5.400000000000000000e+01,2.660646642824503281e-03
5.403999999999999915e+01,2.315007124873947556e-03
5.407999999999999829e+01,3.927112532084634129e-03
5.411999999999999744e+01,3.336645814022114968e-03
5.415999999999999659e+01,3.419120340588276651e-03
5.420000000000000284e+01,3.256819168112377091e-03
5.424000000000000199e+01,2.115568755193321469e-03
5.428000000000000114e+01,1.708440924025242261e-03
5.432000000000000028e+01,3.381420692263008634e-03
5.435999999999999943e+01,4.075451423090040333e-03
5.439999999999999858e+01,4.157619988723078655e-03
5.443999999999999773e+01,3.322020786390202270e-03
5.447999999999999687e+01,3.893536979184370698e-03
5.452000000000000313e+01,3.608466673457457179e-03
5.456000000000000227e+01,3.690432618684548905e-03
5.460000000000000142e+01,3.527623541644310263e-03
5.464000000000000057e+01,3.976575387272561664e-03
5.467999999999999972e+01,4.119571211898544541e-03
5.471999999999999886e+01,4.078973351379497174e-03
5.475999999999999801e+01,3.365332800673849229e-03
5.479999999999999716e+01,3.263453443346573789e-03
5.484000000000000341e+01,2.733256067547162622e-03
5.488000000000000256e+01,3.793718165919178313e-03
5.492000000000000171e+01,2.773971760747210094e-03
5.496000000000000085e+01,3.834334037820658504e-03
5.500000000000000000e+01,2.998031348974716272e-03
5.503999999999999915e+01,3.018214795931519010e-03
5.507999999999999829e+01,3.466616507739361894e-03
5.511999999999999744e+01,3.670244077087027757e-03
5.515999999999999659e+01,3.506735303472232560e-03
5.520000000000000284e+01,2.792546852302800735e-03
5.524000000000000199e+01,3.424293948042517449e-03
5.528000000000000114e+01,3.077093562953384358e-03
5.532000000000000028e+01,3.708742055589059946e-03
5.535999999999999943e+01,2.199001655043081316e-03
5.539999999999999858e+01,3.075276351644133568e-03
5.543999999999999773e+01,2.544335899497053664e-03
5.547999999999999687e+01,4.154686143492422254e-03
5.552000000000000313e+01,2.705930753667810506e-03
5.556000000000000227e+01,3.276103927160837082e-03
5.560000000000000142e+01,3.356779233963835991e-03
5.564000000000000057e+01,3.865673753102508332e-03
5.567999999999999972e+01,2.355542188659080511e-03
5.571999999999999886e+01,3.047882860512815973e-03
5.575999999999999801e+01,3.128363668206661334e-03
5.579999999999999716e+01,3.637063958946066058e-03
5.584000000000000341e+01,2.677368643622196620e-03
5.588000000000000256e+01,3.614240164855981631e-03
5.592000000000000171e+01,2.593267142662379100e-03
5.596000000000000085e+01,4.814846042358779041e-03
5.600000000000000000e+01,4.711493729443444640e-03
5.603999999999999915e+01,5.219904707908154876e-03
5.607999999999999829e+01,5.299999765902408018e-03
5.611999999999999744e+01,4.217605362025093202e-03
5.615999999999999659e+01,3.441068782110839885e-03
5.620000000000000284e+01,4.010469373365107074e-03
5.624000000000000199e+01,2.010214621712953006e-03
5.628000000000000114e+01,3.191331199280701258e-03
5.632000000000000028e+01,3.760588860173179684e-03
5.635999999999999943e+01,4.085074476607164495e-03
5.639999999999999858e+01,4.470693786709511314e-03
5.643999999999999773e+01,2.714926030921982741e-03
5.647999999999999687e+01,5.119428088179826808e-03
5.652000000000000313e+01,4.220101667194988901e-03
5.656000000000000227e+01,3.565452612858064849e-03
5.660000000000000142e+01,3.889654601925101110e-03
5.664000000000000057e+01,4.458534092994991156e-03
5.667999999999999972e+01,5.088547751475576766e-03
5.671999999999999886e+01,3.577174817808587148e-03
5.675999999999999801e+01,4.207094745963205901e-03
5.679999999999999716e+01,3.919250899122821326e-03
5.684000000000000341e+01,4.610258501751242008e-03
5.688000000000000256e+01,2.853974112492583398e-03
5.692000000000000171e+01,3.728431928484467195e-03
5.696000000000000085e+01,4.664024385629341948e-03
5.700000000000000000e+01,4.008860931177906858e-03
5.703999999999999915e+01,4.393730398672515344e-03
5.707999999999999829e+01,3.616112028554916129e-03
5.711999999999999744e+01,4.000888983918069602e-03
5.715999999999999659e+01,3.467902773383504944e-03
5.720000000000000284e+01,4.280855425954272798e-03
5.724000000000000199e+01,4.665494120701308388e-03
5.728000000000000114e+01,4.805362327571725475e-03
5.732000000000000028e+01,4.027467639254299521e-03
5.735999999999999943e+01,3.800157341583656513e-03
5.739999999999999858e+01,3.633982429518223950e-03
5.743999999999999773e+01,4.263116579814043086e-03
5.747999999999999687e+01,4.280393776081316791e-03
5.752000000000000313e+01,3.930538622357055561e-03
5.756000000000000227e+01,5.783158818093732563e-03
5.760000000000000142e+01,4.454314631059273430e-03
5.764000000000000057e+01,4.043142112953204519e-03
5.767999999999999972e+01,3.570743186014890477e-03
5.771999999999999886e+01,2.914755649742037293e-03
5.775999999999999801e+01,3.910613594508567659e-03
5.779999999999999716e+01,4.906426467565162125e-03
5.784000000000000341e+01,4.250303716162483897e-03
5.788000000000000256e+01,3.288230357955405827e-03
5.792000000000000171e+01,3.610915946958317014e-03
5.796000000000000085e+01,3.627651064511765253e-03
5.800000000000000000e+01,4.317333923731332332e-03
5.803999999999999915e+01,4.211617374137342600e-03
5.807999999999999829e+01,3.922312824306082440e-03
5.811999999999999744e+01,3.755326012364427427e-03
5.815999999999999659e+01,3.221207933270799420e-03
5.820000000000000284e+01,2.809407727421730366e-03
5.824000000000000199e+01,3.254099071573257184e-03
5.828000000000000114e+01,4.127014094773685457e-03
5.832000000000000028e+01,4.082167914723118692e-03
5.835999999999999943e+01,4.893813487705562897e-03
5.839999999999999858e+01,3.564075310994320456e-03
5.843999999999999773e+01,3.335553559030568580e-03
5.847999999999999687e+01,3.841161494952502215e-03
5.852000000000000313e+01,2.878378359201854472e-03
5.856000000000000227e+01,5.219332678466846211e-03
5.860000000000000142e+01,3.644650697818973325e-03
5.864000000000000057e+01,3.293547748485710445e-03
5.867999999999999972e+01,3.921299361785015626e-03
5.871999999999999886e+01,2.897116839529473211e-03
5.875999999999999801e+01,3.708324892519786632e-03
5.879999999999999716e+01,3.357048018029242225e-03
5.884000000000000341e+01,4.474075049600212926e-03
5.888000000000000256e+01,4.795704093584561567e-03
5.892000000000000171e+01,4.750203156288932034e-03
5.896000000000000085e+01,2.318594880424713379e-03
5.900000000000000000e+01,3.374268206297991856e-03
5.903999999999999915e+01,4.674623094822519774e-03
5.907999999999999829e+01,4.323044456889452332e-03
5.911999999999999744e+01,4.154966382872712222e-03
5.915999999999999659e+01,4.109207806359877445e-03
5.920000000000000284e+01,3.941044258668902588e-03
5.924000000000000199e+01,4.751736221095132981e-03
5.928000000000000114e+01,3.543408190911837181e-03
5.932000000000000028e+01,4.048109415279261755e-03
5.935999999999999943e+01,4.063319134639150655e-03
5.939999999999999858e+01,4.262029891657678760e-03
5.943999999999999773e+01,3.787705876753966021e-03
5.947999999999999687e+01,3.925150973493005471e-03
5.952000000000000313e+01,5.347357724540965050e-03
5.956000000000000227e+01,5.423537431710412186e-03
5.960000000000000142e+01,5.071407174027048846e-03
5.964000000000000057e+01,4.168604750988583185e-03
5.967999999999999972e+01,3.877571777980225610e-03
5.971999999999999886e+01,4.687757395398506333e-03
5.975999999999999801e+01,3.968372905056007961e-03
5.979999999999999716e+01,4.289026006405213635e-03
5.984000000000000341e+01,5.710897901213469671e-03
5.988000000000000256e+01,5.909105561742780330e-03
5.992000000000000171e+01,3.843569776142621332e-03
5.996000000000000085e+01,4.286419071101197492e-03
