2.003999999999999915e+01,9.882876062383871146e-03
2.007999999999999829e+01,9.081595476496380145e-03
2.012000000000000099e+01,1.178405830915796662e-02
2.016000000000000014e+01,1.073918394252666025e-02
2.019999999999999929e+01,9.645510134167424934e-03
2.023999999999999844e+01,1.049830067213761153e-02
2.028000000000000114e+01,1.178894146436377383e-02
2.032000000000000028e+01,4.757737805724334204e-03
2.035999999999999943e+01,1.183924111837229322e-02
2.039999999999999858e+01,1.522207217351505444e-02
2.044000000000000128e+01,9.553084205046908153e-03
2.048000000000000043e+01,8.701793817023680683e-03
2.051999999999999957e+01,8.337018625044448350e-03
2.055999999999999872e+01,1.152465176942872767e-02
2.060000000000000142e+01,1.271688660184128357e-02
2.064000000000000057e+01,1.152440335302824803e-02
2.067999999999999972e+01,1.193772960389921645e-02
2.071999999999999886e+01,8.117068882774691740e-03
2.076000000000000156e+01,1.227732879475994764e-02
2.080000000000000071e+01,1.210627178404522636e-02
2.083999999999999986e+01,1.655825242839183489e-02
2.087999999999999901e+01,9.671160380187259972e-03
2.092000000000000171e+01,7.358441006896939904e-03
2.096000000000000085e+01,1.618986532897096625e-02
2.100000000000000000e+01,8.475065094470445731e-03
2.103999999999999915e+01,7.573226166138491595e-03
2.107999999999999829e+01,1.051578533518062950e-02
2.112000000000000099e+01,7.472418544212962657e-03
2.116000000000000014e+01,1.143667292725871615e-02
2.119999999999999929e+01,6.738427960049527682e-03
2.123999999999999844e+01,1.016709848008343423e-02
2.128000000000000114e+01,1.189236042997662661e-02
2.132000000000000028e+01,1.220620362827848533e-02
2.135999999999999943e+01,1.178993765799724903e-02
2.139999999999999858e+01,9.134948427059540882e-03
2.144000000000000128e+01,1.017836233866974312e-02
2.148000000000000043e+01,1.706143809255723440e-02
2.151999999999999957e+01,9.490882961503497445e-03
2.155999999999999872e+01,1.019323819100583124e-02
2.160000000000000142e+01,1.074946386984415581e-02
2.164000000000000057e+01,8.726311465355057057e-03
2.167999999999999972e+01,1.083954690966077057e-02
2.171999999999999886e+01,1.485058155232743191e-02
2.176000000000000156e+01,9.712467072036877133e-03
2.180000000000000071e+01,1.255527310018876748e-02
2.183999999999999986e+01,6.978904554154279072e-03
2.187999999999999901e+01,1.045408585923463148e-02
2.192000000000000171e+01,1.134988904742327380e-02
2.196000000000000085e+01,9.422989261138416117e-03
2.200000000000000000e+01,1.387106593092834322e-02
2.203999999999999915e+01,1.155457700150800023e-02
2.207999999999999829e+01,9.335283316671758036e-03
2.212000000000000099e+01,8.867793870575364085e-03
2.216000000000000014e+01,8.351504747801137898e-03
2.219999999999999929e+01,5.645157239029923064e-03
2.223999999999999844e+01,9.751770892580436528e-03
2.228000000000000114e+01,1.050036685716724226e-02
2.232000000000000028e+01,7.598955304651227975e-03
2.235999999999999943e+01,6.352018020990941698e-03
2.239999999999999858e+01,1.191804188047278917e-02
2.244000000000000128e+01,9.648870740533213239e-03
2.248000000000000043e+01,1.244072179408066414e-02
2.251999999999999957e+01,1.177722518878024545e-02
2.255999999999999872e+01,6.295761744230801531e-03
2.260000000000000142e+01,8.795218712225881183e-03
2.264000000000000057e+01,1.022391156429964913e-02
2.267999999999999972e+01,1.194445947126357432e-02
2.271999999999999886e+01,1.171827378268368303e-02
2.276000000000000156e+01,8.572055082617725461e-03
2.280000000000000071e+01,8.394264803712633144e-03
2.283999999999999986e+01,6.172410973764321483e-03
2.287999999999999901e+01,5.313041526993845381e-03
2.292000000000000171e+01,1.335922689499882340e-02
2.296000000000000085e+01,1.269424773121610034e-02
2.300000000000000000e+01,9.303895409407359970e-03
2.303999999999999915e+01,7.470687333826387701e-03
2.307999999999999829e+01,9.238552263087810787e-03
2.312000000000000099e+01,1.387751563403622629e-02
2.316000000000000014e+01,9.805314449222448173e-03
2.319999999999999929e+01,9.285521284309069048e-03
2.323999999999999844e+01,9.203578018829388155e-03
2.328000000000000114e+01,1.106809873526707483e-02
2.332000000000000028e+01,1.015858128476223796e-02
2.335999999999999943e+01,7.448325073667372981e-03
2.339999999999999858e+01,8.923121475744233075e-03
2.344000000000000128e+01,7.088565020362810193e-03
2.348000000000000043e+01,1.046102555026809898e-02
2.351999999999999957e+01,1.091345297758425370e-02
2.355999999999999872e+01,1.350700423548297120e-02
2.360000000000000142e+01,1.366717208677652173e-02
2.364000000000000057e+01,1.046932208607991022e-02
2.367999999999999972e+01,1.096987495941701557e-02
2.371999999999999886e+01,8.209739912288958538e-03
2.376000000000000156e+01,9.975312229080142076e-03
2.380000000000000071e+01,1.037813046755381788e-02
2.383999999999999986e+01,1.180277818022623139e-02
2.387999999999999901e+01,1.308129606892563003e-02
2.392000000000000171e+01,9.298522102562632036e-03
2.396000000000000085e+01,7.900196771620088959e-03
2.400000000000000000e+01,8.642995218516269854e-03
2.403999999999999915e+01,7.341729970522348214e-03
2.407999999999999829e+01,1.309675051707179239e-02
2.412000000000000099e+01,6.539398571536154427e-03
2.416000000000000014e+01,8.352286616003061492e-03
2.419999999999999929e+01,1.138166397374417403e-02
2.423999999999999844e+01,1.334027702376813090e-02
2.428000000000000114e+01,7.025710118789183466e-03
2.432000000000000028e+01,6.550804715649964985e-03
2.435999999999999943e+01,9.628307193359140342e-03
2.439999999999999858e+01,8.763812081286698891e-03
2.444000000000000128e+01,6.877217608080022672e-03
2.448000000000000043e+01,8.056381295763345718e-03
2.451999999999999957e+01,9.868054611673256551e-03
2.455999999999999872e+01,0.000000000000000000e+00
2.460000000000000142e+01,6.580570438109033422e-03
2.464000000000000057e+01,9.511133081011362289e-03
2.467999999999999972e+01,1.307420533296062282e-02
2.471999999999999886e+01,7.877447871589443942e-03
2.476000000000000156e+01,1.085627044606791471e-02
2.480000000000000071e+01,8.676471118881565886e-03
2.483999999999999986e+01,1.180101855507020327e-02
2.487999999999999901e+01,6.701050934889872177e-03
2.492000000000000171e+01,7.635404626855344691e-03
2.496000000000000085e+01,5.941714866959667968e-03
2.500000000000000000e+01,6.875798470604002621e-03
2.503999999999999915e+01,8.491056610698656873e-03
2.507999999999999829e+01,8.451570695694906460e-03
2.512000000000000099e+01,1.152650783542021398e-02
2.516000000000000014e+01,1.051345238258878656e-02
2.519999999999999929e+01,1.042489629981493450e-02
2.523999999999999844e+01,6.102352703222431798e-03
2.528000000000000114e+01,7.765465405064305056e-03
2.532000000000000028e+01,7.141189405792568862e-03
2.535999999999999943e+01,7.733402580743051202e-03
2.539999999999999858e+01,8.958125278432402944e-03
2.544000000000000128e+01,7.798129319508718092e-03
2.548000000000000043e+01,1.354842407563499294e-02
2.551999999999999957e+01,8.835615053034852340e-03
2.555999999999999872e+01,6.020604768485665441e-03
2.560000000000000142e+01,8.899260920667430297e-03
2.564000000000000057e+01,7.105944776065252315e-03
2.567999999999999972e+01,8.427051619063621185e-03
2.571999999999999886e+01,7.606764624671536086e-03
2.576000000000000156e+01,9.949565578847524225e-03
2.580000000000000071e+01,8.593693628207436930e-03
2.583999999999999986e+01,9.914259910971948836e-03
2.587999999999999901e+01,8.266127837691157609e-03
2.592000000000000171e+01,9.391763929339880246e-03
2.596000000000000085e+01,4.872128274698118294e-03
2.600000000000000000e+01,5.121524568248273651e-03
2.603999999999999915e+01,9.409978246834987611e-03
2.607999999999999829e+01,1.009708892815604740e-02
2.612000000000000099e+01,6.452882049056051818e-03
2.616000000000000014e+01,1.113024994965649411e-02
2.619999999999999929e+01,1.001635116352494505e-02
2.623999999999999844e+01,6.420403683767708126e-03
2.628000000000000114e+01,8.518122559228218788e-03
2.632000000000000028e+01,5.116564556916278379e-03
2.635999999999999943e+01,9.063281899182911577e-03
2.639999999999999858e+01,2.838885180579647782e-03
2.644000000000000128e+01,7.904626412112219017e-03
2.648000000000000043e+01,7.033106011676438368e-03
2.651999999999999957e+01,5.626135706345515922e-03
2.655999999999999872e+01,1.244341019165136168e-02
2.660000000000000142e+01,6.218337329227995557e-03
2.664000000000000057e+01,9.190808658999020248e-03
2.667999999999999972e+01,3.938764716630717422e-03
2.671999999999999886e+01,5.889001164014849056e-03
2.676000000000000156e+01,9.542376323373546673e-03
2.680000000000000071e+01,9.205088634699539613e-03
2.683999999999999986e+01,9.743635148935021056e-03
2.687999999999999901e+01,3.858270277679468410e-03
2.692000000000000171e+01,1.086898732741420695e-02
2.696000000000000085e+01,9.022544454199558570e-03
2.700000000000000000e+01,1.067984417481286641e-02
2.703999999999999915e+01,7.227186695804546819e-03
2.707999999999999829e+01,5.964317595985367190e-03
2.712000000000000099e+01,1.355833783692021906e-02
2.716000000000000014e+01,8.402000486341539703e-03
2.719999999999999929e+01,7.625375175648993822e-03
2.723999999999999844e+01,7.578589108244878497e-03
2.728000000000000114e+01,6.801693162613180015e-03
2.732000000000000028e+01,6.851966391794805065e-03
2.735999999999999943e+01,9.335352819388154436e-03
2.739999999999999858e+01,8.363391003156476350e-03
2.744000000000000128e+01,1.065184687522198123e-02
2.748000000000000043e+01,8.025005377151547825e-03
2.751999999999999957e+01,8.366591734444308801e-03
2.755999999999999872e+01,5.788144504863512382e-03
2.760000000000000142e+01,4.280191269318665490e-03
2.764000000000000057e+01,1.050983298937470042e-02
2.767999999999999972e+01,9.244933875779608873e-03
2.771999999999999886e+01,6.130630508393558782e-03
2.776000000000000156e+01,8.369338524912504559e-03
2.780000000000000071e+01,9.439951865853836790e-03
2.783999999999999986e+01,7.493201645242635045e-03
2.787999999999999901e+01,8.904199001299533192e-03
2.792000000000000171e+01,9.244431608508917736e-03
2.796000000000000085e+01,4.864026670273066677e-03
2.800000000000000000e+01,8.853861261729850662e-03
2.803999999999999915e+01,4.229860653561940895e-03
2.807999999999999829e+01,8.024764536054213374e-03
2.812000000000000099e+01,5.590416766643185528e-03
2.816000000000000014e+01,6.951801275352345599e-03
2.819999999999999929e+01,8.167055442239756421e-03
2.823999999999999844e+01,4.369682206773439249e-03
2.828000000000000114e+01,5.292675675632657617e-03
2.832000000000000028e+01,7.237498081662355025e-03
2.835999999999999943e+01,3.439718512593071750e-03
2.839999999999999858e+01,3.194346340087737303e-03
2.844000000000000128e+01,1.165986843843279212e-02
2.848000000000000043e+01,1.136556037273717470e-02
2.851999999999999957e+01,7.907893752303668186e-03
2.855999999999999872e+01,8.537949185385603976e-03
2.860000000000000142e+01,7.561925111975701004e-03
2.864000000000000057e+01,5.904455967869147968e-03
2.867999999999999972e+01,7.750729216204890401e-03
2.871999999999999886e+01,7.552938208647800786e-03
2.876000000000000156e+01,1.076155964282846794e-02
2.880000000000000071e+01,5.648335609625674582e-03
2.883999999999999986e+01,7.980716564832653417e-03
2.887999999999999901e+01,7.295733833819779274e-03
2.892000000000000171e+01,1.186643240654520516e-02
2.896000000000000085e+01,6.168686670412731887e-03
2.900000000000000000e+01,2.417404230527530826e-03
2.903999999999999915e+01,7.912330665700384111e-03
2.907999999999999829e+01,1.776193602024244821e-03
2.912000000000000099e+01,6.540874402766942534e-03
2.916000000000000014e+01,9.018166042086087422e-03
2.919999999999999929e+01,4.974216076695497230e-03
2.923999999999999844e+01,8.862520757339460709e-03
2.928000000000000114e+01,1.109608087942100425e-02
2.932000000000000028e+01,6.857064352965494894e-03
2.935999999999999943e+01,1.449952963931488460e-03
2.939999999999999858e+01,6.067689935719397173e-03
2.944000000000000128e+01,4.942824802946126431e-03
2.948000000000000043e+01,7.029712143373046535e-03
2.951999999999999957e+01,5.417926133058590180e-03
2.955999999999999872e+01,4.730638970158101107e-03
2.960000000000000142e+01,4.724525797089831891e-03
2.964000000000000057e+01,5.156261756272023829e-03
2.967999999999999972e+01,4.711892637860759514e-03
2.971999999999999886e+01,4.948697494897030640e-03
2.976000000000000156e+01,6.255996087044906652e-03
2.980000000000000071e+01,8.633788409509499107e-03
2.983999999999999986e+01,7.215577401758788492e-03
2.987999999999999901e+01,9.301108642603554341e-03
2.992000000000000171e+01,1.945499958988215717e-03
2.996000000000000085e+01,9.675896507032813107e-03
3.000000000000000000e+01,5.580569563716359684e-03
3.003999999999999915e+01,6.838253730995864400e-03
3.007999999999999829e+01,4.445929450962847300e-03
3.012000000000000099e+01,6.092662066886980754e-03
3.016000000000000014e+01,5.695330254302020598e-03
3.019999999999999929e+01,8.704410710838619836e-03
3.023999999999999844e+01,6.408873701932493727e-03
3.028000000000000114e+01,7.763073805344969207e-03
3.032000000000000028e+01,8.581823548347270944e-03
3.035999999999999943e+01,8.719128014472395105e-03
3.039999999999999858e+01,5.498413818270035669e-03
3.044000000000000128e+01,7.095396008583608125e-03
3.048000000000000043e+01,4.361060115832494574e-03
3.051999999999999957e+01,7.369055040597581076e-03
3.055999999999999872e+01,4.391122873757572279e-03
3.060000000000000142e+01,6.036227192024430123e-03
3.064000000000000057e+01,9.092479933816786583e-03
3.067999999999999972e+01,5.432831011258808067e-03
3.071999999999999886e+01,2.697680797062821170e-03
3.076000000000000156e+01,9.062744340072252658e-03
3.080000000000000071e+01,6.570647499822334335e-03
3.083999999999999986e+01,8.117607469221452265e-03
3.087999999999999901e+01,1.010241642222928227e-02
3.092000000000000171e+01,7.317922504412244754e-03
3.096000000000000085e+01,8.913140175761150377e-03
3.100000000000000000e+01,7.004344201187036670e-03
3.103999999999999915e+01,6.896016366648437777e-03
3.107999999999999829e+01,7.274202462301425018e-03
3.112000000000000099e+01,7.506257866105306951e-03
3.116000000000000014e+01,9.052131689986288310e-03
3.119999999999999929e+01,9.381245460166208819e-03
3.123999999999999844e+01,5.963020702866869173e-03
3.128000000000000114e+01,9.503750935914993120e-03
3.132000000000000028e+01,6.669234221796042916e-03
3.135999999999999943e+01,7.776444313877754061e-03
3.139999999999999858e+01,8.056214092742888799e-03
3.144000000000000128e+01,8.287183082514460591e-03
3.148000000000000043e+01,6.230762632758566830e-03
3.151999999999999957e+01,6.996774647204203300e-03
3.155999999999999872e+01,7.859980769843732951e-03
3.160000000000000142e+01,8.285066319751186251e-03
3.164000000000000057e+01,8.174701351016886927e-03
3.167999999999999972e+01,6.166266683239606493e-03
3.171999999999999886e+01,7.272254279033602345e-03
3.176000000000000156e+01,9.205410517407580998e-03
3.180000000000000071e+01,8.072537748976961469e-03
3.183999999999999986e+01,8.156153377995472784e-03
3.187999999999999901e+01,1.164618107474995820e-02
3.192000000000000171e+01,6.133053342315897272e-03
3.196000000000000085e+01,9.671474252683007547e-03
3.200000000000000000e+01,6.250668487681385749e-03
3.203999999999999915e+01,9.886147563038915481e-03
3.207999999999999829e+01,9.384968245765450134e-03
3.211999999999999744e+01,7.375038941164081124e-03
3.215999999999999659e+01,6.970917760111667270e-03
3.220000000000000284e+01,1.050852328456710477e-02
3.224000000000000199e+01,1.195339916062152473e-02
3.228000000000000114e+01,5.125094122693915101e-03
3.232000000000000028e+01,7.737657448872380453e-03
3.235999999999999943e+01,3.877643762101761534e-03
3.239999999999999858e+01,6.392605284733069576e-03
3.243999999999999773e+01,6.522847311644641537e-03
3.247999999999999687e+01,9.378191746565530881e-03
3.252000000000000313e+01,1.199007538070121989e-02
3.256000000000000227e+01,9.686661035749201398e-03
3.260000000000000142e+01,7.967090379897496730e-03
3.264000000000000057e+01,8.729297260088676735e-03
3.267999999999999972e+01,5.695500469626982309e-03
3.271999999999999886e+01,7.771389615716426703e-03
3.275999999999999801e+01,9.749812843923399974e-03
3.279999999999999716e+01,1.284739441338728951e-02
3.284000000000000341e+01,2.042201728777178968e-02
3.288000000000000256e+01,1.359167288602209332e-02
3.292000000000000171e+01,1.221166919075064757e-02
3.296000000000000085e+01,6.986996820704684426e-03
3.300000000000000000e+01,6.482690589186627592e-03
3.303999999999999915e+01,1.074741546195891184e-02
3.307999999999999829e+01,9.269537793834544542e-03
3.311999999999999744e+01,9.154143281394791151e-03
3.315999999999999659e+01,6.070049540238725387e-03
3.320000000000000284e+01,7.560327001963967550e-03
3.324000000000000199e+01,8.320493871022184920e-03
3.328000000000000114e+01,7.377250731471050524e-03
3.332000000000000028e+01,6.141881724679426786e-03
3.335999999999999943e+01,9.821538695491108598e-03
3.339999999999999858e+01,7.612598175374868208e-03
3.343999999999999773e+01,6.279491067010377174e-03
3.347999999999999687e+01,6.649521865078006876e-03
3.352000000000000313e+01,8.430700741438664977e-03
3.356000000000000227e+01,6.561870753330879477e-03
3.360000000000000142e+01,8.537437361794849439e-03
3.364000000000000057e+01,1.026954303521656481e-02
3.367999999999999972e+01,8.692294623686732183e-03
3.371999999999999886e+01,1.066745297099976758e-02
3.375999999999999801e+01,6.267364078657119107e-03
3.379999999999999716e+01,8.923559815698235698e-03
3.384000000000000341e+01,6.907782273001848890e-03
3.388000000000000256e+01,8.736401293312962002e-03
3.392000000000000171e+01,9.104935081083264867e-03
3.396000000000000085e+01,6.748094397026216211e-03
3.400000000000000000e+01,8.527640084936208634e-03
3.403999999999999915e+01,7.971131055888029671e-03
3.407999999999999829e+01,9.020429920233810975e-03
3.411999999999999744e+01,9.923597733113308922e-03
3.415999999999999659e+01,6.836101815699330807e-03
3.420000000000000284e+01,1.163219497919549053e-02
3.424000000000000199e+01,1.029636569828405734e-02
3.428000000000000114e+01,1.071233919846423070e-02
3.432000000000000028e+01,7.624298654745053153e-03
3.435999999999999943e+01,7.212695323117739900e-03
3.439999999999999858e+01,9.672189081016864531e-03
3.443999999999999773e+01,8.043689133943513966e-03
3.447999999999999687e+01,6.707042827266162556e-03
3.452000000000000313e+01,8.290158566287930339e-03
3.456000000000000227e+01,1.021379290667327744e-02
3.460000000000000142e+01,8.341423346250794249e-03
3.464000000000000057e+01,7.490881965405284809e-03
3.467999999999999972e+01,5.228920231473317692e-03
3.471999999999999886e+01,4.572766314216990778e-03
3.475999999999999801e+01,9.123628030086853094e-03
3.479999999999999716e+01,9.829820850617027733e-03
3.484000000000000341e+01,7.518649270487927708e-03
3.488000000000000256e+01,7.299935193428573089e-03
3.492000000000000171e+01,9.368338496873592977e-03
3.496000000000000085e+01,7.202753121340374487e-03
3.500000000000000000e+01,8.540909380655980002e-03
3.503999999999999915e+01,6.375051509764131583e-03
3.507999999999999829e+01,9.172884380852447742e-03
3.511999999999999744e+01,8.466703112143513996e-03
3.515999999999999659e+01,6.787086167825697250e-03
3.520000000000000284e+01,9.827835098316523368e-03
3.524000000000000199e+01,1.014320940354333789e-02
3.528000000000000114e+01,8.073863872612847131e-03
3.532000000000000028e+01,6.783021586959242684e-03
3.535999999999999943e+01,5.978692718443434813e-03
3.539999999999999858e+01,5.952867085614739831e-03
3.543999999999999773e+01,1.142604682774323206e-02
3.547999999999999687e+01,1.120528871183872587e-02
3.552000000000000313e+01,1.117905417054817531e-02
3.556000000000000227e+01,1.003338899402770636e-02
3.560000000000000142e+01,9.568897088105128915e-03
3.564000000000000057e+01,1.061288294746085339e-02
3.567999999999999972e+01,1.039144324552983625e-02
3.571999999999999886e+01,1.085117679981203488e-02
3.575999999999999801e+01,1.126210904715197261e-02
3.579999999999999716e+01,1.065094057160734589e-02
3.584000000000000341e+01,1.261887918962870982e-02
3.588000000000000256e+01,1.088814369452031743e-02
3.592000000000000171e+01,1.003324131388013546e-02
3.596000000000000085e+01,1.346071998192923877e-02
3.600000000000000000e+01,1.241088499354595434e-02
3.603999999999999915e+01,1.024161931239400344e-02
3.607999999999999829e+01,1.021347596102230304e-02
3.611999999999999744e+01,1.135315552348858947e-02
3.615999999999999659e+01,1.030277502653933509e-02
3.620000000000000284e+01,5.553720378101167400e-03
3.624000000000000199e+01,1.272744712229522540e-02
3.628000000000000114e+01,1.445056076534524496e-02
3.632000000000000028e+01,1.466492391760334385e-02
3.635999999999999943e+01,1.687441445440531623e-02
3.639999999999999858e+01,1.402261164013752538e-02
3.643999999999999773e+01,1.389591075918438119e-02
3.647999999999999687e+01,1.629965192452153405e-02
3.652000000000000313e+01,1.067353652040459872e-02
3.656000000000000227e+01,1.555891832439698121e-02
3.660000000000000142e+01,1.241444354934547432e-02
3.664000000000000057e+01,1.355234974147003814e-02
3.667999999999999972e+01,1.444679463414026178e-02
3.671999999999999886e+01,1.636306745705289056e-02
3.675999999999999801e+01,1.604061517806921328e-02
3.679999999999999716e+01,1.367409767462377315e-02
3.684000000000000341e+01,1.242673802815080775e-02
3.688000000000000256e+01,1.580241411398613377e-02
3.692000000000000171e+01,1.552808093258178750e-02
3.696000000000000085e+01,1.729754003435525142e-02
3.700000000000000000e+01,1.955351235667581594e-02
3.703999999999999915e+01,1.903544486740468833e-02
3.707999999999999829e+01,1.618132229676332717e-02
3.711999999999999744e+01,1.843688513523456668e-02
3.715999999999999659e+01,1.991367194058166548e-02
3.720000000000000284e+01,2.187697194250134980e-02
3.724000000000000199e+01,2.096890216774014229e-02
3.728000000000000114e+01,2.463520310678088063e-02
3.732000000000000028e+01,2.693874834682943170e-02
3.735999999999999943e+01,2.267238603345222286e-02
3.739999999999999858e+01,2.361303903673809060e-02
3.743999999999999773e+01,3.253461067366229115e-02
3.747999999999999687e+01,3.230703130323537425e-02
3.752000000000000313e+01,3.392858426662827970e-02
3.756000000000000227e+01,3.735060458848872555e-02
3.760000000000000142e+01,4.490901085077562277e-02
3.764000000000000057e+01,4.672481402554776869e-02
3.767999999999999972e+01,5.394229236564825058e-02
3.771999999999999886e+01,6.023499969382389851e-02
3.775999999999999801e+01,7.163739235439385566e-02
3.779999999999999716e+01,9.121536348767754487e-02
3.784000000000000341e+01,1.092359189774059353e-01
3.788000000000000256e+01,1.370866619292089028e-01
3.792000000000000171e+01,1.869824999481916050e-01
3.796000000000000085e+01,2.451999113323806156e-01
3.800000000000000000e+01,3.631777699561219985e-01
3.803999999999999915e+01,5.761008495276001007e-01
3.807999999999999829e+01,8.316056417222887909e-01
3.811999999999999744e+01,1.000000000000000000e+00
3.815999999999999659e+01,9.632227057837570161e-01
3.820000000000000284e+01,8.409895866398972020e-01
3.824000000000000199e+01,6.567571583722785489e-01
3.828000000000000114e+01,4.684367359393773467e-01
3.832000000000000028e+01,3.222113763953439181e-01
3.835999999999999943e+01,2.236775513494807799e-01
3.839999999999999858e+01,1.616423175687977942e-01
3.843999999999999773e+01,1.281732848476486719e-01
3.847999999999999687e+01,1.037071350171753364e-01
3.852000000000000313e+01,9.053112168877940069e-02
3.856000000000000227e+01,7.448373842547101331e-02
3.860000000000000142e+01,6.218342121825773394e-02
3.864000000000000057e+01,5.562543385519684580e-02
3.867999999999999972e+01,4.716937595398624367e-02
3.871999999999999886e+01,4.202239935946970595e-02
3.875999999999999801e+01,4.495367118147471780e-02
3.879999999999999716e+01,3.182536601875037702e-02
3.884000000000000341e+01,3.388039496433391945e-02
3.888000000000000256e+01,3.311271890720322852e-02
3.892000000000000171e+01,2.903568813698968396e-02
3.896000000000000085e+01,2.636980479296339303e-02
3.900000000000000000e+01,2.462841916475572851e-02
3.903999999999999915e+01,2.648810462822718398e-02
3.907999999999999829e+01,2.304317156658402047e-02
3.911999999999999744e+01,2.232334011699751986e-02
3.915999999999999659e+01,2.131138210011579090e-02
3.920000000000000284e+01,2.025062236393081194e-02
3.924000000000000199e+01,1.568584799407434296e-02
3.928000000000000114e+01,1.866400730227465304e-02
3.932000000000000028e+01,1.755417232052524854e-02
3.935999999999999943e+01,1.843946436370256375e-02
3.939999999999999858e+01,1.197620907999651964e-02
3.943999999999999773e+01,1.320188236683980491e-02
3.947999999999999687e+01,1.554671319419246092e-02
3.952000000000000313e+01,1.360888982539141569e-02
3.956000000000000227e+01,1.658609169098487768e-02
3.960000000000000142e+01,1.810320764316237369e-02
3.964000000000000057e+01,1.704094335430945961e-02
3.967999999999999972e+01,1.296131408461491559e-02
3.971999999999999886e+01,1.306673547177473853e-02
3.975999999999999801e+01,1.322068501361749714e-02
3.979999999999999716e+01,1.337449773479093725e-02
3.984000000000000341e+01,1.304152392492642989e-02
3.988000000000000256e+01,1.348705281372076549e-02
3.992000000000000171e+01,1.047723195788774833e-02
3.996000000000000085e+01,1.033850752509071075e-02
4.000000000000000000e+01,1.263289477551839644e-02
4.003999999999999915e+01,1.161792717860618725e-02
4.007999999999999829e+01,1.050549278634561878e-02
4.011999999999999744e+01,1.124219041623667446e-02
4.015999999999999659e+01,1.217341106453382130e-02
4.020000000000000284e+01,1.247185022696687372e-02
4.024000000000000199e+01,9.898919253101859730e-03
4.028000000000000114e+01,1.024574963447103491e-02
4.032000000000000028e+01,1.224705213178785973e-02
4.035999999999999943e+01,7.873106598291218158e-03
4.039999999999999858e+01,1.357267307757760097e-02
4.043999999999999773e+01,1.182636216419859221e-02
4.047999999999999687e+01,9.155279908046985368e-03
4.052000000000000313e+01,7.554690097180096625e-03
4.056000000000000227e+01,1.057713557749108586e-02
4.060000000000000142e+01,1.335611928844800816e-02
4.064000000000000057e+01,1.233909837456786084e-02
4.067999999999999972e+01,6.066123714334630164e-03
4.071999999999999886e+01,1.332187393809858809e-02
4.075999999999999801e+01,8.800564351231986507e-03
4.079999999999999716e+01,7.199016057265918492e-03
4.084000000000000341e+01,1.046382787370032236e-02
4.088000000000000256e+01,1.085726947711834235e-02
4.092000000000000171e+01,1.086125436115100221e-02
4.096000000000000085e+01,1.052444749156076706e-02
4.100000000000000000e+01,1.101480815692965423e-02
4.103999999999999915e+01,8.098483913971499248e-03
4.107999999999999829e+01,1.175179372215242463e-02
4.111999999999999744e+01,1.151176890684280432e-02
4.115999999999999659e+01,1.112561219616530275e-02
4.120000000000000284e+01,1.073931849699713212e-02
4.124000000000000199e+01,8.065634188346975514e-03
4.128000000000000114e+01,8.603700938402831719e-03
4.132000000000000028e+01,9.482285479484936150e-03
4.135999999999999943e+01,1.002007821899518480e-02
4.139999999999999858e+01,8.416475241515983946e-03
4.143999999999999773e+01,9.294648745202645224e-03
4.147999999999999687e+01,8.518076227883768572e-03
4.152000000000000313e+01,6.622072360895531890e-03
4.156000000000000227e+01,1.007907822357336294e-02
4.160000000000000142e+01,9.302094611320307210e-03
4.164000000000000057e+01,1.173686201461920410e-02
4.167999999999999972e+01,7.358396493856786749e-03
4.171999999999999886e+01,1.135016885813783932e-02
4.175999999999999801e+01,9.210017876570955608e-03
4.179999999999999716e+01,1.446680535931034808e-02
4.184000000000000341e+01,9.844466753694462377e-03
4.188000000000000256e+01,1.062380280994284533e-02
4.192000000000000171e+01,7.169149352901188835e-03
4.196000000000000085e+01,1.130609422321570030e-02
4.200000000000000000e+01,9.116455836683421202e-03
4.203999999999999915e+01,8.678619301033016487e-03
4.207999999999999829e+01,1.033323940537120809e-02
4.211999999999999744e+01,1.072243317644448052e-02
4.215999999999999659e+01,7.704941904933634844e-03
4.220000000000000284e+01,8.142526434633078417e-03
4.224000000000000199e+01,1.339780593635427584e-02
4.228000000000000114e+01,9.114614090877947578e-03
4.232000000000000028e+01,9.454457325604105622e-03
4.235999999999999943e+01,1.169209728452509992e-02
4.239999999999999858e+01,1.334562046442011075e-02
4.243999999999999773e+01,8.039915717478656257e-03
4.247999999999999687e+01,1.090978888224817568e-02
4.252000000000000313e+01,9.156352697345257474e-03
4.256000000000000227e+01,7.646104213712086144e-03
4.260000000000000142e+01,1.007758118891394043e-02
4.264000000000000057e+01,1.134096170963199215e-02
4.267999999999999972e+01,1.240954518221875150e-02
4.271999999999999886e+01,1.376998130745305145e-02
4.275999999999999801e+01,1.230771196486824155e-02
4.279999999999999716e+01,1.011533088363638158e-02
4.284000000000000341e+01,1.040472611574906267e-02
4.288000000000000256e+01,1.254325303916555868e-02
4.292000000000000171e+01,1.132375979945229177e-02
4.296000000000000085e+01,1.102876380086301178e-02
4.300000000000000000e+01,1.399418362535660362e-02
4.303999999999999915e+01,1.340692339010626268e-02
4.307999999999999829e+01,1.539876938054582714e-02
4.311999999999999744e+01,1.189133647935683609e-02
4.315999999999999659e+01,1.383424305715284276e-02
4.320000000000000284e+01,1.514436778946757871e-02
4.324000000000000199e+01,1.655168522986671248e-02
4.328000000000000114e+01,1.406566778785095853e-02
4.332000000000000028e+01,1.479140116000155630e-02
4.335999999999999943e+01,1.833956557706464124e-02
4.339999999999999858e+01,1.901635947903292101e-02
4.343999999999999773e+01,2.037432571179957630e-02
4.347999999999999687e+01,2.012621065437328327e-02
4.352000000000000313e+01,1.958596850700817030e-02
4.356000000000000227e+01,1.773163488320454034e-02
4.360000000000000142e+01,2.269025986124843103e-02
4.364000000000000057e+01,2.214960588533012795e-02
4.367999999999999972e+01,2.676730150271894662e-02
4.371999999999999886e+01,3.167684965288291438e-02
4.375999999999999801e+01,2.967583468853623660e-02
4.379999999999999716e+01,3.443911333150524723e-02
4.384000000000000341e+01,3.769364058224198427e-02
4.388000000000000256e+01,4.177533502270534826e-02
4.392000000000000171e+01,4.858213049983794302e-02
4.396000000000000085e+01,5.222556557140296124e-02
4.400000000000000000e+01,6.302261399076815318e-02
4.403999999999999915e+01,7.187292625891027187e-02
4.407999999999999829e+01,8.554093327850896544e-02
4.411999999999999744e+01,1.025180209574908241e-01
4.415999999999999659e+01,1.262107372300769470e-01
4.420000000000000284e+01,1.541371685930465196e-01
4.424000000000000199e+01,1.904825025095384927e-01
4.428000000000000114e+01,2.242484556287922259e-01
4.432000000000000028e+01,2.430741254244405403e-01
4.435999999999999943e+01,2.353285839284770253e-01
4.439999999999999858e+01,2.238357023275135693e-01
4.443999999999999773e+01,1.929253600972820060e-01
4.447999999999999687e+01,1.644481290132468188e-01
4.452000000000000313e+01,1.319315679864829227e-01
4.456000000000000227e+01,1.060819705348169106e-01
4.460000000000000142e+01,8.373611356722483745e-02
4.464000000000000057e+01,6.903051957628829338e-02
4.467999999999999972e+01,6.055390441104866600e-02
4.471999999999999886e+01,5.222314674703967818e-02
4.475999999999999801e+01,3.926907946484409218e-02
4.479999999999999716e+01,3.979507160700896523e-02
4.484000000000000341e+01,3.418914003411896441e-02
4.488000000000000256e+01,2.945904050164059595e-02
4.492000000000000171e+01,2.837867632654907796e-02
4.496000000000000085e+01,2.476759624326345735e-02
4.500000000000000000e+01,2.178902333321789883e-02
4.503999999999999915e+01,2.392013488289565504e-02
4.507999999999999829e+01,2.016264754153601624e-02
4.511999999999999744e+01,1.951958085745767249e-02
4.515999999999999659e+01,1.649179315288285333e-02
4.520000000000000284e+01,1.672442100767166165e-02
4.524000000000000199e+01,1.437766795014470619e-02
4.528000000000000114e+01,1.271208700285093862e-02
4.532000000000000028e+01,1.386893686551976361e-02
4.535999999999999943e+01,1.303038544817660890e-02
4.539999999999999858e+01,1.228902647999349958e-02
4.543999999999999773e+01,1.232616954397871764e-02
4.547999999999999687e+01,1.284982481199318551e-02
4.552000000000000313e+01,1.215671830973399405e-02
4.556000000000000227e+01,1.005219015017676243e-02
4.560000000000000142e+01,7.898859504133002099e-03
4.564000000000000057e+01,9.249269217495872941e-03
4.567999999999999972e+01,7.922968024684392402e-03
4.571999999999999886e+01,8.786452976640745857e-03
4.575999999999999801e+01,8.092521335652471184e-03
4.579999999999999716e+01,1.026968541764543795e-02
4.584000000000000341e+01,5.876940929694786202e-03
4.588000000000000256e+01,8.978464358085823382e-03
4.592000000000000171e+01,8.332647499270966901e-03
4.596000000000000085e+01,8.805987404192408205e-03
4.600000000000000000e+01,6.018636717891888248e-03
4.603999999999999915e+01,8.048980548098050303e-03
4.607999999999999829e+01,6.283319101361374039e-03
4.611999999999999744e+01,9.189357249869493580e-03
4.615999999999999659e+01,1.146261319807408141e-02
4.620000000000000284e+01,6.971300650951514633e-03
4.624000000000000199e+01,6.032393361869529610e-03
4.628000000000000114e+01,1.010584044275434322e-02
4.632000000000000028e+01,5.954769897206209014e-03
4.635999999999999943e+01,8.032677975969348960e-03
4.639999999999999858e+01,9.623798737331707223e-03
4.643999999999999773e+01,1.043614235315414029e-02
4.647999999999999687e+01,7.987795320215873573e-03
4.652000000000000313e+01,8.069889130049127945e-03
4.656000000000000227e+01,8.589830043892047670e-03
4.660000000000000142e+01,7.552354264097547488e-03
4.664000000000000057e+01,4.665471962526506443e-03
4.667999999999999972e+01,6.888273924088055521e-03
4.671999999999999886e+01,6.775019648709564545e-03
4.675999999999999801e+01,8.705556481759500059e-03
4.679999999999999716e+01,8.981346656082802096e-03
4.684000000000000341e+01,8.137704843015640746e-03
4.688000000000000256e+01,8.315889742287450176e-03
4.692000000000000171e+01,7.763962409037972884e-03
4.696000000000000085e+01,7.114567455718132961e-03
4.700000000000000000e+01,7.924983935368916030e-03
4.703999999999999915e+01,7.859293256441612571e-03
4.707999999999999829e+01,9.107419089223011202e-03
4.711999999999999744e+01,8.408808401574386845e-03
4.715999999999999659e+01,8.196709716569374957e-03
4.720000000000000284e+01,5.697219707642947606e-03
4.724000000000000199e+01,8.210083953605836621e-03
4.728000000000000114e+01,7.462257454910099091e-03
4.732000000000000028e+01,7.979582468596320421e-03
4.735999999999999943e+01,8.156114961476374978e-03
4.739999999999999858e+01,6.580570782591624313e-03
4.743999999999999773e+01,7.924787100654759678e-03
4.747999999999999687e+01,5.813652767855293987e-03
4.752000000000000313e+01,7.741573245233470540e-03
4.756000000000000227e+01,6.360137973831379334e-03
4.760000000000000142e+01,7.509143415738625191e-03
4.764000000000000057e+01,6.954737127669057516e-03
4.767999999999999972e+01,5.621553545417818168e-03
4.771999999999999886e+01,6.672815750419120416e-03
4.775999999999999801e+01,4.901371888239382073e-03
4.779999999999999716e+01,5.855028597624000603e-03
4.784000000000000341e+01,6.467892728663710358e-03
4.788000000000000256e+01,7.177949011579939573e-03
4.792000000000000171e+01,6.233258501512454162e-03
4.796000000000000085e+01,9.376287719436122298e-03
4.800000000000000000e+01,7.750012019114547318e-03
4.803999999999999915e+01,4.955639216998277384e-03
4.807999999999999829e+01,6.686970863504804533e-03
4.811999999999999744e+01,6.617560781381029086e-03
4.815999999999999659e+01,6.256023053110544921e-03
4.820000000000000284e+01,8.132936142881748431e-03
4.824000000000000199e+01,7.479132931277400129e-03
4.828000000000000114e+01,9.404435322026533095e-03
4.832000000000000028e+01,6.073783050597554925e-03
4.835999999999999943e+01,8.874779222620346811e-03
4.839999999999999858e+01,5.738511135072037715e-03
4.843999999999999773e+01,7.663262129123558745e-03
4.847999999999999687e+01,7.641276439718586860e-03
4.852000000000000313e+01,7.035173237668638710e-03
4.856000000000000227e+01,9.348830398309502382e-03
4.860000000000000142e+01,7.525827186027507325e-03
4.864000000000000057e+01,7.697949886256501284e-03
4.867999999999999972e+01,8.210589495250962544e-03
4.871999999999999886e+01,9.745055596019200003e-03
4.875999999999999801e+01,6.753541540226033237e-03
4.879999999999999716e+01,7.217102494485389680e-03
4.884000000000000341e+01,7.583195603314299600e-03
4.888000000000000256e+01,7.803155891360499287e-03
4.892000000000000171e+01,5.833054590419512603e-03
4.896000000000000085e+01,8.193997750384148654e-03
4.900000000000000000e+01,7.829564635640731685e-03
4.903999999999999915e+01,7.951643298180838954e-03
4.907999999999999829e+01,6.808294793144225102e-03
4.911999999999999744e+01,7.806067054751964981e-03
4.915999999999999659e+01,5.591813316898361884e-03
4.920000000000000284e+01,5.762005188886159916e-03
4.924000000000000199e+01,7.489338166445167443e-03
4.928000000000000114e+01,9.216533186944627157e-03
4.932000000000000028e+01,8.510341717721090285e-03
4.935999999999999943e+01,7.804012281848213967e-03
4.939999999999999858e+01,8.362834109022733095e-03
4.943999999999999773e+01,8.434868254384414454e-03
4.947999999999999687e+01,6.657495537531972311e-03
4.952000000000000313e+01,6.437263892686472845e-03
4.956000000000000227e+01,7.871503256167753856e-03
4.960000000000000142e+01,8.234975271968163549e-03
4.964000000000000057e+01,4.121131996276843242e-03
4.967999999999999972e+01,7.404226240297377346e-03
4.971999999999999886e+01,3.046782097007292873e-03
4.975999999999999801e+01,6.670255110527732734e-03
4.979999999999999716e+01,5.962407725048956934e-03
4.984000000000000341e+01,5.254422315382097086e-03
4.988000000000000256e+01,8.536826462436655771e-03
4.992000000000000171e+01,5.249321550468276365e-03
4.996000000000000085e+01,7.412155302352658667e-03
5.000000000000000000e+01,7.433592306345042366e-03
5.003999999999999915e+01,7.503556232732236028e-03
5.007999999999999829e+01,9.714640810686275135e-03
5.011999999999999744e+01,8.519039391871997477e-03
5.015999999999999659e+01,6.058010676018832016e-03
5.020000000000000284e+01,7.052056802396841802e-03
5.024000000000000199e+01,7.607980121621477944e-03
5.028000000000000114e+01,7.433790805553600403e-03
5.032000000000000028e+01,6.821478672742551513e-03
5.035999999999999943e+01,5.479053895049203378e-03
5.039999999999999858e+01,5.596440142760359358e-03
5.043999999999999773e+01,7.027642499409007815e-03
5.047999999999999687e+01,7.096087579544850532e-03
5.052000000000000313e+01,6.775074789520418514e-03
5.056000000000000227e+01,8.205862829065128580e-03
5.060000000000000142e+01,8.419888489384456942e-03
5.064000000000000057e+01,7.514481706798256146e-03
5.067999999999999972e+01,5.538307447069000869e-03
5.071999999999999886e+01,6.384563349991470051e-03
5.075999999999999801e+01,9.079949999623337584e-03
5.079999999999999716e+01,7.492681100940990109e-03
5.084000000000000341e+01,8.484517497738834971e-03
5.088000000000000256e+01,6.653647453353780244e-03
5.092000000000000171e+01,7.353217724301744883e-03
5.096000000000000085e+01,6.057386043952345776e-03
5.100000000000000000e+01,5.637385670395557609e-03
5.103999999999999915e+01,3.075988424279503010e-03
5.107999999999999829e+01,5.672939884414908603e-03
5.111999999999999744e+01,6.615144167974954144e-03
5.115999999999999659e+01,7.605875239672738909e-03
5.120000000000000284e+01,6.065889655172685725e-03
5.124000000000000199e+01,5.791055113154854224e-03
5.128000000000000114e+01,7.365351255512790629e-03
5.132000000000000028e+01,8.306864579025676973e-03
5.135999999999999943e+01,6.766326197718533844e-03
5.139999999999999858e+01,6.880258604172987021e-03
5.143999999999999773e+01,8.064682146905685634e-03
5.147999999999999687e+01,7.935013263810575257e-03
5.152000000000000313e+01,8.583845684059688771e-03
5.156000000000000227e+01,6.215311699383208738e-03
5.160000000000000142e+01,6.523212860198648877e-03
5.164000000000000057e+01,6.782310810498319228e-03
5.167999999999999972e+01,8.014569927192131266e-03
5.171999999999999886e+01,6.764777295911851909e-03
5.175999999999999801e+01,8.532074584845490348e-03
5.179999999999999716e+01,6.016716205592524853e-03
5.184000000000000341e+01,6.226457913619470354e-03
5.188000000000000256e+01,5.170772118427000540e-03
5.192000000000000171e+01,5.477567225318260603e-03
5.196000000000000085e+01,7.974147728973663557e-03
5.200000000000000000e+01,5.993412658238508016e-03
5.203999999999999915e+01,1.048498038372633334e-02
5.207999999999999829e+01,1.098588223080750222e-02
5.211999999999999744e+01,8.907402340850892677e-03
5.215999999999999659e+01,7.753418589192291946e-03
5.220000000000000284e+01,7.815920794381037151e-03
5.224000000000000199e+01,5.883020894835765471e-03
5.228000000000000114e+01,7.599855470416600617e-03
5.232000000000000028e+01,6.591313373313043358e-03
5.235999999999999943e+01,6.458602419975659203e-03
5.239999999999999858e+01,8.369681898986462004e-03
5.243999999999999773e+01,8.139364337616639133e-03
5.247999999999999687e+01,7.227598847792430885e-03
5.252000000000000313e+01,5.196400689702622595e-03
5.256000000000000227e+01,7.204256737633587919e-03
5.260000000000000142e+01,6.827390873217513076e-03
5.264000000000000057e+01,7.131696236773866875e-03
5.267999999999999972e+01,8.457827617409326149e-03
5.271999999999999886e+01,6.863922395181973682e-03
5.275999999999999801e+01,5.026553945952303912e-03
5.279999999999999716e+01,5.378970792793982651e-03
5.284000000000000341e+01,8.505152577600531838e-03
5.288000000000000256e+01,6.229384241938772104e-03
5.292000000000000171e+01,4.975441894586766362e-03
5.296000000000000085e+01,8.003878558093448919e-03
5.300000000000000000e+01,6.700994439009289039e-03
5.303999999999999915e+01,7.198575822768137934e-03
5.307999999999999829e+01,6.771384353362299574e-03
5.311999999999999744e+01,6.392719437144321441e-03
5.315999999999999659e+01,7.376535274368313695e-03
5.320000000000000284e+01,9.917491742468855995e-03
5.324000000000000199e+01,8.857101957569757031e-03
5.328000000000000114e+01,8.039898588908408333e-03
5.332000000000000028e+01,9.947795130115833634e-03
5.335999999999999943e+01,6.015756758299859244e-03
5.339999999999999858e+01,7.826046461319853542e-03
5.343999999999999773e+01,7.640933915758970317e-03
5.347999999999999687e+01,9.548276643641440131e-03
5.352000000000000313e+01,1.004419676004169280e-02
5.356000000000000227e+01,9.518014024623790842e-03
5.360000000000000142e+01,8.553708079281272664e-03
5.364000000000000057e+01,6.907954066432403853e-03
5.367999999999999972e+01,9.544578978134116848e-03
5.371999999999999886e+01,1.033179651936279829e-02
5.375999999999999801e+01,8.052982421389255283e-03
5.379999999999999716e+01,6.260679530106683273e-03
5.384000000000000341e+01,7.874786074162433078e-03
5.388000000000000256e+01,6.909510670204989380e-03
5.392000000000000171e+01,9.399309662553442454e-03
5.396000000000000085e+01,7.119803022217247208e-03
5.400000000000000000e+01,7.370736328007092969e-03
5.403999999999999915e+01,8.935485311193846689e-03
5.407999999999999829e+01,7.872187351835561661e-03
5.411999999999999744e+01,8.268699971956495337e-03
5.415999999999999659e+01,7.497114756663731706e-03
5.420000000000000284e+01,6.141411347850811789e-03
5.424000000000000199e+01,6.878163121378265583e-03
5.428000000000000114e+01,8.101426044057920620e-03
5.432000000000000028e+01,7.475281524341098605e-03
5.435999999999999943e+01,7.627637967530945598e-03
5.439999999999999858e+01,8.023180692701461711e-03
5.443999999999999773e+01,8.467249812828269578e-03
5.447999999999999687e+01,8.911180352559113296e-03
5.452000000000000313e+01,5.510439633066812302e-03
5.456000000000000227e+01,7.365377143784801114e-03
5.460000000000000142e+01,7.078917355197815280e-03
5.464000000000000057e+01,7.230303702051625592e-03
5.467999999999999972e+01,8.890165531813487565e-03
5.471999999999999886e+01,7.921980342311986389e-03
5.475999999999999801e+01,7.683631097210816448e-03
5.479999999999999716e+01,9.537736967321455359e-03
5.484000000000000341e+01,9.153115568243004596e-03
5.488000000000000256e+01,9.449665128622839264e-03
5.492000000000000171e+01,7.799477233568019932e-03
5.496000000000000085e+01,8.436404316774915105e-03
5.500000000000000000e+01,7.515913699416335546e-03
5.503999999999999915e+01,9.515182667975507005e-03
5.507999999999999829e+01,8.253759956871435655e-03
5.511999999999999744e+01,1.054474143934113102e-02
5.515999999999999659e+01,7.141782704689268908e-03
5.520000000000000284e+01,9.870471593562038515e-03
5.524000000000000199e+01,8.267839431329825073e-03
5.528000000000000114e+01,8.319677591754344459e-03
5.532000000000000028e+01,9.831326187811207165e-03
5.535999999999999943e+01,9.542232187361696788e-03
5.539999999999999858e+01,6.089776410004502441e-03
5.543999999999999773e+01,1.037491225579583766e-02
5.547999999999999687e+01,9.647417433909608042e-03
5.552000000000000313e+01,8.287139289714310492e-03
5.556000000000000227e+01,7.608032023464069045e-03
5.560000000000000142e+01,1.009200912878988401e-02
5.564000000000000057e+01,9.947939104569739413e-03
5.567999999999999972e+01,4.791238388697576477e-03
5.571999999999999886e+01,8.248098732442327857e-03
5.575999999999999801e+01,6.740993345502621983e-03
5.579999999999999716e+01,1.014891124622985599e-02
5.584000000000000341e+01,8.398203524453379948e-03
5.588000000000000256e+01,7.085341789475913671e-03
5.592000000000000171e+01,1.020085362220700571e-02
5.596000000000000085e+01,6.941115554115412714e-03
5.600000000000000000e+01,1.205161365928961517e-02
5.603999999999999915e+01,8.742933090641766269e-03
5.607999999999999829e+01,7.770032336555941603e-03
5.611999999999999744e+01,6.699662864368684592e-03
5.615999999999999659e+01,8.013738167711026775e-03
5.620000000000000284e+01,8.597700126116351524e-03
5.624000000000000199e+01,8.354218793674986904e-03
5.628000000000000114e+01,8.305258547296844387e-03
5.632000000000000028e+01,7.380190029924868153e-03
5.635999999999999943e+01,1.059150520417337024e-02
5.639999999999999858e+01,8.595529718232228222e-03
5.643999999999999773e+01,1.102792773766600280e-02
5.647999999999999687e+01,8.399029998992463969e-03
5.652000000000000313e+01,8.738556639382909219e-03
5.656000000000000227e+01,1.024590374341972053e-02
5.660000000000000142e+01,8.979208691160978084e-03
5.664000000000000057e+01,1.014562332745044988e-02
5.667999999999999972e+01,8.294670945067712103e-03
5.671999999999999886e+01,9.606802800003965206e-03
5.675999999999999801e+01,1.004282633120254925e-02
5.679999999999999716e+01,9.310751710524310318e-03
5.684000000000000341e+01,7.945893609305454061e-03
5.688000000000000256e+01,1.042542931402920710e-02
5.692000000000000171e+01,1.090956235301616430e-02
5.696000000000000085e+01,1.051758704429095470e-02
5.700000000000000000e+01,9.200838412501325878e-03
5.703999999999999915e+01,1.075518415632729756e-02
5.707999999999999829e+01,9.876142480220544834e-03
5.711999999999999744e+01,8.704972083910503602e-03
5.715999999999999659e+01,1.001557628437244052e-02
5.720000000000000284e+01,9.817427491106993712e-03
5.724000000000000199e+01,1.000845955105676179e-02
5.728000000000000114e+01,8.739403578246764462e-03
5.732000000000000028e+01,9.660132359684903483e-03
5.735999999999999943e+01,7.709488952609718990e-03
5.739999999999999858e+01,8.337950054651868323e-03
5.743999999999999773e+01,9.258262044820001618e-03
5.747999999999999687e+01,9.594455448286546770e-03
5.752000000000000313e+01,8.275900907994486119e-03
5.756000000000000227e+01,9.195796063738550033e-03
5.760000000000000142e+01,9.190917824494750088e-03
5.764000000000000057e+01,8.553256008812433822e-03
5.767999999999999972e+01,9.813389080879982018e-03
5.771999999999999886e+01,1.063539844914867909e-02
5.775999999999999801e+01,8.732030492627206389e-03
5.779999999999999716e+01,9.748421791175710185e-03
5.784000000000000341e+01,1.047268428321279643e-02
5.788000000000000256e+01,1.036950328781248952e-02
5.792000000000000171e+01,9.974193476310996842e-03
5.796000000000000085e+01,9.286754843913393523e-03
5.800000000000000000e+01,1.142174550149653404e-02
5.803999999999999915e+01,7.230150979479789235e-03
5.807999999999999829e+01,8.342899236279932226e-03
5.811999999999999744e+01,9.309513564676503636e-03
5.815999999999999659e+01,8.524049931481359615e-03
5.820000000000000284e+01,9.344391300358226640e-03
5.824000000000000199e+01,9.823938844217342675e-03
5.828000000000000114e+01,9.719367705476973304e-03
5.832000000000000028e+01,9.225337761571715534e-03
5.835999999999999943e+01,8.925828654395099107e-03
5.839999999999999858e+01,1.062144428977497557e-02
5.843999999999999773e+01,8.959037901605635193e-03
5.847999999999999687e+01,9.291756246403002142e-03
5.852000000000000313e+01,1.093828973156895680e-02
5.856000000000000227e+01,8.545491590997822406e-03
5.860000000000000142e+01,1.028907687353303874e-02
5.864000000000000057e+01,9.501944608019851496e-03
5.867999999999999972e+01,1.100192687484310983e-02
5.871999999999999886e+01,1.094449099517562016e-02
5.875999999999999801e+01,1.015694146369777208e-02
5.879999999999999716e+01,8.882603128401535264e-03
5.884000000000000341e+01,8.922079895114742171e-03
5.888000000000000256e+01,9.545397200681945624e-03
5.892000000000000171e+01,1.031457030529188586e-02
5.896000000000000085e+01,9.769650087428551760e-03
5.900000000000000000e+01,1.019789015849349029e-02
5.903999999999999915e+01,8.387402456905302187e-03
5.907999999999999829e+01,9.545338827507798829e-03
5.911999999999999744e+01,1.036248126760487380e-02
5.915999999999999659e+01,1.074149983128686037e-02
5.920000000000000284e+01,9.222445397037750889e-03
5.924000000000000199e+01,8.433226370160680149e-03
5.928000000000000114e+01,9.103817304221297618e-03
5.932000000000000028e+01,8.606309784326702031e-03
5.935999999999999943e+01,8.838637657419459032e-03
5.939999999999999858e+01,9.168156301458854629e-03
5.943999999999999773e+01,1.149279956338744232e-02
5.947999999999999687e+01,9.632116177624234360e-03
5.952000000000000313e+01,9.328572665144103243e-03
5.956000000000000227e+01,9.365544757217869956e-03
5.960000000000000142e+01,8.526408185116384972e-03
5.964000000000000057e+01,9.147081530798540153e-03
5.967999999999999972e+01,8.891646202715630318e-03
5.971999999999999886e+01,1.043667557672817332e-02
5.975999999999999801e+01,1.042428667958267795e-02
5.979999999999999716e+01,9.730448976516937673e-03
5.984000000000000341e+01,8.063172639391812460e-03
5.988000000000000256e+01,9.656310101903686424e-03
5.992000000000000171e+01,1.149263318470066311e-02
5.996000000000000085e+01,9.484284356168680430e-03
