2.003999999999999915e+01,4.232631786971762650e-03
2.007999999999999829e+01,4.007700034009557648e-03
2.012000000000000099e+01,1.736527137895316122e-03
2.016000000000000014e+01,2.485811021590854635e-03
2.019999999999999929e+01,2.358091815364172974e-03
2.023999999999999844e+01,1.304651310476655007e-03
2.028000000000000114e+01,6.243480887076166899e-03
2.032000000000000028e+01,2.900133665411132929e-03
2.035999999999999943e+01,2.236215682115959801e-03
2.039999999999999858e+01,3.423516746478739645e-03
2.044000000000000128e+01,4.026124454967571278e-03
2.048000000000000043e+01,4.482503087577155258e-03
2.051999999999999957e+01,3.769569458102232321e-03
2.055999999999999872e+01,5.736065267670749541e-03
2.060000000000000142e+01,6.192221153310864361e-03
2.064000000000000057e+01,3.968799182197304404e-03
2.067999999999999972e+01,3.060695802078039832e-03
2.071999999999999886e+01,4.783303772667718036e-03
2.076000000000000156e+01,4.751980735501188866e-03
2.080000000000000071e+01,4.866738436773106191e-03
2.083999999999999986e+01,2.642946224078248328e-03
2.087999999999999901e+01,1.344726812064574954e-03
2.092000000000000171e+01,3.115683191293417472e-03
2.096000000000000085e+01,1.963470790479632418e-03
2.100000000000000000e+01,3.782997763431121454e-03
2.103999999999999915e+01,5.017831982529349921e-03
2.107999999999999829e+01,3.280779293115774001e-03
2.112000000000000099e+01,4.759057342238251324e-03
2.116000000000000014e+01,1.901337594665052783e-03
2.119999999999999929e+01,4.110242123083968427e-03
2.123999999999999844e+01,2.665204419303264429e-03
2.128000000000000114e+01,1.950866922057541532e-03
2.132000000000000028e+01,2.941594648948175211e-03
2.135999999999999943e+01,8.142810016499722921e-04
2.139999999999999858e+01,1.951016622704161534e-03
2.144000000000000128e+01,2.259468646885564366e-03
2.148000000000000043e+01,4.516577300108824862e-03
2.151999999999999957e+01,3.753081237428763407e-03
2.155999999999999872e+01,3.963876906593340188e-03
2.160000000000000142e+01,3.784853379283975670e-03
2.164000000000000057e+01,3.557038437748696446e-03
2.167999999999999972e+01,4.400951846208841882e-03
2.171999999999999886e+01,1.834514748452598923e-03
2.176000000000000156e+01,3.944956497587788144e-03
2.180000000000000071e+01,2.060428834296014651e-03
2.183999999999999986e+01,4.219442862811789360e-03
2.187999999999999901e+01,1.945023319310034077e-03
2.192000000000000171e+01,3.811582045631925313e-03
2.196000000000000085e+01,3.778056221618975898e-03
2.200000000000000000e+01,4.718822570932506254e-03
2.203999999999999915e+01,1.956929241867339572e-03
2.207999999999999829e+01,6.600137017677913664e-03
2.212000000000000099e+01,3.204761045652669560e-03
2.216000000000000014e+01,3.463181095526012519e-03
2.219999999999999929e+01,3.965119786299403648e-03
2.223999999999999844e+01,1.202863239227661748e-03
2.228000000000000114e+01,2.240557581078648532e-03
2.232000000000000028e+01,2.693560453387182189e-03
2.235999999999999943e+01,4.072137611361275819e-03
2.239999999999999858e+01,4.326627325891242368e-04
2.244000000000000128e+01,1.518785631871852728e-03
2.248000000000000043e+01,4.212538421450931492e-03
2.251999999999999957e+01,4.811334227087838561e-03
2.255999999999999872e+01,2.779272351310604905e-03
2.260000000000000142e+01,5.180498920887131702e-03
2.264000000000000057e+01,3.927784662978986083e-03
2.267999999999999972e+01,4.039109251674087749e-03
2.271999999999999886e+01,4.637544247387167563e-03
2.276000000000000156e+01,6.112835681239606016e-03
2.280000000000000071e+01,4.080341194766220862e-03
2.283999999999999986e+01,2.632393733461612425e-03
2.287999999999999901e+01,2.548485319433823650e-03
2.292000000000000171e+01,2.756814517604258725e-03
2.296000000000000085e+01,4.036873350080931976e-03
2.300000000000000000e+01,2.783511440371987371e-03
2.303999999999999915e+01,4.258299706932013040e-03
2.307999999999999829e+01,1.494528601009217613e-03
2.312000000000000099e+01,3.846101946418080397e-03
2.316000000000000014e+01,1.618088257500236360e-03
2.319999999999999929e+01,2.215661403136856642e-03
2.323999999999999844e+01,3.397781975289400781e-03
2.328000000000000114e+01,3.800339045639263870e-03
2.332000000000000028e+01,3.472050903194510464e-03
2.335999999999999943e+01,2.364199339216499062e-03
2.339999999999999858e+01,2.474232597646569640e-03
2.344000000000000128e+01,2.779067492279463803e-03
2.348000000000000043e+01,4.009477796349869734e-03
2.351999999999999957e+01,4.411606590552547176e-03
2.355999999999999872e+01,2.377751702202245999e-03
2.360000000000000142e+01,2.487428565526916390e-03
2.364000000000000057e+01,4.350891229674585733e-03
2.367999999999999972e+01,1.878358625613467609e-03
2.371999999999999886e+01,2.328849875604758861e-03
2.376000000000000156e+01,2.681833589636571993e-03
2.380000000000000071e+01,2.498845567983640128e-03
2.383999999999999986e+01,3.826052303460625043e-03
2.387999999999999901e+01,3.642922406055644231e-03
2.392000000000000171e+01,2.485356653510068306e-03
2.396000000000000085e+01,3.666196009345189591e-03
2.400000000000000000e+01,2.070024381995849618e-03
2.403999999999999915e+01,3.007130938789963522e-03
2.407999999999999829e+01,3.846730280702306912e-03
2.412000000000000099e+01,4.442667701247599889e-03
2.416000000000000014e+01,1.628257063793969381e-03
2.419999999999999929e+01,5.293302929762532319e-03
2.423999999999999844e+01,2.965933627715001530e-03
2.428000000000000114e+01,3.512870492732518383e-03
2.432000000000000028e+01,3.718709139309877600e-03
2.435999999999999943e+01,3.680886105328476376e-03
2.439999999999999858e+01,4.032738666276317226e-03
2.444000000000000128e+01,1.948608427634868599e-03
2.448000000000000043e+01,2.690066307858697808e-03
2.451999999999999957e+01,7.032319755226726409e-04
2.455999999999999872e+01,2.418914322041332277e-03
2.460000000000000142e+01,1.942205273876203200e-03
2.464000000000000057e+01,1.270553074968625929e-03
2.467999999999999972e+01,3.570643942219890732e-03
2.471999999999999886e+01,2.752696806598195576e-03
2.476000000000000156e+01,2.762889866978166485e-03
2.480000000000000071e+01,1.457620213067884916e-03
2.483999999999999986e+01,3.172812034728639350e-03
2.487999999999999901e+01,4.936652190821864093e-03
2.492000000000000171e+01,4.069637033449033554e-03
2.496000000000000085e+01,4.664099508104728974e-03
2.500000000000000000e+01,2.627706749563781755e-03
2.503999999999999915e+01,2.247664698814137978e-03
2.507999999999999829e+01,2.111144178663855540e-03
2.512000000000000099e+01,3.046355460094308295e-03
2.516000000000000014e+01,3.591751117040248818e-03
2.519999999999999929e+01,2.578093216676405602e-03
2.523999999999999844e+01,3.025913229284088977e-03
2.528000000000000114e+01,5.992870452714598633e-04
2.532000000000000028e+01,3.482880515493025700e-03
2.535999999999999943e+01,2.225353398657054643e-03
2.539999999999999858e+01,3.793415323784762091e-03
2.544000000000000128e+01,1.804975728604362719e-03
2.548000000000000043e+01,2.788280002277055466e-03
2.551999999999999957e+01,2.066376293097680651e-03
2.555999999999999872e+01,3.926470542054174596e-03
2.560000000000000142e+01,3.350583155328041522e-03
2.564000000000000057e+01,3.505400349820577549e-03
2.567999999999999972e+01,4.585795161159839095e-03
2.571999999999999886e+01,1.525069746653972365e-03
2.576000000000000156e+01,2.313016961664182952e-03
2.580000000000000071e+01,5.000906891391885059e-03
2.583999999999999986e+01,1.355355516378667835e-03
2.587999999999999901e+01,3.848234588332268176e-03
2.592000000000000171e+01,4.392314834414259503e-03
2.596000000000000085e+01,1.915794819546057497e-03
2.600000000000000000e+01,2.946919932888870854e-03
2.603999999999999915e+01,3.198484313724192160e-03
2.607999999999999829e+01,2.280742011200075688e-03
2.612000000000000099e+01,3.311660993344485351e-03
2.616000000000000014e+01,3.221991621272212499e-03
2.619999999999999929e+01,2.839944165964620147e-03
2.623999999999999844e+01,2.896292400656402550e-03
2.628000000000000114e+01,3.098726872242266693e-03
2.632000000000000028e+01,1.108771674936991644e-03
2.635999999999999943e+01,2.187997727195177457e-03
2.639999999999999858e+01,9.773976930849723015e-04
2.644000000000000128e+01,2.543669495567652591e-03
2.648000000000000043e+01,3.525254002518000366e-03
2.651999999999999957e+01,3.483687014210753736e-03
2.655999999999999872e+01,3.734361290360576572e-03
2.660000000000000142e+01,3.643939635748872502e-03
2.664000000000000057e+01,2.091902366423719142e-03
2.667999999999999972e+01,5.261449998646541891e-05
2.671999999999999886e+01,2.446619212778364943e-03
2.676000000000000156e+01,2.843107693654306403e-03
2.680000000000000071e+01,1.680544222608968763e-03
2.683999999999999986e+01,2.125615016543664412e-03
2.687999999999999901e+01,3.642419377986462047e-03
2.692000000000000171e+01,3.015552921432139693e-03
2.696000000000000085e+01,1.609126655468715115e-03
2.700000000000000000e+01,1.761616566150853332e-03
2.703999999999999915e+01,3.570459191359908607e-03
2.707999999999999829e+01,3.333067656857370033e-03
2.712000000000000099e+01,2.218679975737910051e-03
2.716000000000000014e+01,2.614490382929532397e-03
2.719999999999999929e+01,4.325625923073602407e-03
2.723999999999999844e+01,4.087963961791583889e-03
2.728000000000000114e+01,1.852786290344871772e-03
2.732000000000000028e+01,1.809862351974720826e-03
2.735999999999999943e+01,1.036097254415940284e-03
2.739999999999999858e+01,3.039204956683130062e-03
2.744000000000000128e+01,2.655051118337814226e-03
2.748000000000000043e+01,2.660575965294637284e-03
2.751999999999999957e+01,1.886541564728333800e-03
2.755999999999999872e+01,2.086804916213572288e-03
2.760000000000000142e+01,1.507509100445117477e-03
2.764000000000000057e+01,1.951229365870959902e-03
2.767999999999999972e+01,2.200009530792512540e-03
2.771999999999999886e+01,2.205131386471170536e-03
2.776000000000000156e+01,1.820440226421627099e-03
2.780000000000000071e+01,1.386963832891930076e-03
2.783999999999999986e+01,1.391884734750117435e-03
2.787999999999999901e+01,1.201865736777577194e-03
2.792000000000000171e+01,3.642565313762291274e-03
2.796000000000000085e+01,2.770357143292453191e-03
2.800000000000000000e+01,3.944248641569306386e-03
2.803999999999999915e+01,3.997553671960973019e-03
2.807999999999999829e+01,1.078978817415551447e-03
2.812000000000000099e+01,8.885592362476058166e-04
2.816000000000000014e+01,1.916029253518566466e-03
2.819999999999999929e+01,1.628039967949856514e-03
2.823999999999999844e+01,3.970769578416097866e-03
2.828000000000000114e+01,3.731365495605471101e-03
2.832000000000000028e+01,1.932910985992663741e-03
2.835999999999999943e+01,2.521584248452291618e-03
2.839999999999999858e+01,5.107639332132397729e-03
2.844000000000000128e+01,1.506410466447907987e-03
2.848000000000000043e+01,0.000000000000000000e+00
2.851999999999999957e+01,2.244828434616672874e-03
2.855999999999999872e+01,9.331584794328206048e-04
2.860000000000000142e+01,3.567600501076295238e-03
2.864000000000000057e+01,2.645544213188683394e-03
2.867999999999999972e+01,2.259322561264576288e-03
2.871999999999999886e+01,3.724328305018663812e-03
2.876000000000000156e+01,2.168736597252447253e-03
2.880000000000000071e+01,3.243864347407163316e-03
2.883999999999999986e+01,2.711223943637625089e-03
2.887999999999999901e+01,9.118431681918746706e-04
2.892000000000000171e+01,7.688169936045528754e-04
2.896000000000000085e+01,5.770067494437456940e-04
2.900000000000000000e+01,3.697971648104082971e-03
2.903999999999999915e+01,1.118835688153838916e-03
2.907999999999999829e+01,3.119149422000803539e-03
2.912000000000000099e+01,1.757838323426541690e-03
2.916000000000000014e+01,2.150318564265652019e-03
2.919999999999999929e+01,1.714522994366236277e-03
2.923999999999999844e+01,3.422264835136278223e-03
2.928000000000000114e+01,2.158127995010607463e-03
2.932000000000000028e+01,4.109330121037124348e-03
2.935999999999999943e+01,2.065570420097376236e-03
2.939999999999999858e+01,2.214066539239268466e-03
2.944000000000000128e+01,8.035133553509211631e-04
2.948000000000000043e+01,4.021128515480250180e-03
2.951999999999999957e+01,1.733516294108873807e-03
2.955999999999999872e+01,1.004822818004660586e-03
2.960000000000000142e+01,8.119116786237462404e-05
2.964000000000000057e+01,2.178025809456644608e-03
2.967999999999999972e+01,3.933767610662268488e-03
2.971999999999999886e+01,1.889420941607368844e-03
2.976000000000000156e+01,1.939893956099859266e-03
2.980000000000000071e+01,1.405683006241177082e-03
2.983999999999999986e+01,2.722700575832646963e-03
2.987999999999999901e+01,1.165276564295760755e-03
2.992000000000000171e+01,1.751390645718436858e-03
2.996000000000000085e+01,4.237451615868742007e-03
3.000000000000000000e+01,1.754186423741542966e-03
3.003999999999999915e+01,2.096514929204701307e-03
3.007999999999999829e+01,2.877242977599652612e-03
3.012000000000000099e+01,2.050204156381158372e-03
3.016000000000000014e+01,2.976957677943853527e-03
3.019999999999999929e+01,2.198507912415860899e-03
3.023999999999999844e+01,2.930259325571825738e-03
3.028000000000000114e+01,3.369636749233169068e-03
3.032000000000000028e+01,1.567910268601305744e-03
3.035999999999999943e+01,6.430478517042208199e-04
3.039999999999999858e+01,2.007878756003252888e-03
3.044000000000000128e+01,2.398280347119859362e-03
3.048000000000000043e+01,4.445038104348692995e-03
3.051999999999999957e+01,1.960934460911275840e-03
3.055999999999999872e+01,2.351143285688818505e-03
3.060000000000000142e+01,3.277188672896082927e-03
3.064000000000000057e+01,2.595467712241165958e-03
3.067999999999999972e+01,2.985484131892052456e-03
3.071999999999999886e+01,1.231833546343532367e-03
3.076000000000000156e+01,2.693523371796859110e-03
3.080000000000000071e+01,2.255137516686867710e-03
3.083999999999999986e+01,1.816687727208212907e-03
3.087999999999999901e+01,2.576543194089829427e-04
3.092000000000000171e+01,2.596016967377100769e-03
3.096000000000000085e+01,2.741994602080753511e-03
3.100000000000000000e+01,1.864825236614623804e-03
3.103999999999999915e+01,3.813250572106674334e-03
3.107999999999999829e+01,5.974778334651380642e-04
3.112000000000000099e+01,1.473974346757835193e-03
3.116000000000000014e+01,3.529590429529688386e-04
3.119999999999999929e+01,1.326764867545135148e-03
3.123999999999999844e+01,1.033832688409148633e-03
3.128000000000000114e+01,2.494693975826303093e-03
3.132000000000000028e+01,3.322154575138039963e-03
3.135999999999999943e+01,1.616202820419111730e-03
3.139999999999999858e+01,1.371735159417476410e-03
3.144000000000000128e+01,1.565668405927865200e-03
3.148000000000000043e+01,1.759538360225005585e-03
3.151999999999999957e+01,1.125134831596962155e-03
3.155999999999999872e+01,2.926580534691700444e-03
3.160000000000000142e+01,2.974106106537372472e-03
3.164000000000000057e+01,1.316429836142016339e-03
3.167999999999999972e+01,1.461265682520269038e-03
3.171999999999999886e+01,2.677839952706849175e-03
3.176000000000000156e+01,1.750748261196556242e-03
3.180000000000000071e+01,2.876928609440687862e-04
3.183999999999999986e+01,3.598962919277280854e-03
3.187999999999999901e+01,2.866555430257811381e-03
3.192000000000000171e+01,2.085366841633597406e-03
3.196000000000000085e+01,1.352833691286025718e-03
3.200000000000000000e+01,2.861277218649738250e-03
3.203999999999999915e+01,1.738872576526241274e-03
3.207999999999999829e+01,2.662571696890144411e-03
3.211999999999999744e+01,2.611843189729554961e-03
3.215999999999999659e+01,2.707206819265828551e-03
3.220000000000000284e+01,2.120452394787030424e-03
3.224000000000000199e+01,3.433647146714475813e-03
3.228000000000000114e+01,2.115993969962991477e-03
3.232000000000000028e+01,2.795726547633843335e-03
3.235999999999999943e+01,5.523017836552008945e-04
3.239999999999999858e+01,1.524219076201615815e-03
3.243999999999999773e+01,1.424272564554580683e-03
3.247999999999999687e+01,1.470418510682111211e-03
3.252000000000000313e+01,2.978049674298881028e-03
3.256000000000000227e+01,3.852281393986330040e-03
3.260000000000000142e+01,2.339256750439212135e-03
3.264000000000000057e+01,7.774517297121874516e-04
3.267999999999999972e+01,1.407905820113230025e-03
3.271999999999999886e+01,2.428043853463777903e-03
3.275999999999999801e+01,1.353235177358603006e-03
3.279999999999999716e+01,3.477328911903819996e-05
3.284000000000000341e+01,2.370118138746361673e-03
3.288000000000000256e+01,1.538714924108794532e-03
3.292000000000000171e+01,2.850852812534246990e-03
3.296000000000000085e+01,2.750099676404189376e-03
3.300000000000000000e+01,1.139019058106673348e-03
3.303999999999999915e+01,9.407059301763347333e-04
3.307999999999999829e+01,2.551486266879307335e-04
3.311999999999999744e+01,8.849223960894677657e-04
3.315999999999999659e+01,2.440281287528994845e-03
3.320000000000000284e+01,2.875058888461288695e-03
3.324000000000000199e+01,2.676437727754371783e-03
3.328000000000000114e+01,1.016207614696308919e-03
3.332000000000000028e+01,2.230292739148383597e-03
3.335999999999999943e+01,1.885332493772070954e-03
3.339999999999999858e+01,2.173648118002045448e-03
3.343999999999999773e+01,7.567637060530639200e-04
3.347999999999999687e+01,2.019321696659737413e-03
3.352000000000000313e+01,1.625397980230215136e-03
3.356000000000000227e+01,2.595524027045807963e-03
3.360000000000000142e+01,1.860450198221295752e-03
3.364000000000000057e+01,1.563779484318015981e-03
3.367999999999999972e+01,1.952462103973775197e-04
3.371999999999999886e+01,1.701028575333996202e-03
3.375999999999999801e+01,1.306738229676038168e-03
3.379999999999999716e+01,2.812398625678116763e-03
3.384000000000000341e+01,1.394903165015071557e-03
3.388000000000000256e+01,7.478331796820724374e-05
3.392000000000000171e+01,1.482824563832166060e-03
3.396000000000000085e+01,3.183114499075057231e-03
3.400000000000000000e+01,1.326911502838351966e-03
3.403999999999999915e+01,2.734770457523268486e-03
3.407999999999999829e+01,3.314358497904617597e-03
3.411999999999999744e+01,2.286183682143790464e-03
3.415999999999999659e+01,2.816932227142094486e-03
3.420000000000000284e+01,3.445056706834280936e-03
3.424000000000000199e+01,2.173108957548443732e-03
3.428000000000000114e+01,2.460084689425871395e-03
3.432000000000000028e+01,2.016226245554674553e-03
3.435999999999999943e+01,1.718462145789538889e-03
3.439999999999999858e+01,3.223212891958473700e-03
3.443999999999999773e+01,2.048399627849627116e-03
3.447999999999999687e+01,1.896609307970965191e-03
3.452000000000000313e+01,3.547333954430507887e-03
3.456000000000000227e+01,1.982593973409760724e-03
3.460000000000000142e+01,3.292170514209948572e-03
3.464000000000000057e+01,1.532437254419270799e-03
3.467999999999999972e+01,2.890611841085617348e-03
3.471999999999999886e+01,1.666659196163842787e-03
3.475999999999999801e+01,2.488813002755207397e-03
3.479999999999999716e+01,2.580133115214501213e-03
3.484000000000000341e+01,2.476520311283083794e-03
3.488000000000000256e+01,2.226692879968998444e-03
3.492000000000000171e+01,2.610142843380281602e-03
3.496000000000000085e+01,2.603787015311659261e-03
3.500000000000000000e+01,1.428133453924539066e-03
3.503999999999999915e+01,2.103713629500220290e-03
3.507999999999999829e+01,1.074095414420172395e-03
3.511999999999999744e+01,3.016230740658993725e-03
3.515999999999999659e+01,2.230084530171539282e-03
3.520000000000000284e+01,1.736188253239108340e-03
3.524000000000000199e+01,1.729414945489746473e-03
3.528000000000000114e+01,2.891820131284815291e-03
3.532000000000000028e+01,2.397745416105760696e-03
3.535999999999999943e+01,3.316440519107226315e-03
3.539999999999999858e+01,2.188909810417334102e-03
3.543999999999999773e+01,3.448513977644032842e-03
3.547999999999999687e+01,1.297781444995496419e-03
3.552000000000000313e+01,3.677786818959593879e-03
3.556000000000000227e+01,2.111554835711231416e-03
3.560000000000000142e+01,1.909374662578329582e-03
3.564000000000000057e+01,4.143047814908908111e-03
3.567999999999999972e+01,3.356130459024481757e-03
3.571999999999999886e+01,2.228126323093025836e-03
3.575999999999999801e+01,2.902638397675876523e-03
3.579999999999999716e+01,1.530925061914500474e-03
3.584000000000000341e+01,1.961728016936848448e-03
3.588000000000000256e+01,2.441190343437680405e-03
3.592000000000000171e+01,3.748804063525021726e-03
3.596000000000000085e+01,3.643529769160307446e-03
3.600000000000000000e+01,2.758704735831564794e-03
3.603999999999999915e+01,5.040507162413411339e-03
3.607999999999999829e+01,3.668382246774063837e-03
3.611999999999999744e+01,4.196210400608095005e-03
3.615999999999999659e+01,5.503471939963580292e-03
3.620000000000000284e+01,3.741425243981990473e-03
3.624000000000000199e+01,4.999851461964559089e-03
3.628000000000000114e+01,4.504362244459447079e-03
3.632000000000000028e+01,4.252405835407988346e-03
3.635999999999999943e+01,5.364501999031531798e-03
3.639999999999999858e+01,2.140615657284927233e-03
3.643999999999999773e+01,4.470551371589318035e-03
3.647999999999999687e+01,4.072206873612949432e-03
3.652000000000000313e+01,5.281506353217094510e-03
3.656000000000000227e+01,5.467664411376528880e-03
3.660000000000000142e+01,4.679399337099301483e-03
3.664000000000000057e+01,5.060314120946738520e-03
3.667999999999999972e+01,4.612960599246931741e-03
3.671999999999999886e+01,6.893770979887838858e-03
3.675999999999999801e+01,6.787329171304304874e-03
3.679999999999999716e+01,5.998773924197669562e-03
3.684000000000000341e+01,5.843497998282601996e-03
3.688000000000000256e+01,5.152263460733850185e-03
3.692000000000000171e+01,6.604574039719392047e-03
3.696000000000000085e+01,6.497842861000700625e-03
3.700000000000000000e+01,6.293617430912450302e-03
3.703999999999999915e+01,5.602151798602695784e-03
3.707999999999999829e+01,5.495247479419461574e-03
3.711999999999999744e+01,6.362650504484112547e-03
3.715999999999999659e+01,7.522305429704711013e-03
3.720000000000000284e+01,7.220355335776018450e-03
3.724000000000000199e+01,8.526049941852671329e-03
3.728000000000000114e+01,9.393222835389429190e-03
3.732000000000000028e+01,9.334691567787684052e-03
3.735999999999999943e+01,8.447892676928815334e-03
3.739999999999999858e+01,1.097131385492742910e-02
3.743999999999999773e+01,1.144851126810503793e-02
3.747999999999999687e+01,1.041538569420301201e-02
3.752000000000000313e+01,1.342581754491592450e-02
3.756000000000000227e+01,1.331822427599866319e-02
3.760000000000000142e+01,1.569520454801913434e-02
3.764000000000000057e+01,1.568493351377884398e-02
3.767999999999999972e+01,1.981565656243900950e-02
3.771999999999999886e+01,1.970783492792121949e-02
3.775999999999999801e+01,2.320510671896664628e-02
3.779999999999999716e+01,2.587411132823679710e-02
3.784000000000000341e+01,2.980973349741964512e-02
3.788000000000000256e+01,3.545043750650990477e-02
3.792000000000000171e+01,4.377058837310893180e-02
3.796000000000000085e+01,5.749840807425805195e-02
3.800000000000000000e+01,7.371080171769199552e-02
3.803999999999999915e+01,1.013719271362386459e-01
3.807999999999999829e+01,1.465228472303258811e-01
3.811999999999999744e+01,2.306970280421011821e-01
3.815999999999999659e+01,3.762561458445587426e-01
3.820000000000000284e+01,6.108721660378858553e-01
3.824000000000000199e+01,8.396419398569663350e-01
3.828000000000000114e+01,9.912419509913769078e-01
3.832000000000000028e+01,1.000000000000000000e+00
3.835999999999999943e+01,8.626032459995841561e-01
3.839999999999999858e+01,6.622624581059153304e-01
3.843999999999999773e+01,4.646498358403798323e-01
3.847999999999999687e+01,2.985578643272517319e-01
3.852000000000000313e+01,1.883456680433317487e-01
3.856000000000000227e+01,1.269003826932481316e-01
3.860000000000000142e+01,9.205520507976944211e-02
3.864000000000000057e+01,6.724593062609747485e-02
3.867999999999999972e+01,5.510334481152693448e-02
3.871999999999999886e+01,4.490943292405941839e-02
3.875999999999999801e+01,3.793086947453629121e-02
3.879999999999999716e+01,3.173174205942565218e-02
3.884000000000000341e+01,2.548384048801556959e-02
3.888000000000000256e+01,2.454617217650729641e-02
3.892000000000000171e+01,2.209818232276904160e-02
3.896000000000000085e+01,2.125783889482877817e-02
3.900000000000000000e+01,2.017384847563460232e-02
3.903999999999999915e+01,1.806671912334789978e-02
3.907999999999999829e+01,1.673902608641668344e-02
3.911999999999999744e+01,1.677538839145564439e-02
3.915999999999999659e+01,1.432706441760626948e-02
3.920000000000000284e+01,1.411972434571647124e-02
3.924000000000000199e+01,1.303540028802771186e-02
3.928000000000000114e+01,1.292538574186133035e-02
3.932000000000000028e+01,1.018453033072545810e-02
3.935999999999999943e+01,1.022055971969467250e-02
3.939999999999999858e+01,9.087295790163794212e-03
3.943999999999999773e+01,9.610397016920776969e-03
3.947999999999999687e+01,8.379586018967110500e-03
3.952000000000000313e+01,8.658985510950742773e-03
3.956000000000000227e+01,9.425512306666414958e-03
3.960000000000000142e+01,6.781706536382278196e-03
3.964000000000000057e+01,6.330166860666231778e-03
3.967999999999999972e+01,7.778583826412995700e-03
3.971999999999999886e+01,7.034624568397385320e-03
3.975999999999999801e+01,5.121372353094090328e-03
3.979999999999999716e+01,5.692695886137730255e-03
3.984000000000000341e+01,4.704980551176455271e-03
3.988000000000000256e+01,4.983884822998233856e-03
3.992000000000000171e+01,5.165297773284481704e-03
3.996000000000000085e+01,5.395374188789915648e-03
4.000000000000000000e+01,4.115130145702614733e-03
4.003999999999999915e+01,5.222025594023855209e-03
4.007999999999999829e+01,3.892953935428483583e-03
4.011999999999999744e+01,4.707430604144421417e-03
4.015999999999999659e+01,3.767995730439813781e-03
4.020000000000000284e+01,3.802871291355975139e-03
4.024000000000000199e+01,4.812057327027613983e-03
4.028000000000000114e+01,4.067331940682847140e-03
4.032000000000000028e+01,4.637944851476311081e-03
4.035999999999999943e+01,5.208503379962752845e-03
4.039999999999999858e+01,5.243106828670226170e-03
4.043999999999999773e+01,4.887909984353444419e-03
4.047999999999999687e+01,4.337785882640448828e-03
4.052000000000000313e+01,3.397861568172618179e-03
4.056000000000000227e+01,4.065585284891293748e-03
4.060000000000000142e+01,3.125552647291255943e-03
4.064000000000000057e+01,3.695731623400479952e-03
4.067999999999999972e+01,2.658154325460424915e-03
4.071999999999999886e+01,3.812844205725698758e-03
4.075999999999999801e+01,3.262341394464454789e-03
4.079999999999999716e+01,3.539994873224673426e-03
4.084000000000000341e+01,2.794511224954446520e-03
4.088000000000000256e+01,3.802830675568413810e-03
4.092000000000000171e+01,3.495703586181367947e-03
4.096000000000000085e+01,3.821859951861307590e-03
4.100000000000000000e+01,3.465907093162975006e-03
4.103999999999999915e+01,4.717602747267696066e-03
4.107999999999999829e+01,3.387177551203616934e-03
4.111999999999999744e+01,3.420809703845356479e-03
4.115999999999999659e+01,3.697979521240988415e-03
4.120000000000000284e+01,3.390476812678575383e-03
4.124000000000000199e+01,2.303428622799505270e-03
4.128000000000000114e+01,2.775310937658430517e-03
4.132000000000000028e+01,2.906112091330114236e-03
4.135999999999999943e+01,3.329169359302576719e-03
4.139999999999999858e+01,4.093201030583876014e-03
4.143999999999999773e+01,1.934084470795470944e-03
4.147999999999999687e+01,3.185192073605242879e-03
4.152000000000000313e+01,3.364444982801352742e-03
4.156000000000000227e+01,4.323136695705131517e-03
4.160000000000000142e+01,3.235608817798033780e-03
4.164000000000000057e+01,4.340349041194662555e-03
4.167999999999999972e+01,2.375786527709864478e-03
4.171999999999999886e+01,2.993238186784878425e-03
4.175999999999999801e+01,3.367045623901151162e-03
4.179999999999999716e+01,3.107462888206742168e-03
4.184000000000000341e+01,3.822192232656315518e-03
4.188000000000000256e+01,3.562503742451312953e-03
4.192000000000000171e+01,3.448917181813076875e-03
4.196000000000000085e+01,3.919896830736308707e-03
4.200000000000000000e+01,2.685685032309116042e-03
4.203999999999999915e+01,3.789896483152774363e-03
4.207999999999999829e+01,2.653015829308777353e-03
4.211999999999999744e+01,4.390459242611710437e-03
4.215999999999999659e+01,2.717572658536444689e-03
4.220000000000000284e+01,4.454910959484187707e-03
4.224000000000000199e+01,2.197300356843172753e-03
4.228000000000000114e+01,2.911450479634602323e-03
4.232000000000000028e+01,2.261437218266632021e-03
4.235999999999999943e+01,3.170355545273900386e-03
4.239999999999999858e+01,2.861265315011190299e-03
4.243999999999999773e+01,3.088023527053172009e-03
4.247999999999999687e+01,3.996784968154554543e-03
4.252000000000000313e+01,2.079835759570133284e-03
4.256000000000000227e+01,2.209000828767836502e-03
4.260000000000000142e+01,4.286843718135716942e-03
4.264000000000000057e+01,3.831285571461928371e-03
4.267999999999999972e+01,3.911576107901104660e-03
4.271999999999999886e+01,4.089251127727970038e-03
4.275999999999999801e+01,3.925846431217250472e-03
4.279999999999999716e+01,3.226489063010332982e-03
4.284000000000000341e+01,4.280936760288536064e-03
4.288000000000000256e+01,4.019939884166643697e-03
4.292000000000000171e+01,3.661454696612683520e-03
4.296000000000000085e+01,4.228564464101333513e-03
4.300000000000000000e+01,4.795622498173996232e-03
4.303999999999999915e+01,3.852363123892098111e-03
4.307999999999999829e+01,4.516754309283596558e-03
4.311999999999999744e+01,4.401601899689934309e-03
4.315999999999999659e+01,5.065889899192452771e-03
4.320000000000000284e+01,4.901916135105906583e-03
4.324000000000000199e+01,5.712255855878294736e-03
4.328000000000000114e+01,5.060996657977720817e-03
4.332000000000000028e+01,5.432769274078841706e-03
4.335999999999999943e+01,5.804490517976392504e-03
4.339999999999999858e+01,5.542823194451768597e-03
4.343999999999999773e+01,6.645215547446297819e-03
4.347999999999999687e+01,7.357810657654740780e-03
4.352000000000000313e+01,7.242144325351818242e-03
4.356000000000000227e+01,5.664879355318922123e-03
4.360000000000000142e+01,6.961939937417335050e-03
4.364000000000000057e+01,6.797401962055197450e-03
4.367999999999999972e+01,8.289233397260481473e-03
4.371999999999999886e+01,9.147676586121299483e-03
4.375999999999999801e+01,9.226576822152356833e-03
4.379999999999999716e+01,1.008491810943499926e-02
4.384000000000000341e+01,1.074833551063729929e-02
4.388000000000000256e+01,1.068092832828730979e-02
4.392000000000000171e+01,1.334169227252632317e-02
4.396000000000000085e+01,1.454085798038249992e-02
4.400000000000000000e+01,1.442458023861054213e-02
4.403999999999999915e+01,1.659800950397173971e-02
4.407999999999999829e+01,1.779702314208755562e-02
4.411999999999999744e+01,2.143189861422594919e-02
4.415999999999999659e+01,2.774622720488829214e-02
4.420000000000000284e+01,3.225793005786273954e-02
4.424000000000000199e+01,3.462597947117069391e-02
4.428000000000000114e+01,4.858892166722651035e-02
4.432000000000000028e+01,6.099282949036522600e-02
4.435999999999999943e+01,7.651465487256146891e-02
4.439999999999999858e+01,9.851595702620981332e-02
4.443999999999999773e+01,1.334762630915981851e-01
4.447999999999999687e+01,1.678031816732016290e-01
4.452000000000000313e+01,2.026659507841148122e-01
4.456000000000000227e+01,2.268593732236061089e-01
4.460000000000000142e+01,2.291295335420704127e-01
4.464000000000000057e+01,2.214124027536089334e-01
4.467999999999999972e+01,1.928925296484766128e-01
4.471999999999999886e+01,1.576982064400744010e-01
4.475999999999999801e+01,1.235756347393968946e-01
4.479999999999999716e+01,8.872223937826546891e-02
4.484000000000000341e+01,6.780221330768786137e-02
4.488000000000000256e+01,5.175396227735896970e-02
4.492000000000000171e+01,4.267237102896679485e-02
4.496000000000000085e+01,3.266508328516624926e-02
4.500000000000000000e+01,2.631161448018525667e-02
4.503999999999999915e+01,1.947091349992531584e-02
4.507999999999999829e+01,1.871994398242096680e-02
4.511999999999999744e+01,1.621506789920044295e-02
4.515999999999999659e+01,1.317424151223177756e-02
4.520000000000000284e+01,1.115644882559629555e-02
4.524000000000000199e+01,1.142836435013535636e-02
4.528000000000000114e+01,8.630980749917133502e-03
4.532000000000000028e+01,9.000233920862852829e-03
4.535999999999999943e+01,8.492509246620656704e-03
4.539999999999999858e+01,7.059088518451933116e-03
4.543999999999999773e+01,8.305122193117965915e-03
4.547999999999999687e+01,7.797249663280245852e-03
4.552000000000000313e+01,7.338046177386778855e-03
4.556000000000000227e+01,5.563400807118976284e-03
4.560000000000000142e+01,5.883591013744793145e-03
4.564000000000000057e+01,5.180648909505693352e-03
4.567999999999999972e+01,5.305867991723008971e-03
4.571999999999999886e+01,4.797700834331484337e-03
4.575999999999999801e+01,3.363837984225845953e-03
4.579999999999999716e+01,4.365838653800721385e-03
4.584000000000000341e+01,4.442143710930900047e-03
4.588000000000000256e+01,4.567118173217747656e-03
4.592000000000000171e+01,2.986905121356018752e-03
4.596000000000000085e+01,4.573329482813628596e-03
4.600000000000000000e+01,4.064820419405431630e-03
4.603999999999999915e+01,3.848572166059405133e-03
4.607999999999999829e+01,3.924584762910270606e-03
4.611999999999999744e+01,3.903112259106082758e-03
4.615999999999999659e+01,3.053380961681567349e-03
4.620000000000000284e+01,3.616430358944718038e-03
4.624000000000000199e+01,2.864038554123645147e-03
4.628000000000000114e+01,2.403907800173027062e-03
4.632000000000000028e+01,2.089883390607578245e-03
4.635999999999999943e+01,1.775810618942011638e-03
4.639999999999999858e+01,2.582209249397680265e-03
4.643999999999999773e+01,3.485996095769325516e-03
4.647999999999999687e+01,1.905104007905055429e-03
4.652000000000000313e+01,2.224175424539474432e-03
4.656000000000000227e+01,2.007297942140681343e-03
4.660000000000000142e+01,1.498062845210064572e-03
4.664000000000000057e+01,1.865708146842298947e-03
4.667999999999999972e+01,4.133317113512073940e-03
4.671999999999999886e+01,1.626489689707595349e-03
4.675999999999999801e+01,1.506808499943404489e-03
4.679999999999999716e+01,9.973333985742851085e-04
4.684000000000000341e+01,3.362187100248192114e-03
4.688000000000000256e+01,2.414152038186667074e-03
4.692000000000000171e+01,1.953251664644329189e-03
4.696000000000000085e+01,1.394867033275898902e-03
4.700000000000000000e+01,2.151827401542727707e-03
4.703999999999999915e+01,9.112918861929409156e-04
4.707999999999999829e+01,3.519450392161102992e-03
4.711999999999999744e+01,1.645482402242137579e-03
4.715999999999999659e+01,2.597125287570571130e-03
4.720000000000000284e+01,2.428200929541221489e-03
4.724000000000000199e+01,3.574621811955404869e-03
4.728000000000000114e+01,3.162011291421233227e-03
4.732000000000000028e+01,2.408325629906732466e-03
4.735999999999999943e+01,2.141775098393249987e-03
4.739999999999999858e+01,2.557232732508838736e-03
4.743999999999999773e+01,1.316222626468261736e-03
4.747999999999999687e+01,2.170049983652803591e-03
4.752000000000000313e+01,1.854592169683931795e-03
4.756000000000000227e+01,2.318579179629639154e-03
4.760000000000000142e+01,2.685082573904660434e-03
4.764000000000000057e+01,1.297681930950424570e-03
4.767999999999999972e+01,3.125638675981504307e-03
4.771999999999999886e+01,1.640707500106123543e-03
4.775999999999999801e+01,3.078824299245493373e-03
4.779999999999999716e+01,2.470727728454461935e-03
4.784000000000000341e+01,2.447203267027671034e-03
4.788000000000000256e+01,2.326195470873185147e-03
4.792000000000000171e+01,1.328212398152400645e-03
4.796000000000000085e+01,1.743011786046640360e-03
4.800000000000000000e+01,2.109046208490656868e-03
4.803999999999999915e+01,2.036569714632504007e-03
4.807999999999999829e+01,2.597383819820197823e-03
4.811999999999999744e+01,2.232504600241826034e-03
4.815999999999999659e+01,1.234241589272096250e-03
4.820000000000000284e+01,3.012872248178967600e-03
4.824000000000000199e+01,1.965797996663958859e-03
4.828000000000000114e+01,2.234070029095012316e-03
4.832000000000000028e+01,2.648450412646872944e-03
4.835999999999999943e+01,1.503800476887624023e-03
4.839999999999999858e+01,1.382187452238583820e-03
4.843999999999999773e+01,1.552837645734484167e-03
4.847999999999999687e+01,1.479850359903379887e-03
4.852000000000000313e+01,1.893999367979972825e-03
4.856000000000000227e+01,2.064510976998989826e-03
4.860000000000000142e+01,9.683020007551637132e-04
4.864000000000000057e+01,2.064368149389800029e-03
4.867999999999999972e+01,1.357813055424365216e-03
4.871999999999999886e+01,1.771731691393508331e-03
4.875999999999999801e+01,2.039449626725304502e-03
4.879999999999999716e+01,6.019829376078334252e-04
4.884000000000000341e+01,1.843974062775706035e-03
4.888000000000000256e+01,3.134637603203694473e-03
4.892000000000000171e+01,3.304735626066544144e-03
4.896000000000000085e+01,1.623494438398989268e-03
4.900000000000000000e+01,1.939655741328970848e-03
4.903999999999999915e+01,1.183969895971287824e-03
4.907999999999999829e+01,1.110293901900601121e-03
4.911999999999999744e+01,5.981080751649881389e-04
4.915999999999999659e+01,2.229479646185769746e-03
4.920000000000000284e+01,1.522329758751091036e-03
4.924000000000000199e+01,2.471554860608908295e-03
4.928000000000000114e+01,2.300214806114002451e-03
4.932000000000000028e+01,1.057027884274414856e-03
4.935999999999999943e+01,1.372779574384792953e-03
4.939999999999999858e+01,1.639767703759892467e-03
4.943999999999999773e+01,1.955428810281089128e-03
4.947999999999999687e+01,9.556519656297942939e-04
4.952000000000000313e+01,1.319940897973987401e-03
4.956000000000000227e+01,1.586748181248426228e-03
4.960000000000000142e+01,1.268891366854490001e-03
4.964000000000000057e+01,2.534275281357694430e-05
4.967999999999999972e+01,2.289463026733609512e-03
4.971999999999999886e+01,2.215062363949461561e-03
4.975999999999999801e+01,1.750870759529120227e-03
4.979999999999999716e+01,1.676380235580612194e-03
4.984000000000000341e+01,8.223528592786875273e-04
4.988000000000000256e+01,3.427276322737941774e-03
4.992000000000000171e+01,2.670595823826605892e-03
4.996000000000000085e+01,3.472854538885920741e-03
5.000000000000000000e+01,2.034029095930702316e-03
5.003999999999999915e+01,2.787480182568888992e-03
5.007999999999999829e+01,1.348565440335292021e-03
5.011999999999999744e+01,1.468590072611209883e-03
5.015999999999999659e+01,2.124470893191373125e-03
5.020000000000000284e+01,1.513632733897206893e-03
5.024000000000000199e+01,1.389932594303384472e-03
5.028000000000000114e+01,2.532862496517926908e-03
5.032000000000000028e+01,1.532145059542297690e-03
5.035999999999999943e+01,2.041648989011124807e-03
5.039999999999999858e+01,2.112644370125830919e-03
5.043999999999999773e+01,1.745131243021135359e-03
5.047999999999999687e+01,1.426292136565065908e-03
5.052000000000000313e+01,1.351000086385662716e-03
5.056000000000000227e+01,1.811564625857637733e-03
5.060000000000000142e+01,1.102847084549070768e-03
5.064000000000000057e+01,2.099224186121279208e-03
5.067999999999999972e+01,2.072474033802370122e-03
5.071999999999999886e+01,2.825171876040348789e-03
5.075999999999999801e+01,2.554742544656636669e-03
5.079999999999999716e+01,3.063761288099234488e-03
5.084000000000000341e+01,1.867597453962920127e-03
5.088000000000000256e+01,2.035500761402330057e-03
5.092000000000000171e+01,1.570023046745551909e-03
5.096000000000000085e+01,1.153219834353965073e-03
5.100000000000000000e+01,1.954329137322232453e-03
5.103999999999999915e+01,1.781029796485133002e-03
5.107999999999999829e+01,2.192305815924006172e-03
5.111999999999999744e+01,1.483018525206944134e-03
5.115999999999999659e+01,1.114715430668615417e-03
5.120000000000000284e+01,2.013043301037044635e-03
5.124000000000000199e+01,1.498498488413681695e-03
5.128000000000000114e+01,2.006993476599845411e-03
5.132000000000000028e+01,1.979544341783617215e-03
5.135999999999999943e+01,3.072571585793003150e-03
5.139999999999999858e+01,1.729643081009469858e-03
5.143999999999999773e+01,1.848218777434300960e-03
5.147999999999999687e+01,2.161624244495583078e-03
5.152000000000000313e+01,2.328831780214685784e-03
5.156000000000000227e+01,2.885742162332985330e-03
5.160000000000000142e+01,2.175934969291910652e-03
5.164000000000000057e+01,2.001985449539443827e-03
5.167999999999999972e+01,1.827992905603656373e-03
5.171999999999999886e+01,3.066786594945897400e-03
5.175999999999999801e+01,1.674751901214302334e-03
5.179999999999999716e+01,2.426277254130135459e-03
5.184000000000000341e+01,2.154676517061526308e-03
5.188000000000000256e+01,2.565088440709803810e-03
5.192000000000000171e+01,1.806219608023064806e-03
5.196000000000000085e+01,1.583208769702645381e-03
5.200000000000000000e+01,1.896055965883262267e-03
5.203999999999999915e+01,1.575523263739649375e-03
5.207999999999999829e+01,2.278031165099814702e-03
5.211999999999999744e+01,1.616385515305205538e-03
5.215999999999999659e+01,2.221371793650455447e-03
5.220000000000000284e+01,2.192978334210330792e-03
5.224000000000000199e+01,2.603006652332855424e-03
5.228000000000000114e+01,1.795036326459444618e-03
5.232000000000000028e+01,2.546007582504738759e-03
5.235999999999999943e+01,2.127698523696857497e-03
5.239999999999999858e+01,1.124728176650500186e-03
5.243999999999999773e+01,2.411473265026967301e-03
5.247999999999999687e+01,2.382783412334400861e-03
5.252000000000000313e+01,2.159178382794155193e-03
5.256000000000000227e+01,1.691939967667600289e-03
5.260000000000000142e+01,2.491333922162751197e-03
5.264000000000000057e+01,3.095812820214362878e-03
5.267999999999999972e+01,1.264337253783857787e-03
5.271999999999999886e+01,2.258478141325825569e-03
5.275999999999999801e+01,1.450001880008424879e-03
5.279999999999999716e+01,2.590213673212948993e-03
5.284000000000000341e+01,2.512427384307511398e-03
5.288000000000000256e+01,2.775627017373457836e-03
5.292000000000000171e+01,1.431082657612220508e-03
5.296000000000000085e+01,1.791635268545089133e-03
5.300000000000000000e+01,1.811118437626829756e-03
5.303999999999999915e+01,2.804924924572126197e-03
5.307999999999999829e+01,1.849959837115756683e-03
5.311999999999999744e+01,2.746246627512344534e-03
5.315999999999999659e+01,2.521972154623346174e-03
5.320000000000000284e+01,2.736120422530091949e-03
5.324000000000000199e+01,2.316889996153996024e-03
5.328000000000000114e+01,1.654026906616428262e-03
5.332000000000000028e+01,2.160360411378731919e-03
5.335999999999999943e+01,2.374343084375653279e-03
5.339999999999999858e+01,7.369910017952759421e-04
5.343999999999999773e+01,1.632946602372209758e-03
5.347999999999999687e+01,2.772452229194551695e-03
5.352000000000000313e+01,2.840115202817050741e-03
5.356000000000000227e+01,2.274399803234412008e-03
5.360000000000000142e+01,3.267627269881283499e-03
5.364000000000000057e+01,1.873619484152485009e-03
5.367999999999999972e+01,2.233427640415955144e-03
5.371999999999999886e+01,2.300885326126465152e-03
5.375999999999999801e+01,2.806766314518699314e-03
5.379999999999999716e+01,1.948495437414083428e-03
5.384000000000000341e+01,1.577366192133959318e-03
5.388000000000000256e+01,1.888251614306357597e-03
5.392000000000000171e+01,2.004223264346019322e-03
5.396000000000000085e+01,1.779126435767661987e-03
5.400000000000000000e+01,4.184774349979250053e-03
5.403999999999999915e+01,2.498048702595670554e-03
5.407999999999999829e+01,1.639492669958176382e-03
5.411999999999999744e+01,2.339880025301469164e-03
5.415999999999999659e+01,3.137663342560287165e-03
5.420000000000000284e+01,2.181549204682730909e-03
5.424000000000000199e+01,2.492069081950107692e-03
5.428000000000000114e+01,2.948703290410478219e-03
5.432000000000000028e+01,1.846313159631937477e-03
5.435999999999999943e+01,2.692612648629116607e-03
5.439999999999999858e+01,2.564506865136793618e-03
5.443999999999999773e+01,2.436360826756324253e-03
5.447999999999999687e+01,1.090218351789123009e-03
5.452000000000000313e+01,2.813285381223129024e-03
5.456000000000000227e+01,2.879891814479832411e-03
5.460000000000000142e+01,2.118247922540595317e-03
5.464000000000000057e+01,3.548885175686729374e-03
5.467999999999999972e+01,1.764077989113071359e-03
5.471999999999999886e+01,2.074115530147540090e-03
5.475999999999999801e+01,1.799494150891584173e-03
5.479999999999999716e+01,2.499197855426537208e-03
5.484000000000000341e+01,2.760397466560482894e-03
5.488000000000000256e+01,2.436938277808143715e-03
5.492000000000000171e+01,1.480102080430890530e-03
5.496000000000000085e+01,2.520674353723376202e-03
5.500000000000000000e+01,2.586841956547052384e-03
5.503999999999999915e+01,3.432461888476593444e-03
5.507999999999999829e+01,2.524185248233434646e-03
5.511999999999999744e+01,2.200488021872232334e-03
5.515999999999999659e+01,1.779314765301058142e-03
5.520000000000000284e+01,2.478621740487913904e-03
5.524000000000000199e+01,2.544552028127561750e-03
5.528000000000000114e+01,3.243780139061354807e-03
5.532000000000000028e+01,3.066040398350699994e-03
5.535999999999999943e+01,2.888261325850293836e-03
5.539999999999999858e+01,2.613006463948185608e-03
5.543999999999999773e+01,2.971049585879073467e-03
5.547999999999999687e+01,2.744434509944356296e-03
5.552000000000000313e+01,2.712653258252068801e-03
5.556000000000000227e+01,1.657749649103621792e-03
5.560000000000000142e+01,2.941282894893640452e-03
5.564000000000000057e+01,2.081174139410281801e-03
5.567999999999999972e+01,2.682573839414839449e-03
5.571999999999999886e+01,2.455724337995409713e-03
5.575999999999999801e+01,2.716018394866681184e-03
5.579999999999999716e+01,2.342936326076720636e-03
5.584000000000000341e+01,2.115970153733560174e-03
5.588000000000000256e+01,3.301794388678544034e-03
5.592000000000000171e+01,3.610651373999772869e-03
5.596000000000000085e+01,2.068176172365329170e-03
5.600000000000000000e+01,2.571828733776476174e-03
5.603999999999999915e+01,2.636978405828002605e-03
5.607999999999999829e+01,2.214906979781290815e-03
5.611999999999999744e+01,2.133824726617688204e-03
5.615999999999999659e+01,2.393731686471913672e-03
5.620000000000000284e+01,2.361290664125370847e-03
5.624000000000000199e+01,3.108303174926061244e-03
5.628000000000000114e+01,2.198856815342103196e-03
5.632000000000000028e+01,2.215018815794807597e-03
5.635999999999999943e+01,2.961916220925562768e-03
5.639999999999999858e+01,2.783128609175786802e-03
5.643999999999999773e+01,3.237639984626818502e-03
5.647999999999999687e+01,2.815184672340078666e-03
5.652000000000000313e+01,2.782437183156911097e-03
5.656000000000000227e+01,3.139397557212032959e-03
5.660000000000000142e+01,2.327081870693531104e-03
5.664000000000000057e+01,1.953192376556069174e-03
5.667999999999999972e+01,2.748502848034347062e-03
5.671999999999999886e+01,2.569410374836464655e-03
5.675999999999999801e+01,3.413363200903749787e-03
5.679999999999999716e+01,2.990603669324306147e-03
5.684000000000000341e+01,2.470369793192817021e-03
5.688000000000000256e+01,2.242407603630658993e-03
5.692000000000000171e+01,2.891336127252515809e-03
5.696000000000000085e+01,3.199199182359808904e-03
5.700000000000000000e+01,3.458306302327240900e-03
5.703999999999999915e+01,2.937883794189541029e-03
5.707999999999999829e+01,2.855887919914724352e-03
5.711999999999999744e+01,2.627699733157520638e-03
5.715999999999999659e+01,2.740501762785970893e-03
5.720000000000000284e+01,2.804548057948112912e-03
5.724000000000000199e+01,2.137783174552020712e-03
5.728000000000000114e+01,2.883810103159024831e-03
5.732000000000000028e+01,2.850307684603881238e-03
5.735999999999999943e+01,3.011640936487953481e-03
5.739999999999999858e+01,2.588317916972639882e-03
5.743999999999999773e+01,2.164957652672635027e-03
5.747999999999999687e+01,3.397980645415943444e-03
5.752000000000000313e+01,2.487363523217378091e-03
5.756000000000000227e+01,3.038256742838221520e-03
5.760000000000000142e+01,3.589112878213224569e-03
5.764000000000000057e+01,2.580948005530478429e-03
5.767999999999999972e+01,2.741984101831291491e-03
5.771999999999999886e+01,4.218375953870363675e-03
5.775999999999999801e+01,2.381889958815869898e-03
5.779999999999999716e+01,2.835124777235712486e-03
5.784000000000000341e+01,2.801140263484665216e-03
5.788000000000000256e+01,3.838920421644072961e-03
5.792000000000000171e+01,2.586906119588743783e-03
5.796000000000000085e+01,3.186148551686602409e-03
5.800000000000000000e+01,2.664834576799112852e-03
5.803999999999999915e+01,3.069130687740935590e-03
5.807999999999999829e+01,3.473390196053476649e-03
5.811999999999999744e+01,3.390430653138117641e-03
5.815999999999999659e+01,3.453589334482894471e-03
5.820000000000000284e+01,2.591064805009220869e-03
5.824000000000000199e+01,2.897741806405074345e-03
5.828000000000000114e+01,3.253100654718538154e-03
5.832000000000000028e+01,3.267395399097671339e-03
5.835999999999999943e+01,3.330372070663838776e-03
5.839999999999999858e+01,2.808693474198432818e-03
5.843999999999999773e+01,2.725442876176147489e-03
5.847999999999999687e+01,2.788310823491702787e-03
5.852000000000000313e+01,3.094733854026466419e-03
5.856000000000000227e+01,3.108811270308504265e-03
5.860000000000000142e+01,3.317725601205856467e-03
5.864000000000000057e+01,2.795830158259915606e-03
5.867999999999999972e+01,3.199545443298688809e-03
5.871999999999999886e+01,2.823732785890271067e-03
5.875999999999999801e+01,3.227376190115991642e-03
5.879999999999999716e+01,3.387392469770591271e-03
5.884000000000000341e+01,3.255063416115457943e-03
5.888000000000000256e+01,3.366289806891959238e-03
5.892000000000000171e+01,3.526198686741466130e-03
5.896000000000000085e+01,3.296325855938712825e-03
5.900000000000000000e+01,2.871544350111738825e-03
5.903999999999999915e+01,3.372373933481895639e-03
5.907999999999999829e+01,2.752648193503941937e-03
5.911999999999999744e+01,2.620069383132560444e-03
5.915999999999999659e+01,2.731046298135791656e-03
5.920000000000000284e+01,3.718916214001671480e-03
5.924000000000000199e+01,3.829822211424958791e-03
5.928000000000000114e+01,3.648383317020347742e-03
5.932000000000000028e+01,3.856655055149201244e-03
5.935999999999999943e+01,3.285399492986261667e-03
5.939999999999999858e+01,4.029501372219529073e-03
5.943999999999999773e+01,2.824838058470452527e-03
5.947999999999999687e+01,3.081687013007000913e-03
5.952000000000000313e+01,3.825683298497242844e-03
5.956000000000000227e+01,3.643997737749256598e-03
5.960000000000000142e+01,4.582796823577711329e-03
5.964000000000000057e+01,4.401041147944040333e-03
5.967999999999999972e+01,4.657714714929573306e-03
5.971999999999999886e+01,3.842551849595735817e-03
5.975999999999999801e+01,3.417100058277208318e-03
5.979999999999999716e+01,3.186486385615369590e-03
5.984000000000000341e+01,3.394302116111592646e-03
5.988000000000000256e+01,3.212337059053953139e-03
5.992000000000000171e+01,2.981618996690476794e-03
5.996000000000000085e+01,4.504723177469163904e-03
