2.003999999999999915e+01,8.699747907378248268e-02
2.007999999999999829e+01,6.132589831874035724e-02
2.012000000000000099e+01,8.826697596959272307e-02
2.016000000000000014e+01,9.047873774411588355e-02
2.019999999999999929e+01,5.971783625095913178e-02
2.023999999999999844e+01,8.278184248901272746e-02
2.028000000000000114e+01,5.808364993364861784e-02
2.032000000000000028e+01,8.163397983587288020e-02
2.035999999999999943e+01,6.687770766135148204e-02
2.039999999999999858e+01,9.164170547928345012e-02
2.044000000000000128e+01,6.670388420866982249e-02
2.048000000000000043e+01,8.734761113324436554e-02
2.051999999999999957e+01,6.895737229806547797e-02
2.055999999999999872e+01,7.432805778203868674e-02
2.060000000000000142e+01,5.739391389565327156e-02
2.064000000000000057e+01,5.258302599419596018e-02
2.067999999999999972e+01,7.298776305963411426e-02
2.071999999999999886e+01,6.454147776246127455e-02
2.076000000000000156e+01,5.561097239736247089e-02
2.080000000000000071e+01,4.595379321297970304e-02
2.083999999999999986e+01,8.309039697550107961e-02
2.087999999999999901e+01,5.573562426333482367e-02
2.092000000000000171e+01,5.771813442567041985e-02
2.096000000000000085e+01,7.497574833297673824e-02
2.100000000000000000e+01,6.653419006664849922e-02
2.103999999999999915e+01,7.021586349591019127e-02
2.107999999999999829e+01,6.468504981850776991e-02
2.112000000000000099e+01,5.648793231095802087e-02
2.116000000000000014e+01,6.865738417461567100e-02
2.119999999999999929e+01,8.010013792965096913e-02
2.123999999999999844e+01,6.923802345138603542e-02
2.128000000000000114e+01,7.850001973510277453e-02
2.132000000000000028e+01,7.345803656764672562e-02
2.135999999999999943e+01,6.938650483280149606e-02
2.139999999999999858e+01,7.283160780708376747e-02
2.144000000000000128e+01,6.342743197793629384e-02
2.148000000000000043e+01,6.032762938792803065e-02
2.151999999999999957e+01,6.450200289782195839e-02
2.155999999999999872e+01,5.922140883142147649e-02
2.160000000000000142e+01,5.685086220342175367e-02
2.164000000000000057e+01,7.024028067336565706e-02
2.167999999999999972e+01,6.471912270567423131e-02
2.171999999999999886e+01,7.180605778654541860e-02
2.176000000000000156e+01,6.846820785675707122e-02
2.180000000000000071e+01,5.276595990798243346e-02
2.183999999999999986e+01,7.779615112216350936e-02
2.187999999999999901e+01,6.427719663768871605e-02
2.192000000000000171e+01,6.773044686074114473e-02
2.196000000000000085e+01,6.585037769937052143e-02
2.200000000000000000e+01,7.730573855129808936e-02
2.203999999999999915e+01,7.397217358639537887e-02
2.207999999999999829e+01,3.257435342301585185e-02
2.212000000000000099e+01,4.233436228429125758e-02
2.216000000000000014e+01,6.591469408797739904e-02
2.219999999999999929e+01,3.833839199548429860e-02
2.223999999999999844e+01,6.191991164084467703e-02
2.228000000000000114e+01,6.077198667638385871e-02
2.232000000000000028e+01,6.229161410709048441e-02
2.235999999999999943e+01,6.963065869554388443e-02
2.239999999999999858e+01,4.302710113525934355e-02
2.244000000000000128e+01,5.036730927604838454e-02
2.248000000000000043e+01,6.595144051202350699e-02
2.251999999999999957e+01,7.692957232577420090e-02
2.255999999999999872e+01,6.875462294292108978e-02
2.260000000000000142e+01,5.354915605573485476e-02
2.264000000000000057e+01,4.464799196860680386e-02
2.267999999999999972e+01,3.986906635078600603e-02
2.271999999999999886e+01,6.345750901574784275e-02
2.276000000000000156e+01,5.722500015277669216e-02
2.280000000000000071e+01,4.274970502868278427e-02
2.283999999999999986e+01,4.451920477936556486e-02
2.287999999999999901e+01,3.028747109348694719e-02
2.292000000000000171e+01,6.066733214813578579e-02
2.296000000000000085e+01,7.504595490835558325e-02
2.300000000000000000e+01,5.936116024461540741e-02
2.303999999999999915e+01,5.725418376431760242e-02
2.307999999999999829e+01,2.556868764703999763e-02
2.312000000000000099e+01,2.467504874744771287e-02
2.316000000000000014e+01,3.832902603419259535e-02
2.319999999999999929e+01,5.101373244319901828e-02
2.323999999999999844e+01,5.860749306432362637e-02
2.328000000000000114e+01,4.995754463712449162e-02
2.332000000000000028e+01,6.458345028779442776e-02
2.335999999999999943e+01,5.787416426136697545e-02
2.339999999999999858e+01,6.450022323555326675e-02
2.344000000000000128e+01,5.997404121658619913e-02
2.348000000000000043e+01,4.526542106522843389e-02
2.351999999999999957e+01,7.322874864099791770e-02
2.355999999999999872e+01,3.742789097078479121e-02
2.360000000000000142e+01,3.023679946923405956e-02
2.364000000000000057e+01,3.104710930136388505e-02
2.367999999999999972e+01,3.840411010369606387e-02
2.371999999999999886e+01,4.770122432123902884e-02
2.376000000000000156e+01,5.966580349233115144e-02
2.380000000000000071e+01,5.878096055289679100e-02
2.383999999999999986e+01,4.140992323764085270e-02
2.387999999999999901e+01,5.822501550426427419e-02
2.392000000000000171e+01,4.521908580387324489e-02
2.396000000000000085e+01,3.827492742629960698e-02
2.400000000000000000e+01,6.091031621774613269e-02
2.403999999999999915e+01,5.057280856386359158e-02
2.407999999999999829e+01,3.320469353509591937e-02
2.412000000000000099e+01,6.650938343944289011e-02
2.416000000000000014e+01,5.738556803711967330e-02
2.419999999999999929e+01,8.026580088338826358e-02
2.423999999999999844e+01,2.992620561725977540e-02
2.428000000000000114e+01,4.577629020365226592e-02
2.432000000000000028e+01,3.956377085126292631e-02
2.435999999999999943e+01,4.789879481719547943e-02
2.439999999999999858e+01,6.059840413070444881e-02
2.444000000000000128e+01,6.141835776044201473e-02
2.448000000000000043e+01,4.987375063262579344e-02
2.451999999999999957e+01,4.996726123830743521e-02
2.455999999999999872e+01,5.248573689643717261e-02
2.460000000000000142e+01,3.463875087021691529e-02
2.464000000000000057e+01,3.158174248220578517e-02
2.467999999999999972e+01,4.937599236407232139e-02
2.471999999999999886e+01,3.250014525176591479e-02
2.476000000000000156e+01,3.938496742055862254e-02
2.480000000000000071e+01,4.045139510577760306e-02
2.483999999999999986e+01,6.382377927968325981e-02
2.487999999999999901e+01,3.846388004308347319e-02
2.492000000000000171e+01,5.165417103971684659e-02
2.496000000000000085e+01,5.466193403340731394e-02
2.500000000000000000e+01,4.166833485704297263e-02
2.503999999999999915e+01,2.867515836168007398e-02
2.507999999999999829e+01,3.580586187958414990e-02
2.512000000000000099e+01,4.317943454304588174e-02
2.516000000000000014e+01,3.067241416193197331e-02
2.519999999999999929e+01,5.210899188545663890e-02
2.523999999999999844e+01,2.820758285200851770e-02
2.528000000000000114e+01,5.134213847623219501e-02
2.532000000000000028e+01,3.616979083591405353e-02
2.535999999999999943e+01,5.906270406570862663e-02
2.539999999999999858e+01,1.964602825310872783e-02
2.544000000000000128e+01,3.356904176547155505e-02
2.548000000000000043e+01,5.428108826843805468e-02
2.551999999999999957e+01,2.335139662886851278e-02
2.555999999999999872e+01,2.224360875232345852e-02
2.560000000000000142e+01,3.835025344381644968e-02
2.564000000000000057e+01,1.663487808414488775e-02
2.567999999999999972e+01,3.056023093887465236e-02
2.571999999999999886e+01,4.715292972939533894e-02
2.576000000000000156e+01,4.144048581709194878e-02
2.580000000000000071e+01,1.148328619363762383e-02
2.583999999999999986e+01,2.662240664338891977e-02
2.587999999999999901e+01,3.060913793502271704e-02
2.592000000000000171e+01,4.308203475595631660e-02
2.596000000000000085e+01,3.567428995363760430e-02
2.600000000000000000e+01,4.014702433668839582e-02
2.603999999999999915e+01,2.910323604225282731e-02
2.607999999999999829e+01,1.296832950563270130e-02
2.612000000000000099e+01,1.404782396091067143e-02
2.616000000000000014e+01,4.058506194157195796e-02
2.619999999999999929e+01,3.584643157144530579e-02
2.623999999999999844e+01,3.401756688339412082e-02
2.628000000000000114e+01,3.121924428969870616e-02
2.632000000000000028e+01,4.248344335171903158e-02
2.635999999999999943e+01,3.556413575811701033e-02
2.639999999999999858e+01,3.058477884115871556e-02
2.644000000000000128e+01,4.039529026038658072e-02
2.648000000000000043e+01,5.190329617596626394e-02
2.651999999999999957e+01,4.086366191655474434e-02
2.655999999999999872e+01,3.952241093562226110e-02
2.660000000000000142e+01,3.212020484666901904e-02
2.664000000000000057e+01,2.956735072984537083e-02
2.667999999999999972e+01,1.416489961925877436e-02
2.671999999999999886e+01,3.610027282776204910e-02
2.676000000000000156e+01,4.858036269857218120e-02
2.680000000000000071e+01,4.069485729367085941e-02
2.683999999999999986e+01,4.202281551986351144e-02
2.687999999999999901e+01,3.801715560277087180e-02
2.692000000000000171e+01,4.395230842617676992e-02
2.696000000000000085e+01,4.091706841206835255e-02
2.700000000000000000e+01,4.248870718726077689e-02
2.703999999999999915e+01,2.902866520646878862e-02
2.707999999999999829e+01,3.205561195589055196e-02
2.712000000000000099e+01,4.890258045992700031e-02
2.716000000000000014e+01,4.659618843996817666e-02
2.719999999999999929e+01,4.719950380767233555e-02
2.723999999999999844e+01,4.368143578380706549e-02
2.728000000000000114e+01,3.798159251883136828e-02
2.732000000000000028e+01,3.058487422865935335e-02
2.735999999999999943e+01,2.997707476920040415e-02
2.739999999999999858e+01,6.864666891634894907e-02
2.744000000000000128e+01,5.615931097698537156e-02
2.748000000000000043e+01,6.549284657182699587e-02
2.751999999999999957e+01,4.864191143196995581e-02
2.755999999999999872e+01,5.676373215996373400e-02
2.760000000000000142e+01,5.009628944932340011e-02
2.764000000000000057e+01,6.937140303836251964e-02
2.767999999999999972e+01,5.494604518182105019e-02
2.771999999999999886e+01,5.070390280952519896e-02
2.776000000000000156e+01,5.494781423557301009e-02
2.780000000000000071e+01,5.531275958740135973e-02
2.783999999999999986e+01,6.683071842637065829e-02
2.787999999999999901e+01,9.556297138414890369e-02
2.792000000000000171e+01,8.647306584153394149e-02
2.796000000000000085e+01,1.200548384143899083e-01
2.800000000000000000e+01,1.371501640023048141e-01
2.803999999999999915e+01,1.411533586902820880e-01
2.807999999999999829e+01,1.536425877451322586e-01
2.812000000000000099e+01,1.629801852615647140e-01
2.816000000000000014e+01,1.706208567451903690e-01
2.819999999999999929e+01,1.598354585198129285e-01
2.823999999999999844e+01,1.776595447067724765e-01
2.828000000000000114e+01,1.925744409620030184e-01
2.832000000000000028e+01,2.125810384965660382e-01
2.835999999999999943e+01,1.826428846912590276e-01
2.839999999999999858e+01,1.854358780637628268e-01
2.844000000000000128e+01,1.649537607051790589e-01
2.848000000000000043e+01,1.650802195453338339e-01
2.851999999999999957e+01,1.038667051759510490e-01
2.855999999999999872e+01,1.095699647304406027e-01
2.860000000000000142e+01,9.393771441749979023e-02
2.864000000000000057e+01,9.261029620453599398e-02
2.867999999999999972e+01,9.952642460201323316e-02
2.871999999999999886e+01,6.401377079436251782e-02
2.876000000000000156e+01,7.068784387865784113e-02
2.880000000000000071e+01,5.529904098358130737e-02
2.883999999999999986e+01,6.924704003410617204e-02
2.887999999999999901e+01,4.852468948133881882e-02
2.892000000000000171e+01,5.107785295570298201e-02
2.896000000000000085e+01,6.308680265009157517e-02
2.900000000000000000e+01,4.188010338893100037e-02
2.903999999999999915e+01,1.970377862569133026e-02
2.907999999999999829e+01,3.583494016414149469e-02
2.912000000000000099e+01,5.099647134264493481e-02
2.916000000000000014e+01,1.306133541108831127e-02
2.919999999999999929e+01,3.889106734894948181e-02
2.923999999999999844e+01,2.156463153827059900e-02
2.928000000000000114e+01,3.381742227734513273e-02
2.932000000000000028e+01,3.370535835787139001e-02
2.935999999999999943e+01,1.831902148182652790e-02
2.939999999999999858e+01,1.675256791116763733e-02
2.944000000000000128e+01,1.518626983878763187e-02
2.948000000000000043e+01,2.525778831210917161e-02
2.951999999999999957e+01,2.854082039796720233e-02
2.955999999999999872e+01,2.455046102258005153e-02
2.960000000000000142e+01,2.880359239215550191e-02
2.964000000000000057e+01,1.341830999898925743e-02
2.967999999999999972e+01,2.858203515593439950e-02
2.971999999999999886e+01,2.750166020620747886e-02
2.976000000000000156e+01,2.545161603359233360e-02
2.980000000000000071e+01,2.315925417642749132e-02
2.983999999999999986e+01,3.541410287364866322e-02
2.987999999999999901e+01,2.609091265513249769e-02
2.992000000000000171e+01,1.749520275496128582e-02
2.996000000000000085e+01,3.969093472478858742e-02
3.000000000000000000e+01,2.648889511390395413e-02
3.003999999999999915e+01,4.213868193575726062e-02
3.007999999999999829e+01,1.245018809964312627e-02
3.012000000000000099e+01,2.761530311838945873e-02
3.016000000000000014e+01,1.999010560674098838e-02
3.019999999999999929e+01,0.000000000000000000e+00
3.023999999999999844e+01,1.977201819041181710e-02
3.028000000000000114e+01,4.560542393209428280e-02
3.032000000000000028e+01,2.755524237675079438e-02
3.035999999999999943e+01,1.435418690268972820e-02
3.039999999999999858e+01,1.667011326763710721e-02
3.044000000000000128e+01,2.165309895418248212e-02
3.048000000000000043e+01,3.197010608005690369e-02
3.051999999999999957e+01,2.361845129634152635e-02
3.055999999999999872e+01,2.254042367348039339e-02
3.060000000000000142e+01,3.334259590859717237e-02
3.064000000000000057e+01,1.141392224672548202e-02
3.067999999999999972e+01,2.730773508434177280e-02
3.071999999999999886e+01,1.895649345194505564e-02
3.076000000000000156e+01,1.933357477027777480e-02
3.080000000000000071e+01,2.455975545162076418e-02
3.083999999999999986e+01,2.784639603916539211e-02
3.087999999999999901e+01,1.998034385186265791e-02
3.092000000000000171e+01,2.884349853954895279e-02
3.096000000000000085e+01,1.297668153877099516e-02
3.100000000000000000e+01,3.202291573692122445e-02
3.103999999999999915e+01,1.130719139844593539e-02
3.107999999999999829e+01,3.520256629799483478e-02
3.112000000000000099e+01,3.703492434000912881e-02
3.116000000000000014e+01,3.038153715130399030e-02
3.119999999999999929e+01,2.178858800839613211e-02
3.123999999999999844e+01,2.483334853810072185e-02
3.128000000000000114e+01,3.127247134906490506e-02
3.132000000000000028e+01,4.692478575053300044e-02
3.135999999999999943e+01,3.590749359480561315e-02
3.139999999999999858e+01,3.167887494747358146e-02
3.144000000000000128e+01,4.757375011292797051e-02
3.148000000000000043e+01,5.861963045255366017e-02
3.151999999999999957e+01,5.633071725257358248e-02
3.155999999999999872e+01,4.434377792041530042e-02
3.160000000000000142e+01,6.654249938590532654e-02
3.164000000000000057e+01,7.661867663710861254e-02
3.167999999999999972e+01,8.499771410932704940e-02
3.171999999999999886e+01,8.416361837848010397e-02
3.176000000000000156e+01,9.617945735622625281e-02
3.180000000000000071e+01,1.295310248984745949e-01
3.183999999999999986e+01,1.078461520127029505e-01
3.187999999999999901e+01,1.159827991184091828e-01
3.192000000000000171e+01,1.250892564181926014e-01
3.196000000000000085e+01,1.266797251982762218e-01
3.200000000000000000e+01,1.275428400576006649e-01
3.203999999999999915e+01,1.000391478108858118e-01
3.207999999999999829e+01,8.562782216371740696e-02
3.211999999999999744e+01,9.061259507018784576e-02
3.215999999999999659e+01,8.420214615350388176e-02
3.220000000000000284e+01,7.100304811078930745e-02
3.224000000000000199e+01,6.095580273249805170e-02
3.228000000000000114e+01,5.260569965515175805e-02
3.232000000000000028e+01,4.619518777224056183e-02
3.235999999999999943e+01,6.839391012148068882e-02
3.239999999999999858e+01,6.319560879397331798e-02
3.243999999999999773e+01,4.854167922016733999e-02
3.247999999999999687e+01,6.613374642807247350e-02
3.252000000000000313e+01,5.681368531727688104e-02
3.256000000000000227e+01,3.658328073883647391e-02
3.260000000000000142e+01,3.235462705289171570e-02
3.264000000000000057e+01,2.667122661597407657e-02
3.267999999999999972e+01,4.256595262943847074e-02
3.271999999999999886e+01,3.664001595043871184e-02
3.275999999999999801e+01,4.453375854638232101e-02
3.279999999999999716e+01,3.084928491441821588e-02
3.284000000000000341e+01,3.728822008255616022e-02
3.288000000000000256e+01,5.148554417823372753e-02
3.292000000000000171e+01,4.580180401617067049e-02
3.296000000000000085e+01,3.648123576984720062e-02
3.300000000000000000e+01,1.384457638393485901e-01
3.303999999999999915e+01,2.273178573921825207e-01
3.307999999999999829e+01,1.144703851534722844e-01
3.311999999999999744e+01,4.987065811352178746e-02
3.315999999999999659e+01,3.424602781066937024e-02
3.320000000000000284e+01,3.122879345236780416e-02
3.324000000000000199e+01,3.645482880604930531e-02
3.328000000000000114e+01,4.749961821853936755e-02
3.332000000000000028e+01,3.599635453728534246e-02
3.335999999999999943e+01,2.206849509455304295e-02
3.339999999999999858e+01,3.771961202138859881e-02
3.343999999999999773e+01,3.955091617494588957e-02
3.347999999999999687e+01,2.635014851417066817e-02
3.352000000000000313e+01,1.460399653496725382e-02
3.356000000000000227e+01,3.389151914414080535e-02
3.360000000000000142e+01,4.784501554914392940e-02
3.364000000000000057e+01,2.930993520954467205e-02
3.367999999999999972e+01,3.526233646607039585e-02
3.371999999999999886e+01,5.382210209100696252e-02
3.375999999999999801e+01,6.607802650634135577e-02
3.379999999999999716e+01,4.075388669043200629e-02
3.384000000000000341e+01,4.694830710521103595e-02
3.388000000000000256e+01,4.465681712176953339e-02
3.392000000000000171e+01,5.157836084813235966e-02
3.396000000000000085e+01,6.504597130870061472e-02
3.400000000000000000e+01,2.856848794972730726e-02
3.403999999999999915e+01,6.143195897493131802e-02
3.407999999999999829e+01,5.962476463544384708e-02
3.411999999999999744e+01,7.478903417866240855e-02
3.415999999999999659e+01,6.595049168598179912e-02
3.420000000000000284e+01,5.299014316724354884e-02
3.424000000000000199e+01,6.185027769289164895e-02
3.428000000000000114e+01,8.404509654914896211e-02
3.432000000000000028e+01,9.145024390588724073e-02
3.435999999999999943e+01,8.139875278750757781e-02
3.439999999999999858e+01,7.546878846082027970e-02
3.443999999999999773e+01,7.438770246416361032e-02
3.447999999999999687e+01,7.476117385466669873e-02
3.452000000000000313e+01,7.610429755854732081e-02
3.456000000000000227e+01,8.908492933353166776e-02
3.460000000000000142e+01,8.897303186342880865e-02
3.464000000000000057e+01,9.128548735444648454e-02
3.467999999999999972e+01,7.153470981281785657e-02
3.471999999999999886e+01,6.827045707503941185e-02
3.475999999999999801e+01,8.561439919338686977e-02
3.479999999999999716e+01,8.525922479592012992e-02
3.484000000000000341e+01,7.132660393491482842e-02
3.488000000000000256e+01,6.272773733051618950e-02
3.492000000000000171e+01,6.940312677317814205e-02
3.496000000000000085e+01,7.171421271761542482e-02
3.500000000000000000e+01,6.141764777247519375e-02
3.503999999999999915e+01,6.591042894274580510e-02
3.507999999999999829e+01,8.907177495827892089e-02
3.511999999999999744e+01,6.956149881684572933e-02
3.515999999999999659e+01,5.465760596221002493e-02
3.520000000000000284e+01,5.187608496058487145e-02
3.524000000000000199e+01,6.630841115394223162e-02
3.528000000000000114e+01,5.673785730125299742e-02
3.532000000000000028e+01,6.268398652870993404e-02
3.535999999999999943e+01,4.680929275406936485e-02
3.539999999999999858e+01,4.960314439322048574e-02
3.543999999999999773e+01,6.306464537723460717e-02
3.547999999999999687e+01,5.809963458628689126e-02
3.552000000000000313e+01,5.046744554900940705e-02
3.556000000000000227e+01,4.938122608858384888e-02
3.560000000000000142e+01,7.181256634576259346e-02
3.564000000000000057e+01,1.068511543825278326e-01
3.567999999999999972e+01,7.036637888878619074e-02
3.571999999999999886e+01,8.043203145613603278e-02
3.575999999999999801e+01,8.589088062416030955e-02
3.579999999999999716e+01,1.066239324027007107e-01
3.584000000000000341e+01,1.115974150925397868e-01
3.588000000000000256e+01,1.046905474235290678e-01
3.592000000000000171e+01,1.043296274709656496e-01
3.596000000000000085e+01,1.182730951234866185e-01
3.600000000000000000e+01,1.278521961255031369e-01
3.603999999999999915e+01,1.570696089680663488e-01
3.607999999999999829e+01,1.375540582986486959e-01
3.611999999999999744e+01,1.527087966022037946e-01
3.615999999999999659e+01,1.574378754789167167e-01
3.620000000000000284e+01,1.682279824246920297e-01
3.624000000000000199e+01,1.787753806275692303e-01
3.628000000000000114e+01,1.973234126210337835e-01
3.632000000000000028e+01,2.107797045652508583e-01
3.635999999999999943e+01,1.890802900506993733e-01
3.639999999999999858e+01,1.940502538665887511e-01
3.643999999999999773e+01,1.861700280288581255e-01
3.647999999999999687e+01,1.875026804491661259e-01
3.652000000000000313e+01,1.810766161288924758e-01
3.656000000000000227e+01,1.860454871106064501e-01
3.660000000000000142e+01,1.718604243399388942e-01
3.664000000000000057e+01,1.571901772146108156e-01
3.667999999999999972e+01,1.381555221469031036e-01
3.671999999999999886e+01,1.319705005999921854e-01
3.675999999999999801e+01,1.396049154346406251e-01
3.679999999999999716e+01,1.120835970922483271e-01
3.684000000000000341e+01,1.136561435862654679e-01
3.688000000000000256e+01,1.094095620586891388e-01
3.692000000000000171e+01,1.252861415799631228e-01
3.696000000000000085e+01,1.072192348205814466e-01
3.700000000000000000e+01,9.472840490673704872e-02
3.703999999999999915e+01,9.532964040464289579e-02
3.707999999999999829e+01,1.056286203714278532e-01
3.711999999999999744e+01,1.008953074909008651e-01
3.715999999999999659e+01,8.597872578260984389e-02
3.720000000000000284e+01,8.075988125639640969e-02
3.724000000000000199e+01,1.068169391790708828e-01
3.728000000000000114e+01,9.868804006719483768e-02
3.732000000000000028e+01,1.048634459766526333e-01
3.735999999999999943e+01,1.090989158760962280e-01
3.739999999999999858e+01,8.642196112691062637e-02
3.743999999999999773e+01,9.065677287830993525e-02
3.747999999999999687e+01,9.586105720198279112e-02
3.752000000000000313e+01,9.112450215991116376e-02
3.756000000000000227e+01,7.959897251467441814e-02
3.760000000000000142e+01,9.862196949064865048e-02
3.764000000000000057e+01,1.079465711365009545e-01
3.767999999999999972e+01,7.581165178574171548e-02
3.771999999999999886e+01,1.033194104602828539e-01
3.775999999999999801e+01,1.041571739482141934e-01
3.779999999999999716e+01,9.578143503513650292e-02
3.784000000000000341e+01,1.181966594920908359e-01
3.788000000000000256e+01,1.377021110731947717e-01
3.792000000000000171e+01,1.596317164428445456e-01
3.796000000000000085e+01,1.517394472897020397e-01
3.800000000000000000e+01,1.678494947629818046e-01
3.803999999999999915e+01,1.781403437755866570e-01
3.807999999999999829e+01,2.020080976925101857e-01
3.811999999999999744e+01,2.426046212763315890e-01
3.815999999999999659e+01,2.696234967951057215e-01
3.820000000000000284e+01,3.218569334077532873e-01
3.824000000000000199e+01,3.922738403350417569e-01
3.828000000000000114e+01,4.423244548826069100e-01
3.832000000000000028e+01,5.491082951523759137e-01
3.835999999999999943e+01,7.169894825190481491e-01
3.839999999999999858e+01,8.448658131028442542e-01
3.843999999999999773e+01,9.378287622457364137e-01
3.847999999999999687e+01,1.000000000000000000e+00
3.852000000000000313e+01,9.336716409997927180e-01
3.856000000000000227e+01,8.525533530330794418e-01
3.860000000000000142e+01,7.006388781909610453e-01
3.864000000000000057e+01,5.867888578129208943e-01
3.867999999999999972e+01,4.499055562191540125e-01
3.871999999999999886e+01,3.699979073806763386e-01
3.875999999999999801e+01,2.932417152904061575e-01
3.879999999999999716e+01,2.555197732381749853e-01
3.884000000000000341e+01,2.173125132399220671e-01
3.888000000000000256e+01,2.161998878424479242e-01
3.892000000000000171e+01,1.745974714411093198e-01
3.896000000000000085e+01,1.853641180953993772e-01
3.900000000000000000e+01,1.764917826164292824e-01
3.903999999999999915e+01,1.758623646540356245e-01
3.907999999999999829e+01,1.723231009477763920e-01
3.911999999999999744e+01,1.634494758444767493e-01
3.915999999999999659e+01,1.579697345224702620e-01
3.920000000000000284e+01,1.282444237964766587e-01
3.924000000000000199e+01,1.399778496144907236e-01
3.928000000000000114e+01,1.267383472033777048e-01
3.932000000000000028e+01,1.241662585305452066e-01
3.935999999999999943e+01,1.179569531440379515e-01
3.939999999999999858e+01,1.379319412730852790e-01
3.943999999999999773e+01,1.382679205506001929e-01
3.947999999999999687e+01,1.533929763318697126e-01
3.952000000000000313e+01,1.774882744497818798e-01
3.956000000000000227e+01,1.555173622851342419e-01
3.960000000000000142e+01,1.885824388598387746e-01
3.964000000000000057e+01,1.862491584807758060e-01
3.967999999999999972e+01,1.984624911383742196e-01
3.971999999999999886e+01,2.244950804364278241e-01
3.975999999999999801e+01,2.274943229375409326e-01
3.979999999999999716e+01,2.525561621836607817e-01
3.984000000000000341e+01,2.730109502792035792e-01
3.988000000000000256e+01,3.128613657152202188e-01
3.992000000000000171e+01,3.641065124227819139e-01
3.996000000000000085e+01,3.966824239923676387e-01
4.000000000000000000e+01,4.598067164471341117e-01
4.003999999999999915e+01,5.142022731254446422e-01
4.007999999999999829e+01,6.122385772419689509e-01
4.011999999999999744e+01,6.981518222102323090e-01
4.015999999999999659e+01,7.573949262558555828e-01
4.020000000000000284e+01,8.316695144068486645e-01
4.024000000000000199e+01,8.957606467021718144e-01
4.028000000000000114e+01,9.288175069844197829e-01
4.032000000000000028e+01,9.075647658719458999e-01
4.035999999999999943e+01,9.299527551951488613e-01
4.039999999999999858e+01,8.442069446876143690e-01
4.043999999999999773e+01,7.662190640391236540e-01
4.047999999999999687e+01,6.947768542086222299e-01
4.052000000000000313e+01,6.070898884593122213e-01
4.056000000000000227e+01,5.419503759501140827e-01
4.060000000000000142e+01,4.629906158884802836e-01
4.064000000000000057e+01,3.971227026345512390e-01
4.067999999999999972e+01,3.610757750066550531e-01
4.071999999999999886e+01,3.252707692401192174e-01
4.075999999999999801e+01,2.681295152102655677e-01
4.079999999999999716e+01,2.475978765475180254e-01
4.084000000000000341e+01,2.217317720435749984e-01
4.088000000000000256e+01,2.070178891943408594e-01
4.092000000000000171e+01,1.767865801042317608e-01
4.096000000000000085e+01,1.918931242727607012e-01
4.100000000000000000e+01,1.720861315486196808e-01
4.103999999999999915e+01,1.682803772119340624e-01
4.107999999999999829e+01,1.729598678386231325e-01
4.111999999999999744e+01,1.449078761876575749e-01
4.115999999999999659e+01,1.418278145670372747e-01
4.120000000000000284e+01,1.423839641745082707e-01
4.124000000000000199e+01,1.259679601750890443e-01
4.128000000000000114e+01,1.216739588307366865e-01
4.132000000000000028e+01,1.105907545634382400e-01
4.135999999999999943e+01,1.184181851212134789e-01
4.139999999999999858e+01,1.172743459963581925e-01
4.143999999999999773e+01,1.100686506290275701e-01
4.147999999999999687e+01,1.079538574217959457e-01
4.152000000000000313e+01,1.165063443614836464e-01
4.156000000000000227e+01,9.669144610887807356e-02
4.160000000000000142e+01,9.093814165926140947e-02
4.164000000000000057e+01,8.760876510734334766e-02
4.167999999999999972e+01,9.543156163145741222e-02
4.171999999999999886e+01,8.725198069117154342e-02
4.175999999999999801e+01,8.586044416541646629e-02
4.179999999999999716e+01,7.816457821435741915e-02
4.184000000000000341e+01,7.434733595087231195e-02
4.188000000000000256e+01,7.368136097875517543e-02
4.192000000000000171e+01,6.865065987392526825e-02
4.196000000000000085e+01,6.483161062320279278e-02
4.200000000000000000e+01,6.125440550795762523e-02
4.203999999999999915e+01,5.791904209925588520e-02
4.207999999999999829e+01,5.918964177179739106e-02
4.211999999999999744e+01,6.627845870876870882e-02
4.215999999999999659e+01,7.530626932245067240e-02
4.220000000000000284e+01,6.396754952089292456e-02
4.224000000000000199e+01,5.699233176241899623e-02
4.228000000000000114e+01,6.601827709445136361e-02
4.232000000000000028e+01,5.758710059353162186e-02
4.235999999999999943e+01,5.133735694707738939e-02
4.239999999999999858e+01,4.072285802070431393e-02
4.243999999999999773e+01,4.780667172607078186e-02
4.247999999999999687e+01,4.640405281244119190e-02
4.252000000000000313e+01,5.009227290663077758e-02
4.256000000000000227e+01,5.208269255183117785e-02
4.260000000000000142e+01,5.164795535183620834e-02
4.264000000000000057e+01,6.188043028861308498e-02
4.267999999999999972e+01,5.465576153203326876e-02
4.271999999999999886e+01,4.064180483982295089e-02
4.275999999999999801e+01,3.414318580606975212e-02
4.279999999999999716e+01,5.116168928182970171e-02
4.284000000000000341e+01,5.193529596061812609e-02
4.288000000000000256e+01,6.701287003893666161e-02
4.292000000000000171e+01,3.747873773879730613e-02
4.296000000000000085e+01,5.885871766635807772e-02
4.300000000000000000e+01,4.968916305819060658e-02
4.303999999999999915e+01,5.433866348896967957e-02
4.307999999999999829e+01,4.298570387159823120e-02
4.311999999999999744e+01,5.369513939772473099e-02
4.315999999999999659e+01,3.021826083602627624e-02
4.320000000000000284e+01,3.656221487752899652e-02
4.324000000000000199e+01,4.266303511271174465e-02
4.328000000000000114e+01,4.755091382294433788e-02
4.332000000000000028e+01,4.686172477565937744e-02
4.335999999999999943e+01,4.035301421949882839e-02
4.339999999999999858e+01,4.475392097279116271e-02
4.343999999999999773e+01,5.254845161145577787e-02
4.347999999999999687e+01,4.579520584717596682e-02
4.352000000000000313e+01,5.189118068494031483e-02
4.356000000000000227e+01,5.313742715885624163e-02
4.360000000000000142e+01,4.638207564847676712e-02
4.364000000000000057e+01,5.538535332242899151e-02
4.367999999999999972e+01,6.050870063542763966e-02
4.371999999999999886e+01,5.835779664460168797e-02
4.375999999999999801e+01,5.426656801434715655e-02
4.379999999999999716e+01,5.769061389026984565e-02
4.384000000000000341e+01,5.820452497920006185e-02
4.388000000000000256e+01,5.459604224008345746e-02
4.392000000000000171e+01,6.189714523427978371e-02
4.396000000000000085e+01,6.289378764074481099e-02
4.400000000000000000e+01,4.570585223176411999e-02
4.403999999999999915e+01,5.373212329231635831e-02
4.407999999999999829e+01,5.230205928682252897e-02
4.411999999999999744e+01,5.499293184209789326e-02
4.415999999999999659e+01,7.077543745889998406e-02
4.420000000000000284e+01,8.582984833012181902e-02
4.424000000000000199e+01,8.076005623290229141e-02
4.428000000000000114e+01,8.684227933101520969e-02
4.432000000000000028e+01,1.171688866064277135e-01
4.435999999999999943e+01,1.135515582484241531e-01
4.439999999999999858e+01,1.176919192850142959e-01
4.443999999999999773e+01,1.160126932315152237e-01
4.447999999999999687e+01,1.383353903171561927e-01
4.452000000000000313e+01,1.587177166136257978e-01
4.456000000000000227e+01,1.715832892762359507e-01
4.460000000000000142e+01,1.892971233196815983e-01
4.464000000000000057e+01,2.094347030907878771e-01
4.467999999999999972e+01,2.220555219412332637e-01
4.471999999999999886e+01,2.426764620772256797e-01
4.475999999999999801e+01,2.594174062710508655e-01
4.479999999999999716e+01,2.553067595240887111e-01
4.484000000000000341e+01,2.400425723043688730e-01
4.488000000000000256e+01,2.184738686314394718e-01
4.492000000000000171e+01,2.104816545151420026e-01
4.496000000000000085e+01,1.838199016441386113e-01
4.500000000000000000e+01,1.525507842900926669e-01
4.503999999999999915e+01,1.418892375561758012e-01
4.507999999999999829e+01,1.210439410655946152e-01
4.511999999999999744e+01,9.995539660880305155e-02
4.515999999999999659e+01,9.608009697140176830e-02
4.520000000000000284e+01,9.074928789780190019e-02
4.524000000000000199e+01,8.347806431422150064e-02
4.528000000000000114e+01,7.960035288505666606e-02
4.532000000000000028e+01,6.578132844804862600e-02
4.535999999999999943e+01,5.244639543849942409e-02
4.539999999999999858e+01,4.808134771231832583e-02
4.543999999999999773e+01,4.298812994360787926e-02
4.547999999999999687e+01,5.995716401129887185e-02
4.552000000000000313e+01,4.395199729618876755e-02
4.556000000000000227e+01,4.540250243355464788e-02
4.560000000000000142e+01,4.951914632659319693e-02
4.564000000000000057e+01,5.048309480819223455e-02
4.567999999999999972e+01,4.805189412699394785e-02
4.571999999999999886e+01,4.004347995224766255e-02
4.575999999999999801e+01,4.221718581258544767e-02
4.579999999999999716e+01,4.851172621847113509e-02
4.584000000000000341e+01,3.298480724159320865e-02
4.588000000000000256e+01,4.024746977905057504e-02
4.592000000000000171e+01,3.587162361768850283e-02
4.596000000000000085e+01,4.652691179522302350e-02
4.600000000000000000e+01,4.069465996758860060e-02
4.603999999999999915e+01,4.819637836401446940e-02
4.607999999999999829e+01,4.502938363558199597e-02
4.611999999999999744e+01,3.555779715699073501e-02
4.615999999999999659e+01,2.899476675142242596e-02
4.620000000000000284e+01,4.619110371841502610e-02
4.624000000000000199e+01,4.011124907876112422e-02
4.628000000000000114e+01,3.451543000108767828e-02
4.632000000000000028e+01,3.231305992554999590e-02
4.635999999999999943e+01,3.374658774563829566e-02
4.639999999999999858e+01,3.226982532696835021e-02
4.643999999999999773e+01,3.976288503938662372e-02
4.647999999999999687e+01,4.531545494487543985e-02
4.652000000000000313e+01,2.734936491875664469e-02
4.656000000000000227e+01,3.702184156357964107e-02
4.660000000000000142e+01,3.432841425043565292e-02
4.664000000000000057e+01,4.642362866188892018e-02
4.667999999999999972e+01,4.203126177629794291e-02
4.671999999999999886e+01,4.200212489320073739e-02
4.675999999999999801e+01,3.324384417276245174e-02
4.679999999999999716e+01,3.248555843331157877e-02
4.684000000000000341e+01,4.021216789076247772e-02
4.688000000000000256e+01,5.084728970042719232e-02
4.692000000000000171e+01,3.844862993399411621e-02
4.696000000000000085e+01,3.308015014311670859e-02
4.700000000000000000e+01,4.468235211824888448e-02
4.703999999999999915e+01,4.634313664138272476e-02
4.707999999999999829e+01,4.557849227873113362e-02
4.711999999999999744e+01,4.796479701711441057e-02
4.715999999999999659e+01,4.453134949790739372e-02
4.720000000000000284e+01,5.297709382913481924e-02
4.724000000000000199e+01,4.348051492369972570e-02
4.728000000000000114e+01,3.713487540356404104e-02
4.732000000000000028e+01,4.679009292827092381e-02
4.735999999999999943e+01,3.001718364467056629e-02
4.739999999999999858e+01,3.627621489834356727e-02
4.743999999999999773e+01,4.083714937309890908e-02
4.747999999999999687e+01,5.242823224727000131e-02
4.752000000000000313e+01,5.868444364829441401e-02
4.756000000000000227e+01,4.287663989997603231e-02
4.760000000000000142e+01,4.525173809578004330e-02
4.764000000000000057e+01,4.229195753163581678e-02
4.767999999999999972e+01,5.751507405374627069e-02
4.771999999999999886e+01,5.455338686956405503e-02
4.775999999999999801e+01,4.383230041439118568e-02
4.779999999999999716e+01,5.323371433806427938e-02
4.784000000000000341e+01,5.245121090863811425e-02
4.788000000000000256e+01,4.827342472505337378e-02
4.792000000000000171e+01,4.918614964321944838e-02
4.796000000000000085e+01,4.864319752875197883e-02
4.800000000000000000e+01,5.731242413937723962e-02
4.803999999999999915e+01,3.834122603769950233e-02
4.807999999999999829e+01,4.361418379354033842e-02
4.811999999999999744e+01,3.870320719374508583e-02
4.815999999999999659e+01,5.197509853299844135e-02
4.820000000000000284e+01,4.584990040663256688e-02
4.824000000000000199e+01,4.263313204872998946e-02
4.828000000000000114e+01,3.408144606793769155e-02
4.832000000000000028e+01,4.783429079166821862e-02
4.835999999999999943e+01,4.267493897889235860e-02
4.839999999999999858e+01,3.678723738248299013e-02
4.843999999999999773e+01,3.889943118077363732e-02
4.847999999999999687e+01,3.276727934241627227e-02
4.852000000000000313e+01,3.608972597543578381e-02
4.856000000000000227e+01,3.286498137090828470e-02
4.860000000000000142e+01,4.394385682837170098e-02
4.864000000000000057e+01,4.071709387284959403e-02
4.867999999999999972e+01,2.754881387904165035e-02
4.871999999999999886e+01,2.286531492224496212e-02
4.875999999999999801e+01,2.084776283534758509e-02
4.879999999999999716e+01,3.677058850213329316e-02
4.884000000000000341e+01,2.408313558824286618e-02
4.888000000000000256e+01,2.788134763562328741e-02
4.892000000000000171e+01,3.701246138383267048e-02
4.896000000000000085e+01,4.444538605363845124e-02
4.900000000000000000e+01,2.981420813248317550e-02
4.903999999999999915e+01,3.433565000352845065e-02
4.907999999999999829e+01,4.418998385966720760e-02
4.911999999999999744e+01,3.416226973986027232e-02
4.915999999999999659e+01,4.255981415818005376e-02
4.920000000000000284e+01,4.174316392934637743e-02
4.924000000000000199e+01,4.359243142320590875e-02
4.928000000000000114e+01,4.713780892112838516e-02
4.932000000000000028e+01,4.001427655055136978e-02
4.935999999999999943e+01,5.131599057343191883e-02
4.939999999999999858e+01,3.764416184692386674e-02
4.943999999999999773e+01,5.282298152024162557e-02
4.947999999999999687e+01,5.563572235235588609e-02
4.952000000000000313e+01,3.929374488645830804e-02
4.956000000000000227e+01,4.695338208510310002e-02
4.960000000000000142e+01,4.467144637998380491e-02
4.964000000000000057e+01,4.820727129973247788e-02
4.967999999999999972e+01,5.513634119117433868e-02
4.971999999999999886e+01,5.721530866295650858e-02
4.975999999999999801e+01,8.135626807521913195e-02
4.979999999999999716e+01,6.791619168270210394e-02
4.984000000000000341e+01,7.532584576067748172e-02
4.988000000000000256e+01,6.867223745114230116e-02
4.992000000000000171e+01,7.486746111423686623e-02
4.996000000000000085e+01,6.481735563013639456e-02
5.000000000000000000e+01,7.222265238685564304e-02
5.003999999999999915e+01,6.459487175063265141e-02
5.007999999999999829e+01,6.375463031070172093e-02
5.011999999999999744e+01,6.048877538601359072e-02
5.015999999999999659e+01,5.891897702884397320e-02
5.020000000000000284e+01,4.837737462359893020e-02
5.024000000000000199e+01,4.801762021284796539e-02
5.028000000000000114e+01,5.832461401250527838e-02
5.032000000000000028e+01,5.190135415971480759e-02
5.035999999999999943e+01,3.844589112250637597e-02
5.039999999999999858e+01,3.856658487799383833e-02
5.043999999999999773e+01,4.789930919360974038e-02
5.047999999999999687e+01,5.165453097255068987e-02
5.052000000000000313e+01,4.692283191679375021e-02
5.056000000000000227e+01,3.637117414407005367e-02
5.060000000000000142e+01,3.842585572967671670e-02
5.064000000000000057e+01,4.314637002529220222e-02
5.067999999999999972e+01,3.550073261168894267e-02
5.071999999999999886e+01,3.585485214355677713e-02
5.075999999999999801e+01,4.372382354711366881e-02
5.079999999999999716e+01,4.940959149646214493e-02
5.084000000000000341e+01,3.254624247904482071e-02
5.088000000000000256e+01,3.338069358832680689e-02
5.092000000000000171e+01,4.973088049355748469e-02
5.096000000000000085e+01,3.771311140704264320e-02
5.100000000000000000e+01,2.787625052528378694e-02
5.103999999999999915e+01,4.664748956357300802e-02
5.107999999999999829e+01,4.189979177179701392e-02
5.111999999999999744e+01,3.521132241676597913e-02
5.115999999999999659e+01,4.088670709256742725e-02
5.120000000000000284e+01,3.322610319331386480e-02
5.124000000000000199e+01,4.083876433611424023e-02
5.128000000000000114e+01,3.002395427508603928e-02
5.132000000000000028e+01,3.860407687945355271e-02
5.135999999999999943e+01,3.409065251545490699e-02
5.139999999999999858e+01,4.703254537959152687e-02
5.143999999999999773e+01,3.572812558598607163e-02
5.147999999999999687e+01,3.024135468629196230e-02
5.152000000000000313e+01,3.833067256914621246e-02
5.156000000000000227e+01,3.017456414745182947e-02
5.160000000000000142e+01,3.195776981407680295e-02
5.164000000000000057e+01,4.052841994857409036e-02
5.167999999999999972e+01,5.006768038383162950e-02
5.171999999999999886e+01,2.808707148608756074e-02
5.175999999999999801e+01,3.616922672212694034e-02
5.179999999999999716e+01,3.576438339758557933e-02
5.184000000000000341e+01,2.929705230777054220e-02
5.188000000000000256e+01,3.834539871949202428e-02
5.192000000000000171e+01,4.787743821352256207e-02
5.196000000000000085e+01,3.219332818397476620e-02
5.200000000000000000e+01,4.002578200915697659e-02
5.203999999999999915e+01,3.427974492924947686e-02
5.207999999999999829e+01,2.780513460379522780e-02
5.211999999999999744e+01,3.199716075779269336e-02
5.215999999999999659e+01,3.279364426171073321e-02
5.220000000000000284e+01,3.989263558357915990e-02
5.224000000000000199e+01,4.408098204234872641e-02
5.228000000000000114e+01,3.178140715333641758e-02
5.232000000000000028e+01,3.766444759425339323e-02
5.235999999999999943e+01,4.475850836647950193e-02
5.239999999999999858e+01,3.657689711624273476e-02
5.243999999999999773e+01,4.512318597458917641e-02
5.247999999999999687e+01,4.663714291502409071e-02
5.252000000000000313e+01,3.651219038255602151e-02
5.256000000000000227e+01,4.553964389611053765e-02
5.260000000000000142e+01,3.201787356981022903e-02
5.264000000000000057e+01,3.037496475894216341e-02
5.267999999999999972e+01,3.988356106730023276e-02
5.271999999999999886e+01,3.629852782354146823e-02
5.275999999999999801e+01,3.683390649084250512e-02
5.279999999999999716e+01,3.906518141602867422e-02
5.284000000000000341e+01,4.008293430107690014e-02
5.288000000000000256e+01,5.031256958128930978e-02
5.292000000000000171e+01,4.720611184229168283e-02
5.296000000000000085e+01,4.143141684181003703e-02
5.300000000000000000e+01,2.862435834727700135e-02
5.303999999999999915e+01,2.915084501338239403e-02
5.307999999999999829e+01,4.931460879421863119e-02
5.311999999999999744e+01,4.983853302814924419e-02
5.315999999999999659e+01,4.599704859895805548e-02
5.320000000000000284e+01,4.166937423649672012e-02
5.324000000000000199e+01,4.267433925000956030e-02
5.328000000000000114e+01,4.125349889299188139e-02
5.332000000000000028e+01,3.255782428802794087e-02
5.335999999999999943e+01,3.380135689829437406e-02
5.339999999999999858e+01,4.086242181364782566e-02
5.343999999999999773e+01,4.670992825485580091e-02
5.347999999999999687e+01,4.552504205480628618e-02
5.352000000000000313e+01,4.142943326577495228e-02
5.356000000000000227e+01,2.278543598247172175e-02
5.360000000000000142e+01,4.196253341956617672e-02
5.364000000000000057e+01,4.368182163543190416e-02
5.367999999999999972e+01,4.394508548112503743e-02
5.371999999999999886e+01,4.323722517255993575e-02
5.375999999999999801e+01,4.034598166868227226e-02
5.379999999999999716e+01,4.060528163388820583e-02
5.384000000000000341e+01,4.450002528409207486e-02
5.388000000000000256e+01,4.887834299884687844e-02
5.392000000000000171e+01,4.234502019528647160e-02
5.396000000000000085e+01,5.278195652324754739e-02
5.400000000000000000e+01,5.958078714774842077e-02
5.403999999999999915e+01,4.504256310289670578e-02
5.407999999999999829e+01,3.389731684701581538e-02
5.411999999999999744e+01,3.584309884813552394e-02
5.415999999999999659e+01,4.821294213065698692e-02
5.420000000000000284e+01,3.779101309354595400e-02
5.424000000000000199e+01,4.046010502663406616e-02
5.428000000000000114e+01,3.124772929130603324e-02
5.432000000000000028e+01,4.506687388769710367e-02
5.435999999999999943e+01,4.361022744386714584e-02
5.439999999999999858e+01,4.748614993692999720e-02
5.443999999999999773e+01,4.166265694765820121e-02
5.447999999999999687e+01,3.341328571984063245e-02
5.452000000000000313e+01,4.092188300635027365e-02
5.456000000000000227e+01,3.945841149099600653e-02
5.460000000000000142e+01,3.823601899695946299e-02
5.464000000000000057e+01,3.895186235227546950e-02
5.467999999999999972e+01,4.257574441770649309e-02
5.471999999999999886e+01,4.062186647947554907e-02
5.475999999999999801e+01,4.109111974864377431e-02
5.479999999999999716e+01,4.107408592718823914e-02
5.484000000000000341e+01,3.960095729647872265e-02
5.488000000000000256e+01,5.703764251120505696e-02
5.492000000000000171e+01,4.925799846124884196e-02
5.496000000000000085e+01,4.147696024978166085e-02
5.500000000000000000e+01,3.999825983089609627e-02
5.503999999999999915e+01,4.070022229444878598e-02
5.507999999999999829e+01,3.776401347332761227e-02
5.511999999999999744e+01,5.276779863434282597e-02
5.515999999999999659e+01,3.649395689647028790e-02
5.520000000000000284e+01,3.743275031559418348e-02
5.524000000000000199e+01,3.618807066885344065e-02
5.528000000000000114e+01,3.954855255518875679e-02
5.532000000000000028e+01,5.745469776505403303e-02
5.535999999999999943e+01,3.923417748288048068e-02
5.539999999999999858e+01,3.846873153545823237e-02
5.543999999999999773e+01,3.770186227931902889e-02
5.547999999999999687e+01,5.245045192067072926e-02
5.552000000000000313e+01,4.755905627908641603e-02
5.556000000000000227e+01,4.727280516804129029e-02
5.560000000000000142e+01,4.916718293436061343e-02
5.564000000000000057e+01,3.530078928972785191e-02
5.567999999999999972e+01,5.222427571063458646e-02
5.571999999999999886e+01,5.338698586272146163e-02
5.575999999999999801e+01,4.242568715341607510e-02
5.579999999999999716e+01,5.522317287255001927e-02
5.584000000000000341e+01,4.644104329788449614e-02
5.588000000000000256e+01,5.414415362106787810e-02
5.592000000000000171e+01,5.529962578287771907e-02
5.596000000000000085e+01,5.766589967195108468e-02
5.600000000000000000e+01,4.815060144845323409e-02
5.603999999999999915e+01,5.875730324343028665e-02
5.607999999999999829e+01,5.384565823160710613e-02
5.611999999999999744e+01,5.814569887130707077e-02
5.615999999999999659e+01,4.668493652391499799e-02
5.620000000000000284e+01,5.122449199805302611e-02
5.624000000000000199e+01,5.964179674358262295e-02
5.628000000000000114e+01,5.545015840673184898e-02
5.632000000000000028e+01,5.440891051613275242e-02
5.635999999999999943e+01,6.427649296042248217e-02
5.639999999999999858e+01,6.589924883916387088e-02
5.643999999999999773e+01,7.309690110159638987e-02
5.647999999999999687e+01,6.429127962304205524e-02
5.652000000000000313e+01,5.839358512364607734e-02
5.656000000000000227e+01,7.625462890294650020e-02
5.660000000000000142e+01,6.041344511749997120e-02
5.664000000000000057e+01,8.118091484135889213e-02
5.667999999999999972e+01,8.570264735713771509e-02
5.671999999999999886e+01,9.167758677286119706e-02
5.675999999999999801e+01,7.510304973961050290e-02
5.679999999999999716e+01,8.131743112175675303e-02
5.684000000000000341e+01,7.589264070614529234e-02
5.688000000000000256e+01,7.143614482989489589e-02
5.692000000000000171e+01,6.625078180710312903e-02
5.696000000000000085e+01,6.251861111065300236e-02
5.700000000000000000e+01,7.672632023644883337e-02
5.703999999999999915e+01,7.662788087315268448e-02
5.707999999999999829e+01,6.998173290940160052e-02
5.711999999999999744e+01,6.818308607019406276e-02
5.715999999999999659e+01,6.274614164175312814e-02
5.720000000000000284e+01,6.167179083513976007e-02
5.724000000000000199e+01,6.011100477293841726e-02
5.728000000000000114e+01,6.460996673166574666e-02
5.732000000000000028e+01,6.450081609572783092e-02
5.735999999999999943e+01,6.681463878648948029e-02
5.739999999999999858e+01,6.645995460411097122e-02
5.743999999999999773e+01,6.586127434389937862e-02
5.747999999999999687e+01,5.362338342298854366e-02
5.752000000000000313e+01,6.053759736030427108e-02
5.756000000000000227e+01,6.090407354995894251e-02
5.760000000000000142e+01,6.296615452543792568e-02
5.764000000000000057e+01,5.993520082993281095e-02
5.767999999999999972e+01,7.193466979570928288e-02
5.771999999999999886e+01,5.192900244355983658e-02
5.775999999999999801e+01,6.125838091784565481e-02
5.779999999999999716e+01,7.058619277631794642e-02
5.784000000000000341e+01,7.288134723974414031e-02
5.788000000000000256e+01,7.299286832767230837e-02
5.792000000000000171e+01,6.558682451783859335e-02
5.796000000000000085e+01,7.199892975462912625e-02
5.800000000000000000e+01,7.671229697396823866e-02
5.803999999999999915e+01,6.251287985481161769e-02
5.807999999999999829e+01,7.061740078032099910e-02
5.811999999999999744e+01,7.314395524279199146e-02
5.815999999999999659e+01,7.057744345813890541e-02
5.820000000000000284e+01,6.752443812348569996e-02
5.824000000000000199e+01,7.416789235171032668e-02
5.828000000000000114e+01,7.499091907873711715e-02
5.832000000000000028e+01,8.526794918834998405e-02
5.835999999999999943e+01,7.614727288314823705e-02
5.839999999999999858e+01,7.551078981296849291e-02
5.843999999999999773e+01,8.214624093675647332e-02
5.847999999999999687e+01,8.441596034922202452e-02
5.852000000000000313e+01,7.504640594870849724e-02
5.856000000000000227e+01,7.100916787596843471e-02
5.860000000000000142e+01,7.642591618327761183e-02
5.864000000000000057e+01,6.050533049384253237e-02
5.867999999999999972e+01,6.858580567203442779e-02
5.871999999999999886e+01,6.357228695803351926e-02
5.875999999999999801e+01,7.116461209985960878e-02
5.879999999999999716e+01,6.663274378132158504e-02
5.884000000000000341e+01,7.228220123650198892e-02
5.888000000000000256e+01,6.411030111648199914e-02
5.892000000000000171e+01,5.787637694989360843e-02
5.896000000000000085e+01,6.133886862537395873e-02
5.900000000000000000e+01,6.334501288248098327e-02
5.903999999999999915e+01,6.316745332500857402e-02
5.907999999999999829e+01,6.177599281371928819e-02
5.911999999999999744e+01,5.068483263483617579e-02
5.915999999999999659e+01,5.001743012062475485e-02
5.920000000000000284e+01,6.413790664578486456e-02
5.924000000000000199e+01,5.692101274019326085e-02
5.928000000000000114e+01,5.503639144156597524e-02
5.932000000000000028e+01,4.902843874642971722e-02
5.935999999999999943e+01,4.859520512281417792e-02
5.939999999999999858e+01,4.985746698300013574e-02
5.943999999999999773e+01,3.802569123018414987e-02
5.947999999999999687e+01,3.710255635541742647e-02
5.952000000000000313e+01,4.854276786431069302e-02
5.956000000000000227e+01,3.985784612310187131e-02
5.960000000000000142e+01,3.602027491253851493e-02
5.964000000000000057e+01,3.945456502792767800e-02
5.967999999999999972e+01,4.725129817124645165e-02
5.971999999999999886e+01,3.783230421781683117e-02
5.975999999999999801e+01,3.738232356050691374e-02
5.979999999999999716e+01,4.080987599947689948e-02
5.984000000000000341e+01,3.647729562943652359e-02
5.988000000000000256e+01,3.893165936689747114e-02
5.992000000000000171e+01,3.799000924111409216e-02
5.996000000000000085e+01,3.534950208012114375e-02
