2.003999999999999915e+01,2.987676896558879788e-02
2.007999999999999829e+01,4.178524222948296063e-02
2.012000000000000099e+01,3.994001227829969969e-02
2.016000000000000014e+01,4.065422629466838855e-02
2.019999999999999929e+01,3.539813195365730525e-02
2.023999999999999844e+01,3.504716023667216879e-02
2.028000000000000114e+01,3.181791202286986947e-02
2.032000000000000028e+01,3.807852470183641785e-02
2.035999999999999943e+01,3.047880375313795701e-02
2.039999999999999858e+01,3.983247289601241081e-02
2.044000000000000128e+01,4.033703422515897558e-02
2.048000000000000043e+01,4.233480929049068808e-02
2.051999999999999957e+01,3.068548881656348731e-02
2.055999999999999872e+01,3.908158745267673734e-02
2.060000000000000142e+01,2.775314018841704838e-02
2.064000000000000057e+01,3.497740278392221652e-02
2.067999999999999972e+01,3.388565847090576483e-02
2.071999999999999886e+01,3.012886580214386642e-02
2.076000000000000156e+01,3.127717728378699713e-02
2.080000000000000071e+01,3.519815376881602759e-02
2.083999999999999986e+01,4.274476892657179394e-02
2.087999999999999901e+01,4.346807647874698088e-02
2.092000000000000171e+01,2.979792107709553287e-02
2.096000000000000085e+01,3.148180757786981504e-02
2.100000000000000000e+01,2.836819804959302138e-02
2.103999999999999915e+01,2.717426990802707110e-02
2.107999999999999829e+01,4.016153865645918225e-02
2.112000000000000099e+01,2.766666117077503859e-02
2.116000000000000014e+01,3.948205693135742322e-02
2.119999999999999929e+01,3.477154206480738419e-02
2.123999999999999844e+01,3.230056713862514139e-02
2.128000000000000114e+01,3.697373750149689220e-02
2.132000000000000028e+01,2.693356504116865835e-02
2.135999999999999943e+01,2.616997275377018137e-02
2.139999999999999858e+01,2.892537735813112063e-02
2.144000000000000128e+01,2.837597671009541370e-02
2.148000000000000043e+01,3.614355499515913700e-02
2.151999999999999957e+01,2.162762942458579946e-02
2.155999999999999872e+01,2.683722177896296843e-02
2.160000000000000142e+01,3.449958505687504562e-02
2.164000000000000057e+01,3.043400695956495830e-02
2.167999999999999972e+01,3.042052523817266596e-02
2.171999999999999886e+01,2.251748720621112726e-02
2.176000000000000156e+01,3.188765660909412963e-02
2.180000000000000071e+01,3.528746081268648027e-02
2.183999999999999986e+01,3.442284857671745052e-02
2.187999999999999901e+01,3.110639054721488217e-02
2.192000000000000171e+01,3.077580150435803991e-02
2.196000000000000085e+01,2.234240385204799145e-02
2.200000000000000000e+01,3.885898092179282393e-02
2.203999999999999915e+01,2.637485682546996529e-02
2.207999999999999829e+01,3.521556047495515152e-02
2.212000000000000099e+01,2.593099251873094702e-02
2.216000000000000014e+01,2.709581706376536919e-02
2.219999999999999929e+01,3.337893837408249798e-02
2.223999999999999844e+01,2.590828115378808125e-02
2.228000000000000114e+01,2.526186803745780751e-02
2.232000000000000028e+01,3.048010062735670433e-02
2.235999999999999943e+01,1.512074970039268933e-02
2.239999999999999858e+01,3.398746339298115010e-02
2.244000000000000128e+01,2.491968057200987310e-02
2.248000000000000043e+01,2.854033849618510532e-02
2.251999999999999957e+01,2.928264034486823333e-02
2.255999999999999872e+01,3.429025107901559344e-02
2.260000000000000142e+01,2.629042369721154224e-02
2.264000000000000057e+01,3.311146910233427054e-02
2.267999999999999972e+01,3.502833690810107370e-02
2.271999999999999886e+01,2.809601590041731212e-02
2.276000000000000156e+01,2.009790235803050190e-02
2.280000000000000071e+01,2.510808385130381543e-02
2.283999999999999986e+01,2.681341035550860452e-02
2.287999999999999901e+01,2.564036799479153805e-02
2.292000000000000171e+01,2.478761193706180074e-02
2.296000000000000085e+01,2.446838453386871240e-02
2.300000000000000000e+01,3.225283829136273844e-02
2.303999999999999915e+01,3.172120129851686149e-02
2.307999999999999829e+01,3.065686983407875724e-02
2.312000000000000099e+01,3.044592699888193713e-02
2.316000000000000014e+01,1.765401369825926256e-02
2.319999999999999929e+01,2.821270419377990349e-02
2.323999999999999844e+01,2.757650590366055726e-02
2.328000000000000114e+01,2.672747169560582906e-02
2.332000000000000028e+01,3.120993823609334930e-02
2.335999999999999943e+01,1.522140761982222756e-02
2.339999999999999858e+01,2.247685180815704731e-02
2.344000000000000128e+01,2.312214121645144588e-02
2.348000000000000043e+01,3.187109473285973382e-02
2.351999999999999957e+01,3.155758724226501166e-02
2.355999999999999872e+01,2.335445807290369852e-02
2.360000000000000142e+01,1.387226275423925070e-02
2.364000000000000057e+01,2.550159598792270041e-02
2.367999999999999972e+01,1.751289578685399223e-02
2.371999999999999886e+01,1.976028889358399238e-02
2.376000000000000156e+01,2.008887884902826881e-02
2.380000000000000071e+01,2.223043025258897645e-02
2.383999999999999986e+01,2.181344434497704821e-02
2.387999999999999901e+01,1.926440725033904885e-02
2.392000000000000171e+01,1.863494922697265729e-02
2.396000000000000085e+01,1.747276546896317853e-02
2.400000000000000000e+01,2.356125225505813561e-02
2.403999999999999915e+01,2.165347842351476176e-02
2.407999999999999829e+01,2.774272549807026492e-02
2.412000000000000099e+01,2.210394309244210348e-02
2.416000000000000014e+01,2.105027838926314121e-02
2.419999999999999929e+01,2.159631715112576844e-02
2.423999999999999844e+01,1.691825723387400948e-02
2.428000000000000114e+01,2.183653941196072798e-02
2.432000000000000028e+01,2.920749588233437916e-02
2.435999999999999943e+01,2.954177734337464639e-02
2.439999999999999858e+01,1.836126314949395114e-02
2.444000000000000128e+01,2.370750797616763203e-02
2.448000000000000043e+01,2.041774523588608253e-02
2.451999999999999957e+01,2.875013190432932839e-02
2.455999999999999872e+01,2.439487648437633355e-02
2.460000000000000142e+01,2.633067331612422984e-02
2.464000000000000057e+01,1.643180030776884154e-02
2.467999999999999972e+01,2.455238420186112852e-02
2.471999999999999886e+01,2.126478295894900644e-02
2.476000000000000156e+01,1.275306456330143300e-02
2.480000000000000071e+01,2.311377389734674617e-02
2.483999999999999986e+01,2.494508476130563243e-02
2.487999999999999901e+01,2.016618968750442942e-02
2.492000000000000171e+01,1.783994759027360960e-02
2.496000000000000085e+01,1.935244157044669136e-02
2.500000000000000000e+01,2.022555098243614818e-02
2.503999999999999915e+01,2.291157779006127923e-02
2.507999999999999829e+01,2.453172964221297936e-02
2.512000000000000099e+01,1.570327912356962036e-02
2.516000000000000014e+01,1.583140811942260195e-02
2.519999999999999929e+01,1.329432960218035302e-02
2.523999999999999844e+01,1.854098700805465946e-02
2.528000000000000114e+01,1.792377746978121578e-02
2.532000000000000028e+01,2.103866933318327553e-02
2.535999999999999943e+01,2.458038270195741365e-02
2.539999999999999858e+01,2.268471240863483701e-02
2.544000000000000128e+01,1.823044796222897390e-02
2.548000000000000043e+01,1.900098564148754859e-02
2.551999999999999957e+01,1.689306066667158740e-02
2.555999999999999872e+01,1.990331308912591732e-02
2.560000000000000142e+01,1.619671210866177602e-02
2.564000000000000057e+01,2.016721095453799170e-02
2.567999999999999972e+01,1.902018184987880334e-02
2.571999999999999886e+01,2.448403086647869820e-02
2.576000000000000156e+01,1.981912043441504817e-02
2.580000000000000071e+01,1.536777210360093515e-02
2.583999999999999986e+01,1.848689460758971143e-02
2.587999999999999901e+01,6.999134175231831387e-03
2.592000000000000171e+01,1.033213000388389681e-02
2.596000000000000085e+01,2.038261731380708319e-02
2.600000000000000000e+01,2.051758042137717675e-02
2.603999999999999915e+01,1.532175901638476757e-02
2.607999999999999829e+01,2.302749423483709673e-02
2.612000000000000099e+01,1.004889047163776659e-02
2.616000000000000014e+01,2.116713855113704773e-02
2.619999999999999929e+01,2.151688023265592789e-02
2.623999999999999844e+01,9.818651459563862080e-03
2.628000000000000114e+01,1.805901670038296061e-02
2.632000000000000028e+01,1.702357768825828871e-02
2.635999999999999943e+01,1.822749672238731938e-02
2.639999999999999858e+01,1.953833465575077755e-02
2.644000000000000128e+01,1.445215500308854803e-02
2.648000000000000043e+01,2.130792078670614223e-02
2.651999999999999957e+01,2.048720350661965839e-02
2.655999999999999872e+01,1.828069303339671658e-02
2.660000000000000142e+01,2.129894489650063782e-02
2.664000000000000057e+01,2.634330108592675135e-02
2.667999999999999972e+01,1.774034289473792186e-02
2.671999999999999886e+01,2.683690347366498793e-02
2.676000000000000156e+01,1.855438080943181897e-02
2.680000000000000071e+01,2.530582691575484350e-02
2.683999999999999986e+01,2.736619140635147135e-02
2.687999999999999901e+01,1.151435895915161982e-02
2.692000000000000171e+01,2.029246078623576574e-02
2.696000000000000085e+01,2.203379523588178471e-02
2.700000000000000000e+01,2.377540538274727083e-02
2.703999999999999915e+01,2.306498642091737994e-02
2.707999999999999829e+01,2.118199956492721955e-02
2.712000000000000099e+01,2.463037845794160963e-02
2.716000000000000014e+01,2.477374888872885261e-02
2.719999999999999929e+01,2.854253204564803983e-02
2.723999999999999844e+01,2.943279144343876816e-02
2.728000000000000114e+01,2.648492868436624556e-02
2.732000000000000028e+01,2.151151441445830689e-02
2.735999999999999943e+01,3.082569581634787489e-02
2.739999999999999858e+01,2.436009953279142520e-02
2.744000000000000128e+01,2.226626065317024311e-02
2.748000000000000043e+01,2.635674982351224674e-02
2.751999999999999957e+01,2.884816792297428822e-02
2.755999999999999872e+01,4.317487120412796114e-02
2.760000000000000142e+01,3.735029235635557721e-02
2.764000000000000057e+01,4.208153321259643781e-02
2.767999999999999972e+01,3.764354338656809851e-02
2.771999999999999886e+01,4.632029569362312166e-02
2.776000000000000156e+01,5.958203780882846690e-02
2.780000000000000071e+01,6.058251027596280730e-02
2.783999999999999986e+01,7.288514854596160608e-02
2.787999999999999901e+01,7.900396184481214834e-02
2.792000000000000171e+01,9.557196301404317917e-02
2.796000000000000085e+01,1.058495144837317825e-01
2.800000000000000000e+01,1.415033150635046366e-01
2.803999999999999915e+01,1.565793303376316892e-01
2.807999999999999829e+01,1.748542395296455998e-01
2.812000000000000099e+01,2.013392698745310738e-01
2.816000000000000014e+01,2.153497740093185953e-01
2.819999999999999929e+01,2.473796099943503246e-01
2.823999999999999844e+01,2.459304053263708933e-01
2.828000000000000114e+01,2.432019682464996724e-01
2.832000000000000028e+01,2.474041825786784110e-01
2.835999999999999943e+01,2.249511527178109926e-01
2.839999999999999858e+01,1.991930703422356841e-01
2.844000000000000128e+01,1.631995114214977449e-01
2.848000000000000043e+01,1.447987868584756366e-01
2.851999999999999957e+01,1.206407021327351864e-01
2.855999999999999872e+01,1.018139319982797747e-01
2.860000000000000142e+01,8.863834069295714602e-02
2.864000000000000057e+01,7.706229511637416318e-02
2.867999999999999972e+01,6.527322178040735612e-02
2.871999999999999886e+01,6.969088975398825270e-02
2.876000000000000156e+01,5.097182157189789065e-02
2.880000000000000071e+01,4.408799451901851407e-02
2.883999999999999986e+01,2.835476123238038146e-02
2.887999999999999901e+01,3.522557674901278385e-02
2.892000000000000171e+01,3.633901789244937258e-02
2.896000000000000085e+01,3.702617755657061638e-02
2.900000000000000000e+01,2.694473134936780506e-02
2.903999999999999915e+01,3.509583092300332108e-02
2.907999999999999829e+01,2.384194899303539519e-02
2.912000000000000099e+01,1.759949610078797438e-02
2.916000000000000014e+01,1.231683914586774800e-02
2.919999999999999929e+01,1.385818045364816363e-02
2.923999999999999844e+01,2.083743408120011797e-02
2.928000000000000114e+01,2.344538506800767155e-02
2.932000000000000028e+01,7.821186774209294701e-03
2.935999999999999943e+01,2.087846775012667036e-02
2.939999999999999858e+01,1.485062151295419089e-02
2.944000000000000128e+01,9.889183152073129437e-03
2.948000000000000043e+01,1.772255873927804787e-02
2.951999999999999957e+01,1.553366318562789984e-02
2.955999999999999872e+01,1.014629579318326348e-02
2.960000000000000142e+01,1.893982260756268271e-02
2.964000000000000057e+01,1.206011404411969946e-02
2.967999999999999972e+01,1.040505839632571358e-02
2.971999999999999886e+01,4.165440703664716193e-03
2.976000000000000156e+01,1.104049267065107705e-02
2.980000000000000071e+01,1.546341747664624865e-02
2.983999999999999986e+01,2.084611406215664681e-02
2.987999999999999901e+01,0.000000000000000000e+00
2.992000000000000171e+01,1.188697699223586340e-02
2.996000000000000085e+01,1.183247325871707341e-02
3.000000000000000000e+01,1.263111373422388245e-02
3.003999999999999915e+01,1.524249397439551672e-02
3.007999999999999829e+01,1.689444351442163580e-02
3.012000000000000099e+01,8.950588143070474512e-03
3.016000000000000014e+01,1.881275121802590197e-02
3.019999999999999929e+01,7.990430364457637435e-03
3.023999999999999844e+01,6.231130438617944571e-03
3.028000000000000114e+01,1.214876549757777126e-02
3.032000000000000028e+01,4.738822519471672448e-03
3.035999999999999943e+01,1.396205013314909781e-02
3.039999999999999858e+01,1.582852250038484926e-02
3.044000000000000128e+01,4.474034453709903845e-03
3.048000000000000043e+01,1.177852857534795669e-02
3.051999999999999957e+01,7.354765849159827611e-03
3.055999999999999872e+01,9.115221752256806934e-03
3.060000000000000142e+01,9.383119050094482910e-03
3.064000000000000057e+01,2.073983890485582571e-02
3.067999999999999972e+01,1.141205777852025496e-02
3.071999999999999886e+01,6.455917530203163744e-03
3.076000000000000156e+01,5.551551079961098561e-03
3.080000000000000071e+01,1.200423548200191953e-02
3.083999999999999986e+01,1.579151200321243786e-02
3.087999999999999901e+01,1.456769772397655156e-02
3.092000000000000171e+01,1.504997006005612432e-02
3.096000000000000085e+01,1.062777063989231441e-02
3.100000000000000000e+01,1.633478401053526166e-02
3.103999999999999915e+01,1.340555676238939023e-02
3.107999999999999829e+01,8.344022538619591187e-03
3.112000000000000099e+01,8.720333845376232809e-03
3.116000000000000014e+01,1.965233980394282681e-02
3.119999999999999929e+01,1.640376137200410048e-02
3.123999999999999844e+01,1.592747704998442176e-02
3.128000000000000114e+01,2.099565446059873872e-02
3.132000000000000028e+01,1.668122810099994732e-02
3.135999999999999943e+01,2.665425530842213675e-02
3.139999999999999858e+01,2.276655667899578350e-02
3.144000000000000128e+01,2.325047334872819629e-02
3.148000000000000043e+01,2.074909374197043965e-02
3.151999999999999957e+01,2.091337641149879426e-02
3.155999999999999872e+01,3.440550856612217823e-02
3.160000000000000142e+01,3.094487307599981876e-02
3.164000000000000057e+01,4.049221856998119068e-02
3.167999999999999972e+01,4.076356939061819007e-02
3.171999999999999886e+01,4.359395349600388159e-02
3.176000000000000156e+01,2.691263900128724323e-02
3.180000000000000071e+01,3.997893595535826489e-02
3.183999999999999986e+01,4.622153593676082278e-02
3.187999999999999901e+01,4.713314393262704738e-02
3.192000000000000171e+01,5.017729056280895161e-02
3.196000000000000085e+01,4.853017368315034469e-02
3.200000000000000000e+01,4.091232923702082386e-02
3.203999999999999915e+01,3.084227805122521579e-02
3.207999999999999829e+01,3.335370467281369156e-02
3.211999999999999744e+01,3.064075266887783186e-02
3.215999999999999659e+01,2.920735568258245318e-02
3.220000000000000284e+01,2.681445268060992509e-02
3.224000000000000199e+01,2.388852978710667013e-02
3.228000000000000114e+01,3.269110250536014228e-02
3.232000000000000028e+01,2.582034463559093954e-02
3.235999999999999943e+01,3.089132330808008059e-02
3.239999999999999858e+01,1.847639648337528681e-02
3.243999999999999773e+01,2.237470069707457945e-02
3.247999999999999687e+01,2.232807613140246755e-02
3.252000000000000313e+01,1.407164591336848743e-02
3.256000000000000227e+01,2.106222360760955092e-02
3.260000000000000142e+01,1.739068942252623012e-02
3.264000000000000057e+01,2.182249392561842055e-02
3.267999999999999972e+01,1.857759652365056566e-02
3.271999999999999886e+01,2.300954742256846805e-02
3.275999999999999801e+01,2.296345016328776856e-02
3.279999999999999716e+01,2.174458180001625010e-02
3.284000000000000341e+01,1.626090620904772563e-02
3.288000000000000256e+01,1.802758568957961785e-02
3.292000000000000171e+01,1.840824603038030555e-02
3.296000000000000085e+01,3.179684046070845732e-02
3.300000000000000000e+01,7.173434711943435516e-02
3.303999999999999915e+01,5.964043438346647297e-02
3.307999999999999829e+01,2.504936333646006971e-02
3.311999999999999744e+01,2.223167268333788374e-02
3.315999999999999659e+01,1.632200418342079004e-02
3.320000000000000284e+01,1.595672920584494461e-02
3.324000000000000199e+01,1.441866749275285201e-02
3.328000000000000114e+01,1.629255873393510926e-02
3.332000000000000028e+01,2.339097357541962061e-02
3.335999999999999943e+01,1.428291145014669479e-02
3.339999999999999858e+01,1.487748930762029104e-02
3.343999999999999773e+01,2.048334272965567776e-02
3.347999999999999687e+01,1.915881902976562107e-02
3.352000000000000313e+01,1.730122996481639475e-02
3.356000000000000227e+01,2.013504654238995953e-02
3.360000000000000142e+01,1.443915344041628995e-02
3.364000000000000057e+01,2.025846386197817720e-02
3.367999999999999972e+01,2.767714096026115470e-02
3.371999999999999886e+01,2.549988525286792096e-02
3.375999999999999801e+01,2.055049604185898646e-02
3.379999999999999716e+01,2.402426996753610766e-02
3.384000000000000341e+01,2.238022604893354778e-02
3.388000000000000256e+01,1.721769115948200077e-02
3.392000000000000171e+01,2.452994682291876824e-02
3.396000000000000085e+01,3.013628074048665950e-02
3.400000000000000000e+01,3.083803490218094828e-02
3.403999999999999915e+01,2.802129240883522582e-02
3.407999999999999829e+01,1.763442016005616064e-02
3.411999999999999744e+01,3.528912675851732239e-02
3.415999999999999659e+01,2.554202990791617014e-02
3.420000000000000284e+01,3.050877327513887294e-02
3.424000000000000199e+01,3.099741590539563038e-02
3.428000000000000114e+01,2.370267790238311453e-02
3.432000000000000028e+01,3.389394489781383246e-02
3.435999999999999943e+01,3.246344051113133483e-02
3.439999999999999858e+01,3.220578967711584806e-02
3.443999999999999773e+01,3.845208528964799005e-02
3.447999999999999687e+01,3.947391843483762097e-02
3.452000000000000313e+01,3.175276544378425464e-02
3.456000000000000227e+01,3.490705197437639351e-02
3.460000000000000142e+01,3.646201590863402953e-02
3.464000000000000057e+01,3.705738714330072958e-02
3.467999999999999972e+01,3.839911443810582053e-02
3.471999999999999886e+01,3.814151487343310498e-02
3.475999999999999801e+01,3.233957723518780802e-02
3.479999999999999716e+01,2.397871291868198737e-02
3.484000000000000341e+01,3.353032267219282353e-02
3.488000000000000256e+01,3.124689879737228837e-02
3.492000000000000171e+01,3.045617566049353686e-02
3.496000000000000085e+01,3.297072390758441773e-02
3.500000000000000000e+01,3.164687573559320233e-02
3.503999999999999915e+01,3.213558969729614356e-02
3.507999999999999829e+01,3.710241152910964679e-02
3.511999999999999744e+01,2.458323123248122924e-02
3.515999999999999659e+01,2.038054387061623979e-02
3.520000000000000284e+01,2.332150727318272471e-02
3.524000000000000199e+01,2.775516004530881667e-02
3.528000000000000114e+01,1.800808348005746018e-02
3.532000000000000028e+01,2.830590165822082296e-02
3.535999999999999943e+01,3.295273856079657115e-02
3.539999999999999858e+01,3.056250824485555462e-02
3.543999999999999773e+01,3.094442282881812792e-02
3.547999999999999687e+01,3.111306807527672302e-02
3.552000000000000313e+01,2.723005465643507303e-02
3.556000000000000227e+01,2.707877885104086405e-02
3.560000000000000142e+01,3.332478639551047367e-02
3.564000000000000057e+01,3.914427514568784294e-02
3.567999999999999972e+01,3.430154259586282173e-02
3.571999999999999886e+01,4.118718344768666773e-02
3.575999999999999801e+01,4.402115710792370989e-02
3.579999999999999716e+01,3.715250218170216417e-02
3.584000000000000341e+01,4.681020127742165082e-02
3.588000000000000256e+01,4.164741840225585912e-02
3.592000000000000171e+01,4.767989239200722679e-02
3.596000000000000085e+01,4.273026947552615445e-02
3.600000000000000000e+01,4.812292549147819537e-02
3.603999999999999915e+01,5.095661077668903194e-02
3.607999999999999829e+01,5.059159259231946204e-02
3.611999999999999744e+01,6.099533662243403209e-02
3.615999999999999659e+01,5.849778268770305240e-02
3.620000000000000284e+01,5.663990892699685004e-02
3.624000000000000199e+01,5.179656978511631982e-02
3.628000000000000114e+01,6.251997205696431525e-02
3.632000000000000028e+01,6.268775217834418600e-02
3.635999999999999943e+01,5.891046567871940920e-02
3.639999999999999858e+01,6.366287183397442706e-02
3.643999999999999773e+01,6.319074589054646252e-02
3.647999999999999687e+01,6.271855885601738956e-02
3.652000000000000313e+01,6.181982176414525104e-02
3.656000000000000227e+01,4.972572267772706195e-02
3.660000000000000142e+01,5.085267213808681436e-02
3.664000000000000057e+01,4.846103257530172403e-02
3.667999999999999972e+01,5.438583194746499094e-02
3.671999999999999886e+01,5.636555190919367159e-02
3.675999999999999801e+01,5.503992235723133286e-02
3.679999999999999716e+01,5.574003618545862043e-02
3.684000000000000341e+01,3.970043998428000181e-02
3.688000000000000256e+01,5.106259326025434919e-02
3.692000000000000171e+01,4.621814309622007677e-02
3.696000000000000085e+01,4.073388347072016274e-02
3.700000000000000000e+01,4.207334500360653678e-02
3.703999999999999915e+01,4.373259120961884433e-02
3.707999999999999829e+01,3.942092937609387171e-02
3.711999999999999744e+01,4.374555650488754638e-02
3.715999999999999659e+01,4.455157613691544671e-02
3.720000000000000284e+01,5.090184718650796192e-02
3.724000000000000199e+01,4.371105058517393144e-02
3.728000000000000114e+01,3.684003013067923410e-02
3.732000000000000028e+01,4.137746057702706981e-02
3.735999999999999943e+01,4.207641076247461281e-02
3.739999999999999858e+01,3.680444154000272333e-02
3.743999999999999773e+01,4.326078461412580234e-02
3.747999999999999687e+01,4.331971789303967063e-02
3.752000000000000313e+01,4.177922483913205920e-02
3.756000000000000227e+01,5.068757718309332971e-02
3.760000000000000142e+01,4.552173965520524973e-02
3.764000000000000057e+01,5.005839147900050662e-02
3.767999999999999972e+01,5.011682035572192356e-02
3.771999999999999886e+01,4.623013429581463579e-02
3.775999999999999801e+01,5.161944577925307170e-02
3.779999999999999716e+01,4.645308253345608457e-02
3.784000000000000341e+01,5.717327093942047023e-02
3.788000000000000256e+01,5.126033425503558755e-02
3.792000000000000171e+01,5.707569281467245875e-02
3.796000000000000085e+01,6.086512186476814718e-02
3.800000000000000000e+01,5.953658528161653168e-02
3.803999999999999915e+01,7.558729965316733634e-02
3.807999999999999829e+01,8.150881689334264768e-02
3.811999999999999744e+01,8.337858310011297958e-02
3.815999999999999659e+01,9.623028282052847882e-02
3.820000000000000284e+01,1.100414573214761049e-01
3.824000000000000199e+01,1.234260206600267112e-01
3.828000000000000114e+01,1.454468317505107633e-01
3.832000000000000028e+01,1.708794167432505784e-01
3.835999999999999943e+01,2.059078436225154352e-01
3.839999999999999858e+01,2.611942995971141546e-01
3.843999999999999773e+01,3.192527938930340703e-01
3.847999999999999687e+01,3.779508873632559940e-01
3.852000000000000313e+01,4.265197680705770655e-01
3.856000000000000227e+01,4.185789140540727704e-01
3.860000000000000142e+01,4.109577892898316764e-01
3.864000000000000057e+01,3.513050461842095462e-01
3.867999999999999972e+01,2.921852732613519632e-01
3.871999999999999886e+01,2.365838819165713980e-01
3.875999999999999801e+01,2.013471287639932161e-01
3.879999999999999716e+01,1.632314411694823220e-01
3.884000000000000341e+01,1.432413293128085297e-01
3.888000000000000256e+01,1.296483842800817687e-01
3.892000000000000171e+01,1.155221820408473821e-01
3.896000000000000085e+01,1.097123377368386804e-01
3.900000000000000000e+01,1.002771986815684524e-01
3.903999999999999915e+01,1.008643649002053944e-01
3.907999999999999829e+01,9.601366145840960209e-02
3.911999999999999744e+01,9.841309140466278360e-02
3.915999999999999659e+01,9.729384280176194000e-02
3.920000000000000284e+01,9.084334216158361508e-02
3.924000000000000199e+01,9.196283630520657448e-02
3.928000000000000114e+01,9.308216988438491879e-02
3.932000000000000028e+01,9.676026674923647597e-02
3.935999999999999943e+01,9.404088702963381285e-02
3.939999999999999858e+01,1.013437997945085128e-01
3.943999999999999773e+01,1.096061432874345376e-01
3.947999999999999687e+01,1.129637123409430732e-01
3.952000000000000313e+01,1.231449130268285896e-01
3.956000000000000227e+01,1.348186496091149933e-01
3.960000000000000142e+01,1.459591048270818259e-01
3.964000000000000057e+01,1.628569685512966936e-01
3.967999999999999972e+01,1.688792250981354937e-01
3.971999999999999886e+01,1.835376782391880401e-01
3.975999999999999801e+01,2.139759929354106138e-01
3.979999999999999716e+01,2.279943581035883959e-01
3.984000000000000341e+01,2.525681095562108402e-01
3.988000000000000256e+01,2.955872654583241999e-01
3.992000000000000171e+01,3.201606517295765841e-01
3.996000000000000085e+01,3.935666772033158956e-01
4.000000000000000000e+01,4.780611927088016522e-01
4.003999999999999915e+01,5.779090722769288924e-01
4.007999999999999829e+01,6.882057077169156933e-01
4.011999999999999744e+01,7.861340139398208526e-01
4.015999999999999659e+01,8.873674068104865365e-01
4.020000000000000284e+01,9.416869764612390004e-01
4.024000000000000199e+01,9.868368692207240001e-01
4.028000000000000114e+01,1.000000000000000000e+00
4.032000000000000028e+01,9.621976716168747501e-01
4.035999999999999943e+01,8.802536833734082578e-01
4.039999999999999858e+01,8.060928924759552805e-01
4.043999999999999773e+01,7.020777716400737889e-01
4.047999999999999687e+01,6.086180143518726826e-01
4.052000000000000313e+01,5.177169777179116972e-01
4.056000000000000227e+01,4.492063311686766425e-01
4.060000000000000142e+01,3.670478757142040527e-01
4.064000000000000057e+01,3.144234738843658672e-01
4.067999999999999972e+01,2.652107621149652483e-01
4.071999999999999886e+01,2.239944800957929527e-01
4.075999999999999801e+01,1.932269297906682171e-01
4.079999999999999716e+01,1.571280706063553634e-01
4.084000000000000341e+01,1.412871538334627142e-01
4.088000000000000256e+01,1.276850792664846190e-01
4.092000000000000171e+01,1.235721337526758945e-01
4.096000000000000085e+01,1.089034012468582946e-01
4.100000000000000000e+01,1.025509542028302523e-01
4.103999999999999915e+01,1.015293783831842239e-01
4.107999999999999829e+01,8.270172304008344133e-02
4.111999999999999744e+01,7.304332398601751097e-02
4.115999999999999659e+01,7.521972695740281045e-02
4.120000000000000284e+01,7.462373211028795750e-02
4.124000000000000199e+01,6.453815918681547747e-02
4.128000000000000114e+01,6.692711534344238100e-02
4.132000000000000028e+01,5.918675926382471753e-02
4.135999999999999943e+01,5.858983510728253685e-02
4.139999999999999858e+01,5.404766527771714957e-02
4.143999999999999773e+01,5.739527773322167931e-02
4.147999999999999687e+01,5.135992547238055900e-02
4.152000000000000313e+01,4.447135797803137419e-02
4.156000000000000227e+01,4.376661832483171033e-02
4.160000000000000142e+01,4.231528248232703515e-02
4.164000000000000057e+01,4.448884636771074930e-02
4.167999999999999972e+01,4.133107011085555837e-02
4.171999999999999886e+01,3.934588735492621642e-02
4.175999999999999801e+01,3.768032158848640817e-02
4.179999999999999716e+01,3.345558046042713257e-02
4.184000000000000341e+01,3.605438854397442078e-02
4.188000000000000256e+01,3.652050596900095064e-02
4.192000000000000171e+01,3.186851849809904658e-02
4.196000000000000085e+01,3.937117029058880002e-02
4.200000000000000000e+01,3.685110757532055609e-02
4.203999999999999915e+01,3.241159228993758384e-02
4.207999999999999829e+01,3.586183655286030725e-02
4.211999999999999744e+01,3.142179977085302056e-02
4.215999999999999659e+01,2.538217181448346182e-02
4.220000000000000284e+01,3.235014968560745441e-02
4.224000000000000199e+01,3.014837961307542322e-02
4.228000000000000114e+01,2.709336730712771923e-02
4.232000000000000028e+01,2.851620566164493956e-02
4.235999999999999943e+01,3.111161478032380481e-02
4.239999999999999858e+01,2.858890195050103888e-02
4.243999999999999773e+01,2.691889138384867194e-02
4.247999999999999687e+01,2.844726315788734944e-02
4.252000000000000313e+01,2.133898647242844782e-02
4.256000000000000227e+01,2.521248698536046953e-02
4.260000000000000142e+01,2.407448033085060266e-02
4.264000000000000057e+01,2.624147221913933348e-02
4.267999999999999972e+01,2.723534200463906957e-02
4.271999999999999886e+01,2.950839165116905805e-02
4.275999999999999801e+01,2.314478431191486010e-02
4.279999999999999716e+01,3.298741807339476001e-02
4.284000000000000341e+01,2.481066601272107625e-02
4.288000000000000256e+01,2.804216732725043487e-02
4.292000000000000171e+01,2.370322483479017292e-02
4.296000000000000085e+01,2.469508535641917052e-02
4.300000000000000000e+01,2.334097165759277392e-02
4.303999999999999915e+01,2.902360831153718776e-02
4.307999999999999829e+01,1.935239777450554338e-02
4.311999999999999744e+01,1.874375058782188491e-02
4.315999999999999659e+01,2.271954610589863727e-02
4.320000000000000284e+01,2.179043502711561914e-02
4.324000000000000199e+01,2.043453515496484671e-02
4.328000000000000114e+01,2.270347674774411337e-02
4.332000000000000028e+01,1.889466673123603446e-02
4.335999999999999943e+01,1.945704854165243927e-02
4.339999999999999858e+01,2.503035207573690857e-02
4.343999999999999773e+01,2.644509369076497932e-02
4.347999999999999687e+01,2.689992855464588481e-02
4.352000000000000313e+01,2.372930808886767468e-02
4.356000000000000227e+01,2.269081273250521044e-02
4.360000000000000142e+01,1.685401845510382454e-02
4.364000000000000057e+01,2.647708223234349068e-02
4.367999999999999972e+01,2.469128729593764518e-02
4.371999999999999886e+01,1.821381106164815175e-02
4.375999999999999801e+01,2.858227314073776351e-02
4.379999999999999716e+01,2.082469340622886134e-02
4.384000000000000341e+01,2.522168614586656199e-02
4.388000000000000256e+01,2.162171342817404557e-02
4.392000000000000171e+01,2.527170357279857199e-02
4.396000000000000085e+01,2.988096386707691371e-02
4.400000000000000000e+01,2.723960764497169312e-02
4.403999999999999915e+01,2.086615573328780976e-02
4.407999999999999829e+01,2.952605869952530659e-02
4.411999999999999744e+01,3.392075370259578504e-02
4.415999999999999659e+01,3.309064234476438021e-02
4.420000000000000284e+01,3.012775790764182435e-02
4.424000000000000199e+01,3.910618796159107818e-02
4.428000000000000114e+01,3.401019082871413468e-02
4.432000000000000028e+01,3.755022686955795247e-02
4.435999999999999943e+01,4.695412561931199685e-02
4.439999999999999858e+01,4.612198082584494097e-02
4.443999999999999773e+01,4.496962649387575145e-02
4.447999999999999687e+01,4.253746422566952179e-02
4.452000000000000313e+01,5.887040722430901540e-02
4.456000000000000227e+01,5.814350027242811553e-02
4.460000000000000142e+01,6.626586031953074496e-02
4.464000000000000057e+01,6.916339695315827651e-02
4.467999999999999972e+01,8.037708831218098871e-02
4.471999999999999886e+01,8.647257530193164232e-02
4.475999999999999801e+01,9.139486629440951582e-02
4.479999999999999716e+01,1.045266858628406542e-01
4.484000000000000341e+01,1.120071873673636337e-01
4.488000000000000256e+01,1.095714939349880651e-01
4.492000000000000171e+01,1.019109671418030327e-01
4.496000000000000085e+01,9.222426215571784269e-02
4.500000000000000000e+01,8.189746207756605501e-02
4.503999999999999915e+01,8.148613222985802429e-02
4.507999999999999829e+01,6.604074979768137510e-02
4.511999999999999744e+01,5.933799400456873929e-02
4.515999999999999659e+01,5.551365968305113641e-02
4.520000000000000284e+01,4.827705412046539440e-02
4.524000000000000199e+01,4.797049886672470620e-02
4.528000000000000114e+01,4.787681366397161103e-02
4.532000000000000028e+01,3.594772393942028549e-02
4.535999999999999943e+01,3.084205837427220209e-02
4.539999999999999858e+01,2.882804952702967480e-02
4.543999999999999773e+01,3.097191483963065289e-02
4.547999999999999687e+01,3.716703100472878302e-02
4.552000000000000313e+01,2.822145706753432723e-02
4.556000000000000227e+01,2.599267829820564590e-02
4.560000000000000142e+01,3.101380270718784304e-02
4.564000000000000057e+01,2.665181461085674997e-02
4.567999999999999972e+01,2.794039855626246488e-02
4.571999999999999886e+01,2.890872748963751668e-02
4.575999999999999801e+01,1.750852683819610275e-02
4.579999999999999716e+01,2.572636107046045659e-02
4.584000000000000341e+01,1.645781233348159525e-02
4.588000000000000256e+01,2.392850470805171770e-02
4.592000000000000171e+01,2.020350256289850030e-02
4.596000000000000085e+01,1.807743083280223886e-02
4.600000000000000000e+01,1.946948205008931787e-02
4.603999999999999915e+01,2.885777401825182983e-02
4.607999999999999829e+01,1.841399299231607015e-02
4.611999999999999744e+01,1.532671855736880175e-02
4.615999999999999659e+01,1.255890479665682305e-02
4.620000000000000284e+01,1.533502271776214856e-02
4.624000000000000199e+01,2.258885203665136898e-02
4.628000000000000114e+01,1.651453632041604072e-02
4.632000000000000028e+01,1.875631706661749776e-02
4.635999999999999943e+01,2.195728269960680462e-02
4.639999999999999858e+01,1.780092466704799592e-02
4.643999999999999773e+01,2.025470865300560072e-02
4.647999999999999687e+01,1.908293215176940991e-02
4.652000000000000313e+01,2.484116048584975381e-02
4.656000000000000227e+01,1.588514931558985058e-02
4.660000000000000142e+01,2.110942840685354344e-02
4.664000000000000057e+01,2.462733528010650416e-02
4.667999999999999972e+01,2.569251531021112325e-02
4.671999999999999886e+01,1.993346973787835097e-02
4.675999999999999801e+01,1.790576388561855234e-02
4.679999999999999716e+01,1.331870504076848420e-02
4.684000000000000341e+01,1.054378912052164954e-02
4.688000000000000256e+01,2.173590974186688160e-02
4.692000000000000171e+01,2.119919088580180661e-02
4.696000000000000085e+01,1.479783487769985653e-02
4.700000000000000000e+01,1.777877003720828436e-02
4.703999999999999915e+01,1.926656254082557626e-02
4.707999999999999829e+01,1.894134530860820329e-02
4.711999999999999744e+01,1.946866407697256385e-02
4.715999999999999659e+01,1.775648272221250559e-02
4.720000000000000284e+01,2.041535677379138769e-02
4.724000000000000199e+01,1.752944938489471582e-02
4.728000000000000114e+01,1.688215683427009978e-02
4.732000000000000028e+01,2.199199994872251193e-02
4.735999999999999943e+01,2.272989810884029627e-02
4.739999999999999858e+01,1.856274046208286621e-02
4.743999999999999773e+01,1.961960478576631542e-02
4.747999999999999687e+01,1.769060441385322119e-02
4.752000000000000313e+01,1.522804131016283757e-02
4.756000000000000227e+01,1.830936157266574785e-02
4.760000000000000142e+01,1.339358422039621001e-02
4.764000000000000057e+01,2.009913491124269008e-02
4.767999999999999972e+01,2.168637607528246802e-02
4.771999999999999886e+01,1.293083386283799471e-02
4.775999999999999801e+01,2.336676935756451523e-02
4.779999999999999716e+01,2.345991863371130193e-02
4.784000000000000341e+01,1.672880251808321270e-02
4.788000000000000256e+01,1.895345876182040826e-02
4.792000000000000171e+01,2.181737881258690934e-02
4.796000000000000085e+01,1.892324807142093529e-02
4.800000000000000000e+01,2.040014431563861794e-02
4.803999999999999915e+01,1.974413105997955761e-02
4.807999999999999829e+01,1.780818197378450374e-02
4.811999999999999744e+01,2.194920579060686411e-02
4.815999999999999659e+01,1.468121173643388046e-02
4.820000000000000284e+01,2.191331676076952936e-02
4.824000000000000199e+01,2.050857011577703407e-02
4.828000000000000114e+01,2.368808428143094613e-02
4.832000000000000028e+01,2.206913184240959225e-02
4.835999999999999943e+01,1.842388042142794474e-02
4.839999999999999858e+01,2.053572629723360646e-02
4.843999999999999773e+01,1.998153903119206931e-02
4.847999999999999687e+01,1.953348624601826747e-02
4.852000000000000313e+01,2.260346688221860634e-02
4.856000000000000227e+01,1.948888786557571168e-02
4.860000000000000142e+01,2.095855829119707553e-02
4.864000000000000057e+01,1.720326319856679484e-02
4.867999999999999972e+01,2.645534372369200138e-02
4.871999999999999886e+01,2.077986423530044438e-02
4.875999999999999801e+01,2.096809114056490120e-02
4.879999999999999716e+01,1.795716268305940291e-02
4.884000000000000341e+01,1.654506232517169786e-02
4.888000000000000256e+01,1.886422637182534959e-02
4.892000000000000171e+01,1.403922099951878180e-02
4.896000000000000085e+01,1.550440246082365227e-02
4.900000000000000000e+01,1.899489388274951465e-02
4.903999999999999915e+01,1.875311198412601965e-02
4.907999999999999829e+01,1.893730890954945303e-02
4.911999999999999744e+01,1.965410512427067519e-02
4.915999999999999659e+01,1.621213621010493197e-02
4.920000000000000284e+01,2.652387764416370974e-02
4.924000000000000199e+01,1.870938400212777963e-02
4.928000000000000114e+01,2.464859786622081161e-02
4.932000000000000028e+01,2.696215034872868552e-02
4.935999999999999943e+01,2.501030871081221657e-02
4.939999999999999858e+01,2.252483755187348682e-02
4.943999999999999773e+01,3.325995878337982548e-02
4.947999999999999687e+01,2.597545829880342286e-02
4.952000000000000313e+01,3.340425377075649516e-02
4.956000000000000227e+01,3.656764801704641410e-02
4.960000000000000142e+01,4.495498749719783332e-02
4.964000000000000057e+01,4.523853500284217427e-02
4.967999999999999972e+01,5.341157205771661365e-02
4.971999999999999886e+01,6.360989349435230977e-02
4.975999999999999801e+01,6.773023453301034447e-02
4.979999999999999716e+01,7.003746920458565894e-02
4.984000000000000341e+01,6.200184518414515039e-02
4.988000000000000256e+01,6.612057905963859838e-02
4.992000000000000171e+01,5.157994426973251667e-02
4.996000000000000085e+01,5.111285848703907980e-02
5.000000000000000000e+01,4.158237096372154051e-02
5.003999999999999915e+01,3.695594738384435501e-02
5.007999999999999829e+01,3.808656141674836987e-02
5.011999999999999744e+01,3.985636109905454222e-02
5.015999999999999659e+01,3.373559410582980395e-02
5.020000000000000284e+01,2.889374123770308347e-02
5.024000000000000199e+01,2.788972634479227469e-02
5.028000000000000114e+01,2.123420012547715119e-02
5.032000000000000028e+01,2.353435958161357450e-02
5.035999999999999943e+01,2.881937765943404575e-02
5.039999999999999858e+01,2.322840771907713417e-02
5.043999999999999773e+01,2.584676598693850733e-02
5.047999999999999687e+01,2.430631223133668251e-02
5.052000000000000313e+01,1.924677634901525436e-02
5.056000000000000227e+01,2.165021120767887663e-02
5.060000000000000142e+01,2.085442675642308272e-02
5.064000000000000057e+01,2.208389400282986456e-02
5.067999999999999972e+01,1.744859193975754202e-02
5.071999999999999886e+01,2.176896134165913488e-02
5.075999999999999801e+01,2.097091179607602635e-02
5.079999999999999716e+01,2.209148637766588166e-02
5.084000000000000341e+01,2.011945500934831169e-02
5.088000000000000256e+01,2.401105471915512823e-02
5.092000000000000171e+01,1.777300114125356101e-02
5.096000000000000085e+01,1.921114786645650163e-02
5.100000000000000000e+01,1.979574256983083688e-02
5.103999999999999915e+01,2.389828116857003679e-02
5.107999999999999829e+01,1.776453890911123407e-02
5.111999999999999744e+01,2.346524483420997509e-02
5.115999999999999659e+01,2.010250780829939826e-02
5.120000000000000284e+01,2.004446522096549332e-02
5.124000000000000199e+01,2.126529981148773257e-02
5.128000000000000114e+01,1.886040338908426955e-02
5.132000000000000028e+01,2.135952543659268635e-02
5.135999999999999943e+01,2.503089851251538364e-02
5.139999999999999858e+01,1.910571067964931050e-02
5.143999999999999773e+01,1.723156196316329852e-02
5.147999999999999687e+01,1.887534151051673340e-02
5.152000000000000313e+01,2.083839131170481945e-02
5.156000000000000227e+01,1.778961563075150132e-02
5.160000000000000142e+01,1.132834134108748336e-02
5.164000000000000057e+01,2.160610353209409945e-02
5.167999999999999972e+01,1.951512582321488984e-02
5.171999999999999886e+01,2.307450557785988357e-02
5.175999999999999801e+01,2.055583388213893387e-02
5.179999999999999716e+01,2.571333264751942196e-02
5.184000000000000341e+01,1.732924507953877147e-02
5.188000000000000256e+01,2.216566321808945486e-02
5.192000000000000171e+01,2.135051176727742819e-02
5.196000000000000085e+01,1.712284891832480810e-02
5.200000000000000000e+01,1.630647397329212586e-02
5.203999999999999915e+01,1.676894778516023823e-02
5.207999999999999829e+01,2.405460702040686238e-02
5.211999999999999744e+01,2.131719222281072343e-02
5.215999999999999659e+01,1.740631853410508703e-02
5.220000000000000284e+01,1.680010375778192774e-02
5.224000000000000199e+01,1.480718347565661286e-02
5.228000000000000114e+01,2.283609810062799811e-02
5.232000000000000028e+01,1.593732481778368723e-02
5.235999999999999943e+01,1.938024925883623933e-02
5.239999999999999858e+01,2.005037798801418206e-02
5.243999999999999773e+01,2.274569446770523598e-02
5.247999999999999687e+01,1.797684939628921286e-02
5.252000000000000313e+01,1.576629866478362549e-02
5.256000000000000227e+01,1.813985669181346350e-02
5.260000000000000142e+01,1.933994019620835850e-02
5.264000000000000057e+01,2.320493566366894911e-02
5.267999999999999972e+01,2.323090660893490506e-02
5.271999999999999886e+01,1.771190143018138222e-02
5.275999999999999801e+01,2.413390805932555741e-02
5.279999999999999716e+01,2.181227913339775851e-02
5.284000000000000341e+01,1.501188868329281570e-02
5.288000000000000256e+01,2.505711254767635510e-02
5.292000000000000171e+01,1.878854266664636494e-02
5.296000000000000085e+01,1.827690808295836036e-02
5.300000000000000000e+01,1.765800362914343377e-02
5.303999999999999915e+01,2.055697201830507595e-02
5.307999999999999829e+01,2.057649865148152013e-02
5.311999999999999744e+01,1.803644776652069126e-02
5.315999999999999659e+01,2.274603148184298554e-02
5.320000000000000284e+01,2.169737824797548370e-02
5.324000000000000199e+01,1.755603380133456681e-02
5.328000000000000114e+01,2.311662307670050986e-02
5.332000000000000028e+01,1.972031455077635428e-02
5.335999999999999943e+01,1.781605165977385302e-02
5.339999999999999858e+01,2.017600202640802004e-02
5.343999999999999773e+01,2.018960727911993033e-02
5.347999999999999687e+01,1.860321920095176287e-02
5.352000000000000313e+01,2.074793068578411823e-02
5.356000000000000227e+01,1.852047695387814760e-02
5.360000000000000142e+01,2.279628898663988920e-02
5.364000000000000057e+01,2.014100768940217320e-02
5.367999999999999972e+01,1.311355691228282064e-02
5.371999999999999886e+01,1.813370572421339061e-02
5.375999999999999801e+01,1.974127919085390953e-02
5.379999999999999716e+01,1.889587286784367645e-02
5.384000000000000341e+01,2.412723623802033243e-02
5.388000000000000256e+01,2.392020416009083689e-02
5.392000000000000171e+01,1.742180012261893007e-02
5.396000000000000085e+01,1.518758944811494233e-02
5.400000000000000000e+01,2.404137143863939452e-02
5.403999999999999915e+01,1.988659836966840191e-02
5.407999999999999829e+01,1.924966119643208365e-02
5.411999999999999744e+01,2.149082718009126536e-02
5.415999999999999659e+01,1.989291606278844465e-02
5.420000000000000284e+01,2.191945846437555467e-02
5.424000000000000199e+01,1.680164244764960693e-02
5.428000000000000114e+01,1.541489899401660493e-02
5.432000000000000028e+01,1.541354518386031484e-02
5.435999999999999943e+01,2.202205202476277893e-02
5.439999999999999858e+01,2.063321967277254726e-02
5.443999999999999773e+01,1.743111611215873713e-02
5.447999999999999687e+01,1.923954064498186248e-02
5.452000000000000313e+01,2.168699451195293601e-02
5.456000000000000227e+01,2.018873518118579485e-02
5.460000000000000142e+01,1.826328347948536976e-02
5.464000000000000057e+01,2.529336398007780984e-02
5.467999999999999972e+01,1.739567273103634695e-02
5.471999999999999886e+01,2.293163006673201720e-02
5.475999999999999801e+01,2.665430482542197749e-02
5.479999999999999716e+01,1.694190997951468269e-02
5.484000000000000341e+01,1.906383116072269540e-02
5.488000000000000256e+01,2.193139077294732966e-02
5.492000000000000171e+01,2.287904023767662470e-02
5.496000000000000085e+01,2.254650945165422027e-02
5.500000000000000000e+01,1.709540908708393273e-02
5.503999999999999915e+01,2.390510518958443437e-02
5.507999999999999829e+01,1.717309985385472720e-02
5.511999999999999744e+01,2.238202248420454593e-02
5.515999999999999659e+01,2.087304155733695279e-02
5.520000000000000284e+01,2.053617523829810027e-02
5.524000000000000199e+01,2.254426285532444563e-02
5.528000000000000114e+01,2.263242753542557897e-02
5.532000000000000028e+01,2.271986181092791254e-02
5.535999999999999943e+01,2.451251444156075932e-02
5.539999999999999858e+01,2.715740891588781444e-02
5.543999999999999773e+01,1.722018613924190464e-02
5.547999999999999687e+01,2.231591324190405554e-02
5.552000000000000313e+01,2.048048022532175313e-02
5.556000000000000227e+01,2.536148711466379088e-02
5.560000000000000142e+01,2.437754990565148272e-02
5.564000000000000057e+01,2.904383089748228952e-02
5.567999999999999972e+01,2.795178683516184523e-02
5.571999999999999886e+01,1.982195366205950771e-02
5.575999999999999801e+01,1.723571254035844574e-02
5.579999999999999716e+01,2.232549977498220206e-02
5.584000000000000341e+01,2.517547851911631010e-02
5.588000000000000256e+01,2.386645339833881260e-02
5.592000000000000171e+01,2.234343278464887700e-02
5.596000000000000085e+01,2.636399711712140298e-02
5.600000000000000000e+01,2.281365295998485573e-02
5.603999999999999915e+01,2.278107506724245251e-02
5.607999999999999829e+01,2.690599333563779838e-02
5.611999999999999744e+01,2.260702376089226973e-02
5.615999999999999659e+01,2.171919430109898672e-02
5.620000000000000284e+01,2.306966278592600603e-02
5.624000000000000199e+01,2.548558704504125597e-02
5.628000000000000114e+01,2.896696565739702300e-02
5.632000000000000028e+01,2.743634968292718232e-02
5.635999999999999943e+01,2.643807578810949271e-02
5.639999999999999858e+01,2.885093348195745880e-02
5.643999999999999773e+01,3.158288664076491781e-02
5.647999999999999687e+01,3.484717761608117914e-02
5.652000000000000313e+01,2.275714392837206029e-02
5.656000000000000227e+01,3.327017567887957661e-02
5.660000000000000142e+01,3.781160591854006159e-02
5.664000000000000057e+01,3.275628909215445861e-02
5.667999999999999972e+01,3.644318822202851499e-02
5.671999999999999886e+01,3.063995933005954006e-02
5.675999999999999801e+01,3.400543109744891962e-02
5.679999999999999716e+01,3.449132895141086841e-02
5.684000000000000341e+01,3.049832317641914745e-02
5.688000000000000256e+01,2.917007873342990568e-02
5.692000000000000171e+01,3.199930060957536376e-02
5.696000000000000085e+01,2.811055498135389685e-02
5.700000000000000000e+01,3.136468564653147051e-02
5.703999999999999915e+01,2.811408973784372892e-02
5.707999999999999829e+01,3.126001407636950363e-02
5.711999999999999744e+01,3.376541274535561910e-02
5.715999999999999659e+01,3.211176207590165504e-02
5.720000000000000284e+01,3.184339873448522457e-02
5.724000000000000199e+01,3.168085866447581389e-02
5.728000000000000114e+01,3.013143403664572326e-02
5.732000000000000028e+01,3.337919283526405434e-02
5.735999999999999943e+01,3.524006423396613963e-02
5.739999999999999858e+01,3.368823097203148959e-02
5.743999999999999773e+01,3.384154217074353266e-02
5.747999999999999687e+01,3.143512095711182425e-02
5.752000000000000313e+01,3.190668211131550414e-02
5.756000000000000227e+01,3.216418950964834711e-02
5.760000000000000142e+01,3.391359191183968003e-02
5.764000000000000057e+01,2.915824642444927312e-02
5.767999999999999972e+01,4.231456358880107682e-02
5.771999999999999886e+01,3.403906593967619826e-02
5.775999999999999801e+01,3.887724321676253036e-02
5.779999999999999716e+01,4.264838312130292408e-02
5.784000000000000341e+01,4.204720575699404106e-02
5.788000000000000256e+01,3.899290365616230047e-02
5.792000000000000171e+01,3.764372896340406616e-02
5.796000000000000085e+01,4.333077457259989357e-02
5.800000000000000000e+01,4.453887534245681845e-02
5.803999999999999915e+01,4.702561171204965723e-02
5.807999999999999829e+01,5.836113618752891002e-02
5.811999999999999744e+01,5.178335388690655239e-02
5.815999999999999659e+01,5.991856059649621619e-02
5.820000000000000284e+01,5.515168634392138974e-02
5.824000000000000199e+01,5.944683828563901429e-02
5.828000000000000114e+01,6.011601053107191311e-02
5.832000000000000028e+01,5.822542052215796959e-02
5.835999999999999943e+01,6.561009621699036287e-02
5.839999999999999858e+01,6.083903704850932709e-02
5.843999999999999773e+01,5.830619624597368350e-02
5.847999999999999687e+01,5.694535352535002454e-02
5.852000000000000313e+01,5.952867650935321497e-02
5.856000000000000227e+01,6.296412907427711980e-02
5.860000000000000142e+01,6.415967509641555544e-02
5.864000000000000057e+01,5.970341279316657146e-02
5.867999999999999972e+01,4.831587810789962634e-02
5.871999999999999886e+01,4.439102426987347194e-02
5.875999999999999801e+01,4.707587476765177914e-02
5.879999999999999716e+01,4.378904559695592086e-02
5.884000000000000341e+01,4.721853980626758429e-02
5.888000000000000256e+01,4.734189866247373590e-02
5.892000000000000171e+01,3.904127020219536753e-02
5.896000000000000085e+01,3.703047331358696320e-02
5.900000000000000000e+01,3.789760621404660024e-02
5.903999999999999915e+01,3.353940412383546454e-02
5.907999999999999829e+01,3.621738254624091990e-02
5.911999999999999744e+01,2.961839145653457142e-02
5.915999999999999659e+01,3.026882180994639251e-02
5.920000000000000284e+01,2.622702091998918919e-02
5.924000000000000199e+01,2.996774806254753204e-02
5.928000000000000114e+01,2.986921621002985860e-02
5.932000000000000028e+01,2.827710543995685596e-02
5.935999999999999943e+01,2.380532980939940521e-02
5.939999999999999858e+01,2.381079805191085516e-02
5.943999999999999773e+01,2.114984236443943552e-02
5.947999999999999687e+01,2.275288393534426190e-02
5.952000000000000313e+01,2.318220514235062868e-02
5.956000000000000227e+01,2.371726719999358440e-02
5.960000000000000142e+01,1.689453664632573071e-02
5.964000000000000057e+01,2.137284216254840830e-02
5.967999999999999972e+01,1.859997411166328107e-02
5.971999999999999886e+01,1.806527895319499227e-02
5.975999999999999801e+01,1.816942697161732026e-02
5.979999999999999716e+01,2.104485447185381816e-02
5.984000000000000341e+01,2.104060005903265335e-02
5.988000000000000256e+01,1.868977174359891594e-02
5.992000000000000171e+01,1.889697487423892472e-02
5.996000000000000085e+01,2.219531746139771430e-02
