2.003999999999999915e+01,1.313190134790777341e-02
2.007999999999999829e+01,1.650656502693871944e-02
2.012000000000000099e+01,1.431236414709387110e-02
2.016000000000000014e+01,2.009300614277276242e-02
2.019999999999999929e+01,1.721104328385350546e-02
2.023999999999999844e+01,1.996643062844654856e-02
2.028000000000000114e+01,1.997169452329231737e-02
2.032000000000000028e+01,1.564558992854212655e-02
2.035999999999999943e+01,1.929432816706491000e-02
2.039999999999999858e+01,1.661795416384999335e-02
2.044000000000000128e+01,2.342891822443256625e-02
2.048000000000000043e+01,1.298355437453518543e-02
2.051999999999999957e+01,1.312552511511676234e-02
2.055999999999999872e+01,1.773609966405455263e-02
2.060000000000000142e+01,1.217157402646864423e-02
2.064000000000000057e+01,1.093815261239117730e-02
2.067999999999999972e+01,2.166706143446922930e-02
2.071999999999999886e+01,1.424589510370681371e-02
2.076000000000000156e+01,1.301207713839645785e-02
2.080000000000000071e+01,1.762185861021887956e-02
2.083999999999999986e+01,1.611277709927420865e-02
2.087999999999999901e+01,9.378579788772345785e-03
2.092000000000000171e+01,1.990044602971193996e-02
2.096000000000000085e+01,1.667222324143693632e-02
2.100000000000000000e+01,2.671257651721993878e-02
2.103999999999999915e+01,1.791535673282333013e-02
2.107999999999999829e+01,2.059921861226453668e-02
2.112000000000000099e+01,1.792046507350029613e-02
2.116000000000000014e+01,1.421033249843322264e-02
2.119999999999999929e+01,6.237581031842170248e-03
2.123999999999999844e+01,1.778963592022892934e-02
2.128000000000000114e+01,1.187911337721252701e-02
2.132000000000000028e+01,2.033716337423514126e-02
2.135999999999999943e+01,1.140138570692822081e-02
2.139999999999999858e+01,1.635293207494315643e-02
2.144000000000000128e+01,1.106062829500879460e-02
2.148000000000000043e+01,1.587441041493439092e-02
2.151999999999999957e+01,1.615057443984000210e-02
2.155999999999999872e+01,1.051412468179851491e-02
2.160000000000000142e+01,1.622125690979609250e-02
2.164000000000000057e+01,9.415796076456883074e-03
2.167999999999999972e+01,1.381641764430878092e-02
2.171999999999999886e+01,1.237317517938714938e-02
2.176000000000000156e+01,1.917977438788098093e-02
2.180000000000000071e+01,9.348793462806705493e-03
2.183999999999999986e+01,1.436763345573730324e-02
2.187999999999999901e+01,1.780509598847265090e-02
2.192000000000000171e+01,1.202995503146542244e-02
2.196000000000000085e+01,1.134216564282613735e-02
2.200000000000000000e+01,1.374798407886318637e-02
2.203999999999999915e+01,1.477867437282611579e-02
2.207999999999999829e+01,1.360923910857878352e-02
2.212000000000000099e+01,9.070931950115681403e-03
2.216000000000000014e+01,1.690745341899809254e-02
2.219999999999999929e+01,1.381262673964111717e-02
2.223999999999999844e+01,1.869264249640318135e-02
2.228000000000000114e+01,1.807254302195980891e-02
2.232000000000000028e+01,1.758981059371649350e-02
2.235999999999999943e+01,1.181321226928905288e-02
2.239999999999999858e+01,1.091771606835714205e-02
2.244000000000000128e+01,1.469707263054909757e-02
2.248000000000000043e+01,1.008882299238352508e-02
2.251999999999999957e+01,1.400541400297714012e-02
2.255999999999999872e+01,1.599687848985486410e-02
2.260000000000000142e+01,1.008198523884175357e-02
2.264000000000000057e+01,6.641951621538960161e-03
2.267999999999999972e+01,8.701768124345650446e-03
2.271999999999999886e+01,7.530212174133006295e-03
2.276000000000000156e+01,1.027726129573121663e-02
2.280000000000000071e+01,1.446792325763163189e-02
2.283999999999999986e+01,6.627240392509685732e-03
2.287999999999999901e+01,1.508012368914124143e-02
2.292000000000000171e+01,9.576668190582565340e-03
2.296000000000000085e+01,8.610565777348911515e-03
2.300000000000000000e+01,1.335056276854572864e-02
2.303999999999999915e+01,1.740292924615493425e-02
2.307999999999999829e+01,1.334268853255066688e-02
2.312000000000000099e+01,1.505729698200048566e-02
2.316000000000000014e+01,1.711552165212015114e-02
2.319999999999999929e+01,9.411144290303768631e-03
2.323999999999999844e+01,7.687865418112710576e-03
2.328000000000000114e+01,1.662067033731868398e-02
2.332000000000000028e+01,2.012210958959080240e-02
2.335999999999999943e+01,2.066717538953762728e-02
2.339999999999999858e+01,1.323713349861803390e-02
2.344000000000000128e+01,1.501942990184431011e-02
2.348000000000000043e+01,5.595378750533092950e-03
2.351999999999999957e+01,7.721158531578397287e-03
2.355999999999999872e+01,1.163429991224356440e-02
2.360000000000000142e+01,1.004732578285054065e-02
2.364000000000000057e+01,9.560215396438689547e-03
2.367999999999999972e+01,9.279221552897905234e-03
2.371999999999999886e+01,1.931056248793396393e-02
2.376000000000000156e+01,2.033554889644511796e-02
2.380000000000000071e+01,1.434792450522294309e-02
2.383999999999999986e+01,9.803912734600836454e-03
2.387999999999999901e+01,1.192849715814114399e-02
2.392000000000000171e+01,1.474044656166901938e-02
2.396000000000000085e+01,4.696053493886023604e-03
2.400000000000000000e+01,1.273272073457421515e-02
2.403999999999999915e+01,1.025053814216230624e-02
2.407999999999999829e+01,1.127446163886538545e-02
2.412000000000000099e+01,1.408574661688712266e-02
2.416000000000000014e+01,1.119066661462790775e-02
2.419999999999999929e+01,4.789214710800842635e-03
2.423999999999999844e+01,1.564382565705832451e-02
2.428000000000000114e+01,1.130460140929331718e-02
2.432000000000000028e+01,1.287772563902758044e-02
2.435999999999999943e+01,9.088233766099755931e-03
2.439999999999999858e+01,1.423608084862029548e-02
2.444000000000000128e+01,1.044632304493837288e-02
2.448000000000000043e+01,1.820639597081101513e-02
2.451999999999999957e+01,8.091392076980619130e-03
2.455999999999999872e+01,1.048871587143845353e-02
2.460000000000000142e+01,9.585917031749147804e-03
2.464000000000000057e+01,7.514238852651936376e-03
2.467999999999999972e+01,2.049863034352514268e-02
2.471999999999999886e+01,1.113920901414471032e-02
2.476000000000000156e+01,1.140462440390041347e-02
2.480000000000000071e+01,9.126164740970893127e-03
2.483999999999999986e+01,1.358505085337573248e-02
2.487999999999999901e+01,9.243831554574843609e-03
2.492000000000000171e+01,9.371215143071117901e-03
2.496000000000000085e+01,5.235979045735578499e-03
2.500000000000000000e+01,1.333807140784198410e-02
2.503999999999999915e+01,9.890066965988448394e-03
2.507999999999999829e+01,1.455440392824565617e-02
2.512000000000000099e+01,7.599894285668870771e-03
2.516000000000000014e+01,1.350146112449836407e-02
2.519999999999999929e+01,8.540428965306001013e-03
2.523999999999999844e+01,4.816759779039184175e-03
2.528000000000000114e+01,9.067932386685082294e-03
2.532000000000000028e+01,1.153147745550700543e-02
2.535999999999999943e+01,8.769905778362367330e-03
2.539999999999999858e+01,7.658195744186055247e-03
2.544000000000000128e+01,6.202603609286339373e-03
2.548000000000000043e+01,1.928137142154601582e-03
2.551999999999999957e+01,1.490973325470466848e-02
2.555999999999999872e+01,1.036000124771882872e-02
2.560000000000000142e+01,1.351011183114961441e-02
2.564000000000000057e+01,1.473509524020801854e-02
2.567999999999999972e+01,1.169745881133310572e-02
2.571999999999999886e+01,1.484716970009992282e-02
2.576000000000000156e+01,6.653032984726757297e-03
2.580000000000000071e+01,1.392746440656480490e-02
2.583999999999999986e+01,1.597677898103532640e-02
2.587999999999999901e+01,1.376347367532206566e-02
2.592000000000000171e+01,8.731293944425863249e-03
2.596000000000000085e+01,8.923964504836973816e-03
2.600000000000000000e+01,6.916508678929567978e-03
2.603999999999999915e+01,9.790154207560086003e-03
2.607999999999999829e+01,1.582615648293216742e-02
2.612000000000000099e+01,1.065581064606124090e-02
2.616000000000000014e+01,1.174156181785493934e-02
2.619999999999999929e+01,1.598966971103994369e-02
2.623999999999999844e+01,8.893929898684002286e-03
2.628000000000000114e+01,1.396676849139348239e-02
2.632000000000000028e+01,1.381449013533444375e-02
2.635999999999999943e+01,1.352457883612161703e-02
2.639999999999999858e+01,6.703304675736916282e-03
2.644000000000000128e+01,1.260060715840813014e-02
2.648000000000000043e+01,6.810312964968617822e-03
2.651999999999999957e+01,1.153860231052166244e-02
2.655999999999999872e+01,1.097302487263180498e-02
2.660000000000000142e+01,8.963568545384501332e-03
2.664000000000000057e+01,1.231646193374085450e-02
2.667999999999999972e+01,1.003173959343478007e-02
2.671999999999999886e+01,1.352186565567520260e-02
2.676000000000000156e+01,1.206187381209158568e-02
2.680000000000000071e+01,5.308015134364556936e-03
2.683999999999999986e+01,1.429772351004190631e-02
2.687999999999999901e+01,1.359357886034939962e-02
2.692000000000000171e+01,5.808072967843155507e-03
2.696000000000000085e+01,1.424738259120798822e-02
2.700000000000000000e+01,1.381783657153889781e-02
2.703999999999999915e+01,1.194441156956141392e-02
2.707999999999999829e+01,1.062085131206716958e-02
2.712000000000000099e+01,7.922161839338314610e-03
2.716000000000000014e+01,6.735834069826364748e-03
2.719999999999999929e+01,1.043060740979985350e-02
2.723999999999999844e+01,1.178775453355453660e-02
2.728000000000000114e+01,1.445101398325440711e-02
2.732000000000000028e+01,8.589166642188870299e-03
2.735999999999999943e+01,1.441464899021952656e-02
2.739999999999999858e+01,4.977545701147412585e-03
2.744000000000000128e+01,9.565264739382201703e-03
2.748000000000000043e+01,1.160910815877615014e-02
2.751999999999999957e+01,5.746592800918951839e-03
2.755999999999999872e+01,4.421429556627185474e-03
2.760000000000000142e+01,9.489862584744743895e-03
2.764000000000000057e+01,4.383193939123849504e-03
2.767999999999999972e+01,7.320116364384512790e-03
2.771999999999999886e+01,1.369439432582868904e-02
2.776000000000000156e+01,7.074829445256372064e-03
2.780000000000000071e+01,8.980104098032249890e-03
2.783999999999999986e+01,1.219149095845210862e-02
2.787999999999999901e+01,1.478399606679803129e-02
2.792000000000000171e+01,9.401392529418153149e-03
2.796000000000000085e+01,1.316237654735077228e-02
2.800000000000000000e+01,9.085751470605094374e-03
2.803999999999999915e+01,8.858980566285375169e-03
2.807999999999999829e+01,7.325830027902835613e-03
2.812000000000000099e+01,1.039878126875845750e-02
2.816000000000000014e+01,1.711533730476822585e-02
2.819999999999999929e+01,1.207554651733985795e-02
2.823999999999999844e+01,1.047311115624393121e-02
2.828000000000000114e+01,1.375177667648123069e-02
2.832000000000000028e+01,3.417851180636198236e-03
2.835999999999999943e+01,6.971248249798444284e-03
2.839999999999999858e+01,5.849526202578616066e-03
2.844000000000000128e+01,1.009015349070857374e-02
2.848000000000000043e+01,6.011923094942269938e-03
2.851999999999999957e+01,4.821049794567057976e-03
2.855999999999999872e+01,3.973791574100416467e-03
2.860000000000000142e+01,6.495138919941591781e-03
2.864000000000000057e+01,4.135117746778655193e-03
2.867999999999999972e+01,6.312448450578800850e-03
2.871999999999999886e+01,7.870897224853340771e-03
2.876000000000000156e+01,9.841710820759869832e-03
2.880000000000000071e+01,1.050614463050205880e-02
2.883999999999999986e+01,1.048294670139451185e-02
2.887999999999999901e+01,1.100961313651639857e-02
2.892000000000000171e+01,1.009240019217601952e-02
2.896000000000000085e+01,1.013755029900803399e-02
2.900000000000000000e+01,1.038881582484995486e-02
2.903999999999999915e+01,9.127452161905573458e-03
2.907999999999999829e+01,2.778470535084529968e-03
2.912000000000000099e+01,4.610579242889716219e-03
2.916000000000000014e+01,1.029254188651851365e-02
2.919999999999999929e+01,6.211901230698716782e-03
2.923999999999999844e+01,5.431116222011586787e-03
2.928000000000000114e+01,1.008143015519635290e-02
2.932000000000000028e+01,1.136287067315022888e-02
2.935999999999999943e+01,8.450440359736981558e-03
2.939999999999999858e+01,8.975365227603736978e-03
2.944000000000000128e+01,1.053140282921571740e-02
2.948000000000000043e+01,1.579979473110296184e-02
2.951999999999999957e+01,7.386845579431489291e-03
2.955999999999999872e+01,5.986240341879910977e-03
2.960000000000000142e+01,7.060493267724024524e-03
2.964000000000000057e+01,6.759616445978224378e-03
2.967999999999999972e+01,6.527355331643247029e-03
2.971999999999999886e+01,5.401212940635126934e-03
2.976000000000000156e+01,2.349942504896043206e-03
2.980000000000000071e+01,1.229224713830119435e-02
2.983999999999999986e+01,1.157820114539634578e-02
2.987999999999999901e+01,1.127651973752118522e-02
2.992000000000000171e+01,7.743464355611553475e-03
2.996000000000000085e+01,8.885260148210068210e-03
3.000000000000000000e+01,8.583176333194074414e-03
3.003999999999999915e+01,3.949721975211780041e-03
3.007999999999999829e+01,8.047356020844506977e-03
3.012000000000000099e+01,4.651129443813701442e-03
3.016000000000000014e+01,1.039848995734083195e-02
3.019999999999999929e+01,2.877007977500954748e-03
3.023999999999999844e+01,1.233658844433763689e-02
3.028000000000000114e+01,5.571085690031631586e-03
3.032000000000000028e+01,2.105438354706018738e-03
3.035999999999999943e+01,9.914621370877240575e-03
3.039999999999999858e+01,6.654954938594226030e-03
3.044000000000000128e+01,6.282645196098250381e-03
3.048000000000000043e+01,8.385193431096145747e-03
3.051999999999999957e+01,5.262623830066727286e-03
3.055999999999999872e+01,6.058657653081857102e-03
3.060000000000000142e+01,3.279568438541892103e-03
3.064000000000000057e+01,7.994071397786456715e-03
3.067999999999999972e+01,9.752199358340365651e-03
3.071999999999999886e+01,5.391462248956510432e-03
3.076000000000000156e+01,1.271805411041177121e-02
3.080000000000000071e+01,1.550702591642759767e-02
3.083999999999999986e+01,9.289641700253729525e-03
3.087999999999999901e+01,1.152834658279776846e-02
3.092000000000000171e+01,8.610683328787510291e-03
3.096000000000000085e+01,1.071161995790255797e-02
3.100000000000000000e+01,1.129992698417713395e-02
3.103999999999999915e+01,1.147560094274274745e-02
3.107999999999999829e+01,8.076151762352243996e-03
3.112000000000000099e+01,1.031405048705135233e-02
3.116000000000000014e+01,4.920588801437075603e-03
3.119999999999999929e+01,7.776966795018503027e-03
3.123999999999999844e+01,1.379570044528071089e-02
3.128000000000000114e+01,8.745584461186846348e-03
3.132000000000000028e+01,7.064073468795104872e-03
3.135999999999999943e+01,5.244928476989154167e-03
3.139999999999999858e+01,5.625642132429746999e-03
3.144000000000000128e+01,1.267495038496702260e-02
3.148000000000000043e+01,9.617905936531674638e-03
3.151999999999999957e+01,8.210721838201838485e-03
3.155999999999999872e+01,6.115905426416543174e-03
3.160000000000000142e+01,4.983451508098099905e-03
3.164000000000000057e+01,9.350845817070485913e-03
3.167999999999999972e+01,9.455619020596994773e-03
3.171999999999999886e+01,8.804010092893889763e-03
3.176000000000000156e+01,1.014601038446505052e-02
3.180000000000000071e+01,1.416911772659885070e-02
3.183999999999999986e+01,9.185868835290865800e-03
3.187999999999999901e+01,8.464972009043924758e-03
3.192000000000000171e+01,1.063143155993093690e-02
3.196000000000000085e+01,9.154018001986138561e-03
3.200000000000000000e+01,1.152645777990904744e-02
3.203999999999999915e+01,2.830047762924254185e-03
3.207999999999999829e+01,1.290219418723226319e-02
3.211999999999999744e+01,1.582422848624180645e-02
3.215999999999999659e+01,1.503363985019532008e-02
3.220000000000000284e+01,8.536684535401014434e-03
3.224000000000000199e+01,9.120822352544830786e-03
3.228000000000000114e+01,1.217981776692875044e-02
3.232000000000000028e+01,1.001369496503157902e-02
3.235999999999999943e+01,1.217867391076830202e-02
3.239999999999999858e+01,9.462283543193004617e-03
3.243999999999999773e+01,8.258253763423577948e-03
3.247999999999999687e+01,2.172854653441995930e-03
3.252000000000000313e+01,6.949786734809636213e-03
3.256000000000000227e+01,7.739096660724960851e-03
3.260000000000000142e+01,2.065792199679334154e-03
3.264000000000000057e+01,1.192980421485442463e-02
3.267999999999999972e+01,0.000000000000000000e+00
3.271999999999999886e+01,1.957517429093743374e-03
3.275999999999999801e+01,9.827381552719047231e-03
3.279999999999999716e+01,1.089088232726375532e-02
3.284000000000000341e+01,1.071675224615951591e-02
3.288000000000000256e+01,1.205498265991025719e-02
3.292000000000000171e+01,1.284308004085040963e-02
3.296000000000000085e+01,1.232479675681754684e-02
3.300000000000000000e+01,9.193886903858451698e-03
3.303999999999999915e+01,1.080657735872488263e-02
3.307999999999999829e+01,8.569145116235628995e-03
3.311999999999999744e+01,8.875320077508588867e-03
3.315999999999999659e+01,8.768861523218129603e-03
3.320000000000000284e+01,4.881030030195587094e-03
3.324000000000000199e+01,2.780558091872667708e-03
3.328000000000000114e+01,9.617423233079593764e-03
3.332000000000000028e+01,1.054167210701484163e-02
3.335999999999999943e+01,6.447051896888386126e-03
3.339999999999999858e+01,8.746026733909088510e-03
3.343999999999999773e+01,7.744877069314160152e-03
3.347999999999999687e+01,1.396231984265241567e-02
3.352000000000000313e+01,9.110912508429897666e-03
3.356000000000000227e+01,2.746875030561561279e-03
3.360000000000000142e+01,1.102640663445189108e-02
3.364000000000000057e+01,9.268334865038922038e-03
3.367999999999999972e+01,8.060126445845356216e-03
3.371999999999999886e+01,1.015177272737507672e-02
3.375999999999999801e+01,5.299555889074467757e-03
3.379999999999999716e+01,9.797174724295731538e-03
3.384000000000000341e+01,8.038428262524963813e-03
3.388000000000000256e+01,4.354552885664634762e-03
3.392000000000000171e+01,8.095519205708124819e-03
3.396000000000000085e+01,1.073635400144804831e-02
3.400000000000000000e+01,1.069581223303578930e-02
3.403999999999999915e+01,5.430151884988853282e-03
3.407999999999999829e+01,1.288306656603181027e-02
3.411999999999999744e+01,5.829641814070265181e-03
3.415999999999999659e+01,1.025729596276911404e-02
3.420000000000000284e+01,1.193482372109154477e-02
3.424000000000000199e+01,7.630985233816544970e-03
3.428000000000000114e+01,8.689494848179117950e-03
3.432000000000000028e+01,9.472870269873579635e-03
3.435999999999999943e+01,1.121860760197910742e-02
3.439999999999999858e+01,1.296420986041173923e-02
3.443999999999999773e+01,1.010344151047350321e-02
3.447999999999999687e+01,1.019877878083771776e-02
3.452000000000000313e+01,1.105022857589111306e-02
3.456000000000000227e+01,5.989061841720271992e-03
3.460000000000000142e+01,8.146487308880264247e-03
3.464000000000000057e+01,1.126627462730075448e-02
3.467999999999999972e+01,1.747966709172098579e-02
3.471999999999999886e+01,6.986726909222284662e-03
3.475999999999999801e+01,1.601859022557311843e-02
3.479999999999999716e+01,1.418785251588204101e-02
3.484000000000000341e+01,9.744487848560858326e-03
3.488000000000000256e+01,1.355096208302771464e-02
3.492000000000000171e+01,9.244826625056374106e-03
3.496000000000000085e+01,1.318853005197286217e-02
3.500000000000000000e+01,8.675874849681733045e-03
3.503999999999999915e+01,7.600573637208845809e-03
3.507999999999999829e+01,9.068879214444061643e-03
3.511999999999999744e+01,1.356204006075424455e-02
3.515999999999999659e+01,1.269258252287969006e-02
3.520000000000000284e+01,1.072299319874899307e-02
3.524000000000000199e+01,7.034524024147412700e-03
3.528000000000000114e+01,1.358963740207462002e-02
3.532000000000000028e+01,1.787587264083998276e-02
3.535999999999999943e+01,1.789948599675179192e-02
3.539999999999999858e+01,1.262923070175223615e-02
3.543999999999999773e+01,1.327132153512862282e-02
3.547999999999999687e+01,1.741951604934617592e-02
3.552000000000000313e+01,1.579259339948514348e-02
3.556000000000000227e+01,1.292803931936951922e-02
3.560000000000000142e+01,1.260709191911091147e-02
3.564000000000000057e+01,1.682349492550085784e-02
3.567999999999999972e+01,1.856477036475666365e-02
3.571999999999999886e+01,1.624967319702970425e-02
3.575999999999999801e+01,1.420943980422239780e-02
3.579999999999999716e+01,1.581280959260326219e-02
3.584000000000000341e+01,1.927228817040217354e-02
3.588000000000000256e+01,1.654415080422864601e-02
3.592000000000000171e+01,1.745961659389306739e-02
3.596000000000000085e+01,2.167493661107607397e-02
3.600000000000000000e+01,2.815886408771987523e-02
3.603999999999999915e+01,1.910520496614741964e-02
3.607999999999999829e+01,2.792635424919935952e-02
3.611999999999999744e+01,2.705364855491204992e-02
3.615999999999999659e+01,2.913704812602369021e-02
3.620000000000000284e+01,2.606407844516998515e-02
3.624000000000000199e+01,2.814720709997822756e-02
3.628000000000000114e+01,3.222394401920124912e-02
3.632000000000000028e+01,3.671304416299046858e-02
3.635999999999999943e+01,2.477081044930272077e-02
3.639999999999999858e+01,2.946588896110941685e-02
3.643999999999999773e+01,2.584210810745318429e-02
3.647999999999999687e+01,3.239315976884939857e-02
3.652000000000000313e+01,3.014410356006556185e-02
3.656000000000000227e+01,3.311989540331686938e-02
3.660000000000000142e+01,3.389555862097749783e-02
3.664000000000000057e+01,3.027110011743421036e-02
3.667999999999999972e+01,3.551522819118978214e-02
3.671999999999999886e+01,3.381549251980883741e-02
3.675999999999999801e+01,3.520936155502328579e-02
3.679999999999999716e+01,3.529684911405667896e-02
3.684000000000000341e+01,4.122793272173926743e-02
3.688000000000000256e+01,3.602141572808017361e-02
3.692000000000000171e+01,2.895851896109899459e-02
3.696000000000000085e+01,3.956418106091882936e-02
3.700000000000000000e+01,3.971974037378524225e-02
3.703999999999999915e+01,3.540642809697301663e-02
3.707999999999999829e+01,4.449918805523291748e-02
3.711999999999999744e+01,4.630433526398619604e-02
3.715999999999999659e+01,4.480935718526603967e-02
3.720000000000000284e+01,4.840172745543196847e-02
3.724000000000000199e+01,4.835022350135509406e-02
3.728000000000000114e+01,4.884858213699004581e-02
3.732000000000000028e+01,5.622178347948093152e-02
3.735999999999999943e+01,6.435109674670506930e-02
3.739999999999999858e+01,6.189280757452723936e-02
3.743999999999999773e+01,5.874688484673167704e-02
3.747999999999999687e+01,6.515704636697183805e-02
3.752000000000000313e+01,6.991707733906019073e-02
3.756000000000000227e+01,7.777071284874220725e-02
3.760000000000000142e+01,8.686170872027398904e-02
3.764000000000000057e+01,9.375257574651287007e-02
3.767999999999999972e+01,1.094432793548247018e-01
3.771999999999999886e+01,1.060901570273504596e-01
3.775999999999999801e+01,1.238430825963680315e-01
3.779999999999999716e+01,1.339646463523583020e-01
3.784000000000000341e+01,1.444298232278377336e-01
3.788000000000000256e+01,1.778572921417526653e-01
3.792000000000000171e+01,1.890784450148339790e-01
3.796000000000000085e+01,2.297931193869662547e-01
3.800000000000000000e+01,2.622576838480562555e-01
3.803999999999999915e+01,3.169970424740429227e-01
3.807999999999999829e+01,3.828049804687386759e-01
3.811999999999999744e+01,4.559002597051317607e-01
3.815999999999999659e+01,5.545703227118160550e-01
3.820000000000000284e+01,6.667839572849176832e-01
3.824000000000000199e+01,7.894474231371634287e-01
3.828000000000000114e+01,9.041357781551118133e-01
3.832000000000000028e+01,9.691179034581860474e-01
3.835999999999999943e+01,1.000000000000000000e+00
3.839999999999999858e+01,9.564946943634276000e-01
3.843999999999999773e+01,8.430707224983193804e-01
3.847999999999999687e+01,7.388590857501253772e-01
3.852000000000000313e+01,6.201411086394177374e-01
3.856000000000000227e+01,4.911792777641250662e-01
3.860000000000000142e+01,4.195546307620908189e-01
3.864000000000000057e+01,3.497173421739949162e-01
3.867999999999999972e+01,3.009861012880389874e-01
3.871999999999999886e+01,2.446922481786775461e-01
3.875999999999999801e+01,2.103294401622420873e-01
3.879999999999999716e+01,1.861414641707541950e-01
3.884000000000000341e+01,1.612658543278956413e-01
3.888000000000000256e+01,1.498650661238292714e-01
3.892000000000000171e+01,1.340641557169041376e-01
3.896000000000000085e+01,1.166131144576242479e-01
3.900000000000000000e+01,1.037681726791597064e-01
3.903999999999999915e+01,9.573557972498203394e-02
3.907999999999999829e+01,9.595282478533356807e-02
3.911999999999999744e+01,9.245744544031449241e-02
3.915999999999999659e+01,8.366819665007615980e-02
3.920000000000000284e+01,7.900379881058583464e-02
3.924000000000000199e+01,7.509551249867485456e-02
3.928000000000000114e+01,6.541210822837741079e-02
3.932000000000000028e+01,5.785981114823612187e-02
3.935999999999999943e+01,6.728857458815230841e-02
3.939999999999999858e+01,5.581726757008497602e-02
3.943999999999999773e+01,6.167076997504422620e-02
3.947999999999999687e+01,5.418667814224317064e-02
3.952000000000000313e+01,5.392117747141270817e-02
3.956000000000000227e+01,4.547431634396047889e-02
3.960000000000000142e+01,4.438354592952636901e-02
3.964000000000000057e+01,4.590513112546463353e-02
3.967999999999999972e+01,4.467658877336502798e-02
3.971999999999999886e+01,3.567918463468641721e-02
3.975999999999999801e+01,4.868157516165542986e-02
3.979999999999999716e+01,4.243388996151248316e-02
3.984000000000000341e+01,4.127355255255012179e-02
3.988000000000000256e+01,3.653809014561321816e-02
3.992000000000000171e+01,4.190870974304771596e-02
3.996000000000000085e+01,4.019796534294121232e-02
4.000000000000000000e+01,3.587459289514383087e-02
4.003999999999999915e+01,3.801356387575357404e-02
4.007999999999999829e+01,4.001489901483084449e-02
4.011999999999999744e+01,3.720361299370380376e-02
4.015999999999999659e+01,3.281094565069329894e-02
4.020000000000000284e+01,3.611811781381886466e-02
4.024000000000000199e+01,3.083143067282817160e-02
4.028000000000000114e+01,2.863834749482549805e-02
4.032000000000000028e+01,3.167011157455008191e-02
4.035999999999999943e+01,3.813922852023178545e-02
4.039999999999999858e+01,3.271449649725208936e-02
4.043999999999999773e+01,3.492085414573413427e-02
4.047999999999999687e+01,3.382708580538581339e-02
4.052000000000000313e+01,3.328317937029258433e-02
4.056000000000000227e+01,3.466413051148133778e-02
4.060000000000000142e+01,2.662622486481690601e-02
4.064000000000000057e+01,2.979439761400393474e-02
4.067999999999999972e+01,2.986869368403172187e-02
4.071999999999999886e+01,3.186784729654117132e-02
4.075999999999999801e+01,3.084187399696505447e-02
4.079999999999999716e+01,2.789077032043484755e-02
4.084000000000000341e+01,3.009576400780698477e-02
4.088000000000000256e+01,3.429436498783429432e-02
4.092000000000000171e+01,3.347409528673409018e-02
4.096000000000000085e+01,2.440371504928535301e-02
4.100000000000000000e+01,2.626441399574192329e-02
4.103999999999999915e+01,2.805622668183787444e-02
4.107999999999999829e+01,2.881665612348922184e-02
4.111999999999999744e+01,2.847695252827201623e-02
4.115999999999999659e+01,3.123085271014098760e-02
4.120000000000000284e+01,2.724713755238561408e-02
4.124000000000000199e+01,2.848826945800558494e-02
4.128000000000000114e+01,3.302925446728302572e-02
4.132000000000000028e+01,2.815138253660575893e-02
4.135999999999999943e+01,3.234834554648912536e-02
4.139999999999999858e+01,2.850144727899457664e-02
4.143999999999999773e+01,2.829815100122644311e-02
4.147999999999999687e+01,2.816346793809443305e-02
4.152000000000000313e+01,2.713490110551460346e-02
4.156000000000000227e+01,2.651869639053999056e-02
4.160000000000000142e+01,2.143361912257722365e-02
4.164000000000000057e+01,2.501087803218140365e-02
4.167999999999999972e+01,1.971927819757093164e-02
4.171999999999999886e+01,2.020252359672555439e-02
4.175999999999999801e+01,2.652936400516909057e-02
4.179999999999999716e+01,2.453734391583850538e-02
4.184000000000000341e+01,2.398893264457026622e-02
4.188000000000000256e+01,2.048414400858797335e-02
4.192000000000000171e+01,2.069170704490492368e-02
4.196000000000000085e+01,2.619286677646955400e-02
4.200000000000000000e+01,2.578140840709434653e-02
4.203999999999999915e+01,1.656984100142755434e-02
4.207999999999999829e+01,2.062684520662470128e-02
4.211999999999999744e+01,2.090247458872110733e-02
4.215999999999999659e+01,2.351545991293924748e-02
4.220000000000000284e+01,1.932207990230710645e-02
4.224000000000000199e+01,2.262228961493523496e-02
4.228000000000000114e+01,2.372236950206081316e-02
4.232000000000000028e+01,1.918483035654127561e-02
4.235999999999999943e+01,2.420337442814724654e-02
4.239999999999999858e+01,2.605929167326652071e-02
4.243999999999999773e+01,2.083384439693959297e-02
4.247999999999999687e+01,2.124574262587851717e-02
4.252000000000000313e+01,2.021375860232672850e-02
4.256000000000000227e+01,2.275662654792511702e-02
4.260000000000000142e+01,2.254936632862949639e-02
4.264000000000000057e+01,2.502321086992386964e-02
4.267999999999999972e+01,1.711570120832677649e-02
4.271999999999999886e+01,2.728924790056174929e-02
4.275999999999999801e+01,2.495019706981575769e-02
4.279999999999999716e+01,3.003598606005503449e-02
4.284000000000000341e+01,2.226542859054392309e-02
4.288000000000000256e+01,2.281345811677795016e-02
4.292000000000000171e+01,2.226135422588967558e-02
4.296000000000000085e+01,2.734659573886622994e-02
4.300000000000000000e+01,2.301297995698457430e-02
4.303999999999999915e+01,2.521045675372759684e-02
4.307999999999999829e+01,2.727029707518187698e-02
4.311999999999999744e+01,2.926125069687115360e-02
4.315999999999999659e+01,2.918957387510375673e-02
4.320000000000000284e+01,2.815526314501114180e-02
4.324000000000000199e+01,2.938955834491419061e-02
4.328000000000000114e+01,3.227371141059812154e-02
4.332000000000000028e+01,3.474522881439742056e-02
4.335999999999999943e+01,3.604786292414963178e-02
4.339999999999999858e+01,3.769410897882937567e-02
4.343999999999999773e+01,3.583397906745098421e-02
4.347999999999999687e+01,3.232371734885834680e-02
4.352000000000000313e+01,3.898828665810338823e-02
4.356000000000000227e+01,3.575275006637210207e-02
4.360000000000000142e+01,4.166079772597062331e-02
4.364000000000000057e+01,4.433746851315600174e-02
4.367999999999999972e+01,5.182648714441850241e-02
4.371999999999999886e+01,5.072164573640747243e-02
4.375999999999999801e+01,4.714167505434541106e-02
4.379999999999999716e+01,5.476778210057819257e-02
4.384000000000000341e+01,5.771876676869656941e-02
4.388000000000000256e+01,5.895086976112599852e-02
4.392000000000000171e+01,6.341407551553354671e-02
4.396000000000000085e+01,6.746464547285509206e-02
4.400000000000000000e+01,7.027758221695434848e-02
4.403999999999999915e+01,8.354034901493566367e-02
4.407999999999999829e+01,8.504676563479560136e-02
4.411999999999999744e+01,9.060928238206938934e-02
4.415999999999999659e+01,1.011903962239408955e-01
4.420000000000000284e+01,1.042776464687194260e-01
4.424000000000000199e+01,1.149272357982278892e-01
4.428000000000000114e+01,1.214517009284618310e-01
4.432000000000000028e+01,1.337510107432054729e-01
4.435999999999999943e+01,1.473564292757084948e-01
4.439999999999999858e+01,1.670804413956903378e-01
4.443999999999999773e+01,1.766293482928985026e-01
4.447999999999999687e+01,1.936718444401623052e-01
4.452000000000000313e+01,1.966892474452167916e-01
4.456000000000000227e+01,2.094689825545637263e-01
4.460000000000000142e+01,2.133111085188660327e-01
4.464000000000000057e+01,2.156406019988492961e-01
4.467999999999999972e+01,2.062137451739600447e-01
4.471999999999999886e+01,1.921805155690282929e-01
4.475999999999999801e+01,1.798658933011982597e-01
4.479999999999999716e+01,1.689261294421505188e-01
4.484000000000000341e+01,1.495987546591484862e-01
4.488000000000000256e+01,1.445024478711383897e-01
4.492000000000000171e+01,1.251060487205227223e-01
4.496000000000000085e+01,1.158844802935418278e-01
4.500000000000000000e+01,1.010940420517340288e-01
4.503999999999999915e+01,9.833467868395467937e-02
4.507999999999999829e+01,8.526271039025273835e-02
4.511999999999999744e+01,7.487184633323558380e-02
4.515999999999999659e+01,6.537459212113307105e-02
4.520000000000000284e+01,6.605216858196474861e-02
4.524000000000000199e+01,6.012962841766134048e-02
4.528000000000000114e+01,5.482569893702690655e-02
4.532000000000000028e+01,4.862788488418669230e-02
4.535999999999999943e+01,4.524867458527848801e-02
4.539999999999999858e+01,4.468806803185217807e-02
4.543999999999999773e+01,3.993358725012505217e-02
4.547999999999999687e+01,3.827270933287509752e-02
4.552000000000000313e+01,3.537419788129968906e-02
4.556000000000000227e+01,3.116930310297488793e-02
4.560000000000000142e+01,2.476427779779062643e-02
4.564000000000000057e+01,2.867158264053731170e-02
4.567999999999999972e+01,2.577252141327642659e-02
4.571999999999999886e+01,2.741080846324302905e-02
4.575999999999999801e+01,2.396147402564810860e-02
4.579999999999999716e+01,2.209324713750499339e-02
4.584000000000000341e+01,1.974363427114810346e-02
4.588000000000000256e+01,1.842513066555202805e-02
4.592000000000000171e+01,2.109397702314223799e-02
4.596000000000000085e+01,1.915645033873743935e-02
4.600000000000000000e+01,1.893753072948172259e-02
4.603999999999999915e+01,1.823722509976180919e-02
4.607999999999999829e+01,1.994302436802930859e-02
4.611999999999999744e+01,1.862369559190000731e-02
4.615999999999999659e+01,1.751047860969476289e-02
4.620000000000000284e+01,1.378463227003566549e-02
4.624000000000000199e+01,1.727737567273306823e-02
4.628000000000000114e+01,1.403250266264551190e-02
4.632000000000000028e+01,1.683747305045884407e-02
4.635999999999999943e+01,1.386732398422092609e-02
4.639999999999999858e+01,1.055328838941576967e-02
4.643999999999999773e+01,1.830783039725223868e-02
4.647999999999999687e+01,1.327477496035460100e-02
4.652000000000000313e+01,1.518531007076748089e-02
4.656000000000000227e+01,1.269572136435567419e-02
4.660000000000000142e+01,8.556000191623064008e-03
4.664000000000000057e+01,1.170361846071996635e-02
4.667999999999999972e+01,1.223860727096202396e-02
4.671999999999999886e+01,1.325470689272235762e-02
4.675999999999999801e+01,1.722690954060945162e-02
4.679999999999999716e+01,9.786510355638733741e-03
4.684000000000000341e+01,7.983455754874732579e-03
4.688000000000000256e+01,9.961501562573442034e-03
4.692000000000000171e+01,7.745672829318260219e-03
4.696000000000000085e+01,6.973451832514739740e-03
4.700000000000000000e+01,1.225107408996069236e-02
4.703999999999999915e+01,8.728586254854611357e-03
4.707999999999999829e+01,7.268454186614577671e-03
4.711999999999999744e+01,9.658172260110599316e-03
4.715999999999999659e+01,1.074150666885389724e-02
4.720000000000000284e+01,8.387214101205058697e-03
4.724000000000000199e+01,9.814021865968176536e-03
4.728000000000000114e+01,8.146951557308225109e-03
4.732000000000000028e+01,9.435984156473882153e-03
4.735999999999999943e+01,7.906137801211699997e-03
4.739999999999999858e+01,1.008864196058728742e-02
4.743999999999999773e+01,5.946028165968593807e-03
4.747999999999999687e+01,9.365752771623018710e-03
4.752000000000000313e+01,8.866601845467707993e-03
4.756000000000000227e+01,1.077355550464671394e-02
4.760000000000000142e+01,9.999129726645067731e-03
4.764000000000000057e+01,8.674567806202038503e-03
4.767999999999999972e+01,6.868619518841390277e-03
4.771999999999999886e+01,8.912521246465533384e-03
4.775999999999999801e+01,1.260627989346121969e-02
4.779999999999999716e+01,1.045616899822879656e-02
4.784000000000000341e+01,8.443419758043045620e-03
4.788000000000000256e+01,6.980530868297002423e-03
4.792000000000000171e+01,1.012373957499767760e-02
4.796000000000000085e+01,9.966820712702318535e-03
4.800000000000000000e+01,6.234775137065468910e-03
4.803999999999999915e+01,1.047756654724369026e-02
4.807999999999999829e+01,7.295243324644678194e-03
4.811999999999999744e+01,9.131516360085059972e-03
4.815999999999999659e+01,7.048913728514356880e-03
4.820000000000000284e+01,8.541161874632052786e-03
4.824000000000000199e+01,8.245777640027828620e-03
4.828000000000000114e+01,7.194007775859316556e-03
4.832000000000000028e+01,6.417099033284181728e-03
4.835999999999999943e+01,9.765039306387900825e-03
4.839999999999999858e+01,1.146284673291705913e-02
4.843999999999999773e+01,5.735539450618241074e-03
4.847999999999999687e+01,5.645576406072697409e-03
4.852000000000000313e+01,6.036723792791680310e-03
4.856000000000000227e+01,1.124021799267758102e-02
4.860000000000000142e+01,4.481111707661104490e-03
4.864000000000000057e+01,8.171834504767038279e-03
4.867999999999999972e+01,8.356180228853883271e-03
4.871999999999999886e+01,6.546644118896244313e-03
4.875999999999999801e+01,6.799463420901160661e-03
4.879999999999999716e+01,6.777145471307650069e-03
4.884000000000000341e+01,1.149842449175663729e-02
4.888000000000000256e+01,1.175082942130222484e-02
4.892000000000000171e+01,5.196867596383476437e-03
4.896000000000000085e+01,8.748985866117215196e-03
4.900000000000000000e+01,1.016972267470818252e-02
4.903999999999999915e+01,7.259084926543125059e-03
4.907999999999999829e+01,6.342052738766080361e-03
4.911999999999999744e+01,8.724871998430125397e-03
4.915999999999999659e+01,7.257565163804828752e-03
4.920000000000000284e+01,9.021359975746590792e-03
4.924000000000000199e+01,4.047537749597197171e-03
4.928000000000000114e+01,2.717315856957778272e-03
4.932000000000000028e+01,9.361930679730763941e-03
4.935999999999999943e+01,6.450187296134516669e-03
4.939999999999999858e+01,8.075791412358035437e-03
4.943999999999999773e+01,7.776263326409428404e-03
4.947999999999999687e+01,1.091408617979883373e-02
4.952000000000000313e+01,2.914305761620140500e-03
4.956000000000000227e+01,9.351841701695173814e-03
4.960000000000000142e+01,7.126766576360495445e-03
4.964000000000000057e+01,7.995293436694275030e-03
4.967999999999999972e+01,4.326196253149141441e-03
4.971999999999999886e+01,5.125696717849256498e-03
4.975999999999999801e+01,3.862565344828875185e-03
4.979999999999999716e+01,6.055519096117342043e-04
4.984000000000000341e+01,3.123381992792751815e-03
4.988000000000000256e+01,5.778573300066171953e-03
4.992000000000000171e+01,5.477385544158717631e-03
4.996000000000000085e+01,7.307302730685160709e-03
5.000000000000000000e+01,8.518333492241399879e-03
5.003999999999999915e+01,1.066753095437047516e-03
5.007999999999999829e+01,6.264994563715232771e-03
5.011999999999999744e+01,6.306863839398950747e-03
5.015999999999999659e+01,6.554844063998364542e-03
5.020000000000000284e+01,5.496439981638683199e-03
5.024000000000000199e+01,9.181632573568569711e-03
5.028000000000000114e+01,7.229204451286691535e-03
5.032000000000000028e+01,5.276637892198636839e-03
5.035999999999999943e+01,4.905177919252810305e-03
5.039999999999999858e+01,4.258580356705223176e-03
5.043999999999999773e+01,5.330588931347413073e-03
5.047999999999999687e+01,5.508711843723031881e-03
5.052000000000000313e+01,7.130441740492857519e-03
5.056000000000000227e+01,5.520793302985085339e-03
5.060000000000000142e+01,6.454748376552928331e-03
5.064000000000000057e+01,1.544833307936719973e-03
5.067999999999999972e+01,4.678504451403927254e-03
5.071999999999999886e+01,5.612043986400929406e-03
5.075999999999999801e+01,7.439192183300840505e-03
5.079999999999999716e+01,9.678700545836638192e-03
5.084000000000000341e+01,5.868089372016431493e-03
5.088000000000000256e+01,6.113576897545943724e-03
5.092000000000000171e+01,7.871421106942668236e-03
5.096000000000000085e+01,6.604136249482524083e-03
5.100000000000000000e+01,5.886711083355529277e-03
5.103999999999999915e+01,5.444146464216225757e-03
5.107999999999999829e+01,5.070193031692984791e-03
5.111999999999999744e+01,8.889837815766665416e-03
5.115999999999999659e+01,4.459369908720499376e-03
5.120000000000000284e+01,2.916254305867936950e-03
5.124000000000000199e+01,7.835479765399097629e-03
5.128000000000000114e+01,8.973328466760329206e-03
5.132000000000000028e+01,7.911045432900092739e-03
5.135999999999999943e+01,8.223619422008474761e-03
5.139999999999999858e+01,7.642307554498342301e-03
5.143999999999999773e+01,9.742098588559792299e-03
5.147999999999999687e+01,8.060512822200922509e-03
5.152000000000000313e+01,8.647531236670349952e-03
5.156000000000000227e+01,8.340663760720947936e-03
5.160000000000000142e+01,6.727411682059538170e-03
5.164000000000000057e+01,6.901515271059232778e-03
5.167999999999999972e+01,1.037546976669464008e-02
5.171999999999999886e+01,6.905557348412178983e-03
5.175999999999999801e+01,5.772998844231352900e-03
5.179999999999999716e+01,1.103403150015921062e-02
5.184000000000000341e+01,6.601205857864963708e-03
5.188000000000000256e+01,6.705727191485288431e-03
5.192000000000000171e+01,5.160114934923680508e-03
5.196000000000000085e+01,8.770597693141138004e-03
5.200000000000000000e+01,7.912205701348682535e-03
5.203999999999999915e+01,7.191174477344120658e-03
5.207999999999999829e+01,7.570000988311267366e-03
5.211999999999999744e+01,1.282992334436174921e-02
5.215999999999999659e+01,7.845989062798640681e-03
5.220000000000000284e+01,6.436904713915551045e-03
5.224000000000000199e+01,9.771416616817865664e-03
5.228000000000000114e+01,1.049329787785360443e-02
5.232000000000000028e+01,6.540054969357183938e-03
5.235999999999999943e+01,1.111164640585762288e-02
5.239999999999999858e+01,9.839367328370327362e-03
5.243999999999999773e+01,8.498199582248526854e-03
5.247999999999999687e+01,7.225642726989866746e-03
5.252000000000000313e+01,9.115437032967483449e-03
5.256000000000000227e+01,9.286347829587968117e-03
5.260000000000000142e+01,5.332132669316516985e-03
5.264000000000000057e+01,6.190263460303483366e-03
5.267999999999999972e+01,9.179498619118630839e-03
5.271999999999999886e+01,7.356109955953100965e-03
5.275999999999999801e+01,7.732575427689443968e-03
5.279999999999999716e+01,9.071398914348305018e-03
5.284000000000000341e+01,1.130383062350571489e-02
5.288000000000000256e+01,7.761141501248240877e-03
5.292000000000000171e+01,1.054329351852326471e-02
5.296000000000000085e+01,9.406568854777147201e-03
5.300000000000000000e+01,9.575951083572358316e-03
5.303999999999999915e+01,9.401445381086444980e-03
5.307999999999999829e+01,8.539302819000052155e-03
5.311999999999999744e+01,6.027026413229209963e-03
5.315999999999999659e+01,8.189596280917995838e-03
5.320000000000000284e+01,5.608292009198950594e-03
5.324000000000000199e+01,1.134557254465335709e-02
5.328000000000000114e+01,1.055148454047969385e-02
5.332000000000000028e+01,8.588511138188120730e-03
5.335999999999999943e+01,1.185038223889652367e-02
5.339999999999999858e+01,9.543381750260484034e-03
5.343999999999999773e+01,9.779984172744156032e-03
5.347999999999999687e+01,1.015394705881270988e-02
5.352000000000000313e+01,7.777779473114391703e-03
5.356000000000000227e+01,1.062645634816566063e-02
5.360000000000000142e+01,8.250010511491292359e-03
5.364000000000000057e+01,1.116715890264018823e-02
5.367999999999999972e+01,8.996684133110997503e-03
5.371999999999999886e+01,1.067605811105407435e-02
5.375999999999999801e+01,9.124053078712838355e-03
5.379999999999999716e+01,1.162814612886520910e-02
5.384000000000000341e+01,1.261960475117934743e-02
5.388000000000000256e+01,1.312967569681288728e-02
5.392000000000000171e+01,8.208374511198596526e-03
5.396000000000000085e+01,8.786916837728439220e-03
5.400000000000000000e+01,1.149656325323370788e-02
5.403999999999999915e+01,1.049358211148713853e-02
5.407999999999999829e+01,9.834210658495733115e-03
5.411999999999999744e+01,9.380949317861748613e-03
5.415999999999999659e+01,1.257128727982752096e-02
5.420000000000000284e+01,1.273649549047961571e-02
5.424000000000000199e+01,1.104532026892340521e-02
5.428000000000000114e+01,1.072900145347966891e-02
5.432000000000000028e+01,7.731301781241246493e-03
5.435999999999999943e+01,1.009594596869842209e-02
5.439999999999999858e+01,1.390419632089168016e-02
5.443999999999999773e+01,8.018587825607383437e-03
5.447999999999999687e+01,7.701572516589968130e-03
5.452000000000000313e+01,9.996909674513840618e-03
5.456000000000000227e+01,1.291085555568728845e-02
5.460000000000000142e+01,1.396841792860164730e-02
5.464000000000000057e+01,1.234459937712065539e-02
5.467999999999999972e+01,1.505187785812683865e-02
5.471999999999999886e+01,9.852791815824952365e-03
5.475999999999999801e+01,1.400353701920109550e-02
5.479999999999999716e+01,1.114166487402901487e-02
5.484000000000000341e+01,4.773414354524980682e-03
5.488000000000000256e+01,1.016123749443342827e-02
5.492000000000000171e+01,1.369267705848211704e-02
5.496000000000000085e+01,9.799000536339169676e-03
5.500000000000000000e+01,1.085516903484738324e-02
5.503999999999999915e+01,1.122370025970104331e-02
5.507999999999999829e+01,1.049209549860695423e-02
5.511999999999999744e+01,1.079159804630434698e-02
5.515999999999999659e+01,1.287845551805551735e-02
5.520000000000000284e+01,1.035893799584237593e-02
5.524000000000000199e+01,1.038302300449514548e-02
5.528000000000000114e+01,1.020071917660981403e-02
5.532000000000000028e+01,8.299531256311571542e-03
5.535999999999999943e+01,1.478567747930619423e-02
5.539999999999999858e+01,9.584220916779614963e-03
5.543999999999999773e+01,8.645111442214794759e-03
5.547999999999999687e+01,1.244959753497855599e-02
5.552000000000000313e+01,1.199145748604658890e-02
5.556000000000000227e+01,1.132692854142593013e-02
5.560000000000000142e+01,1.416849902725432313e-02
5.564000000000000057e+01,1.116619831463819268e-02
5.567999999999999972e+01,8.920005656617024589e-03
5.571999999999999886e+01,1.038616175561619601e-02
5.575999999999999801e+01,9.927184317329995969e-03
5.579999999999999716e+01,1.166806037173931387e-02
5.584000000000000341e+01,1.210255092772776105e-02
5.588000000000000256e+01,1.129940576081907636e-02
5.592000000000000171e+01,1.365861103688953415e-02
5.596000000000000085e+01,1.326768532573804026e-02
5.600000000000000000e+01,1.225787192210381522e-02
5.603999999999999915e+01,1.661040202326166323e-02
5.607999999999999829e+01,1.401906428944249376e-02
5.611999999999999744e+01,1.355883019674431096e-02
5.615999999999999659e+01,1.296095686558000788e-02
5.620000000000000284e+01,9.131704008676310574e-03
5.624000000000000199e+01,9.496048286758812865e-03
5.628000000000000114e+01,1.123524854844963269e-02
5.632000000000000028e+01,1.263056018595244169e-02
5.635999999999999943e+01,1.120699096775862671e-02
5.639999999999999858e+01,1.397701885075066340e-02
5.643999999999999773e+01,1.165942299000887090e-02
5.647999999999999687e+01,1.422292205329128874e-02
5.652000000000000313e+01,9.911302972619603219e-03
5.656000000000000227e+01,1.199327404649664156e-02
5.660000000000000142e+01,1.201261183768887950e-02
5.664000000000000057e+01,1.320055618451712598e-02
5.667999999999999972e+01,9.369626520884863710e-03
5.671999999999999886e+01,1.392603071324262018e-02
5.675999999999999801e+01,1.401355915003051240e-02
5.679999999999999716e+01,1.423844734904634521e-02
5.684000000000000341e+01,1.164445459096451370e-02
5.688000000000000256e+01,1.152531423332134666e-02
5.692000000000000171e+01,1.154353361255584971e-02
5.696000000000000085e+01,7.299126545891611827e-03
5.700000000000000000e+01,1.089205500427602863e-02
5.703999999999999915e+01,1.627233798956024755e-02
5.707999999999999829e+01,1.553375033630154806e-02
5.711999999999999744e+01,1.548252064946091175e-02
5.715999999999999659e+01,1.694364632827447328e-02
5.720000000000000284e+01,1.283589961498563491e-02
5.724000000000000199e+01,1.367799744914325634e-02
5.728000000000000114e+01,1.582620127168326771e-02
5.732000000000000028e+01,1.419302706009071581e-02
5.735999999999999943e+01,1.427845752382346338e-02
5.739999999999999858e+01,1.195750561600049215e-02
5.743999999999999773e+01,1.692389086848442373e-02
5.747999999999999687e+01,1.226516641525829572e-02
5.752000000000000313e+01,1.097504141892952437e-02
5.756000000000000227e+01,1.188476954349257375e-02
5.760000000000000142e+01,1.121311266193566157e-02
5.764000000000000057e+01,1.253505953244886222e-02
5.767999999999999972e+01,1.000687850880492384e-02
5.771999999999999886e+01,1.380353761068340950e-02
5.775999999999999801e+01,1.230632333805374568e-02
5.779999999999999716e+01,1.190896559203383394e-02
5.784000000000000341e+01,1.653020205068296208e-02
5.788000000000000256e+01,1.462006899794441109e-02
5.792000000000000171e+01,1.243479676698837182e-02
5.796000000000000085e+01,1.024938448526013270e-02
5.800000000000000000e+01,9.645077175708159992e-03
5.803999999999999915e+01,1.309686705294094665e-02
5.807999999999999829e+01,1.104853413614336616e-02
5.811999999999999744e+01,1.443129406870736521e-02
5.815999999999999659e+01,1.183268270252386088e-02
5.820000000000000284e+01,1.549016157648796382e-02
5.824000000000000199e+01,1.605376006170606759e-02
5.828000000000000114e+01,1.201098290230342633e-02
5.832000000000000028e+01,1.415554617372428992e-02
5.835999999999999943e+01,1.306872946310120957e-02
5.839999999999999858e+01,1.431926526386589731e-02
5.843999999999999773e+01,1.770090421564671918e-02
5.847999999999999687e+01,1.496367223313170049e-02
5.852000000000000313e+01,1.511379100844498745e-02
5.856000000000000227e+01,1.354502500688860821e-02
5.860000000000000142e+01,1.424486169049575535e-02
5.864000000000000057e+01,1.473830882775771685e-02
5.867999999999999972e+01,1.646911187367528298e-02
5.871999999999999886e+01,1.263104220638729298e-02
5.875999999999999801e+01,1.284906957378254000e-02
5.879999999999999716e+01,1.389195412064004112e-02
5.884000000000000341e+01,1.459094951095427604e-02
5.888000000000000256e+01,1.082106869784420222e-02
5.892000000000000171e+01,1.426977494841410142e-02
5.896000000000000085e+01,1.373085346647647496e-02
5.900000000000000000e+01,1.442928782559378155e-02
5.903999999999999915e+01,1.643382780128976872e-02
5.907999999999999829e+01,1.424449066720643101e-02
5.911999999999999744e+01,1.308625999690623924e-02
5.915999999999999659e+01,1.385288297359911491e-02
5.920000000000000284e+01,1.510061412538415276e-02
5.924000000000000199e+01,1.270446640538033106e-02
5.928000000000000114e+01,1.587691085763335425e-02
5.932000000000000028e+01,1.203673700647870347e-02
5.935999999999999943e+01,1.438390336644538615e-02
5.939999999999999858e+01,1.308719082082288217e-02
5.943999999999999773e+01,1.509032754251983695e-02
5.947999999999999687e+01,1.509958015709980846e-02
5.952000000000000313e+01,1.194620232855728333e-02
5.956000000000000227e+01,1.477391531696409070e-02
5.960000000000000142e+01,1.423274849342668832e-02
5.964000000000000057e+01,1.231644558473660687e-02
5.967999999999999972e+01,1.651873303559329986e-02
5.971999999999999886e+01,1.508339777801850218e-02
5.975999999999999801e+01,1.337292295352235025e-02
5.979999999999999716e+01,1.386230077671336651e-02
5.984000000000000341e+01,1.476403685582134383e-02
5.988000000000000256e+01,1.346563939138996011e-02
5.992000000000000171e+01,1.340459757366157037e-02
5.996000000000000085e+01,1.430591225829070008e-02
