2.003999999999999915e+01,5.008313104924741466e-02
2.007999999999999829e+01,1.471808992763930582e-02
2.012000000000000099e+01,3.371488038257164366e-02
2.016000000000000014e+01,4.352157023741359126e-02
2.019999999999999929e+01,4.133439690214172485e-02
2.023999999999999844e+01,5.503521165483882954e-02
2.028000000000000114e+01,4.303488209249377999e-02
2.032000000000000028e+01,3.960160552665308725e-02
2.035999999999999943e+01,4.411232289091489289e-02
2.039999999999999858e+01,3.475999803226558632e-02
2.044000000000000128e+01,4.316483112642560682e-02
2.048000000000000043e+01,4.658519879597189384e-02
2.051999999999999957e+01,3.396181796859797791e-02
2.055999999999999872e+01,4.112053132986662196e-02
2.060000000000000142e+01,2.725102916377396614e-02
2.064000000000000057e+01,3.892690723658982083e-02
2.067999999999999972e+01,3.705126574372782922e-02
2.071999999999999886e+01,3.143726962469031716e-02
2.076000000000000156e+01,4.653995033472604903e-02
2.080000000000000071e+01,3.656453296098156891e-02
2.083999999999999986e+01,2.845828155713048258e-02
2.087999999999999901e+01,4.356093683039049397e-02
2.092000000000000171e+01,2.875679061003489148e-02
2.096000000000000085e+01,4.308060165445809497e-02
2.100000000000000000e+01,4.463170848584561978e-02
2.103999999999999915e+01,5.381526458700558457e-02
2.107999999999999829e+01,4.851270473012145312e-02
2.112000000000000099e+01,5.925387732910245009e-02
2.116000000000000014e+01,5.223787685101511508e-02
2.119999999999999929e+01,4.802562131606938345e-02
2.123999999999999844e+01,5.783215650038143335e-02
2.128000000000000114e+01,3.648576564070423606e-02
2.132000000000000028e+01,6.809929801708272668e-02
2.135999999999999943e+01,6.606766991745557926e-02
2.139999999999999858e+01,5.842849715730731586e-02
2.144000000000000128e+01,6.262740700881666567e-02
2.148000000000000043e+01,5.903806684259172571e-02
2.151999999999999957e+01,6.136775503317379310e-02
2.155999999999999872e+01,7.117411603778282803e-02
2.160000000000000142e+01,6.337905841797240869e-02
2.164000000000000057e+01,6.274914270379433612e-02
2.167999999999999972e+01,6.305378648239066963e-02
2.171999999999999886e+01,5.541441020507699433e-02
2.176000000000000156e+01,5.914581559285064793e-02
2.180000000000000071e+01,5.431014094151664223e-02
2.183999999999999986e+01,5.477042916301788633e-02
2.187999999999999901e+01,4.199069938977331717e-02
2.192000000000000171e+01,3.684339871679594147e-02
2.196000000000000085e+01,3.527864825484947758e-02
2.200000000000000000e+01,3.947715061076018800e-02
2.203999999999999915e+01,4.056032623584356067e-02
2.207999999999999829e+01,3.821664513850067668e-02
2.212000000000000099e+01,3.805362974839201357e-02
2.216000000000000014e+01,3.851363377470618660e-02
2.219999999999999929e+01,3.507948471600256385e-02
2.223999999999999844e+01,4.581986799406576050e-02
2.228000000000000114e+01,2.945718028068764968e-02
2.232000000000000028e+01,3.879559883820038468e-02
2.235999999999999943e+01,4.237068619469374492e-02
2.239999999999999858e+01,4.438808394321385603e-02
2.244000000000000128e+01,3.643650614728126402e-02
2.248000000000000043e+01,4.982462390781294825e-02
2.251999999999999957e+01,4.140565944778218377e-02
2.255999999999999872e+01,5.432638871062429181e-02
2.260000000000000142e+01,4.248050770868286308e-02
2.264000000000000057e+01,5.041667322200749091e-02
2.267999999999999972e+01,5.258950019994713260e-02
2.271999999999999886e+01,5.211427847373716060e-02
2.276000000000000156e+01,5.366394324862853310e-02
2.280000000000000071e+01,7.390529910979234951e-02
2.283999999999999986e+01,6.610898391996569701e-02
2.287999999999999901e+01,8.152152956746507029e-02
2.292000000000000171e+01,7.138863492880760664e-02
2.296000000000000085e+01,7.948013409703492960e-02
2.300000000000000000e+01,8.165252285811000488e-02
2.303999999999999915e+01,6.248511109248323925e-02
2.307999999999999829e+01,6.496891020618834889e-02
2.312000000000000099e+01,6.200088977455903844e-02
2.316000000000000014e+01,6.043468852646783490e-02
2.319999999999999929e+01,5.248207867504127433e-02
2.323999999999999844e+01,5.356374850623787931e-02
2.328000000000000114e+01,3.969195834342207491e-02
2.332000000000000028e+01,5.230007421861244260e-02
2.335999999999999943e+01,4.668367298076631783e-02
2.339999999999999858e+01,4.231332088828256011e-02
2.344000000000000128e+01,4.650995028223887939e-02
2.348000000000000043e+01,3.933569945844006543e-02
2.351999999999999957e+01,2.639809084654660271e-02
2.355999999999999872e+01,4.180955722070368169e-02
2.360000000000000142e+01,4.600590516412025877e-02
2.364000000000000057e+01,3.696219477378025198e-02
2.367999999999999972e+01,2.277818107776885884e-02
2.371999999999999886e+01,2.603972108251643297e-02
2.376000000000000156e+01,2.135719427477327306e-02
2.380000000000000071e+01,2.306093717868690565e-02
2.383999999999999986e+01,1.121308809006248131e-02
2.387999999999999901e+01,2.755854211572131979e-02
2.392000000000000171e+01,2.521217258099939587e-02
2.396000000000000085e+01,2.956359816555457695e-02
2.400000000000000000e+01,3.111118117109634013e-02
2.403999999999999915e+01,2.549351363358517975e-02
2.407999999999999829e+01,2.127764419331123688e-02
2.412000000000000099e+01,1.581557479765221749e-02
2.416000000000000014e+01,1.658400232508728048e-02
2.419999999999999929e+01,2.529633577023765109e-02
2.423999999999999844e+01,2.886835307457705571e-02
2.428000000000000114e+01,2.138100090005051745e-02
2.432000000000000028e+01,2.993730783773325410e-02
2.435999999999999943e+01,2.244977826610881910e-02
2.439999999999999858e+01,1.433910047113577842e-02
2.444000000000000128e+01,2.538736978601602648e-02
2.448000000000000043e+01,3.285296283332659467e-02
2.451999999999999957e+01,4.959913066354232694e-03
2.455999999999999872e+01,3.174012218640299976e-02
2.460000000000000142e+01,1.646381155031039628e-02
2.464000000000000057e+01,1.878879806607714267e-02
2.467999999999999972e+01,1.394851937005990757e-02
2.471999999999999886e+01,1.751942828561866422e-02
2.476000000000000156e+01,1.517118645501447545e-02
2.480000000000000071e+01,2.528400837483537472e-02
2.483999999999999986e+01,2.433744798065055198e-02
2.487999999999999901e+01,2.011973122574217676e-02
2.492000000000000171e+01,2.431319749843139158e-02
2.496000000000000085e+01,2.632585733861647972e-02
2.500000000000000000e+01,3.176523317595785628e-02
2.503999999999999915e+01,2.116075691846528231e-02
2.507999999999999829e+01,2.301733799382783829e-02
2.512000000000000099e+01,1.942205368407089877e-02
2.516000000000000014e+01,1.239984205861890953e-02
2.519999999999999929e+01,2.811914448413777717e-02
2.523999999999999844e+01,1.953906974856159384e-02
2.528000000000000114e+01,8.778181246115823386e-03
2.532000000000000028e+01,2.807973730212691074e-02
2.535999999999999943e+01,1.731862556279829823e-02
2.539999999999999858e+01,1.559174399912507253e-02
2.544000000000000128e+01,3.053155402698772003e-02
2.548000000000000043e+01,1.883551333195776153e-02
2.551999999999999957e+01,1.726405182400704910e-02
2.555999999999999872e+01,2.207881968870243142e-02
2.560000000000000142e+01,2.798382173759524083e-02
2.564000000000000057e+01,1.535272534129356742e-02
2.567999999999999972e+01,1.237891085268361460e-02
2.571999999999999886e+01,3.713106369355020225e-02
2.576000000000000156e+01,2.294196093923141916e-02
2.580000000000000071e+01,1.747555011780778725e-02
2.583999999999999986e+01,1.792806863925574742e-02
2.587999999999999901e+01,2.601292549819666372e-02
2.592000000000000171e+01,1.711932286838880810e-02
2.596000000000000085e+01,1.928487656531677891e-02
2.600000000000000000e+01,1.849077730604464440e-02
2.603999999999999915e+01,2.610783540409053471e-02
2.607999999999999829e+01,2.001748563163757016e-02
2.612000000000000099e+01,1.688653257385663853e-02
2.616000000000000014e+01,1.967450152458156271e-02
2.619999999999999929e+01,2.448727813197786388e-02
2.623999999999999844e+01,1.590417227649569207e-02
2.628000000000000114e+01,0.000000000000000000e+00
2.632000000000000028e+01,2.194647623214646820e-02
2.635999999999999943e+01,1.678978795969046992e-02
2.639999999999999858e+01,2.004424879339105139e-02
2.644000000000000128e+01,2.968491883023221742e-02
2.648000000000000043e+01,2.546240729121617558e-02
2.651999999999999957e+01,2.544539959812754104e-02
2.655999999999999872e+01,1.249979571999951591e-02
2.660000000000000142e+01,9.678746275466812779e-03
2.664000000000000057e+01,1.168625607608061653e-02
2.667999999999999972e+01,1.649738521882520084e-02
2.671999999999999886e+01,1.912766759005490522e-02
2.676000000000000156e+01,3.172673619029555553e-02
2.680000000000000071e+01,1.410733945314973474e-02
2.683999999999999986e+01,1.922941917835114395e-02
2.687999999999999901e+01,2.419558745107519560e-02
2.692000000000000171e+01,2.573478806909336794e-02
2.696000000000000085e+01,1.559149963332766287e-02
2.700000000000000000e+01,1.526122738839711182e-02
2.703999999999999915e+01,1.882491799624681425e-02
2.707999999999999829e+01,1.460023023496441648e-02
2.712000000000000099e+01,2.003279137672844129e-02
2.716000000000000014e+01,2.094802760120169360e-02
2.719999999999999929e+01,9.713475658912061259e-03
2.723999999999999844e+01,1.997427471180018496e-02
2.728000000000000114e+01,2.353704257338851136e-02
2.732000000000000028e+01,1.837683934066118227e-02
2.735999999999999943e+01,1.555294625233290262e-02
2.739999999999999858e+01,7.588664596333443736e-03
2.744000000000000128e+01,2.719454631019393304e-02
2.748000000000000043e+01,2.546052573302977351e-02
2.751999999999999957e+01,2.450516625906643334e-02
2.755999999999999872e+01,2.214776344788637469e-02
2.760000000000000142e+01,1.169044127442699955e-02
2.764000000000000057e+01,2.085928647936961117e-02
2.767999999999999972e+01,2.535503031127570028e-02
2.771999999999999886e+01,2.112779388090918475e-02
2.776000000000000156e+01,1.767921305296924275e-02
2.780000000000000071e+01,2.201869109373020064e-02
2.783999999999999986e+01,3.056364272616052605e-02
2.787999999999999901e+01,3.692772100000083629e-02
2.792000000000000171e+01,1.992694791184362532e-02
2.796000000000000085e+01,2.800409367677744732e-02
2.800000000000000000e+01,3.966365121659150283e-02
2.803999999999999915e+01,3.932916587433468725e-02
2.807999999999999829e+01,2.077005523714893498e-02
2.812000000000000099e+01,2.526392079965109408e-02
2.816000000000000014e+01,3.240560724544155891e-02
2.819999999999999929e+01,1.571514229945991659e-02
2.823999999999999844e+01,1.553554023191370745e-02
2.828000000000000114e+01,2.002869528348876285e-02
2.832000000000000028e+01,1.704497262006831465e-02
2.835999999999999943e+01,2.480882220083845124e-02
2.839999999999999858e+01,3.506472262672116758e-02
2.844000000000000128e+01,2.460375690808880647e-02
2.848000000000000043e+01,1.897130826200084733e-02
2.851999999999999957e+01,1.816737577166171319e-02
2.855999999999999872e+01,2.094584222106317395e-02
2.860000000000000142e+01,2.606059039419706541e-02
2.864000000000000057e+01,1.700057840970276013e-02
2.867999999999999972e+01,1.604013419920705813e-02
2.871999999999999886e+01,1.196421015300232552e-02
2.876000000000000156e+01,2.657984059051064427e-02
2.880000000000000071e+01,3.153787878785310056e-02
2.883999999999999986e+01,3.400349254870559113e-02
2.887999999999999901e+01,2.587692501139138637e-02
2.892000000000000171e+01,2.335768714887686767e-02
2.896000000000000085e+01,2.099401923531164435e-02
2.900000000000000000e+01,2.439344370035612108e-02
2.903999999999999915e+01,2.218514839690099300e-02
2.907999999999999829e+01,2.994558614830623508e-02
2.912000000000000099e+01,3.240983137242360590e-02
2.916000000000000014e+01,2.957788315245735503e-02
2.919999999999999929e+01,2.394197317003665670e-02
2.923999999999999844e+01,3.403808045915125702e-02
2.928000000000000114e+01,2.279424420143470395e-02
2.932000000000000028e+01,3.335724034032262753e-02
2.935999999999999943e+01,2.522828823461464171e-02
2.939999999999999858e+01,3.236405612105429375e-02
2.944000000000000128e+01,3.264597877182486702e-02
2.948000000000000043e+01,4.741379689414396137e-02
2.951999999999999957e+01,4.380119217948742760e-02
2.955999999999999872e+01,3.629426568940431752e-02
2.960000000000000142e+01,4.732310989292312642e-02
2.964000000000000057e+01,4.339834833191335423e-02
2.967999999999999972e+01,5.115571598524557700e-02
2.971999999999999886e+01,4.598441502667812569e-02
2.976000000000000156e+01,5.483170950988468934e-02
2.980000000000000071e+01,5.261950799641886001e-02
2.983999999999999986e+01,6.956612982538690204e-02
2.987999999999999901e+01,7.529748928668959784e-02
2.992000000000000171e+01,7.012511453833437935e-02
2.996000000000000085e+01,6.682169673045318392e-02
3.000000000000000000e+01,7.037170014310017985e-02
3.003999999999999915e+01,9.666310667443833715e-02
3.007999999999999829e+01,1.042625484588580037e-01
3.012000000000000099e+01,1.028274258984598899e-01
3.016000000000000014e+01,1.274047589917985668e-01
3.019999999999999929e+01,1.432590549815312697e-01
3.023999999999999844e+01,1.461846704410201814e-01
3.028000000000000114e+01,1.757457969534650666e-01
3.032000000000000028e+01,1.926897701768779114e-01
3.035999999999999943e+01,2.065182259759580086e-01
3.039999999999999858e+01,2.150504599102877612e-01
3.044000000000000128e+01,2.301245759055898510e-01
3.048000000000000043e+01,2.469118723856203457e-01
3.051999999999999957e+01,2.557549471146870479e-01
3.055999999999999872e+01,2.726975465283544842e-01
3.060000000000000142e+01,2.703251111271530727e-01
3.064000000000000057e+01,2.698216170808988568e-01
3.067999999999999972e+01,2.621527203035057263e-01
3.071999999999999886e+01,2.521471205376262792e-01
3.076000000000000156e+01,2.404278750160711298e-01
3.080000000000000071e+01,2.139107616803137546e-01
3.083999999999999986e+01,2.155867919363880780e-01
3.087999999999999901e+01,1.884461441785287017e-01
3.092000000000000171e+01,1.625513732084403196e-01
3.096000000000000085e+01,1.541019899990891950e-01
3.100000000000000000e+01,1.444062491454927155e-01
3.103999999999999915e+01,1.228721611875494418e-01
3.107999999999999829e+01,1.164469901789329381e-01
3.112000000000000099e+01,1.064389907146607445e-01
3.116000000000000014e+01,9.160204557872453357e-02
3.119999999999999929e+01,9.202977917912961991e-02
3.123999999999999844e+01,8.295562915223272937e-02
3.128000000000000114e+01,8.509627805564524972e-02
3.132000000000000028e+01,7.944845140958142760e-02
3.135999999999999943e+01,6.056038948819115336e-02
3.139999999999999858e+01,5.989652792979328205e-02
3.144000000000000128e+01,5.798629864239732840e-02
3.148000000000000043e+01,5.529699432141239185e-02
3.151999999999999957e+01,6.242060259334865358e-02
3.155999999999999872e+01,4.929456682290984937e-02
3.160000000000000142e+01,4.535838366219463458e-02
3.164000000000000057e+01,4.905440682039166611e-02
3.167999999999999972e+01,5.368476027243830606e-02
3.171999999999999886e+01,4.585369288500498741e-02
3.176000000000000156e+01,5.453340769798558502e-02
3.180000000000000071e+01,5.293240336151660425e-02
3.183999999999999986e+01,3.326245208872453257e-02
3.187999999999999901e+01,3.867032982304482308e-02
3.192000000000000171e+01,4.890664578547958274e-02
3.196000000000000085e+01,4.013942483679468209e-02
3.200000000000000000e+01,4.134087001688419027e-02
3.203999999999999915e+01,4.020558195422928999e-02
3.207999999999999829e+01,3.813544056864837106e-02
3.211999999999999744e+01,3.450738679373942241e-02
3.215999999999999659e+01,4.474210891546091806e-02
3.220000000000000284e+01,3.519446593828098185e-02
3.224000000000000199e+01,3.421360275248710309e-02
3.228000000000000114e+01,3.510164333301669243e-02
3.232000000000000028e+01,3.334141517842893060e-02
3.235999999999999943e+01,2.535033301169225747e-02
3.239999999999999858e+01,3.651801551246477984e-02
3.243999999999999773e+01,2.837062102576630440e-02
3.247999999999999687e+01,3.657822769975754840e-02
3.252000000000000313e+01,3.170133704874865399e-02
3.256000000000000227e+01,2.620111114806837962e-02
3.260000000000000142e+01,2.817730502580204771e-02
3.264000000000000057e+01,3.903179860176794747e-02
3.267999999999999972e+01,2.963662246507928894e-02
3.271999999999999886e+01,2.164304639775674680e-02
3.275999999999999801e+01,3.514469480780543081e-02
3.279999999999999716e+01,2.808514168000934841e-02
3.284000000000000341e+01,3.114999996567940910e-02
3.288000000000000256e+01,3.530492557872971088e-02
3.292000000000000171e+01,3.509815879331003308e-02
3.296000000000000085e+01,3.333346036585269068e-02
3.300000000000000000e+01,1.770543092483900863e-02
3.303999999999999915e+01,2.326109046882358228e-02
3.307999999999999829e+01,2.928375460660359239e-02
3.311999999999999744e+01,1.677014885839342440e-02
3.315999999999999659e+01,2.699787471881002349e-02
3.320000000000000284e+01,2.959284647775404370e-02
3.324000000000000199e+01,3.950845880897924101e-02
3.328000000000000114e+01,3.400308833506259648e-02
3.332000000000000028e+01,3.862211827306379769e-02
3.335999999999999943e+01,3.093545432036291440e-02
3.339999999999999858e+01,3.352895348339000187e-02
3.343999999999999773e+01,1.353629745362090568e-02
3.347999999999999687e+01,2.064637274535646716e-02
3.352000000000000313e+01,2.339474188668652990e-02
3.356000000000000227e+01,2.193716849821702314e-02
3.360000000000000142e+01,2.047929417299422863e-02
3.364000000000000057e+01,1.777500169501001342e-02
3.367999999999999972e+01,2.877768573801809185e-02
3.371999999999999886e+01,2.420361235373013828e-02
3.375999999999999801e+01,2.585981586156837000e-02
3.379999999999999716e+01,2.003901605340010703e-02
3.384000000000000341e+01,2.278495936479001463e-02
3.388000000000000256e+01,3.113811866831278641e-02
3.392000000000000171e+01,2.313569327355318242e-02
3.396000000000000085e+01,3.008635428142847346e-02
3.400000000000000000e+01,2.239483866884718274e-02
3.403999999999999915e+01,2.545076511546734768e-02
3.407999999999999829e+01,2.367767896433758262e-02
3.411999999999999744e+01,3.000403590299137099e-02
3.415999999999999659e+01,3.508396277053963536e-02
3.420000000000000284e+01,2.318524037262944051e-02
3.424000000000000199e+01,2.047631007592669652e-02
3.428000000000000114e+01,3.645880774513054340e-02
3.432000000000000028e+01,3.951253137092931855e-02
3.435999999999999943e+01,2.667795382589774333e-02
3.439999999999999858e+01,3.502703409481061625e-02
3.443999999999999773e+01,2.935698580812044420e-02
3.447999999999999687e+01,4.144377367894908071e-02
3.452000000000000313e+01,2.907520715467893507e-02
3.456000000000000227e+01,3.025783244449416209e-02
3.460000000000000142e+01,3.626883453711190336e-02
3.464000000000000057e+01,3.433552044880879700e-02
3.467999999999999972e+01,2.928658992223737156e-02
3.471999999999999886e+01,3.825614115477324328e-02
3.475999999999999801e+01,3.273926288513575450e-02
3.479999999999999716e+01,4.451191982644678996e-02
3.484000000000000341e+01,4.943060776466940559e-02
3.488000000000000256e+01,4.313391873576428309e-02
3.492000000000000171e+01,4.462512538592564026e-02
3.496000000000000085e+01,5.063317151292509588e-02
3.500000000000000000e+01,5.866582360154206505e-02
3.503999999999999915e+01,5.018710078419555409e-02
3.507999999999999829e+01,5.525955786259027780e-02
3.511999999999999744e+01,5.939709194158586392e-02
3.515999999999999659e+01,6.992063536225975873e-02
3.520000000000000284e+01,5.645610241451259892e-02
3.524000000000000199e+01,8.068624899256528205e-02
3.528000000000000114e+01,8.077255283120400586e-02
3.532000000000000028e+01,8.677756873213353372e-02
3.535999999999999943e+01,8.172296120178849932e-02
3.539999999999999858e+01,8.788305817179579982e-02
3.543999999999999773e+01,8.936987591040100598e-02
3.547999999999999687e+01,7.387801504608534908e-02
3.552000000000000313e+01,1.012210570242509516e-01
3.556000000000000227e+01,8.884379610527705362e-02
3.560000000000000142e+01,9.017346770110193366e-02
3.564000000000000057e+01,7.966468676107454905e-02
3.567999999999999972e+01,8.473201095107320280e-02
3.571999999999999886e+01,7.422253187399087404e-02
3.575999999999999801e+01,7.570657173310733901e-02
3.579999999999999716e+01,8.155166727895066248e-02
3.584000000000000341e+01,6.917195967149943059e-02
3.588000000000000256e+01,7.112223631088328279e-02
3.592000000000000171e+01,7.260486522715864366e-02
3.596000000000000085e+01,5.446080740313832824e-02
3.600000000000000000e+01,5.391778636099867766e-02
3.603999999999999915e+01,4.138053907764824985e-02
3.607999999999999829e+01,5.111726286463379870e-02
3.611999999999999744e+01,3.219295307485058044e-02
3.615999999999999659e+01,4.426542661629911252e-02
3.620000000000000284e+01,5.057425174541633345e-02
3.624000000000000199e+01,5.361166014383148687e-02
3.628000000000000114e+01,4.107225244002578324e-02
3.632000000000000028e+01,4.706846140814451018e-02
3.635999999999999943e+01,5.353159979281144065e-02
3.639999999999999858e+01,5.859249222841211163e-02
3.643999999999999773e+01,6.007043427452902346e-02
3.647999999999999687e+01,4.830802369546999958e-02
3.652000000000000313e+01,5.508122520435698027e-02
3.656000000000000227e+01,5.188512753990921766e-02
3.660000000000000142e+01,5.133665731485727302e-02
3.664000000000000057e+01,6.231439224429409507e-02
3.667999999999999972e+01,6.129788626378893102e-02
3.671999999999999886e+01,4.657372854512897148e-02
3.675999999999999801e+01,5.864069789592325083e-02
3.679999999999999716e+01,5.404048746434171602e-02
3.684000000000000341e+01,5.302248619579109229e-02
3.688000000000000256e+01,5.278293150024767483e-02
3.692000000000000171e+01,5.114111893729392927e-02
3.696000000000000085e+01,4.607210860391391938e-02
3.700000000000000000e+01,3.710860597110728076e-02
3.703999999999999915e+01,3.920400571262774164e-02
3.707999999999999829e+01,4.067596660656290497e-02
3.711999999999999744e+01,3.093249919281116853e-02
3.715999999999999659e+01,3.349404770221185018e-02
3.720000000000000284e+01,3.449756738923084182e-02
3.724000000000000199e+01,5.886538332132142809e-02
3.728000000000000114e+01,4.507050230807298913e-02
3.732000000000000028e+01,4.435945623780200575e-02
3.735999999999999943e+01,4.785366556182408387e-02
3.739999999999999858e+01,4.184585007200651574e-02
3.743999999999999773e+01,4.004328814289054989e-02
3.747999999999999687e+01,4.275750793248360437e-02
3.752000000000000313e+01,4.920968583698229898e-02
3.756000000000000227e+01,4.195419275061641751e-02
3.760000000000000142e+01,5.370158061091733631e-02
3.764000000000000057e+01,5.298741194597478971e-02
3.767999999999999972e+01,5.274014244332230622e-02
3.771999999999999886e+01,5.887882360742337229e-02
3.775999999999999801e+01,5.021947743487058247e-02
3.779999999999999716e+01,3.828867877658339441e-02
3.784000000000000341e+01,4.613957825119649470e-02
3.788000000000000256e+01,5.772842758955388370e-02
3.792000000000000171e+01,4.423878645557186712e-02
3.796000000000000085e+01,4.554637550725326028e-02
3.800000000000000000e+01,4.560744647544200114e-02
3.803999999999999915e+01,5.034105086460154838e-02
3.807999999999999829e+01,5.024555097644121254e-02
3.811999999999999744e+01,4.999388201621209754e-02
3.815999999999999659e+01,5.955497346081808224e-02
3.820000000000000284e+01,6.210625435409526662e-02
3.824000000000000199e+01,5.484396210602004301e-02
3.828000000000000114e+01,5.116384601633053308e-02
3.832000000000000028e+01,6.726541705799293780e-02
3.835999999999999943e+01,6.483059811342863077e-02
3.839999999999999858e+01,6.675677526387070737e-02
3.843999999999999773e+01,8.005335177559361193e-02
3.847999999999999687e+01,7.590388731251349053e-02
3.852000000000000313e+01,7.050789284759671760e-02
3.856000000000000227e+01,7.539194323176265367e-02
3.860000000000000142e+01,1.000576743297106885e-01
3.864000000000000057e+01,9.871031122858732465e-02
3.867999999999999972e+01,9.315688824781484523e-02
3.871999999999999886e+01,1.128369020394918432e-01
3.875999999999999801e+01,1.241052116080862966e-01
3.879999999999999716e+01,1.235349962139682400e-01
3.884000000000000341e+01,1.675130174797055116e-01
3.888000000000000256e+01,1.921758141538642273e-01
3.892000000000000171e+01,2.207323013924806232e-01
3.896000000000000085e+01,2.745222199027721466e-01
3.900000000000000000e+01,3.409286412384172071e-01
3.903999999999999915e+01,4.559331726223795345e-01
3.907999999999999829e+01,5.693796320945622158e-01
3.911999999999999744e+01,6.896793037578534680e-01
3.915999999999999659e+01,8.082651371383724470e-01
3.920000000000000284e+01,9.075357385929471166e-01
3.924000000000000199e+01,9.698897144784059954e-01
3.928000000000000114e+01,1.000000000000000000e+00
3.932000000000000028e+01,9.776172043787313415e-01
3.935999999999999943e+01,9.217446002607936340e-01
3.939999999999999858e+01,8.445318206467135047e-01
3.943999999999999773e+01,7.464461582318988597e-01
3.947999999999999687e+01,6.874569589991541552e-01
3.952000000000000313e+01,6.194329799746025600e-01
3.956000000000000227e+01,5.412838684796372757e-01
3.960000000000000142e+01,4.754397169832867420e-01
3.964000000000000057e+01,4.102181842636385412e-01
3.967999999999999972e+01,3.661801883409025460e-01
3.971999999999999886e+01,3.148208179537981266e-01
3.975999999999999801e+01,2.824642790063926490e-01
3.979999999999999716e+01,2.709797450307092070e-01
3.984000000000000341e+01,2.584044153363324603e-01
3.988000000000000256e+01,2.500342832781197178e-01
3.992000000000000171e+01,2.598881563054153410e-01
3.996000000000000085e+01,2.828258037671723124e-01
4.000000000000000000e+01,2.887846690280944650e-01
4.003999999999999915e+01,2.953661438977619458e-01
4.007999999999999829e+01,3.142525677644958382e-01
4.011999999999999744e+01,3.367211256170133948e-01
4.015999999999999659e+01,3.676005171979669917e-01
4.020000000000000284e+01,3.916258169252085364e-01
4.024000000000000199e+01,3.746845901910013099e-01
4.028000000000000114e+01,3.566525576533480790e-01
4.032000000000000028e+01,3.322337241238003669e-01
4.035999999999999943e+01,3.096836091678447644e-01
4.039999999999999858e+01,2.947654997525434584e-01
4.043999999999999773e+01,2.490055542229159535e-01
4.047999999999999687e+01,2.113449060125559831e-01
4.052000000000000313e+01,1.908178973739579898e-01
4.056000000000000227e+01,1.787017132958390597e-01
4.060000000000000142e+01,1.461799134421155888e-01
4.064000000000000057e+01,1.198882327916580837e-01
4.067999999999999972e+01,1.069918391481424480e-01
4.071999999999999886e+01,8.848745803178301172e-02
4.075999999999999801e+01,8.119765856515220870e-02
4.079999999999999716e+01,7.468621582555008687e-02
4.084000000000000341e+01,6.910889343358246617e-02
4.088000000000000256e+01,6.555604223426456101e-02
4.092000000000000171e+01,6.480648399780845892e-02
4.096000000000000085e+01,5.704705195112035748e-02
4.100000000000000000e+01,6.268289957700853843e-02
4.103999999999999915e+01,6.193192970867959085e-02
4.107999999999999829e+01,5.572872865374708939e-02
4.111999999999999744e+01,5.715751663714613295e-02
4.115999999999999659e+01,4.191902490743823484e-02
4.120000000000000284e+01,4.708521244939812417e-02
4.124000000000000199e+01,4.866833958639041335e-02
4.128000000000000114e+01,3.981476575595087330e-02
4.132000000000000028e+01,3.734706008065191707e-02
4.135999999999999943e+01,3.612499190944650634e-02
4.139999999999999858e+01,3.708314754994831292e-02
4.143999999999999773e+01,4.193493599677865918e-02
4.147999999999999687e+01,4.631894928589838645e-02
4.152000000000000313e+01,4.042202064421361596e-02
4.156000000000000227e+01,4.573965531634352488e-02
4.160000000000000142e+01,4.529351780872275385e-02
4.164000000000000057e+01,4.546995323801934080e-02
4.167999999999999972e+01,3.676732390594270039e-02
4.171999999999999886e+01,3.242561457482950188e-02
4.175999999999999801e+01,2.964106265465591555e-02
4.179999999999999716e+01,3.028284167744497643e-02
4.184000000000000341e+01,3.980270953545542167e-02
4.188000000000000256e+01,4.496067963275932750e-02
4.192000000000000171e+01,3.516476250925508473e-02
4.196000000000000085e+01,3.409116693318359204e-02
4.200000000000000000e+01,4.890506070822079471e-02
4.203999999999999915e+01,3.318861077190707332e-02
4.207999999999999829e+01,3.040012214248106331e-02
4.211999999999999744e+01,3.119372165905360747e-02
4.215999999999999659e+01,4.024234452687581315e-02
4.220000000000000284e+01,2.717190503584833092e-02
4.224000000000000199e+01,4.322893507428771098e-02
4.228000000000000114e+01,3.015749673721597468e-02
4.232000000000000028e+01,2.689872345822656718e-02
4.235999999999999943e+01,3.282955617091765088e-02
4.239999999999999858e+01,2.302766797424441597e-02
4.243999999999999773e+01,2.802290728211627099e-02
4.247999999999999687e+01,3.114846767577094180e-02
4.252000000000000313e+01,2.118930154550065573e-02
4.256000000000000227e+01,2.649455378159301655e-02
4.260000000000000142e+01,2.697059814245153855e-02
4.264000000000000057e+01,2.355202093568988658e-02
4.267999999999999972e+01,3.274986220907734336e-02
4.271999999999999886e+01,2.964179506156910254e-02
4.275999999999999801e+01,2.964850777912360347e-02
4.279999999999999716e+01,2.030883645282062500e-02
4.284000000000000341e+01,1.984723104184662676e-02
4.288000000000000256e+01,2.016393468452487223e-02
4.292000000000000171e+01,2.468576628689397520e-02
4.296000000000000085e+01,2.687061436129287509e-02
4.300000000000000000e+01,1.783989935903710494e-02
4.303999999999999915e+01,2.407359172159558372e-02
4.307999999999999829e+01,9.434317855011482845e-03
4.311999999999999744e+01,2.376672881098729206e-02
4.315999999999999659e+01,2.563745672391317190e-02
4.320000000000000284e+01,2.314625662187437538e-02
4.324000000000000199e+01,2.813123243059351478e-02
4.328000000000000114e+01,2.454863588091461130e-02
4.332000000000000028e+01,2.781915525879596549e-02
4.335999999999999943e+01,2.423551035610496326e-02
4.339999999999999858e+01,2.641462778557199242e-02
4.343999999999999773e+01,2.236263725048151171e-02
4.347999999999999687e+01,4.167479994033351787e-02
4.352000000000000313e+01,2.625094248755170667e-02
4.356000000000000227e+01,2.126277982179183498e-02
4.360000000000000142e+01,2.172584582940843487e-02
4.364000000000000057e+01,2.327873254636210476e-02
4.367999999999999972e+01,2.280614830782603727e-02
4.371999999999999886e+01,3.354807787613693637e-02
4.375999999999999801e+01,2.466314192899081090e-02
4.379999999999999716e+01,3.073106685273760061e-02
4.384000000000000341e+01,1.872976980145150960e-02
4.388000000000000256e+01,2.853497143313542261e-02
4.392000000000000171e+01,2.167283009280907002e-02
4.396000000000000085e+01,2.540213890894924345e-02
4.400000000000000000e+01,2.772902758484030450e-02
4.403999999999999915e+01,2.117679740841188485e-02
4.407999999999999829e+01,2.786401177388938416e-02
4.411999999999999744e+01,2.084340479400764029e-02
4.415999999999999659e+01,1.506837114252057054e-02
4.420000000000000284e+01,2.518077641837870861e-02
4.424000000000000199e+01,2.423335473431702941e-02
4.428000000000000114e+01,1.985856750621615985e-02
4.432000000000000028e+01,1.314676557909134208e-02
4.435999999999999943e+01,1.484570111685418713e-02
4.439999999999999858e+01,2.090549523026856080e-02
4.443999999999999773e+01,2.260333290805158560e-02
4.447999999999999687e+01,2.632555926687142264e-02
4.452000000000000313e+01,2.272630114583894592e-02
4.456000000000000227e+01,3.080883119114839058e-02
4.460000000000000142e+01,1.739530201947241464e-02
4.464000000000000057e+01,2.532096049944346575e-02
4.467999999999999972e+01,2.623665990718255722e-02
4.471999999999999886e+01,2.138851562510639751e-02
4.475999999999999801e+01,1.903204721870174060e-02
4.479999999999999716e+01,2.602089341684151944e-02
4.484000000000000341e+01,2.553248326336178195e-02
4.488000000000000256e+01,2.644539447335564342e-02
4.492000000000000171e+01,2.720198075601179544e-02
4.496000000000000085e+01,1.923519163744890140e-02
4.500000000000000000e+01,2.248288698827058049e-02
4.503999999999999915e+01,3.009142624601260710e-02
4.507999999999999829e+01,3.692057875962793251e-02
4.511999999999999744e+01,2.505742181114175432e-02
4.515999999999999659e+01,3.032779808611654748e-02
4.520000000000000284e+01,2.703055799649963648e-02
4.524000000000000199e+01,3.167674159006043932e-02
4.528000000000000114e+01,3.476471116850819720e-02
4.532000000000000028e+01,2.990811978158338172e-02
4.535999999999999943e+01,3.143730395343362349e-02
4.539999999999999858e+01,3.265438765899621870e-02
4.543999999999999773e+01,3.091137284564901208e-02
4.547999999999999687e+01,3.399648546667409510e-02
4.552000000000000313e+01,3.676949487102446762e-02
4.556000000000000227e+01,2.739229529938607896e-02
4.560000000000000142e+01,3.561591247866055521e-02
4.564000000000000057e+01,4.165824924205454444e-02
4.567999999999999972e+01,3.399272890505707773e-02
4.571999999999999886e+01,3.255721133827178815e-02
4.575999999999999801e+01,3.080958505403753531e-02
4.579999999999999716e+01,2.890561367296019812e-02
4.584000000000000341e+01,3.619116852233753706e-02
4.588000000000000256e+01,3.584367864600564862e-02
4.592000000000000171e+01,3.424948916063268872e-02
4.596000000000000085e+01,2.564531126556528901e-02
4.600000000000000000e+01,2.732100769558068812e-02
4.603999999999999915e+01,2.588082731734921843e-02
4.607999999999999829e+01,2.584194079872035102e-02
4.611999999999999744e+01,3.234457695714974129e-02
4.615999999999999659e+01,2.545087408844244961e-02
4.620000000000000284e+01,3.288691893327982257e-02
4.624000000000000199e+01,2.770544560439688886e-02
4.628000000000000114e+01,3.077890119680659967e-02
4.632000000000000028e+01,3.198258986261200837e-02
4.635999999999999943e+01,3.038192346060802906e-02
4.639999999999999858e+01,2.379619755037725923e-02
4.643999999999999773e+01,2.764610041787808267e-02
4.647999999999999687e+01,2.557635471915135558e-02
4.652000000000000313e+01,1.540625601377956268e-02
4.656000000000000227e+01,3.233858883771881937e-02
4.660000000000000142e+01,3.198045911472977010e-02
4.664000000000000057e+01,1.947209566226812058e-02
4.667999999999999972e+01,2.970475394148680212e-02
4.671999999999999886e+01,2.716411850803527109e-02
4.675999999999999801e+01,2.649205496086407333e-02
4.679999999999999716e+01,3.563255379065695394e-02
4.684000000000000341e+01,3.527081144282520619e-02
4.688000000000000256e+01,2.556259153797466044e-02
4.692000000000000171e+01,2.924951561993687291e-02
4.696000000000000085e+01,3.387041977979162594e-02
4.700000000000000000e+01,2.758719825822491742e-02
4.703999999999999915e+01,2.239371951836090571e-02
4.707999999999999829e+01,3.324337823395331903e-02
4.711999999999999744e+01,2.540068164765934416e-02
4.715999999999999659e+01,2.612442288795568598e-02
4.720000000000000284e+01,2.684755148096105645e-02
4.724000000000000199e+01,2.102795593901434640e-02
4.728000000000000114e+01,2.517667630988487323e-02
4.732000000000000028e+01,1.982314450158235292e-02
4.735999999999999943e+01,2.069957787486830653e-02
4.739999999999999858e+01,3.232314709759217392e-02
4.743999999999999773e+01,2.182753386122979894e-02
4.747999999999999687e+01,2.410399362693417535e-02
4.752000000000000313e+01,2.778171424759601216e-02
4.756000000000000227e+01,3.317222388122265109e-02
4.760000000000000142e+01,1.862425091220205886e-02
4.764000000000000057e+01,3.117868471900865288e-02
4.767999999999999972e+01,2.613110215059995245e-02
4.771999999999999886e+01,2.045983686694995141e-02
4.775999999999999801e+01,2.647028640598589680e-02
4.779999999999999716e+01,2.406882452611133066e-02
4.784000000000000341e+01,2.571661330265504267e-02
4.788000000000000256e+01,2.331389587394038301e-02
4.792000000000000171e+01,2.823148255348533267e-02
4.796000000000000085e+01,2.426986053473226615e-02
4.800000000000000000e+01,2.342289828080535222e-02
4.803999999999999915e+01,2.132918782766532809e-02
4.807999999999999829e+01,1.549649566009152386e-02
4.811999999999999744e+01,1.682833847939729441e-02
4.815999999999999659e+01,2.407859906957442522e-02
4.820000000000000284e+01,1.980164832485289614e-02
4.824000000000000199e+01,2.705063686386740412e-02
4.828000000000000114e+01,2.370699945880115969e-02
4.832000000000000028e+01,2.254342725978616263e-02
4.835999999999999943e+01,3.088085260789982800e-02
4.839999999999999858e+01,2.551035851351455760e-02
4.843999999999999773e+01,1.764699075274670653e-02
4.847999999999999687e+01,2.239990853675154561e-02
4.852000000000000313e+01,2.263501183456223184e-02
4.856000000000000227e+01,2.894428827268885618e-02
4.860000000000000142e+01,2.325905059575511177e-02
4.864000000000000057e+01,1.804046087908987503e-02
4.867999999999999972e+01,2.652850388502980480e-02
4.871999999999999886e+01,3.267943134441880088e-02
4.875999999999999801e+01,2.185137582471486165e-02
4.879999999999999716e+01,2.472995027722893133e-02
4.884000000000000341e+01,2.075423484815985820e-02
4.888000000000000256e+01,3.188702839433142644e-02
4.892000000000000171e+01,2.463895445761324354e-02
4.896000000000000085e+01,2.159587004443535435e-02
4.900000000000000000e+01,1.964248348997089250e-02
4.903999999999999915e+01,3.840512559002030868e-02
4.907999999999999829e+01,2.944102429590377337e-02
4.911999999999999744e+01,2.468190885814474517e-02
4.915999999999999659e+01,3.269482791703309105e-02
4.920000000000000284e+01,2.699980919750849181e-02
4.924000000000000199e+01,2.239448283592315042e-02
4.928000000000000114e+01,3.024965914579498191e-02
4.932000000000000028e+01,3.171782818473994903e-02
4.935999999999999943e+01,3.302957053202463383e-02
4.939999999999999858e+01,2.795430377479099504e-02
4.943999999999999773e+01,3.440494879742242440e-02
4.947999999999999687e+01,3.135329213391305214e-02
4.952000000000000313e+01,2.783367603675748064e-02
4.956000000000000227e+01,2.478068681356932965e-02
4.960000000000000142e+01,2.717878874440269113e-02
4.964000000000000057e+01,2.225528884553427955e-02
4.967999999999999972e+01,2.667699170213490290e-02
4.971999999999999886e+01,2.424438450764700853e-02
4.975999999999999801e+01,2.617251303818696542e-02
4.979999999999999716e+01,2.919032109152635071e-02
4.984000000000000341e+01,2.597687449299635604e-02
4.988000000000000256e+01,2.027052122343860063e-02
4.992000000000000171e+01,2.811500771841774979e-02
4.996000000000000085e+01,3.704917006901357890e-02
5.000000000000000000e+01,3.523490251591201300e-02
5.003999999999999915e+01,2.905855017578127392e-02
5.007999999999999829e+01,2.210269649206137235e-02
5.011999999999999744e+01,4.006848921921355583e-02
5.015999999999999659e+01,3.046327833611743238e-02
5.020000000000000284e+01,3.456466533738988128e-02
5.024000000000000199e+01,3.617313741647329439e-02
5.028000000000000114e+01,3.933857162901244903e-02
5.032000000000000028e+01,3.113251045388243030e-02
5.035999999999999943e+01,3.694457257074129641e-02
5.039999999999999858e+01,4.088677424783453834e-02
5.043999999999999773e+01,3.828617844631977685e-02
5.047999999999999687e+01,4.316159261554142201e-02
5.052000000000000313e+01,4.912666980523993504e-02
5.056000000000000227e+01,5.166423751397448277e-02
5.060000000000000142e+01,5.373382103557892281e-02
5.064000000000000057e+01,4.941636703199842745e-02
5.067999999999999972e+01,5.475562193879760647e-02
5.071999999999999886e+01,5.666736369745004748e-02
5.075999999999999801e+01,6.901463521989857630e-02
5.079999999999999716e+01,7.014616489053106252e-02
5.084000000000000341e+01,8.031134165475427300e-02
5.088000000000000256e+01,7.754736482215289495e-02
5.092000000000000171e+01,8.771114668458974972e-02
5.096000000000000085e+01,8.136318875637488235e-02
5.100000000000000000e+01,7.672794099669470735e-02
5.103999999999999915e+01,8.065904213442204318e-02
5.107999999999999829e+01,7.430898222717283175e-02
5.111999999999999744e+01,7.527915308452726162e-02
5.115999999999999659e+01,7.235450709677758441e-02
5.120000000000000284e+01,7.051950854397782964e-02
5.124000000000000199e+01,6.478969131248257796e-02
5.128000000000000114e+01,6.902809831423468989e-02
5.132000000000000028e+01,5.675475727417374910e-02
5.135999999999999943e+01,6.659927255109018840e-02
5.139999999999999858e+01,6.398191592504262615e-02
5.143999999999999773e+01,5.949467502254129209e-02
5.147999999999999687e+01,5.313754892679052599e-02
5.152000000000000313e+01,4.864888561863190547e-02
5.156000000000000227e+01,5.054585576591487384e-02
5.160000000000000142e+01,3.920212673924768076e-02
5.164000000000000057e+01,5.433765465923148796e-02
5.167999999999999972e+01,4.018873421931334206e-02
5.171999999999999886e+01,4.114825766214119662e-02
5.175999999999999801e+01,2.933437187604070670e-02
5.179999999999999716e+01,2.920210831626059156e-02
5.184000000000000341e+01,3.903805615458799672e-02
5.188000000000000256e+01,3.376412395257658017e-02
5.192000000000000171e+01,3.253934889382213702e-02
5.196000000000000085e+01,2.072186354578265527e-02
5.200000000000000000e+01,3.148951345819403502e-02
5.203999999999999915e+01,3.337786115914604529e-02
5.207999999999999829e+01,3.479819075152710411e-02
5.211999999999999744e+01,2.780650991106215636e-02
5.215999999999999659e+01,3.888278907922005506e-02
5.220000000000000284e+01,2.378989871716302371e-02
5.224000000000000199e+01,3.455319340021534985e-02
5.228000000000000114e+01,3.192000878638903000e-02
5.232000000000000028e+01,3.131103316164241673e-02
5.235999999999999943e+01,2.945521032374717393e-02
5.239999999999999858e+01,2.012195785984532276e-02
5.243999999999999773e+01,2.060113850471396307e-02
5.247999999999999687e+01,2.466216984549511257e-02
5.252000000000000313e+01,3.246081550279467098e-02
5.256000000000000227e+01,2.577262368383476110e-02
5.260000000000000142e+01,2.842956769425785887e-02
5.264000000000000057e+01,2.874930631215155338e-02
5.267999999999999972e+01,3.280665557938079041e-02
5.271999999999999886e+01,2.502516083899424676e-02
5.275999999999999801e+01,2.129280398915500694e-02
5.279999999999999716e+01,3.407074710519195082e-02
5.284000000000000341e+01,2.955808465417147229e-02
5.288000000000000256e+01,3.080796725472832384e-02
5.292000000000000171e+01,2.707264090935939879e-02
5.296000000000000085e+01,2.302504082331566573e-02
5.300000000000000000e+01,2.692068656208395847e-02
5.303999999999999915e+01,2.707723690375184525e-02
5.307999999999999829e+01,3.221750502601076344e-02
5.311999999999999744e+01,2.162480653765794236e-02
5.315999999999999659e+01,2.582898985260290506e-02
5.320000000000000284e+01,2.551525141625680254e-02
5.324000000000000199e+01,2.520076189646913364e-02
5.328000000000000114e+01,2.239328777801932735e-02
5.332000000000000028e+01,2.301188056537082152e-02
5.335999999999999943e+01,1.989137062125621858e-02
5.339999999999999858e+01,1.677010592651729734e-02
5.343999999999999773e+01,2.190360604664081529e-02
5.347999999999999687e+01,2.781517226955634511e-02
5.352000000000000313e+01,2.624928319618568748e-02
5.356000000000000227e+01,2.795369099044059044e-02
5.360000000000000142e+01,2.358252249143187942e-02
5.364000000000000057e+01,2.731034968590555917e-02
5.367999999999999972e+01,3.057012209998032429e-02
5.371999999999999886e+01,2.090067582473593630e-02
5.375999999999999801e+01,2.353586500242888305e-02
5.379999999999999716e+01,2.523570303713110197e-02
5.384000000000000341e+01,2.771359892346407852e-02
5.388000000000000256e+01,2.411591209896357321e-02
5.392000000000000171e+01,2.082898768029770378e-02
5.396000000000000085e+01,2.984669413059072574e-02
5.400000000000000000e+01,2.951775983423044619e-02
5.403999999999999915e+01,2.809770435670370242e-02
5.407999999999999829e+01,3.571122171231602693e-02
5.411999999999999744e+01,2.291881341537747863e-02
5.415999999999999659e+01,2.990772919869397195e-02
5.420000000000000284e+01,2.303282806673355443e-02
5.424000000000000199e+01,2.456843795112320303e-02
5.428000000000000114e+01,2.859550551380797903e-02
5.432000000000000028e+01,3.308909085177198089e-02
5.435999999999999943e+01,2.808026265451988787e-02
5.439999999999999858e+01,3.210499995604123441e-02
5.443999999999999773e+01,2.179862122930683460e-02
5.447999999999999687e+01,3.018320748665094880e-02
5.452000000000000313e+01,2.439244041954951106e-02
5.456000000000000227e+01,2.856982240844805829e-02
5.460000000000000142e+01,3.025418954442632424e-02
5.464000000000000057e+01,2.337072395202799760e-02
5.467999999999999972e+01,2.520928836603005332e-02
5.471999999999999886e+01,2.829318407436216126e-02
5.475999999999999801e+01,2.826100311298500312e-02
5.479999999999999716e+01,2.448968641549662331e-02
5.484000000000000341e+01,2.912886698242274711e-02
5.488000000000000256e+01,2.239644764697007115e-02
5.492000000000000171e+01,2.625522726596226167e-02
5.496000000000000085e+01,2.871133554268380170e-02
5.500000000000000000e+01,3.054359424734680306e-02
5.503999999999999915e+01,2.645600819150264321e-02
5.507999999999999829e+01,2.143304165520539331e-02
5.511999999999999744e+01,3.229726376102750457e-02
5.515999999999999659e+01,2.742847249965726583e-02
5.520000000000000284e+01,2.863370219051691867e-02
5.524000000000000199e+01,2.765743143452821864e-02
5.528000000000000114e+01,2.418813024009245499e-02
5.532000000000000028e+01,2.445637918647607448e-02
5.535999999999999943e+01,3.188899717971765968e-02
5.539999999999999858e+01,2.981917780105496074e-02
5.543999999999999773e+01,2.743702784038416775e-02
5.547999999999999687e+01,2.801360166634220966e-02
5.552000000000000313e+01,3.295077919874744160e-02
5.556000000000000227e+01,2.760669300505780993e-02
5.560000000000000142e+01,2.740203137123171928e-02
5.564000000000000057e+01,3.186949976826880526e-02
5.567999999999999972e+01,3.462275124590960540e-02
5.571999999999999886e+01,3.410413951334274191e-02
5.575999999999999801e+01,2.828872466755233406e-02
5.579999999999999716e+01,3.384331129370924535e-02
5.584000000000000341e+01,4.188931984312910251e-02
5.588000000000000256e+01,2.875053971397948868e-02
5.592000000000000171e+01,3.352386887725550962e-02
5.596000000000000085e+01,3.767332646537618901e-02
5.600000000000000000e+01,2.904927764422437705e-02
5.603999999999999915e+01,3.319710563085973704e-02
5.607999999999999829e+01,3.516341391793711274e-02
5.611999999999999744e+01,4.024419586031369178e-02
5.615999999999999659e+01,3.504370032465989326e-02
5.620000000000000284e+01,4.323813607921676849e-02
5.624000000000000199e+01,3.242847842766462263e-02
5.628000000000000114e+01,4.326927071501416450e-02
5.632000000000000028e+01,4.304995917014279444e-02
5.635999999999999943e+01,4.111641512034822782e-02
5.639999999999999858e+01,5.148744601497477758e-02
5.643999999999999773e+01,4.955225402778087179e-02
5.647999999999999687e+01,5.446987634236229864e-02
5.652000000000000313e+01,6.265772768168748064e-02
5.656000000000000227e+01,7.676380426478718322e-02
5.660000000000000142e+01,7.560412808825413278e-02
5.664000000000000057e+01,8.487984690654931663e-02
5.667999999999999972e+01,8.885874152531988979e-02
5.671999999999999886e+01,9.081186631320284364e-02
5.675999999999999801e+01,9.167380757781182221e-02
5.679999999999999716e+01,8.926386087872925645e-02
5.684000000000000341e+01,7.781873741530194455e-02
5.688000000000000256e+01,7.369371269789760925e-02
5.692000000000000171e+01,6.302574198098200020e-02
5.696000000000000085e+01,6.279315892452907999e-02
5.700000000000000000e+01,6.193668045623268448e-02
5.703999999999999915e+01,5.625066314945501716e-02
5.707999999999999829e+01,5.305603934527355903e-02
5.711999999999999744e+01,5.640268609933310473e-02
5.715999999999999659e+01,4.806615161885587767e-02
5.720000000000000284e+01,4.689394401263438650e-02
5.724000000000000199e+01,5.942817293473841300e-02
5.728000000000000114e+01,4.937570025380956518e-02
5.732000000000000028e+01,5.443154310422881198e-02
5.735999999999999943e+01,5.839618867943860425e-02
5.739999999999999858e+01,6.781174663350859888e-02
5.743999999999999773e+01,6.959399490791230714e-02
5.747999999999999687e+01,6.950622046971165202e-02
5.752000000000000313e+01,8.219028891785733204e-02
5.756000000000000227e+01,7.259917842020326140e-02
5.760000000000000142e+01,7.079544377845425895e-02
5.764000000000000057e+01,7.631179046360998808e-02
5.767999999999999972e+01,7.372752835612057798e-02
5.771999999999999886e+01,6.257536292698567815e-02
5.775999999999999801e+01,7.213902629090218621e-02
5.779999999999999716e+01,5.786985983422933411e-02
5.784000000000000341e+01,6.244734588819780829e-02
5.788000000000000256e+01,5.985880578995201456e-02
5.792000000000000171e+01,6.147504985300991653e-02
5.796000000000000085e+01,5.374456240664030743e-02
5.800000000000000000e+01,4.928427006357364443e-02
5.803999999999999915e+01,5.385745979087178809e-02
5.807999999999999829e+01,4.861662164615073584e-02
5.811999999999999744e+01,4.820362122836104740e-02
5.815999999999999659e+01,4.436293713842452691e-02
5.820000000000000284e+01,3.709456845954552801e-02
5.824000000000000199e+01,3.309638938319523632e-02
5.828000000000000114e+01,3.766439326423088457e-02
5.832000000000000028e+01,3.008189571144980617e-02
5.835999999999999943e+01,3.106557928246322237e-02
5.839999999999999858e+01,3.158109989118522420e-02
5.843999999999999773e+01,2.882469494759208953e-02
5.847999999999999687e+01,2.528859613331304809e-02
5.852000000000000313e+01,2.891679393903170275e-02
5.856000000000000227e+01,3.332294141448858410e-02
5.860000000000000142e+01,2.869387178659000767e-02
5.864000000000000057e+01,2.328510462082261992e-02
5.867999999999999972e+01,1.787546168739857083e-02
5.871999999999999886e+01,2.741833766007165454e-02
5.875999999999999801e+01,2.372035035236432637e-02
5.879999999999999716e+01,3.030194399511599440e-02
5.884000000000000341e+01,3.049631216956438101e-02
5.888000000000000256e+01,2.850909646875587206e-02
5.892000000000000171e+01,2.605370588731179340e-02
5.896000000000000085e+01,3.122989545331747788e-02
5.900000000000000000e+01,2.659203606100283765e-02
5.903999999999999915e+01,2.880693229553873969e-02
5.907999999999999829e+01,2.588071386020960457e-02
5.911999999999999744e+01,3.728394701341439937e-02
5.915999999999999659e+01,3.046184252143197338e-02
5.920000000000000284e+01,2.535226025486592150e-02
5.924000000000000199e+01,2.475896097014862463e-02
5.928000000000000114e+01,3.023958912449983827e-02
5.932000000000000028e+01,3.135791979521965200e-02
5.935999999999999943e+01,3.169653642574812163e-02
5.939999999999999858e+01,2.860744096346313700e-02
5.943999999999999773e+01,2.536168777700163746e-02
5.947999999999999687e+01,2.118045326256015257e-02
5.952000000000000313e+01,3.008254486948312711e-02
5.956000000000000227e+01,2.808022292113507637e-02
5.960000000000000142e+01,2.623276865623084403e-02
5.964000000000000057e+01,2.251524217175452161e-02
5.967999999999999972e+01,2.487163395838976401e-02
5.971999999999999886e+01,2.364454178044433572e-02
5.975999999999999801e+01,2.740101427820822860e-02
5.979999999999999716e+01,2.087612586953315960e-02
5.984000000000000341e+01,2.447503003722729942e-02
5.988000000000000256e+01,2.885185362040166429e-02
5.992000000000000171e+01,2.902213050541064404e-02
5.996000000000000085e+01,2.732232783648189806e-02
