2.003999999999999915e+01,1.668996110780572931e-02
2.007999999999999829e+01,2.682852655292714689e-02
2.012000000000000099e+01,2.320158707004022283e-02
2.016000000000000014e+01,1.457897061079785513e-02
2.019999999999999929e+01,2.960138155724525294e-02
2.023999999999999844e+01,1.975723870972849114e-02
2.028000000000000114e+01,2.700850439245712845e-02
2.032000000000000028e+01,2.737691411592921981e-02
2.035999999999999943e+01,2.075145720368654079e-02
2.039999999999999858e+01,1.479185677886652762e-02
2.044000000000000128e+01,1.904501417307983419e-02
2.048000000000000043e+01,1.752541966212274246e-02
2.051999999999999957e+01,1.611662864351097804e-02
2.055999999999999872e+01,1.426358850938080035e-02
2.060000000000000142e+01,3.106010211656028835e-02
2.064000000000000057e+01,1.921570357676060173e-02
2.067999999999999972e+01,2.047033424848864261e-02
2.071999999999999886e+01,2.416698758440632630e-02
2.076000000000000156e+01,1.676238448304021370e-02
2.080000000000000071e+01,2.578712449792212869e-02
2.083999999999999986e+01,1.627290533726494237e-02
2.087999999999999901e+01,2.107882973146616573e-02
2.092000000000000171e+01,2.288726216210587583e-02
2.096000000000000085e+01,2.058809760706356226e-02
2.100000000000000000e+01,1.884377615248966631e-02
2.103999999999999915e+01,1.532307746489872807e-02
2.107999999999999829e+01,1.746370370172538322e-02
2.112000000000000099e+01,1.560774266129387813e-02
2.116000000000000014e+01,1.142035139276794363e-02
2.119999999999999929e+01,2.910181496413848448e-02
2.123999999999999844e+01,1.991853121004886693e-02
2.128000000000000114e+01,1.628556092949126621e-02
2.132000000000000028e+01,1.909098779166969878e-02
2.135999999999999943e+01,1.778881573209747241e-02
2.139999999999999858e+01,1.582036952556018991e-02
2.144000000000000128e+01,2.128941422660059896e-02
2.148000000000000043e+01,2.975553032755737237e-02
2.151999999999999957e+01,2.212491458438844288e-02
2.155999999999999872e+01,2.148774723657131958e-02
2.160000000000000142e+01,1.740904270247067495e-02
2.164000000000000057e+01,1.954671279654851546e-02
2.167999999999999972e+01,1.291434214026350620e-02
2.171999999999999886e+01,2.082413193879576949e-02
2.176000000000000156e+01,1.940882818549456712e-02
2.180000000000000071e+01,1.299783951795637459e-02
2.183999999999999986e+01,1.768768575602256560e-02
2.187999999999999901e+01,2.604066435504471394e-02
2.192000000000000171e+01,2.162722365941368782e-02
2.196000000000000085e+01,1.266213920652374363e-02
2.200000000000000000e+01,1.768416143894618875e-02
2.203999999999999915e+01,6.387428344651266410e-03
2.207999999999999829e+01,1.074295879122549521e-02
2.212000000000000099e+01,1.676343174578992512e-02
2.216000000000000014e+01,1.456891404096614245e-02
2.219999999999999929e+01,2.092198839370349936e-02
2.223999999999999844e+01,1.306550562586514599e-02
2.228000000000000114e+01,1.153640487134690792e-02
2.232000000000000028e+01,2.388339877043492085e-02
2.235999999999999943e+01,1.980062531109922502e-02
2.239999999999999858e+01,3.181415577518341420e-02
2.244000000000000128e+01,1.052432510022266454e-02
2.248000000000000043e+01,1.543275190094224938e-02
2.251999999999999957e+01,9.572945194230474825e-03
2.255999999999999872e+01,1.836630535944333911e-02
2.260000000000000142e+01,2.249700818683635778e-02
2.264000000000000057e+01,2.474031555408665387e-02
2.267999999999999972e+01,1.077587497976126123e-02
2.271999999999999886e+01,5.359023946107905646e-03
2.276000000000000156e+01,1.859171619899410710e-02
2.280000000000000071e+01,1.495059703237583242e-02
2.283999999999999986e+01,2.174424503408228793e-02
2.287999999999999901e+01,1.610450054312516713e-02
2.292000000000000171e+01,4.803002819831032714e-03
2.296000000000000085e+01,1.847864493757005525e-02
2.300000000000000000e+01,1.938786253327077352e-02
2.303999999999999915e+01,8.640760241840151137e-03
2.307999999999999829e+01,1.310187471970183232e-02
2.312000000000000099e+01,1.545357044843595311e-02
2.316000000000000014e+01,2.402163344828797675e-02
2.319999999999999929e+01,1.971226047521627139e-02
2.323999999999999844e+01,1.706782458914271605e-02
2.328000000000000114e+01,1.186992724810859330e-02
2.332000000000000028e+01,1.977104634054991164e-02
2.335999999999999943e+01,1.690392785981583226e-02
2.339999999999999858e+01,2.047519645426132406e-02
2.344000000000000128e+01,9.281849705668684947e-03
2.348000000000000043e+01,1.362974923885387768e-02
2.351999999999999957e+01,8.541536218652728482e-03
2.355999999999999872e+01,1.388808688185294050e-02
2.360000000000000142e+01,1.723622695549471492e-02
2.364000000000000057e+01,7.484907960834452645e-03
2.367999999999999972e+01,1.127664558859318815e-02
2.371999999999999886e+01,9.295615629026436968e-03
2.376000000000000156e+01,2.152370480177326004e-02
2.380000000000000071e+01,2.098536558034471561e-02
2.383999999999999986e+01,5.349377631255344649e-03
2.387999999999999901e+01,2.146216452417473025e-02
2.392000000000000171e+01,1.215332739704259001e-02
2.396000000000000085e+01,1.461137781145957493e-02
2.400000000000000000e+01,1.285080604322221681e-02
2.403999999999999915e+01,6.427569967318124203e-03
2.407999999999999829e+01,2.420439493149571103e-02
2.412000000000000099e+01,1.134210221357323002e-02
2.416000000000000014e+01,1.535317828032848123e-02
2.419999999999999929e+01,1.314744250507045471e-02
2.423999999999999844e+01,1.271764945949074681e-02
2.428000000000000114e+01,1.217662074150917262e-02
2.432000000000000028e+01,8.194041671977942906e-03
2.435999999999999943e+01,1.742148448499515265e-02
2.439999999999999858e+01,9.775108134233656543e-03
2.444000000000000128e+01,7.963800252779054895e-04
2.448000000000000043e+01,1.490760619182161274e-02
2.451999999999999957e+01,9.258740059630492930e-03
2.455999999999999872e+01,1.160240214793941890e-02
2.460000000000000142e+01,2.082848743462768076e-02
2.464000000000000057e+01,1.706611929569397390e-02
2.467999999999999972e+01,1.341453451399262503e-02
2.471999999999999886e+01,1.364808931286318888e-02
2.476000000000000156e+01,1.310434321894158281e-02
2.480000000000000071e+01,1.777786211259458835e-02
2.483999999999999986e+01,1.590153461797053427e-02
2.487999999999999901e+01,1.402497902969321308e-02
2.492000000000000171e+01,1.969690798804866680e-02
2.496000000000000085e+01,2.670073425975355227e-02
2.500000000000000000e+01,6.284742592697171136e-03
2.503999999999999915e+01,1.051284925056337506e-02
2.507999999999999829e+01,4.305741458713643541e-03
2.512000000000000099e+01,1.208572525084153880e-02
2.516000000000000014e+01,7.543315997566634422e-03
2.519999999999999929e+01,1.265858910985246180e-02
2.523999999999999844e+01,1.633049610895546955e-02
2.528000000000000114e+01,9.678198173159726844e-03
2.532000000000000028e+01,1.279459250495549802e-02
2.535999999999999943e+01,8.029012137368710458e-03
2.539999999999999858e+01,7.037557576186033621e-03
2.544000000000000128e+01,3.492631105272632139e-03
2.548000000000000043e+01,1.027144854178022038e-02
2.551999999999999957e+01,1.360870981853250748e-02
2.555999999999999872e+01,4.845597079516169789e-03
2.560000000000000142e+01,1.262281470677661770e-02
2.564000000000000057e+01,1.051986758808202103e-02
2.567999999999999972e+01,9.526793332110684853e-03
2.571999999999999886e+01,9.199549813850320043e-03
2.576000000000000156e+01,1.986211174487115608e-02
2.580000000000000071e+01,1.231872194165697064e-02
2.583999999999999986e+01,1.076966547219886799e-02
2.587999999999999901e+01,2.337726132131336728e-03
2.592000000000000171e+01,1.188925188655365166e-02
2.596000000000000085e+01,1.011747506909823659e-02
2.600000000000000000e+01,1.633821950229603220e-02
2.603999999999999915e+01,6.462210213793638525e-03
2.607999999999999829e+01,7.576004825717658209e-03
2.612000000000000099e+01,1.002169113639223876e-02
2.616000000000000014e+01,1.368825846935920604e-02
2.619999999999999929e+01,3.589291446077319710e-03
2.623999999999999844e+01,1.880047983662054556e-02
2.628000000000000114e+01,1.780390286097118663e-02
2.632000000000000028e+01,1.092353523069932927e-02
2.635999999999999943e+01,2.932827514806907870e-03
2.639999999999999858e+01,9.373247118878382314e-03
2.644000000000000128e+01,4.268340862087141932e-03
2.648000000000000043e+01,1.481567684941114023e-02
2.651999999999999957e+01,1.637092769424006514e-02
2.655999999999999872e+01,1.559472217404922131e-02
2.660000000000000142e+01,9.378766575393278349e-03
2.664000000000000057e+01,2.718532432977130778e-03
2.667999999999999972e+01,1.470782260362871012e-02
2.671999999999999886e+01,1.237652348688541779e-02
2.676000000000000156e+01,1.492944842242688482e-02
2.680000000000000071e+01,9.822412654441758581e-03
2.683999999999999986e+01,1.259688358851440010e-02
2.687999999999999901e+01,1.137473936594192783e-02
2.692000000000000171e+01,9.597304761509784995e-03
2.696000000000000085e+01,7.819631995867820998e-03
2.700000000000000000e+01,9.705066809504531156e-03
2.703999999999999915e+01,4.892147895809975579e-04
2.707999999999999829e+01,1.458532542641421438e-02
2.712000000000000099e+01,1.380579242552715767e-02
2.716000000000000014e+01,1.180490498403116706e-02
2.719999999999999929e+01,1.524329187940120199e-02
2.723999999999999844e+01,1.313091511574525881e-02
2.728000000000000114e+01,1.046324622776793889e-02
2.732000000000000028e+01,1.567708171856620550e-02
2.735999999999999943e+01,9.234576412692764927e-03
2.739999999999999858e+01,1.189469040974620861e-02
2.744000000000000128e+01,8.782018814036651397e-03
2.748000000000000043e+01,6.557190403039197570e-03
2.751999999999999957e+01,4.998184017444218946e-03
2.755999999999999872e+01,1.920242513143075383e-02
2.760000000000000142e+01,1.209241227903556752e-02
2.764000000000000057e+01,1.042167163383109565e-02
2.767999999999999972e+01,8.750689342493483958e-03
2.771999999999999886e+01,1.229695790543018294e-02
2.776000000000000156e+01,8.627303049681246325e-03
2.780000000000000071e+01,1.639148570066933930e-02
2.783999999999999986e+01,1.582963971724446126e-02
2.787999999999999901e+01,1.171521566840850320e-02
2.792000000000000171e+01,3.848674264594672948e-04
2.796000000000000085e+01,2.708565573847466525e-03
2.800000000000000000e+01,1.368674592152387516e-03
2.803999999999999915e+01,1.501495540679694332e-02
2.807999999999999829e+01,7.791021863183035870e-03
2.812000000000000099e+01,1.200092427745132195e-02
2.816000000000000014e+01,1.288026823676327072e-02
2.819999999999999929e+01,1.675665107003987755e-02
2.823999999999999844e+01,7.644563053077647365e-03
2.828000000000000114e+01,1.451774001647617059e-02
2.832000000000000028e+01,1.395296988499040124e-02
2.835999999999999943e+01,1.427603867886592486e-02
2.839999999999999858e+01,1.015844302763028312e-02
2.844000000000000128e+01,1.267151289122570934e-03
2.848000000000000043e+01,2.573583147916442605e-04
2.851999999999999957e+01,5.352896185408869030e-03
2.855999999999999872e+01,1.466658649889405856e-02
2.860000000000000142e+01,1.310100339385464850e-02
2.864000000000000057e+01,1.419942558455037848e-02
2.867999999999999972e+01,1.310280449669458174e-03
2.871999999999999886e+01,5.405492511136293469e-03
2.876000000000000156e+01,5.837111764989882934e-03
2.880000000000000071e+01,1.459427016557088806e-02
2.883999999999999986e+01,1.080699674321562199e-02
2.887999999999999901e+01,9.128675040697536644e-03
2.892000000000000171e+01,8.227179070193465019e-03
2.896000000000000085e+01,4.883204635406871580e-03
2.900000000000000000e+01,1.197396755348937442e-02
2.903999999999999915e+01,1.040566458039917340e-02
2.907999999999999829e+01,1.605279457027476014e-02
2.912000000000000099e+01,1.648218325015626470e-02
2.916000000000000014e+01,1.668930215474830753e-02
2.919999999999999929e+01,3.019861699725973330e-03
2.923999999999999844e+01,6.223765441310890635e-03
2.928000000000000114e+01,8.095293998272140232e-03
2.932000000000000028e+01,3.860996414394107356e-03
2.935999999999999943e+01,2.401711124179200726e-03
2.939999999999999858e+01,7.269773385264341470e-03
2.944000000000000128e+01,8.141208098865603676e-03
2.948000000000000043e+01,8.901381971173898122e-03
2.951999999999999957e+01,9.106252877176933963e-03
2.955999999999999872e+01,6.535610966240589133e-03
2.960000000000000142e+01,8.738168878650847543e-03
2.964000000000000057e+01,1.016340227823257260e-02
2.967999999999999972e+01,1.930472343269584766e-03
2.971999999999999886e+01,1.112593669588838804e-02
2.976000000000000156e+01,4.890692218477762226e-03
2.980000000000000071e+01,3.317636113528143159e-03
2.983999999999999986e+01,1.739680598971786105e-02
2.987999999999999901e+01,4.167144789961421160e-03
2.992000000000000171e+01,1.080810753248253979e-02
2.996000000000000085e+01,4.793622548224083305e-03
3.000000000000000000e+01,0.000000000000000000e+00
3.003999999999999915e+01,4.642015425204522837e-03
3.007999999999999829e+01,1.594440655894663328e-02
3.012000000000000099e+01,8.485772634656617991e-03
3.016000000000000014e+01,8.020545480244554645e-03
3.019999999999999929e+01,6.777991102508005260e-03
3.023999999999999844e+01,2.537899650812771874e-03
3.028000000000000114e+01,6.179298250985901936e-03
3.032000000000000028e+01,5.491033595770180784e-03
3.035999999999999943e+01,5.135545771316218401e-03
3.039999999999999858e+01,7.777086172449957854e-03
3.044000000000000128e+01,1.030736108572622052e-02
3.048000000000000043e+01,1.106121307476770101e-02
3.051999999999999957e+01,3.267002492034168804e-03
3.055999999999999872e+01,1.123602488836805691e-02
3.060000000000000142e+01,1.398729881125419967e-02
3.064000000000000057e+01,3.417058818936071895e-03
3.067999999999999972e+01,2.504474668039586346e-03
3.071999999999999886e+01,1.358076630483659800e-02
3.076000000000000156e+01,1.510989986255520043e-02
3.080000000000000071e+01,1.119926301308910715e-02
3.083999999999999986e+01,1.039666274238663923e-02
3.087999999999999901e+01,4.931365057245307507e-03
3.092000000000000171e+01,1.167696315746593987e-02
3.096000000000000085e+01,8.209339313465673083e-03
3.100000000000000000e+01,7.738740790950282729e-03
3.103999999999999915e+01,1.070920932771833763e-02
3.107999999999999829e+01,1.334638831321653500e-02
3.112000000000000099e+01,1.764846624516264520e-02
3.116000000000000014e+01,2.028512844440875582e-02
3.119999999999999929e+01,1.470675622911749372e-02
3.123999999999999844e+01,2.167230969888744863e-02
3.128000000000000114e+01,1.598240905285160454e-02
3.132000000000000028e+01,1.562075231932448516e-02
3.135999999999999943e+01,1.215054260799535053e-02
3.139999999999999858e+01,7.125926485176529469e-03
3.144000000000000128e+01,1.686544473641195599e-02
3.148000000000000043e+01,1.605870707798331964e-02
3.151999999999999957e+01,2.213435912394819474e-02
3.155999999999999872e+01,2.099406935857629428e-02
3.160000000000000142e+01,1.985351897359954529e-02
3.164000000000000057e+01,2.448525288368207098e-02
3.167999999999999972e+01,2.201205488445861017e-02
3.171999999999999886e+01,1.487615540505237040e-02
3.176000000000000156e+01,1.817497991964226942e-02
3.180000000000000071e+01,1.681110256683564577e-02
3.183999999999999986e+01,2.099748757535132432e-02
3.187999999999999901e+01,1.941106550074314305e-02
3.192000000000000171e+01,1.260688856366102249e-02
3.196000000000000085e+01,1.190802582133752840e-02
3.200000000000000000e+01,2.375308508554500528e-02
3.203999999999999915e+01,1.705913096429402184e-02
3.207999999999999829e+01,1.880171059685979348e-02
3.211999999999999744e+01,2.276423674995889379e-02
3.215999999999999659e+01,1.895576577336155477e-02
3.220000000000000284e+01,1.192772727036688074e-02
3.224000000000000199e+01,1.522339995523473884e-02
3.228000000000000114e+01,1.319030555231564573e-02
3.232000000000000028e+01,1.215604139053061764e-02
3.235999999999999943e+01,1.001140810209678704e-02
3.239999999999999858e+01,1.041975142750245324e-02
3.243999999999999773e+01,1.027277765330248879e-02
3.247999999999999687e+01,8.016339825970867153e-03
3.252000000000000313e+01,1.597260134840243484e-02
3.256000000000000227e+01,1.316058076808212553e-02
3.260000000000000142e+01,1.512174549059430023e-02
3.264000000000000057e+01,9.755952691533245624e-03
3.267999999999999972e+01,1.315972219074018797e-02
3.271999999999999886e+01,1.090169102393063853e-02
3.275999999999999801e+01,9.642487968579747590e-03
3.279999999999999716e+01,1.115828055670252915e-02
3.284000000000000341e+01,8.566418657907399689e-03
3.288000000000000256e+01,1.973958981765742277e-02
3.292000000000000171e+01,1.115262802123325424e-02
3.296000000000000085e+01,9.004007027950389902e-03
3.300000000000000000e+01,6.522087190268626572e-03
3.303999999999999915e+01,1.081153921706860636e-02
3.307999999999999829e+01,1.288051380378275185e-02
3.311999999999999744e+01,9.842738202668713590e-03
3.315999999999999659e+01,7.803788776944803503e-03
3.320000000000000284e+01,9.760948369990999837e-03
3.324000000000000199e+01,9.053587817118551734e-03
3.328000000000000114e+01,1.289738831005930904e-02
3.332000000000000028e+01,1.385464730416496697e-02
3.335999999999999943e+01,1.170334364012587045e-02
3.339999999999999858e+01,1.199400126690353639e-02
3.343999999999999773e+01,1.627383014429844297e-03
3.347999999999999687e+01,9.244193264750472788e-03
3.352000000000000313e+01,1.630568118808036621e-02
3.356000000000000227e+01,1.226585071993294314e-02
3.360000000000000142e+01,7.781708020432415336e-03
3.364000000000000057e+01,1.395430118110859048e-02
3.367999999999999972e+01,3.475051226918564069e-03
3.371999999999999886e+01,9.869123785368005483e-03
3.375999999999999801e+01,1.382069464671235870e-02
3.379999999999999716e+01,9.224187060519715986e-03
3.384000000000000341e+01,1.783765547205087149e-02
3.388000000000000256e+01,1.324060476907389962e-02
3.392000000000000171e+01,1.796816277680924820e-02
3.396000000000000085e+01,1.514673590824239247e-02
3.400000000000000000e+01,1.687646660056542000e-02
3.403999999999999915e+01,1.860592486326545503e-02
3.407999999999999829e+01,1.678277505149190080e-02
3.411999999999999744e+01,8.610211007581770925e-04
3.415999999999999659e+01,1.568889788940928953e-02
3.420000000000000284e+01,1.408695001200777758e-02
3.424000000000000199e+01,1.936737867373374000e-02
3.428000000000000114e+01,1.521164270182944964e-02
3.432000000000000028e+01,1.727221998473066344e-02
3.435999999999999943e+01,1.011865321249068132e-02
3.439999999999999858e+01,1.839526938450584959e-02
3.443999999999999773e+01,1.601460483709837845e-02
3.447999999999999687e+01,1.540983345601434212e-02
3.452000000000000313e+01,1.036436800797043041e-02
3.456000000000000227e+01,2.652162983802532070e-02
3.460000000000000142e+01,2.014348850913392358e-02
3.464000000000000057e+01,1.876054357482817916e-02
3.467999999999999972e+01,2.048561663302804828e-02
3.471999999999999886e+01,1.455069065354409365e-02
3.475999999999999801e+01,9.170541173770594204e-03
3.479999999999999716e+01,1.278196469680451669e-02
3.484000000000000341e+01,1.661513288378111200e-02
3.488000000000000256e+01,1.145617546443004203e-02
3.492000000000000171e+01,1.240251791293034943e-02
3.496000000000000085e+01,1.268252058174182927e-02
3.500000000000000000e+01,1.795771790267722962e-02
3.503999999999999915e+01,1.956929201972320426e-02
3.507999999999999829e+01,9.635498456825907984e-03
3.511999999999999744e+01,1.879523028735546886e-02
3.515999999999999659e+01,1.141412232241656964e-02
3.520000000000000284e+01,1.935218294674439718e-02
3.524000000000000199e+01,1.541184366814745549e-02
3.528000000000000114e+01,1.713276058353464110e-02
3.532000000000000028e+01,1.752127307966311678e-02
3.535999999999999943e+01,1.968567448276423854e-02
3.539999999999999858e+01,1.530017838537870573e-02
3.543999999999999773e+01,2.212646185011824668e-02
3.547999999999999687e+01,1.740737569884593522e-02
3.552000000000000313e+01,1.746146071710575828e-02
3.556000000000000227e+01,2.117861188277717771e-02
3.560000000000000142e+01,1.090816222888614170e-02
3.564000000000000057e+01,2.006426690008699526e-02
3.567999999999999972e+01,2.011723160997176338e-02
3.571999999999999886e+01,1.750566417031287209e-02
3.575999999999999801e+01,2.910315778091111805e-02
3.579999999999999716e+01,2.959932215804812056e-02
3.584000000000000341e+01,2.332356593932034816e-02
3.588000000000000256e+01,2.925868149870452725e-02
3.592000000000000171e+01,3.408341070042986143e-02
3.596000000000000085e+01,3.013803003414527656e-02
3.600000000000000000e+01,3.429613269965153810e-02
3.603999999999999915e+01,3.312545007832646410e-02
3.607999999999999829e+01,2.806911825363102297e-02
3.611999999999999744e+01,3.011717483424357009e-02
3.615999999999999659e+01,3.183191727551572953e-02
3.620000000000000284e+01,3.521153407516521699e-02
3.624000000000000199e+01,2.971002916870540272e-02
3.628000000000000114e+01,3.153493285882889158e-02
3.632000000000000028e+01,3.058429101245454390e-02
3.635999999999999943e+01,3.118751226717872763e-02
3.639999999999999858e+01,2.934821904674543569e-02
3.643999999999999773e+01,3.317017640569754761e-02
3.647999999999999687e+01,2.955414717396699295e-02
3.652000000000000313e+01,3.060027378874580900e-02
3.656000000000000227e+01,3.442137784795396005e-02
3.660000000000000142e+01,3.213662052987529411e-02
3.664000000000000057e+01,3.251582978616081310e-02
3.667999999999999972e+01,2.656715631224310786e-02
3.671999999999999886e+01,3.116419330792288833e-02
3.675999999999999801e+01,3.487286084590263124e-02
3.679999999999999716e+01,3.358577086707493359e-02
3.684000000000000341e+01,3.274243683754987644e-02
3.688000000000000256e+01,3.978056091476214751e-02
3.692000000000000171e+01,2.905672136643928233e-02
3.696000000000000085e+01,4.020166037691215444e-02
3.700000000000000000e+01,4.002324338001547049e-02
3.703999999999999915e+01,3.806837170735978548e-02
3.707999999999999829e+01,4.244081041348805178e-02
3.711999999999999744e+01,4.936620288784689808e-02
3.715999999999999659e+01,4.063882974920549757e-02
3.720000000000000284e+01,4.367828006824436837e-02
3.724000000000000199e+01,4.405319088067906341e-02
3.728000000000000114e+01,4.542690792699786984e-02
3.732000000000000028e+01,5.679128012455453289e-02
3.735999999999999943e+01,6.127271388633453997e-02
3.739999999999999858e+01,6.653093233547532903e-02
3.743999999999999773e+01,7.345401914118096509e-02
3.747999999999999687e+01,7.993277493566862402e-02
3.752000000000000313e+01,9.373793332492710850e-02
3.756000000000000227e+01,8.889304112812988767e-02
3.760000000000000142e+01,1.049178300467564079e-01
3.764000000000000057e+01,1.300451887049550725e-01
3.767999999999999972e+01,1.389647268190074558e-01
3.771999999999999886e+01,1.705301131932849545e-01
3.775999999999999801e+01,2.058695655494483800e-01
3.779999999999999716e+01,2.565281739104330327e-01
3.784000000000000341e+01,2.894248141929249840e-01
3.788000000000000256e+01,3.878173483418418388e-01
3.792000000000000171e+01,5.064134991602194935e-01
3.796000000000000085e+01,6.711897194416706069e-01
3.800000000000000000e+01,8.412941513032858865e-01
3.803999999999999915e+01,9.913053939784952640e-01
3.807999999999999829e+01,1.000000000000000000e+00
3.811999999999999744e+01,9.498587579327588681e-01
3.815999999999999659e+01,8.199006863242562781e-01
3.820000000000000284e+01,6.676292150978930806e-01
3.824000000000000199e+01,5.280126461582429487e-01
3.828000000000000114e+01,4.076005977999295204e-01
3.832000000000000028e+01,3.189372543915504621e-01
3.835999999999999943e+01,2.475912529688212294e-01
3.839999999999999858e+01,2.053297045203797688e-01
3.843999999999999773e+01,1.790533718761580240e-01
3.847999999999999687e+01,1.511115880691819013e-01
3.852000000000000313e+01,1.277209399455210559e-01
3.856000000000000227e+01,1.147649829026910762e-01
3.860000000000000142e+01,1.063601611559626958e-01
3.864000000000000057e+01,9.273755202080878612e-02
3.867999999999999972e+01,7.689443834060943894e-02
3.871999999999999886e+01,7.292915124388126002e-02
3.875999999999999801e+01,6.407910762646112923e-02
3.879999999999999716e+01,7.387852965923182025e-02
3.884000000000000341e+01,6.103151752787823459e-02
3.888000000000000256e+01,5.695403768573019387e-02
3.892000000000000171e+01,5.420838758813924241e-02
3.896000000000000085e+01,4.069442441069966165e-02
3.900000000000000000e+01,4.261062191272700639e-02
3.903999999999999915e+01,3.586770512186795296e-02
3.907999999999999829e+01,4.044756075776155535e-02
3.911999999999999744e+01,3.936558475054194317e-02
3.915999999999999659e+01,3.384289221796727559e-02
3.920000000000000284e+01,3.309335304309413139e-02
3.924000000000000199e+01,3.045633806123364609e-02
3.928000000000000114e+01,3.059428735853636505e-02
3.932000000000000028e+01,3.139800156721943986e-02
3.935999999999999943e+01,2.798301924821593178e-02
3.939999999999999858e+01,2.911916835317694338e-02
3.943999999999999773e+01,2.947794551162996254e-02
3.947999999999999687e+01,2.661711990723814036e-02
3.952000000000000313e+01,2.331195341767879417e-02
3.956000000000000227e+01,2.455791757765652186e-02
3.960000000000000142e+01,2.336135177392834050e-02
3.964000000000000057e+01,2.349661222983394707e-02
3.967999999999999972e+01,2.041226895486042067e-02
3.971999999999999886e+01,1.721661527523916588e-02
3.975999999999999801e+01,2.478867831679720454e-02
3.979999999999999716e+01,1.692998393300527288e-02
3.984000000000000341e+01,2.316932036871992631e-02
3.988000000000000256e+01,1.719720299456052245e-02
3.992000000000000171e+01,1.610924597603056660e-02
3.996000000000000085e+01,1.413290401125221959e-02
4.000000000000000000e+01,2.858581223143171965e-02
4.003999999999999915e+01,1.672893454518623729e-02
4.007999999999999829e+01,2.185635907094172700e-02
4.011999999999999744e+01,1.577142297084427325e-02
4.015999999999999659e+01,2.145329600151994406e-02
4.020000000000000284e+01,1.558977657057486650e-02
4.024000000000000199e+01,1.627557318917493417e-02
4.028000000000000114e+01,1.740510910688814611e-02
4.032000000000000028e+01,1.342785998753930586e-02
4.035999999999999943e+01,1.844215695964512847e-02
4.039999999999999858e+01,1.601844836759649948e-02
4.043999999999999773e+01,1.226231057461173515e-02
4.047999999999999687e+01,1.339033042676046788e-02
4.052000000000000313e+01,1.940250773043588131e-02
4.056000000000000227e+01,1.453535372713708231e-02
4.060000000000000142e+01,1.699458741088127195e-02
4.064000000000000057e+01,1.490208692296544728e-02
4.067999999999999972e+01,2.002496325202753752e-02
4.071999999999999886e+01,1.793185343378312160e-02
4.075999999999999801e+01,2.116694183682966274e-02
4.079999999999999716e+01,1.429977115122045388e-02
4.084000000000000341e+01,1.142867250547215455e-02
4.088000000000000256e+01,1.810416984854618452e-02
4.092000000000000171e+01,1.134709303660290554e-02
4.096000000000000085e+01,1.236044410064639741e-02
4.100000000000000000e+01,1.470561484169056500e-02
4.103999999999999915e+01,1.782755265187174407e-02
4.107999999999999829e+01,1.295642919232513172e-02
4.111999999999999744e+01,2.273838277112258041e-02
4.115999999999999659e+01,1.431431027065282330e-02
4.120000000000000284e+01,2.354059745830033162e-02
4.124000000000000199e+01,1.877925652781885224e-02
4.128000000000000114e+01,1.534973391909006182e-02
4.132000000000000028e+01,1.669335440689947991e-02
4.135999999999999943e+01,1.737060413792327132e-02
4.139999999999999858e+01,1.638238857289232853e-02
4.143999999999999773e+01,1.195253979257791983e-02
4.147999999999999687e+01,1.473806395710435674e-02
4.152000000000000313e+01,1.741226900467459510e-02
4.156000000000000227e+01,1.253745239064025380e-02
4.160000000000000142e+01,9.660515446611964152e-03
4.164000000000000057e+01,1.122368860171293371e-02
4.167999999999999972e+01,9.900279794146165172e-03
4.171999999999999886e+01,1.412708552700857149e-02
4.175999999999999801e+01,1.913065484408459430e-02
4.179999999999999716e+01,2.069258920341549013e-02
4.184000000000000341e+01,1.259630137171784819e-02
4.188000000000000256e+01,1.882005545127993923e-02
4.192000000000000171e+01,1.605164984970796835e-02
4.196000000000000085e+01,1.872244714407272914e-02
4.200000000000000000e+01,2.294708024096956886e-02
4.203999999999999915e+01,1.351711279615439021e-02
4.207999999999999829e+01,1.052544201211768650e-02
4.211999999999999744e+01,1.108579514111705626e-02
4.215999999999999659e+01,1.963859130360028071e-02
4.220000000000000284e+01,1.675699580697142393e-02
4.224000000000000199e+01,1.942561233388268721e-02
4.228000000000000114e+01,1.820854964836110534e-02
4.232000000000000028e+01,9.886503554110095959e-03
4.235999999999999943e+01,1.399731883936339814e-02
4.239999999999999858e+01,1.766377929975555122e-02
4.243999999999999773e+01,1.622344446192242398e-02
4.247999999999999687e+01,1.711401648329864342e-02
4.252000000000000313e+01,2.144559999879100398e-02
4.256000000000000227e+01,1.734007314969649924e-02
4.260000000000000142e+01,1.478837919903119684e-02
4.264000000000000057e+01,1.800891630154024398e-02
4.267999999999999972e+01,2.489248508944069335e-02
4.271999999999999886e+01,2.567016287820556367e-02
4.275999999999999801e+01,2.289519057980942199e-02
4.279999999999999716e+01,9.573907581009299256e-03
4.284000000000000341e+01,2.011956337212187848e-02
4.288000000000000256e+01,1.612253069296759947e-02
4.292000000000000171e+01,1.523347612330683797e-02
4.296000000000000085e+01,1.623128415816773099e-02
4.300000000000000000e+01,2.388940536655212096e-02
4.303999999999999915e+01,2.977104285814936857e-02
4.307999999999999829e+01,2.477333684554056462e-02
4.311999999999999744e+01,2.532583859712107116e-02
4.315999999999999659e+01,2.376882460253975510e-02
4.320000000000000284e+01,2.520877687935258946e-02
4.324000000000000199e+01,3.353106213375053879e-02
4.328000000000000114e+01,2.087204897643387541e-02
4.332000000000000028e+01,2.763955297169300857e-02
4.335999999999999943e+01,3.096541445853965083e-02
4.339999999999999858e+01,4.061855573428717336e-02
4.343999999999999773e+01,3.417485906935273376e-02
4.347999999999999687e+01,3.261530552903771363e-02
4.352000000000000313e+01,3.660595781684343464e-02
4.356000000000000227e+01,3.993022869948656406e-02
4.360000000000000142e+01,4.503034860609027995e-02
4.364000000000000057e+01,4.169335292072204324e-02
4.367999999999999972e+01,5.356447429711597846e-02
4.371999999999999886e+01,5.821959500568931606e-02
4.375999999999999801e+01,6.176429140966029074e-02
4.379999999999999716e+01,7.640971642907232186e-02
4.384000000000000341e+01,7.518032253743660298e-02
4.388000000000000256e+01,7.883506983435176196e-02
4.392000000000000171e+01,8.781800005761636330e-02
4.396000000000000085e+01,1.029061863935832044e-01
4.400000000000000000e+01,1.078920981523458639e-01
4.403999999999999915e+01,1.287521881275172086e-01
4.407999999999999829e+01,1.537193449432456283e-01
4.411999999999999744e+01,1.451610147193110323e-01
4.415999999999999659e+01,1.782312941524815397e-01
4.420000000000000284e+01,1.791082119529917860e-01
4.424000000000000199e+01,1.879775627194294196e-01
4.428000000000000114e+01,1.957364866643755974e-01
4.432000000000000028e+01,1.870655369607349683e-01
4.435999999999999943e+01,1.786162858426055544e-01
4.439999999999999858e+01,1.597317267626493231e-01
4.443999999999999773e+01,1.471744424378158000e-01
4.447999999999999687e+01,1.238488183153876182e-01
4.452000000000000313e+01,1.116239193234771915e-01
4.456000000000000227e+01,9.762252925771906786e-02
4.460000000000000142e+01,8.073454309599283063e-02
4.464000000000000057e+01,7.383717665545005970e-02
4.467999999999999972e+01,6.971474835714508433e-02
4.471999999999999886e+01,6.337178627915959761e-02
4.475999999999999801e+01,5.858264664483318895e-02
4.479999999999999716e+01,4.924175270373386953e-02
4.484000000000000341e+01,4.844834123871593484e-02
4.488000000000000256e+01,4.587843715099556435e-02
4.492000000000000171e+01,4.142102976411447118e-02
4.496000000000000085e+01,3.107974150181668643e-02
4.500000000000000000e+01,3.816677356928215026e-02
4.503999999999999915e+01,3.581758892287349727e-02
4.507999999999999829e+01,2.603037606030841541e-02
4.511999999999999744e+01,2.301447659295492720e-02
4.515999999999999659e+01,2.998919432989576375e-02
4.520000000000000284e+01,2.930386230415690102e-02
4.524000000000000199e+01,1.662907149092821696e-02
4.528000000000000114e+01,1.827430613237656515e-02
4.532000000000000028e+01,1.725496215863610988e-02
4.535999999999999943e+01,1.767842724160054863e-02
4.539999999999999858e+01,1.421619801079742652e-02
4.543999999999999773e+01,1.619315483213466106e-02
4.547999999999999687e+01,1.439542743534203903e-02
4.552000000000000313e+01,1.614970749500281577e-02
4.556000000000000227e+01,8.911810255305812126e-03
4.560000000000000142e+01,1.455080064436325114e-02
4.564000000000000057e+01,9.643466586930073831e-03
4.567999999999999972e+01,2.260849149934913982e-02
4.571999999999999886e+01,1.570231101854909633e-02
4.575999999999999801e+01,1.467935697243999242e-02
4.579999999999999716e+01,1.376708405914402709e-02
4.584000000000000341e+01,1.307650256790564812e-02
4.588000000000000256e+01,9.499318785279773150e-03
4.592000000000000171e+01,9.030098591633308608e-03
4.596000000000000085e+01,1.200187324191349415e-02
4.600000000000000000e+01,1.397422322845885516e-02
4.603999999999999915e+01,1.561321125477067688e-02
4.607999999999999829e+01,1.381054360740393075e-02
4.611999999999999744e+01,1.023137733552219840e-02
4.615999999999999659e+01,1.431160328788477071e-02
4.620000000000000284e+01,1.173086898305853061e-02
4.624000000000000199e+01,7.151614507194042555e-03
4.628000000000000114e+01,9.676699260496430394e-03
4.632000000000000028e+01,8.871137661330475918e-03
4.635999999999999943e+01,6.955139173116619937e-03
4.639999999999999858e+01,9.479227744816303911e-03
4.643999999999999773e+01,8.228627451821587599e-03
4.647999999999999687e+01,1.175114528008081201e-02
4.652000000000000313e+01,7.724617439485473649e-03
4.656000000000000227e+01,1.268960568128227502e-02
4.660000000000000142e+01,1.321384138684908276e-02
4.664000000000000057e+01,1.140652353675495993e-02
4.667999999999999972e+01,1.670354297975920610e-02
4.671999999999999886e+01,4.349561846400299726e-03
4.675999999999999801e+01,1.142208121542767456e-02
4.679999999999999716e+01,9.724438248987492261e-03
4.684000000000000341e+01,1.601921566402916483e-02
4.688000000000000256e+01,1.243372552787589715e-02
4.692000000000000171e+01,1.362135138330117755e-02
4.696000000000000085e+01,1.625177855115714567e-02
4.700000000000000000e+01,1.266528352109270138e-02
4.703999999999999915e+01,1.318584100467802729e-02
4.707999999999999829e+01,1.326202101140027886e-02
4.711999999999999744e+01,5.456120996611044625e-03
4.715999999999999659e+01,2.867377743164659532e-03
4.720000000000000284e+01,1.393258775415816275e-02
4.724000000000000199e+01,1.134317205454857432e-02
4.728000000000000114e+01,3.979969078838323758e-03
4.732000000000000028e+01,7.162425266909136327e-03
4.735999999999999943e+01,1.156565986563933349e-02
4.739999999999999858e+01,1.308228481592157467e-02
4.743999999999999773e+01,6.272786264432027303e-03
4.747999999999999687e+01,1.211814527647203481e-02
4.752000000000000313e+01,6.640097362539692030e-03
4.756000000000000227e+01,7.489309102395316602e-03
4.760000000000000142e+01,6.895046502836468805e-03
4.764000000000000057e+01,1.473724234402785070e-02
4.767999999999999972e+01,3.374286202372432392e-03
4.771999999999999886e+01,1.365803557356612408e-02
4.775999999999999801e+01,1.184130347718673551e-02
4.779999999999999716e+01,1.668486132150832565e-02
4.784000000000000341e+01,7.540759102569910208e-03
4.788000000000000256e+01,1.304970120241711121e-02
4.792000000000000171e+01,6.791192508817913732e-03
4.796000000000000085e+01,8.969140707114110767e-03
4.800000000000000000e+01,8.704518284264979242e-03
4.803999999999999915e+01,6.885408909474605849e-03
4.807999999999999829e+01,9.617388945961221833e-03
4.811999999999999744e+01,1.057286067759015402e-02
4.815999999999999659e+01,1.097293922211952863e-02
4.820000000000000284e+01,1.381490742292942886e-02
4.824000000000000199e+01,1.010691597545229810e-02
4.828000000000000114e+01,1.017293959125835368e-02
4.832000000000000028e+01,8.240432968469697458e-03
4.835999999999999943e+01,6.973647501912262972e-03
4.839999999999999858e+01,1.691857886885899873e-02
4.843999999999999773e+01,1.154372147422649819e-02
4.847999999999999687e+01,6.390542723599183100e-03
4.852000000000000313e+01,9.340786705817226074e-03
4.856000000000000227e+01,1.273472991052948880e-02
4.860000000000000142e+01,8.246585930276627285e-03
4.864000000000000057e+01,9.308622996467130067e-03
4.867999999999999972e+01,8.039096633047112042e-03
4.871999999999999886e+01,1.132065658319447721e-02
4.875999999999999801e+01,1.104953740515258499e-02
4.879999999999999716e+01,8.779885665233714762e-03
4.884000000000000341e+01,9.063130966737052360e-03
4.888000000000000256e+01,4.017528833608701409e-03
4.892000000000000171e+01,1.207081922556863321e-02
4.896000000000000085e+01,1.201999972439904765e-02
4.900000000000000000e+01,8.305489450547712954e-03
4.903999999999999915e+01,9.586105872814363466e-03
4.907999999999999829e+01,1.319759720915933583e-02
4.911999999999999744e+01,5.152642426703663535e-03
4.915999999999999659e+01,5.544138727937737536e-03
4.920000000000000284e+01,9.598635156645945674e-03
4.924000000000000199e+01,1.243167027376139606e-02
4.928000000000000114e+01,1.049090843443343385e-02
4.932000000000000028e+01,1.343426145312410364e-02
4.935999999999999943e+01,7.496429262657159677e-03
4.939999999999999858e+01,6.775742991549186904e-03
4.943999999999999773e+01,9.051992789166072792e-03
4.947999999999999687e+01,6.776465628008035945e-03
4.952000000000000313e+01,6.276758836996108176e-03
4.956000000000000227e+01,7.330851256820694259e-03
4.960000000000000142e+01,8.606616899658527456e-03
4.964000000000000057e+01,7.772835432024078478e-03
4.967999999999999972e+01,9.047905008662418189e-03
4.971999999999999886e+01,1.065565771034480101e-02
4.975999999999999801e+01,1.081992561784256637e-02
4.979999999999999716e+01,9.651719020400160304e-03
4.984000000000000341e+01,1.214650945272225183e-02
4.988000000000000256e+01,1.408589837285006280e-02
4.992000000000000171e+01,5.811973579107876896e-03
4.996000000000000085e+01,3.532265374188311990e-03
5.000000000000000000e+01,6.913742115930383847e-03
5.003999999999999915e+01,7.963648845428909426e-03
5.007999999999999829e+01,7.681079714739285497e-03
5.011999999999999744e+01,7.375313533891322305e-04
5.015999999999999659e+01,8.669037240936611904e-03
5.020000000000000284e+01,1.049461592486664908e-02
5.024000000000000199e+01,1.187580183699210937e-02
5.028000000000000114e+01,9.038238366759619724e-03
5.032000000000000028e+01,7.310428497427951151e-03
5.035999999999999943e+01,6.803382518241593915e-03
5.039999999999999858e+01,5.740932509971841471e-03
5.043999999999999773e+01,5.011162141822775307e-03
5.047999999999999687e+01,1.216278405408044092e-02
5.052000000000000313e+01,1.620576025085271668e-02
5.056000000000000227e+01,3.041759216409247509e-03
5.060000000000000142e+01,7.084030441066697763e-03
5.064000000000000057e+01,1.323514806343241423e-02
5.067999999999999972e+01,1.294730471034434734e-02
5.071999999999999886e+01,8.884751776628438402e-03
5.075999999999999801e+01,8.707212385422087239e-03
5.079999999999999716e+01,1.352479117163208483e-02
5.084000000000000341e+01,9.350167102379479400e-03
5.088000000000000256e+01,5.508220543572128584e-03
5.092000000000000171e+01,1.465414634665896700e-02
5.096000000000000085e+01,8.258250225231996214e-03
5.100000000000000000e+01,1.418416318137729476e-02
5.103999999999999915e+01,1.133989327972840903e-02
5.107999999999999829e+01,6.719100746314599949e-03
5.111999999999999744e+01,1.364304332969290198e-02
5.115999999999999659e+01,7.134362194699102322e-03
5.120000000000000284e+01,7.618985992377697372e-03
5.124000000000000199e+01,1.132255811217542513e-02
5.128000000000000114e+01,5.589883315429640225e-03
5.132000000000000028e+01,1.395518377302315018e-02
5.135999999999999943e+01,1.244019499545399865e-02
5.139999999999999858e+01,1.525425859409018647e-02
5.143999999999999773e+01,8.521064018904079759e-03
5.147999999999999687e+01,1.055734074676428942e-02
5.152000000000000313e+01,1.026204029892730483e-02
5.156000000000000227e+01,1.318568662435457700e-02
5.160000000000000142e+01,1.211259814410048895e-02
5.164000000000000057e+01,9.596015770139552231e-03
5.167999999999999972e+01,4.969876411756745695e-03
5.171999999999999886e+01,7.226028986305903928e-03
5.175999999999999801e+01,1.092495964046316832e-02
5.179999999999999716e+01,1.240332224652665287e-02
5.184000000000000341e+01,9.662927919564889487e-03
5.188000000000000256e+01,6.478132882917449382e-03
5.192000000000000171e+01,1.161876508823543076e-02
5.196000000000000085e+01,1.550601977422358521e-03
5.200000000000000000e+01,1.035386159224079700e-02
5.203999999999999915e+01,1.016491254339096061e-02
5.207999999999999829e+01,1.352793919947036481e-02
5.211999999999999744e+01,8.120777770370552970e-03
5.215999999999999659e+01,1.448036738998735584e-02
5.220000000000000284e+01,1.062663226014345930e-02
5.224000000000000199e+01,1.321114461493693576e-02
5.228000000000000114e+01,1.324205514980025290e-02
5.232000000000000028e+01,1.094138463682927179e-02
5.235999999999999943e+01,8.529342539444468782e-03
5.239999999999999858e+01,7.338054458255440643e-03
5.243999999999999773e+01,9.587729856682566595e-03
5.247999999999999687e+01,1.150401212417259504e-02
5.252000000000000313e+01,1.119972285864547119e-02
5.256000000000000227e+01,1.322629166340028375e-02
5.260000000000000142e+01,1.181117323655918143e-02
5.264000000000000057e+01,1.305994394134045271e-02
5.267999999999999972e+01,1.264319475293392524e-02
5.271999999999999886e+01,1.100496740913825544e-02
5.275999999999999801e+01,9.810418959117037097e-03
5.279999999999999716e+01,9.725612106371682095e-03
5.284000000000000341e+01,1.552399741990399297e-02
5.288000000000000256e+01,1.066501276125359637e-02
5.292000000000000171e+01,1.168921988166721736e-02
5.296000000000000085e+01,1.060386382223961477e-02
5.300000000000000000e+01,1.096127984060763123e-02
5.303999999999999915e+01,1.120732098324534430e-02
5.307999999999999829e+01,1.189703947080264848e-02
5.311999999999999744e+01,8.590015795618117719e-03
5.315999999999999659e+01,8.168899700869565808e-03
5.320000000000000284e+01,1.085571195865286248e-02
5.324000000000000199e+01,9.767802438576464116e-03
5.328000000000000114e+01,9.567611226790903936e-03
5.332000000000000028e+01,1.558364130655491737e-02
5.335999999999999943e+01,1.504968695635447093e-02
5.339999999999999858e+01,1.074101005386690968e-02
5.343999999999999773e+01,1.331461675921656249e-02
5.347999999999999687e+01,1.511078356205225633e-02
5.352000000000000313e+01,1.224414336896932458e-02
5.356000000000000227e+01,7.489958057645135746e-03
5.360000000000000142e+01,1.183826523675798187e-02
5.364000000000000057e+01,1.862843574161910862e-02
5.367999999999999972e+01,5.880393774051135940e-03
5.371999999999999886e+01,1.433498634689861322e-02
5.375999999999999801e+01,1.324230951672623370e-02
5.379999999999999716e+01,1.281532751225283352e-02
5.384000000000000341e+01,1.360909255412841995e-02
5.388000000000000256e+01,6.853776303488146732e-03
5.392000000000000171e+01,9.867013891538319731e-03
5.396000000000000085e+01,1.143674635668414340e-02
5.400000000000000000e+01,1.489328799085965979e-02
5.403999999999999915e+01,1.957057570334988506e-02
5.407999999999999829e+01,1.514463439537086856e-02
5.411999999999999744e+01,1.415964843552017759e-02
5.415999999999999659e+01,1.239721928183900625e-02
5.420000000000000284e+01,9.746336257869156125e-03
5.424000000000000199e+01,1.486581683241033208e-02
5.428000000000000114e+01,1.021600452133980194e-02
5.432000000000000028e+01,1.522373363003979435e-02
5.435999999999999943e+01,1.234934767438764826e-02
5.439999999999999858e+01,1.591319874860266589e-02
5.443999999999999773e+01,1.314908113117092998e-02
5.447999999999999687e+01,1.238278084233805816e-02
5.452000000000000313e+01,1.583450734552449210e-02
5.456000000000000227e+01,1.107108636777037573e-02
5.460000000000000142e+01,1.441105869461967517e-02
5.464000000000000057e+01,1.064598798182842497e-02
5.467999999999999972e+01,1.742654080915689158e-02
5.471999999999999886e+01,1.266163089557643777e-02
5.475999999999999801e+01,1.855335461775340852e-02
5.479999999999999716e+01,6.794038654982560883e-03
5.484000000000000341e+01,1.412815263745926739e-02
5.488000000000000256e+01,1.202600227877558166e-02
5.492000000000000171e+01,7.370237322109299272e-03
5.496000000000000085e+01,1.581333565589622403e-02
5.500000000000000000e+01,1.071278120220162805e-02
5.503999999999999915e+01,1.604683806331376472e-02
5.507999999999999829e+01,1.294372396089349744e-02
5.511999999999999744e+01,1.228246602076786542e-02
5.515999999999999659e+01,8.401529423910350861e-03
5.520000000000000284e+01,9.737710673417920501e-03
5.524000000000000199e+01,1.151755881307496045e-02
5.528000000000000114e+01,1.340804220072054978e-02
5.532000000000000028e+01,1.196783567435543393e-02
5.535999999999999943e+01,1.252544221723837434e-02
5.539999999999999858e+01,1.319368342728926939e-02
5.543999999999999773e+01,1.275144379953629080e-02
5.547999999999999687e+01,1.541712148872442269e-02
5.552000000000000313e+01,1.619524457293535641e-02
5.556000000000000227e+01,1.219954030442674947e-02
5.560000000000000142e+01,1.386499387762013188e-02
5.564000000000000057e+01,1.419794467927258143e-02
5.567999999999999972e+01,1.397546589573687124e-02
5.571999999999999886e+01,1.131037912493280777e-02
5.575999999999999801e+01,1.208623976437601423e-02
5.579999999999999716e+01,1.374980651487820588e-02
5.584000000000000341e+01,1.352581711154838932e-02
5.588000000000000256e+01,1.252437618929331913e-02
5.592000000000000171e+01,1.518590286856084763e-02
5.596000000000000085e+01,1.074238011916156879e-02
5.600000000000000000e+01,1.662245355515312023e-02
5.603999999999999915e+01,1.728465538373738508e-02
5.607999999999999829e+01,2.027769824520041925e-02
5.611999999999999744e+01,1.860792152629927795e-02
5.615999999999999659e+01,1.460654517330581444e-02
5.620000000000000284e+01,1.548925037795199043e-02
5.624000000000000199e+01,1.737067004683308727e-02
5.628000000000000114e+01,1.525533225803078589e-02
5.632000000000000028e+01,1.358365613199290223e-02
5.635999999999999943e+01,2.156951155177597862e-02
5.639999999999999858e+01,1.601170740783760052e-02
5.643999999999999773e+01,1.422787883138403042e-02
5.647999999999999687e+01,1.854924576868717881e-02
5.652000000000000313e+01,2.065002181228761668e-02
5.656000000000000227e+01,1.475766166030751531e-02
5.660000000000000142e+01,1.641363271833130161e-02
5.664000000000000057e+01,1.818023244171054417e-02
5.667999999999999972e+01,2.394282753663621796e-02
5.671999999999999886e+01,1.882601310741838924e-02
5.675999999999999801e+01,1.659508883401964244e-02
5.679999999999999716e+01,1.791611741994129231e-02
5.684000000000000341e+01,1.579543825194038367e-02
5.688000000000000256e+01,1.600559624468119932e-02
5.692000000000000171e+01,2.054477989588137515e-02
5.696000000000000085e+01,1.609173106977017376e-02
5.700000000000000000e+01,1.607871799775604377e-02
5.703999999999999915e+01,1.673138406928565899e-02
5.707999999999999829e+01,1.849377102215762209e-02
5.711999999999999744e+01,1.315110293176399367e-02
5.715999999999999659e+01,1.313655368385099713e-02
5.720000000000000284e+01,1.734001825629799889e-02
5.724000000000000199e+01,1.621459493028070895e-02
5.728000000000000114e+01,1.497777620620651014e-02
5.732000000000000028e+01,1.884705458448270726e-02
5.735999999999999943e+01,1.616632917210901466e-02
5.739999999999999858e+01,1.870271095772342573e-02
5.743999999999999773e+01,1.735334015390701742e-02
5.747999999999999687e+01,1.356135284412068875e-02
5.752000000000000313e+01,1.687365035997513349e-02
5.756000000000000227e+01,1.452402697995631639e-02
5.760000000000000142e+01,1.661443644993173402e-02
5.764000000000000057e+01,1.770536491657762404e-02
5.767999999999999972e+01,1.579862349496251317e-02
5.771999999999999886e+01,1.699978854830466041e-02
5.775999999999999801e+01,1.287206318629340041e-02
5.779999999999999716e+01,1.429447453475579666e-02
5.784000000000000341e+01,1.593851922321935441e-02
5.788000000000000256e+01,1.458489305538764567e-02
5.792000000000000171e+01,1.700523529158716116e-02
5.796000000000000085e+01,1.831508449275089795e-02
5.800000000000000000e+01,1.673827273965015211e-02
5.803999999999999915e+01,1.616016673847588819e-02
5.807999999999999829e+01,1.547066146710760273e-02
5.811999999999999744e+01,1.133944224639746486e-02
5.815999999999999659e+01,1.586665151353749276e-02
5.820000000000000284e+01,1.495395775279736821e-02
5.824000000000000199e+01,1.004449704763795553e-02
5.828000000000000114e+01,1.457053762946773981e-02
5.832000000000000028e+01,1.665395763958369205e-02
5.835999999999999943e+01,1.662778833293302588e-02
5.839999999999999858e+01,1.937649076136900572e-02
5.843999999999999773e+01,1.490912127466181153e-02
5.847999999999999687e+01,9.442266718881153764e-03
5.852000000000000313e+01,1.418798566840807907e-02
5.856000000000000227e+01,1.316076839903905678e-02
5.860000000000000142e+01,1.746166300230387811e-02
5.864000000000000057e+01,1.365840085958027611e-02
5.867999999999999972e+01,1.929063806777733814e-02
5.871999999999999886e+01,1.315537220867725628e-02
5.875999999999999801e+01,1.201518599922943818e-02
5.879999999999999716e+01,1.020854462040738167e-02
5.884000000000000341e+01,1.694931795526760307e-02
5.888000000000000256e+01,1.602997531390382840e-02
5.892000000000000171e+01,1.766348092503484263e-02
5.896000000000000085e+01,1.485617417541774433e-02
5.900000000000000000e+01,1.482373625678449700e-02
5.903999999999999915e+01,1.567898876705498684e-02
5.907999999999999829e+01,1.775496296117646741e-02
5.911999999999999744e+01,1.161576760317599953e-02
5.915999999999999659e+01,1.036063947590787522e-02
5.920000000000000284e+01,1.465564128287345433e-02
5.924000000000000199e+01,1.550892371950525657e-02
5.928000000000000114e+01,1.192139224653407555e-02
5.932000000000000028e+01,1.022064419288096562e-02
5.935999999999999943e+01,9.074553570722695625e-03
5.939999999999999858e+01,1.869608460877806785e-02
5.943999999999999773e+01,1.632808812891014053e-02
5.947999999999999687e+01,9.852308219959112282e-03
5.952000000000000313e+01,1.247899214763067283e-02
5.956000000000000227e+01,1.477224867595185002e-02
5.960000000000000142e+01,1.762016147412671582e-02
5.964000000000000057e+01,1.447311186031783638e-02
5.967999999999999972e+01,1.743124227171720039e-02
5.971999999999999886e+01,1.794674533516281770e-02
5.975999999999999801e+01,1.435446361427731958e-02
5.979999999999999716e+01,2.130778065183421000e-02
5.984000000000000341e+01,1.460641099262876066e-02
5.988000000000000256e+01,9.125759145137272640e-03
5.992000000000000171e+01,1.496777885522711758e-02
5.996000000000000085e+01,1.303866687885648148e-02
