2.003999999999999915e+01,8.233507298797687612e-02
2.007999999999999829e+01,9.637122907976587716e-02
2.012000000000000099e+01,8.716242623146087942e-02
2.016000000000000014e+01,7.876990021316425394e-02
2.019999999999999929e+01,8.016563613279537037e-02
2.023999999999999844e+01,8.176591895963497558e-02
2.028000000000000114e+01,7.623003038301885692e-02
2.032000000000000028e+01,6.926741482714851572e-02
2.035999999999999943e+01,6.516015516709977584e-02
2.039999999999999858e+01,5.391671878668877899e-02
2.044000000000000128e+01,6.388042610339965399e-02
2.048000000000000043e+01,7.690339279175792409e-02
2.051999999999999957e+01,5.261167611847036157e-02
2.055999999999999872e+01,8.500722776081437448e-02
2.060000000000000142e+01,7.723336939865643735e-02
2.064000000000000057e+01,6.721713470789779377e-02
2.067999999999999972e+01,5.149207243978768528e-02
2.071999999999999886e+01,6.941257781935314397e-02
2.076000000000000156e+01,5.572783539996352398e-02
2.080000000000000071e+01,7.589256587637750739e-02
2.083999999999999986e+01,6.526768018016113060e-02
2.087999999999999901e+01,7.768509782033332367e-02
2.092000000000000171e+01,7.317869364906565144e-02
2.096000000000000085e+01,7.438234188733867935e-02
2.100000000000000000e+01,7.558659456634643503e-02
2.103999999999999915e+01,6.537255752077926474e-02
2.107999999999999829e+01,8.023990287741253336e-02
2.112000000000000099e+01,7.879514393929186455e-02
2.116000000000000014e+01,7.204935374165806483e-02
2.119999999999999929e+01,7.040187894155493231e-02
2.123999999999999844e+01,8.078561671957795731e-02
2.128000000000000114e+01,6.384616830609533833e-02
2.132000000000000028e+01,5.465584427875651991e-02
2.135999999999999943e+01,4.240747685044870402e-02
2.139999999999999858e+01,6.278510297701805909e-02
2.144000000000000128e+01,7.480305354697489029e-02
2.148000000000000043e+01,5.990562664937983811e-02
2.151999999999999957e+01,5.928239664385057811e-02
2.155999999999999872e+01,3.724932302993653327e-02
2.160000000000000142e+01,6.293148477157724241e-02
2.164000000000000057e+01,5.843572127274095779e-02
2.167999999999999972e+01,5.944606948927367435e-02
2.171999999999999886e+01,8.390650140931393830e-02
2.176000000000000156e+01,7.349910053912808716e-02
2.180000000000000071e+01,6.818998848194054996e-02
2.183999999999999986e+01,7.205733932009433795e-02
2.187999999999999901e+01,7.368225888827981129e-02
2.192000000000000171e+01,6.246148819211662373e-02
2.196000000000000085e+01,4.838655630318396822e-02
2.200000000000000000e+01,6.571413862820224550e-02
2.203999999999999915e+01,7.060384295742973271e-02
2.207999999999999829e+01,4.878205202730497014e-02
2.212000000000000099e+01,5.754713482329539692e-02
2.216000000000000014e+01,6.406977394320226282e-02
2.219999999999999929e+01,5.815452797810965330e-02
2.223999999999999844e+01,5.203592271965199606e-02
2.228000000000000114e+01,6.284229498503846045e-02
2.232000000000000028e+01,5.244269876103098416e-02
2.235999999999999943e+01,5.692898858894024361e-02
2.239999999999999858e+01,5.448292187411057225e-02
2.244000000000000128e+01,5.020221666254688631e-02
2.248000000000000043e+01,4.123214808369493611e-02
2.251999999999999957e+01,5.958639482421997091e-02
2.255999999999999872e+01,5.938547674705763058e-02
2.260000000000000142e+01,6.265154169499163872e-02
2.264000000000000057e+01,4.165299208413021648e-02
2.267999999999999972e+01,5.348428810720848997e-02
2.271999999999999886e+01,4.900340894344566711e-02
2.276000000000000156e+01,5.227159036294819205e-02
2.280000000000000071e+01,2.984778858532081969e-02
2.283999999999999986e+01,4.739063309805396224e-02
2.287999999999999901e+01,5.147601843298922619e-02
2.292000000000000171e+01,4.781338901432830718e-02
2.296000000000000085e+01,5.536626079387046984e-02
2.300000000000000000e+01,3.518805258744880926e-02
2.303999999999999915e+01,5.252957629708985415e-02
2.307999999999999829e+01,5.294718249097322971e-02
2.312000000000000099e+01,4.989884971712726935e-02
2.316000000000000014e+01,4.746275205789515783e-02
2.319999999999999929e+01,5.359133065753374225e-02
2.323999999999999844e+01,5.197188032515847461e-02
2.328000000000000114e+01,4.362394325212864965e-02
2.332000000000000028e+01,4.139377160827556468e-02
2.335999999999999943e+01,5.812761756343033659e-02
2.339999999999999858e+01,4.203264599129270113e-02
2.344000000000000128e+01,4.755250277907818734e-02
2.348000000000000043e+01,6.082138824868983662e-02
2.351999999999999957e+01,3.759109260492151522e-02
2.355999999999999872e+01,4.168506620067351232e-02
2.360000000000000142e+01,5.026552247762880454e-02
2.364000000000000057e+01,5.028229692861943545e-02
2.367999999999999972e+01,4.438620208686274576e-02
2.371999999999999886e+01,5.215248028235530686e-02
2.376000000000000156e+01,3.646972946552041323e-02
2.380000000000000071e+01,4.179006467969225563e-02
2.383999999999999986e+01,2.937081353343625606e-02
2.387999999999999901e+01,4.386799986281850194e-02
2.392000000000000171e+01,4.613113369093982397e-02
2.396000000000000085e+01,4.431656495478932672e-02
2.400000000000000000e+01,4.984318427507197086e-02
2.403999999999999915e+01,4.925300955915559026e-02
2.407999999999999829e+01,4.009913352195070696e-02
2.412000000000000099e+01,4.154898090798885002e-02
2.416000000000000014e+01,4.401883668655093979e-02
2.419999999999999929e+01,6.096667940566521254e-02
2.423999999999999844e+01,5.364983667389702088e-02
2.428000000000000114e+01,3.369110790468367311e-02
2.432000000000000028e+01,2.555954645359630184e-02
2.435999999999999943e+01,3.822713742855283342e-02
2.439999999999999858e+01,3.682547550003189424e-02
2.444000000000000128e+01,4.235716454715574703e-02
2.448000000000000043e+01,4.319940161188241118e-02
2.451999999999999957e+01,4.241081681289399219e-02
2.455999999999999872e+01,4.345785785433683990e-02
2.460000000000000142e+01,4.348579986565698219e-02
2.464000000000000057e+01,3.841646521990681878e-02
2.467999999999999972e+01,2.926939610844529055e-02
2.471999999999999886e+01,3.847455795952089280e-02
2.476000000000000156e+01,2.463846407617922146e-02
2.480000000000000071e+01,3.731094932006125825e-02
2.483999999999999986e+01,4.509005783809430512e-02
2.487999999999999901e+01,3.778034822136216303e-02
2.492000000000000171e+01,2.741243746876728671e-02
2.496000000000000085e+01,2.887166567746341991e-02
2.500000000000000000e+01,2.237887818011769989e-02
2.503999999999999915e+01,2.506241179393920923e-02
2.507999999999999829e+01,3.223236251378322481e-02
2.512000000000000099e+01,4.205354943275722152e-02
2.516000000000000014e+01,2.516310462511122878e-02
2.519999999999999929e+01,3.253822450161199947e-02
2.523999999999999844e+01,3.767076423476167085e-02
2.528000000000000114e+01,2.954964724471509374e-02
2.532000000000000028e+01,4.589799841464099750e-02
2.535999999999999943e+01,3.288389469091648754e-02
2.539999999999999858e+01,2.843436974944262702e-02
2.544000000000000128e+01,2.602434045048441363e-02
2.548000000000000043e+01,3.462579190195995416e-02
2.551999999999999957e+01,2.630321772724514631e-02
2.555999999999999872e+01,2.267094818365910508e-02
2.560000000000000142e+01,2.576806942622239527e-02
2.564000000000000057e+01,1.989360264224750846e-02
2.567999999999999972e+01,4.073158478758071022e-02
2.571999999999999886e+01,3.281882246674062975e-02
2.576000000000000156e+01,4.488951537043905232e-02
2.580000000000000071e+01,3.595799438718643576e-02
2.583999999999999986e+01,3.803793820364785583e-02
2.587999999999999901e+01,3.705963834899399928e-02
2.592000000000000171e+01,2.792537323261592291e-02
2.596000000000000085e+01,3.163774673363588946e-02
2.600000000000000000e+01,2.515506350100452093e-02
2.603999999999999915e+01,3.580109998854458936e-02
2.607999999999999829e+01,2.218236949930186414e-02
2.612000000000000099e+01,3.935424429868864676e-02
2.616000000000000014e+01,3.695125080953071822e-02
2.619999999999999929e+01,2.945091154351740445e-02
2.623999999999999844e+01,1.073596094637821463e-02
2.628000000000000114e+01,2.974450750155737191e-02
2.632000000000000028e+01,2.571172920253426628e-02
2.635999999999999943e+01,1.189169580460478631e-02
2.639999999999999858e+01,2.213326512902446738e-02
2.644000000000000128e+01,3.890027922851550801e-02
2.648000000000000043e+01,2.446960967530452044e-02
2.651999999999999957e+01,2.920672650196160652e-02
2.655999999999999872e+01,4.087710037224819015e-02
2.660000000000000142e+01,2.590176341556679231e-03
2.664000000000000057e+01,4.015767775339952605e-02
2.667999999999999972e+01,3.551641184348661162e-02
2.671999999999999886e+01,2.944813538597092217e-02
2.676000000000000156e+01,2.908965435418008755e-02
2.680000000000000071e+01,1.873998993542642238e-02
2.683999999999999986e+01,3.082063840183994763e-02
2.687999999999999901e+01,2.985146804570225701e-02
2.692000000000000171e+01,2.194974087667954030e-02
2.696000000000000085e+01,1.404835407536699984e-02
2.700000000000000000e+01,2.511082359356409804e-02
2.703999999999999915e+01,3.005636615289854555e-02
2.707999999999999829e+01,2.786543601740711085e-02
2.712000000000000099e+01,2.383966002582660337e-02
2.716000000000000014e+01,2.654320570061034779e-02
2.719999999999999929e+01,2.272199974185842505e-02
2.723999999999999844e+01,2.379493277027599010e-02
2.728000000000000114e+01,1.630402269323067907e-02
2.732000000000000028e+01,2.349487010989973618e-02
2.735999999999999943e+01,1.355770158174604903e-02
2.739999999999999858e+01,1.279674959893093572e-02
2.744000000000000128e+01,2.141592118188449800e-02
2.748000000000000043e+01,4.675593109666654340e-02
2.751999999999999957e+01,1.642915615101690416e-02
2.755999999999999872e+01,3.137044697511007230e-02
2.760000000000000142e+01,3.448533983160636390e-02
2.764000000000000057e+01,1.190803504240901117e-02
2.767999999999999972e+01,1.973383868883671604e-03
2.771999999999999886e+01,2.609180777561739134e-02
2.776000000000000156e+01,1.269131874127865135e-02
2.780000000000000071e+01,1.091393404204411138e-02
2.783999999999999986e+01,2.096356069834387145e-02
2.787999999999999901e+01,2.693531110475816739e-02
2.792000000000000171e+01,1.842983505963862595e-02
2.796000000000000085e+01,2.215918263861144100e-02
2.800000000000000000e+01,2.568491571270534179e-02
2.803999999999999915e+01,2.248195114218550644e-02
2.807999999999999829e+01,1.764800697305658403e-02
2.812000000000000099e+01,1.730034521498476779e-02
2.816000000000000014e+01,3.020704218315572662e-02
2.819999999999999929e+01,2.965604425733897251e-02
2.823999999999999844e+01,1.931770793441337300e-02
2.828000000000000114e+01,1.672818761705251872e-02
2.832000000000000028e+01,2.046011998382847585e-02
2.835999999999999943e+01,2.174542517495082344e-02
2.839999999999999858e+01,1.752546952713359210e-02
2.844000000000000128e+01,8.819795231735682792e-03
2.848000000000000043e+01,4.192569811210689924e-03
2.851999999999999957e+01,2.627766748653918502e-02
2.855999999999999872e+01,1.777671572764914082e-02
2.860000000000000142e+01,4.993947024702067097e-03
2.864000000000000057e+01,1.708831696611142273e-02
2.867999999999999972e+01,1.429760919678106125e-02
2.871999999999999886e+01,2.822768481791158510e-02
2.876000000000000156e+01,5.606273357699726552e-04
2.880000000000000071e+01,2.162803015845224733e-02
2.883999999999999986e+01,9.458556835281265937e-03
2.887999999999999901e+01,1.625285653341758049e-02
2.892000000000000171e+01,7.142523923339686408e-03
2.896000000000000085e+01,1.556859924083878362e-02
2.900000000000000000e+01,1.257603214562944861e-02
2.903999999999999915e+01,0.000000000000000000e+00
2.907999999999999829e+01,9.854181490615589872e-03
2.912000000000000099e+01,2.501023625566292999e-02
2.916000000000000014e+01,2.099910739496658671e-02
2.919999999999999929e+01,7.404506394641432315e-03
2.923999999999999844e+01,2.398864606517908671e-02
2.928000000000000114e+01,9.986704400059163642e-03
2.932000000000000028e+01,3.937441453379532559e-03
2.935999999999999943e+01,3.499981281355366014e-02
2.939999999999999858e+01,1.834775893165247612e-02
2.944000000000000128e+01,1.005619603674955120e-02
2.948000000000000043e+01,3.173945438616417730e-02
2.951999999999999957e+01,2.242880318064354242e-02
2.955999999999999872e+01,1.964345851062433354e-02
2.960000000000000142e+01,2.032478671282022739e-02
2.964000000000000057e+01,2.569623877132250558e-02
2.967999999999999972e+01,7.006673138578224137e-03
2.971999999999999886e+01,1.849582690907080121e-02
2.976000000000000156e+01,2.060539252043615613e-02
2.980000000000000071e+01,1.863699681141151032e-02
2.983999999999999986e+01,3.822559922206757253e-03
2.987999999999999901e+01,1.041875725954202053e-02
2.992000000000000171e+01,1.619952864329721187e-02
2.996000000000000085e+01,9.745979908162597308e-03
3.000000000000000000e+01,2.144051939894512510e-02
3.003999999999999915e+01,2.049291764076894770e-02
3.007999999999999829e+01,2.199242352352024157e-02
3.012000000000000099e+01,1.513186926008631625e-02
3.016000000000000014e+01,7.251969616526837865e-03
3.019999999999999929e+01,8.140344871688885015e-03
3.023999999999999844e+01,1.188363826403439870e-02
3.028000000000000114e+01,1.216067544656044934e-02
3.032000000000000028e+01,2.304116134549199363e-02
3.035999999999999943e+01,1.088014338770140407e-02
3.039999999999999858e+01,1.136165852903472592e-02
3.044000000000000128e+01,2.876778964456749854e-02
3.048000000000000043e+01,1.293697194985772396e-02
3.051999999999999957e+01,1.566203702660135325e-02
3.055999999999999872e+01,2.532018191675641100e-02
3.060000000000000142e+01,2.254006953845453728e-02
3.064000000000000057e+01,1.955622568333003491e-02
3.067999999999999972e+01,1.718428375001004524e-02
3.071999999999999886e+01,2.847440470105784202e-02
3.076000000000000156e+01,4.078424161477021970e-02
3.080000000000000071e+01,1.435157813605107691e-02
3.083999999999999986e+01,1.952494598523369165e-02
3.087999999999999901e+01,1.205613536711170122e-02
3.092000000000000171e+01,2.395882496835048323e-02
3.096000000000000085e+01,2.525842048500316975e-02
3.100000000000000000e+01,2.248000151220045165e-02
3.103999999999999915e+01,1.949783333955341577e-02
3.107999999999999829e+01,3.690670226071977172e-02
3.112000000000000099e+01,3.841084139705210065e-02
3.116000000000000014e+01,4.970275686051513209e-02
3.119999999999999929e+01,5.548928742388587604e-02
3.123999999999999844e+01,5.108052908201986958e-02
3.128000000000000114e+01,5.421654503032292266e-02
3.132000000000000028e+01,5.388625868895003529e-02
3.135999999999999943e+01,7.170400031522028428e-02
3.139999999999999858e+01,5.995511063747870073e-02
3.144000000000000128e+01,7.532623226299603458e-02
3.148000000000000043e+01,9.151312915700642037e-02
3.151999999999999957e+01,9.444609284868070442e-02
3.155999999999999872e+01,1.224599745993844857e-01
3.160000000000000142e+01,1.166251315371879538e-01
3.164000000000000057e+01,1.326086623057000646e-01
3.167999999999999972e+01,1.528744089576432874e-01
3.171999999999999886e+01,1.600901223384715855e-01
3.176000000000000156e+01,1.695489601308037275e-01
3.180000000000000071e+01,1.796196502204790713e-01
3.183999999999999986e+01,1.821458391259047072e-01
3.187999999999999901e+01,1.677477206090935424e-01
3.192000000000000171e+01,1.456011885706958719e-01
3.196000000000000085e+01,1.446612898063927566e-01
3.200000000000000000e+01,1.298557101939305791e-01
3.203999999999999915e+01,1.183127865505181758e-01
3.207999999999999829e+01,1.053426148710112642e-01
3.211999999999999744e+01,9.400382527409154032e-02
3.215999999999999659e+01,9.082149735488991016e-02
3.220000000000000284e+01,9.355263262104904221e-02
3.224000000000000199e+01,7.385390711048028800e-02
3.228000000000000114e+01,7.495398311012421710e-02
3.232000000000000028e+01,6.708217510876615663e-02
3.235999999999999943e+01,5.941437700705638758e-02
3.239999999999999858e+01,6.357338821843254439e-02
3.243999999999999773e+01,6.365432113747480913e-02
3.247999999999999687e+01,5.496727175903873275e-02
3.252000000000000313e+01,5.015458346022323016e-02
3.256000000000000227e+01,7.083058649834746145e-02
3.260000000000000142e+01,4.297638733929282084e-02
3.264000000000000057e+01,3.123107150688888070e-02
3.267999999999999972e+01,4.273144497446302453e-02
3.271999999999999886e+01,2.731594295757310692e-02
3.275999999999999801e+01,5.553700596928457661e-02
3.279999999999999716e+01,4.460766238799108996e-02
3.284000000000000341e+01,2.633768210762558667e-02
3.288000000000000256e+01,4.293618345146701931e-02
3.292000000000000171e+01,3.261880044933353900e-02
3.296000000000000085e+01,3.372038436259085226e-02
3.300000000000000000e+01,4.032757842970086798e-02
3.303999999999999915e+01,5.203256329289673160e-02
3.307999999999999829e+01,4.864836669938107927e-02
3.311999999999999744e+01,6.749029594685816702e-02
3.315999999999999659e+01,9.591600411362459500e-02
3.320000000000000284e+01,6.500431748386902020e-02
3.324000000000000199e+01,2.675197643201960435e-02
3.328000000000000114e+01,2.520327841594584284e-02
3.332000000000000028e+01,2.997581154623639790e-02
3.335999999999999943e+01,3.678748940321133198e-02
3.339999999999999858e+01,3.483114419975772563e-02
3.343999999999999773e+01,4.674065015685619634e-02
3.347999999999999687e+01,4.458050089788258979e-02
3.352000000000000313e+01,4.690639478917198180e-02
3.356000000000000227e+01,3.658999146891086379e-02
3.360000000000000142e+01,4.340197290370950006e-02
3.364000000000000057e+01,5.143745148814812818e-02
3.367999999999999972e+01,5.315180011883033351e-02
3.371999999999999886e+01,7.586879524957894361e-02
3.375999999999999801e+01,5.005553678638565568e-02
3.379999999999999716e+01,4.646837403504798514e-02
3.384000000000000341e+01,5.001805456107553949e-02
3.388000000000000256e+01,7.110392502151208216e-02
3.392000000000000171e+01,5.548624477726997462e-02
3.396000000000000085e+01,7.106664003589495404e-02
3.400000000000000000e+01,9.439559786087328708e-02
3.403999999999999915e+01,8.571090189710871277e-02
3.407999999999999829e+01,1.031265563009978459e-01
3.411999999999999744e+01,1.019865336918700793e-01
3.415999999999999659e+01,9.778790054507621732e-02
3.420000000000000284e+01,1.050081793723055684e-01
3.424000000000000199e+01,9.489622862600509412e-02
3.428000000000000114e+01,1.106807105931152529e-01
3.432000000000000028e+01,1.319707442281060628e-01
3.435999999999999943e+01,1.249174681651176733e-01
3.439999999999999858e+01,9.971632026846150021e-02
3.443999999999999773e+01,8.919661439573209338e-02
3.447999999999999687e+01,1.043694235821700927e-01
3.452000000000000313e+01,1.071038018145376025e-01
3.456000000000000227e+01,1.059639166152881035e-01
3.460000000000000142e+01,9.585204639381245117e-02
3.464000000000000057e+01,8.308936195250905821e-02
3.467999999999999972e+01,1.056028969672791473e-01
3.471999999999999886e+01,9.467538651504349423e-02
3.475999999999999801e+01,9.394331046820698916e-02
3.479999999999999716e+01,1.074848429091129626e-01
3.484000000000000341e+01,8.554623663878380135e-02
3.488000000000000256e+01,6.829752205317583813e-02
3.492000000000000171e+01,7.572175906774990251e-02
3.496000000000000085e+01,7.131927201112635284e-02
3.500000000000000000e+01,6.059559651477453013e-02
3.503999999999999915e+01,7.576832005809183701e-02
3.507999999999999829e+01,7.870649662784048872e-02
3.511999999999999744e+01,5.635996171685267453e-02
3.515999999999999659e+01,6.908571620157986926e-02
3.520000000000000284e+01,6.916910081036731217e-02
3.524000000000000199e+01,8.087526010605362858e-02
3.528000000000000114e+01,8.320158666491231370e-02
3.532000000000000028e+01,7.410899078731829348e-02
3.535999999999999943e+01,7.765870824337807454e-02
3.539999999999999858e+01,7.305204040209734018e-02
3.543999999999999773e+01,9.189484836467666506e-02
3.547999999999999687e+01,9.401709819055542594e-02
3.552000000000000313e+01,8.268132879114782618e-02
3.556000000000000227e+01,1.288477982649840758e-01
3.560000000000000142e+01,1.022187862838370570e-01
3.564000000000000057e+01,1.220809348237865549e-01
3.567999999999999972e+01,1.246107899873278163e-01
3.571999999999999886e+01,1.420259392538581744e-01
3.575999999999999801e+01,1.549550455415093786e-01
3.579999999999999716e+01,1.619707455288533215e-01
3.584000000000000341e+01,1.712293891528787748e-01
3.588000000000000256e+01,1.849739713613386405e-01
3.592000000000000171e+01,2.001458584909465710e-01
3.596000000000000085e+01,2.281639411624078739e-01
3.600000000000000000e+01,2.315089997406816202e-01
3.603999999999999915e+01,2.652364064911800767e-01
3.607999999999999829e+01,2.516569096106038295e-01
3.611999999999999744e+01,2.468454253280268351e-01
3.615999999999999659e+01,2.728241014862325953e-01
3.620000000000000284e+01,2.822860963990309058e-01
3.624000000000000199e+01,2.915441117127015591e-01
3.628000000000000114e+01,2.728665498433529568e-01
3.632000000000000028e+01,2.839595973619171154e-01
3.635999999999999943e+01,2.626310707127474386e-01
3.639999999999999858e+01,2.529252673537136231e-01
3.643999999999999773e+01,2.424037491558444224e-01
3.647999999999999687e+01,2.263766121139954568e-01
3.652000000000000313e+01,2.256425513145567663e-01
3.656000000000000227e+01,1.822914678492596197e-01
3.660000000000000142e+01,1.844119584061451600e-01
3.664000000000000057e+01,1.893870835318654244e-01
3.667999999999999972e+01,1.743790566681034659e-01
3.671999999999999886e+01,1.612061168649105702e-01
3.675999999999999801e+01,1.631223338775824316e-01
3.679999999999999716e+01,1.458710287547947126e-01
3.684000000000000341e+01,1.520691374052907385e-01
3.688000000000000256e+01,1.511303391469269453e-01
3.692000000000000171e+01,1.542696158076763691e-01
3.696000000000000085e+01,1.402804511710801505e-01
3.700000000000000000e+01,1.352631689345673016e-01
3.703999999999999915e+01,1.131174418561044920e-01
3.707999999999999829e+01,1.333846356412140832e-01
3.711999999999999744e+01,1.291826645014073627e-01
3.715999999999999659e+01,1.359916565997980886e-01
3.720000000000000284e+01,1.281191022798174317e-01
3.724000000000000199e+01,1.339083219589496387e-01
3.728000000000000114e+01,1.246081740896413381e-01
3.732000000000000028e+01,1.375339659695971328e-01
3.735999999999999943e+01,1.261944910835556544e-01
3.739999999999999858e+01,1.193408874344659143e-01
3.743999999999999773e+01,1.361405797668595874e-01
3.747999999999999687e+01,1.672137618427498307e-01
3.752000000000000313e+01,1.552620611320646438e-01
3.756000000000000227e+01,1.630893840240432158e-01
3.760000000000000142e+01,1.998716244193357305e-01
3.764000000000000057e+01,2.017853284204373376e-01
3.767999999999999972e+01,2.336734903439098565e-01
3.771999999999999886e+01,2.486370860890276535e-01
3.775999999999999801e+01,2.990806736156835233e-01
3.779999999999999716e+01,3.105775418042941993e-01
3.784000000000000341e+01,3.697889257937752583e-01
3.788000000000000256e+01,4.061623815264566728e-01
3.792000000000000171e+01,5.014653331156793126e-01
3.796000000000000085e+01,5.623075517177582583e-01
3.800000000000000000e+01,7.053248650032533096e-01
3.803999999999999915e+01,8.418169463613223158e-01
3.807999999999999829e+01,9.446639245862702428e-01
3.811999999999999744e+01,1.000000000000000000e+00
3.815999999999999659e+01,9.397196340576294826e-01
3.820000000000000284e+01,8.674084916948523460e-01
3.824000000000000199e+01,7.249525652106680873e-01
3.828000000000000114e+01,6.210352393590775621e-01
3.832000000000000028e+01,5.493353397930781368e-01
3.835999999999999943e+01,4.519427676044013853e-01
3.839999999999999858e+01,3.896223412549630893e-01
3.843999999999999773e+01,3.434105412483595132e-01
3.847999999999999687e+01,3.067822844448557240e-01
3.852000000000000313e+01,2.756593932175038786e-01
3.856000000000000227e+01,2.490223218303404540e-01
3.860000000000000142e+01,2.305414267802443351e-01
3.864000000000000057e+01,1.826974884321744264e-01
3.867999999999999972e+01,1.974533705360852209e-01
3.871999999999999886e+01,1.793797563209691137e-01
3.875999999999999801e+01,1.727248520374280172e-01
3.879999999999999716e+01,1.707596657529945050e-01
3.884000000000000341e+01,1.363727954180922741e-01
3.888000000000000256e+01,1.325720562146923964e-01
3.892000000000000171e+01,1.379470231336037134e-01
3.896000000000000085e+01,1.286403656528476991e-01
3.900000000000000000e+01,1.166827007713264891e-01
3.903999999999999915e+01,9.881148603302152000e-02
3.907999999999999829e+01,1.172358397612118103e-01
3.911999999999999744e+01,9.854859479997558902e-02
3.915999999999999659e+01,1.061653839167487623e-01
3.920000000000000284e+01,8.686601043610496509e-02
3.924000000000000199e+01,1.087560093583223586e-01
3.928000000000000114e+01,1.208581807280296322e-01
3.932000000000000028e+01,1.070637281470747798e-01
3.935999999999999943e+01,1.022410534003748428e-01
3.939999999999999858e+01,9.802989421360440436e-02
3.943999999999999773e+01,1.025866005237522360e-01
3.947999999999999687e+01,9.246165939430453506e-02
3.952000000000000313e+01,1.125150034540597227e-01
3.956000000000000227e+01,9.586454691452912791e-02
3.960000000000000142e+01,9.328357739374729118e-02
3.964000000000000057e+01,1.074229074249316712e-01
3.967999999999999972e+01,9.872422944571848658e-02
3.971999999999999886e+01,1.108240233285126691e-01
3.975999999999999801e+01,1.055913430600763786e-01
3.979999999999999716e+01,9.893107270122497576e-02
3.984000000000000341e+01,1.043011907999865789e-01
3.988000000000000256e+01,1.029420866526895434e-01
3.992000000000000171e+01,1.095351915637554768e-01
3.996000000000000085e+01,8.411438038535622164e-02
4.000000000000000000e+01,1.062040805107773156e-01
4.003999999999999915e+01,1.097378413224590066e-01
4.007999999999999829e+01,1.032798303428547615e-01
4.011999999999999744e+01,1.047740195601026825e-01
4.015999999999999659e+01,1.119774104818455213e-01
4.020000000000000284e+01,9.919749345151437914e-02
4.024000000000000199e+01,1.212857319417893764e-01
4.028000000000000114e+01,1.184968479098113675e-01
4.032000000000000028e+01,1.226406112495132261e-01
4.035999999999999943e+01,1.131222321226328653e-01
4.039999999999999858e+01,1.256257474850165923e-01
4.043999999999999773e+01,1.099895925522220985e-01
4.047999999999999687e+01,1.265707682007011226e-01
4.052000000000000313e+01,1.260233448169404691e-01
4.056000000000000227e+01,1.177271250943228292e-01
4.060000000000000142e+01,1.194221722282539921e-01
4.064000000000000057e+01,1.300889404827703655e-01
4.067999999999999972e+01,1.109847574664373088e-01
4.071999999999999886e+01,1.285838878376747707e-01
4.075999999999999801e+01,1.245684151027494219e-01
4.079999999999999716e+01,1.215722134826418555e-01
4.084000000000000341e+01,1.165366493140657378e-01
4.088000000000000256e+01,1.261822418287654735e-01
4.092000000000000171e+01,1.321571979085341686e-01
4.096000000000000085e+01,1.271207992427074995e-01
4.100000000000000000e+01,1.188215781828099310e-01
4.103999999999999915e+01,1.119494351893815937e-01
4.107999999999999829e+01,1.093590915883721898e-01
4.111999999999999744e+01,1.094192752656213130e-01
4.115999999999999659e+01,1.170237954744014069e-01
4.120000000000000284e+01,1.044410546308207483e-01
4.124000000000000199e+01,1.250951546584335439e-01
4.128000000000000114e+01,1.123079185614832692e-01
4.132000000000000028e+01,8.830540297548580830e-02
4.135999999999999943e+01,9.284982071093292322e-02
4.139999999999999858e+01,8.189687076535075161e-02
4.143999999999999773e+01,8.378987355622344313e-02
4.147999999999999687e+01,9.078029318742239506e-02
4.152000000000000313e+01,8.675933326079562913e-02
4.156000000000000227e+01,7.865989095693824706e-02
4.160000000000000142e+01,8.748457015497268507e-02
4.164000000000000057e+01,9.141512826024304761e-02
4.167999999999999972e+01,8.270302937662078746e-02
4.171999999999999886e+01,6.644599155011050862e-02
4.175999999999999801e+01,7.934759570021983344e-02
4.179999999999999716e+01,6.900328032245159338e-02
4.184000000000000341e+01,8.251597476565938893e-02
4.188000000000000256e+01,7.196711096545617414e-02
4.192000000000000171e+01,7.446808742681394755e-02
4.196000000000000085e+01,6.860847914054164776e-02
4.200000000000000000e+01,7.416743722936781913e-02
4.203999999999999915e+01,6.280163773120385484e-02
4.207999999999999829e+01,6.203876589260495789e-02
4.211999999999999744e+01,7.269445511219799205e-02
4.215999999999999659e+01,6.255111436598116692e-02
4.220000000000000284e+01,6.301069596242281357e-02
4.224000000000000199e+01,4.980805179407990502e-02
4.228000000000000114e+01,6.188975950051504166e-02
4.232000000000000028e+01,6.296005220308083239e-02
4.235999999999999943e+01,4.853293468936502320e-02
4.239999999999999858e+01,5.184553840242649148e-02
4.243999999999999773e+01,3.558255249995641994e-02
4.247999999999999687e+01,4.521563598895035618e-02
4.252000000000000313e+01,5.566400559103614615e-02
4.256000000000000227e+01,5.510094955543947542e-02
4.260000000000000142e+01,4.352646610985826808e-02
4.264000000000000057e+01,5.642068341740631710e-02
4.267999999999999972e+01,5.769174339216863456e-02
4.271999999999999886e+01,5.508817838566949093e-02
4.275999999999999801e+01,5.778588229855916025e-02
4.279999999999999716e+01,4.926824114722105213e-02
4.284000000000000341e+01,5.237303794536801033e-02
4.288000000000000256e+01,3.610613442539174073e-02
4.292000000000000171e+01,5.103690941259472758e-02
4.296000000000000085e+01,4.537252778067648457e-02
4.300000000000000000e+01,5.010712425264093883e-02
4.303999999999999915e+01,5.015144639399738563e-02
4.307999999999999829e+01,6.079865188736435777e-02
4.311999999999999744e+01,5.227805522152739748e-02
4.315999999999999659e+01,6.537141317063958901e-02
4.320000000000000284e+01,4.645071147381001769e-02
4.324000000000000199e+01,4.384233223628605791e-02
4.328000000000000114e+01,5.204073628199401558e-02
4.332000000000000028e+01,5.167458652906554289e-02
4.335999999999999943e+01,6.496993961301651688e-02
4.339999999999999858e+01,6.501083312088427879e-02
4.343999999999999773e+01,5.648716751320900786e-02
4.347999999999999687e+01,5.326473892348333045e-02
4.352000000000000313e+01,5.289664006661776857e-02
4.356000000000000227e+01,5.884931864675889412e-02
4.360000000000000142e+01,6.255860359684875527e-02
4.364000000000000057e+01,6.973393934108905456e-02
4.367999999999999972e+01,6.508216465225684366e-02
4.371999999999999886e+01,7.470360322778130113e-02
4.375999999999999801e+01,7.841128281486486884e-02
4.379999999999999716e+01,8.069119508131553098e-02
4.384000000000000341e+01,9.071923392778351303e-02
4.388000000000000256e+01,7.872471384305422537e-02
4.392000000000000171e+01,9.955909829980791326e-02
4.396000000000000085e+01,1.050999104409250789e-01
4.400000000000000000e+01,1.200201124147091403e-01
4.403999999999999915e+01,1.410571617651413534e-01
4.407999999999999829e+01,1.402755521155977514e-01
4.411999999999999744e+01,1.421443368216492587e-01
4.415999999999999659e+01,1.588980416749302960e-01
4.420000000000000284e+01,1.676988801171238053e-01
4.424000000000000199e+01,1.730328438160376459e-01
4.428000000000000114e+01,1.952908102725971762e-01
4.432000000000000028e+01,1.883893905570059313e-01
4.435999999999999943e+01,1.945377029925428325e-01
4.439999999999999858e+01,1.821298829334028757e-01
4.443999999999999773e+01,1.483112055090320403e-01
4.447999999999999687e+01,1.477292253993781890e-01
4.452000000000000313e+01,1.481663515804394760e-01
4.456000000000000227e+01,1.157737226863558566e-01
4.460000000000000142e+01,1.196764176810668906e-01
4.464000000000000057e+01,1.033916992054297601e-01
4.467999999999999972e+01,9.179643820048004332e-02
4.471999999999999886e+01,9.732906925058440462e-02
4.475999999999999801e+01,8.654854857534736989e-02
4.479999999999999716e+01,8.698256142132403113e-02
4.484000000000000341e+01,7.191905416828400788e-02
4.488000000000000256e+01,5.522382294972000977e-02
4.492000000000000171e+01,5.626820130289595517e-02
4.496000000000000085e+01,4.752450043665251700e-02
4.500000000000000000e+01,4.510151320453723023e-02
4.503999999999999915e+01,4.981487300517704886e-02
4.507999999999999829e+01,4.698314498954591495e-02
4.511999999999999744e+01,3.762587134900303304e-02
4.515999999999999659e+01,4.356129113359981375e-02
4.520000000000000284e+01,3.746562434490901400e-02
4.524000000000000199e+01,4.115711003298205134e-02
4.528000000000000114e+01,3.077841767584034091e-02
4.532000000000000028e+01,3.304159734910998986e-02
4.535999999999999943e+01,3.122612627644216071e-02
4.539999999999999858e+01,3.532353352941614705e-02
4.543999999999999773e+01,3.024456667354133432e-02
4.547999999999999687e+01,3.984655268619194390e-02
4.552000000000000313e+01,3.884479949626344630e-02
4.556000000000000227e+01,2.091813275675317996e-02
4.560000000000000142e+01,2.909130596186924184e-02
4.564000000000000057e+01,2.564119068383828581e-02
4.567999999999999972e+01,3.197820838724717979e-02
4.571999999999999886e+01,3.546001215039267657e-02
4.575999999999999801e+01,3.017324521173648383e-02
4.579999999999999716e+01,3.385797076668448785e-02
4.584000000000000341e+01,2.489985501331323098e-02
4.588000000000000256e+01,3.103049199091016327e-02
4.592000000000000171e+01,3.083945669028403253e-02
4.596000000000000085e+01,2.677365285191996361e-02
4.600000000000000000e+01,3.371842057297200906e-02
4.603999999999999915e+01,3.026333484424891321e-02
4.607999999999999829e+01,2.476865439547189240e-02
4.611999999999999744e+01,2.355555002903929329e-02
4.615999999999999659e+01,2.071066498341289988e-02
4.620000000000000284e+01,2.092389971913297120e-02
4.624000000000000199e+01,3.275942175865285966e-02
4.628000000000000114e+01,2.216446094338026321e-02
4.632000000000000028e+01,2.828950370561009175e-02
4.635999999999999943e+01,2.503422280330870608e-02
4.639999999999999858e+01,2.279796489352010208e-02
4.643999999999999773e+01,1.892991389842248531e-02
4.647999999999999687e+01,2.974277146429576621e-02
4.652000000000000313e+01,2.587366966539007829e-02
4.656000000000000227e+01,2.424703652618197605e-02
4.660000000000000142e+01,2.425114389617263888e-02
4.664000000000000057e+01,2.527426362486299288e-02
4.667999999999999972e+01,3.078284341639949892e-02
4.671999999999999886e+01,2.507590445809480123e-02
4.675999999999999801e+01,2.120360771251235746e-02
4.679999999999999716e+01,2.038940416374362963e-02
4.684000000000000341e+01,2.915837340691931553e-02
4.688000000000000256e+01,2.406100250552541814e-02
4.692000000000000171e+01,3.609142618256586804e-02
4.696000000000000085e+01,4.180013150152651902e-02
4.700000000000000000e+01,4.037148151917623745e-02
4.703999999999999915e+01,3.200938325594512163e-02
4.707999999999999829e+01,3.159917680898705755e-02
4.711999999999999744e+01,4.056822195512597290e-02
4.715999999999999659e+01,2.894192439041485057e-02
4.720000000000000284e+01,4.586230139103027181e-02
4.724000000000000199e+01,2.669026388853837362e-02
4.728000000000000114e+01,3.096717758846171537e-02
4.732000000000000028e+01,4.197251971445149082e-02
4.735999999999999943e+01,4.318967628289105409e-02
4.739999999999999858e+01,2.890919932497455769e-02
4.743999999999999773e+01,4.541838301862653748e-02
4.747999999999999687e+01,3.806966913929470814e-02
4.752000000000000313e+01,2.786566156610134279e-02
4.756000000000000227e+01,3.968323124008209246e-02
4.760000000000000142e+01,3.335234422067621940e-02
4.764000000000000057e+01,3.884759126722624190e-02
4.767999999999999972e+01,4.128362873797380289e-02
4.771999999999999886e+01,4.392299554433307801e-02
4.775999999999999801e+01,3.718197665558497372e-02
4.779999999999999716e+01,3.696545613254484386e-02
4.784000000000000341e+01,3.470926290815491005e-02
4.788000000000000256e+01,3.347202710109706270e-02
4.792000000000000171e+01,3.304983814633698225e-02
4.796000000000000085e+01,3.752087012621793671e-02
4.800000000000000000e+01,3.220368819171384039e-02
4.803999999999999915e+01,2.831327417079779890e-02
4.807999999999999829e+01,2.483008232750611236e-02
4.811999999999999744e+01,2.073456692587533068e-02
4.815999999999999659e+01,2.826125375753980873e-02
4.820000000000000284e+01,2.314499471505647790e-02
4.824000000000000199e+01,2.577666729935085277e-02
4.828000000000000114e+01,2.861164440702647360e-02
4.832000000000000028e+01,3.124210668031663501e-02
4.835999999999999943e+01,2.204525116117936334e-02
4.839999999999999858e+01,3.323866532901219306e-02
4.843999999999999773e+01,3.525557246533285449e-02
4.847999999999999687e+01,3.197023785975242754e-02
4.852000000000000313e+01,2.684910921641745982e-02
4.856000000000000227e+01,2.560163095952945958e-02
4.860000000000000142e+01,2.333399029121160928e-02
4.864000000000000057e+01,2.514390525746867250e-02
4.867999999999999972e+01,2.715710702408521970e-02
4.871999999999999886e+01,2.488760037864897606e-02
4.875999999999999801e+01,3.872626282208541798e-02
4.879999999999999716e+01,2.870696920656621090e-02
4.884000000000000341e+01,2.031831685132366033e-02
4.888000000000000256e+01,1.804629742416570190e-02
4.892000000000000171e+01,2.494954104377435436e-02
4.896000000000000085e+01,2.879351837391080568e-02
4.900000000000000000e+01,2.468441661669821749e-02
4.903999999999999915e+01,2.139031208732235581e-02
4.907999999999999829e+01,2.645582834457521626e-02
4.911999999999999744e+01,2.601516571035985409e-02
4.915999999999999659e+01,2.190350154696459398e-02
4.920000000000000284e+01,2.146155062044916711e-02
4.924000000000000199e+01,1.816422979107859548e-02
4.928000000000000114e+01,2.791642311966821208e-02
4.932000000000000028e+01,2.420998577871995294e-02
4.935999999999999943e+01,3.029051836741110740e-02
4.939999999999999858e+01,2.352414312015682629e-02
4.943999999999999773e+01,2.552519029427627317e-02
4.947999999999999687e+01,2.711776244451473417e-02
4.952000000000000313e+01,2.789404021310560450e-02
4.956000000000000227e+01,2.092112287484922811e-02
4.960000000000000142e+01,3.148369895624571202e-02
4.964000000000000057e+01,2.063518727312809581e-02
4.967999999999999972e+01,2.161271926855522219e-02
4.971999999999999886e+01,2.666775904639845374e-02
4.975999999999999801e+01,3.090649380878097638e-02
4.979999999999999716e+01,2.025921508487351155e-02
4.984000000000000341e+01,3.489595327063232250e-02
4.988000000000000256e+01,3.933657665833915212e-02
4.992000000000000171e+01,3.317326589022728811e-02
4.996000000000000085e+01,2.374673573235650328e-02
5.000000000000000000e+01,2.410714714729025529e-02
5.003999999999999915e+01,2.772941699529359039e-02
5.007999999999999829e+01,2.217510714739544253e-02
5.011999999999999744e+01,1.396929719872648523e-02
5.015999999999999659e+01,2.411459102840896387e-02
5.020000000000000284e+01,2.120903278337020123e-02
5.024000000000000199e+01,3.074121978284250975e-02
5.028000000000000114e+01,3.211636218856381980e-02
5.032000000000000028e+01,3.165563080293253700e-02
5.035999999999999943e+01,3.629192280654387065e-02
5.039999999999999858e+01,2.176009009195472438e-02
5.043999999999999773e+01,2.680280150599545844e-02
5.047999999999999687e+01,3.021354083220717524e-02
5.052000000000000313e+01,2.403986338172887580e-02
5.056000000000000227e+01,2.541010597176961150e-02
5.060000000000000142e+01,2.861482063352344465e-02
5.064000000000000057e+01,2.468201871446807846e-02
5.067999999999999972e+01,2.237977652978920956e-02
5.071999999999999886e+01,3.659343417664077946e-02
5.075999999999999801e+01,2.246305548161989241e-02
5.079999999999999716e+01,2.749938737904471589e-02
5.084000000000000341e+01,1.642620695392922950e-02
5.088000000000000256e+01,2.492755116211968838e-02
5.092000000000000171e+01,2.221319052874010450e-02
5.096000000000000085e+01,2.214892118728320480e-02
5.100000000000000000e+01,3.900835685670603348e-02
5.103999999999999915e+01,1.488139862873999464e-02
5.107999999999999829e+01,2.643775079841882703e-02
5.111999999999999744e+01,2.820575081414266466e-02
5.115999999999999659e+01,3.201210688208146193e-02
5.120000000000000284e+01,2.623401604419314803e-02
5.124000000000000199e+01,3.003890304500965447e-02
5.128000000000000114e+01,2.160852528987514815e-02
5.132000000000000028e+01,2.928620319627387933e-02
5.135999999999999943e+01,3.533187002419565376e-02
5.139999999999999858e+01,3.138526349931496096e-02
5.143999999999999773e+01,3.681771715889580604e-02
5.147999999999999687e+01,3.083053237194394516e-02
5.152000000000000313e+01,2.892077561381010964e-02
5.156000000000000227e+01,3.006890114853074183e-02
5.160000000000000142e+01,2.836155221456771597e-02
5.164000000000000057e+01,3.480980184716169629e-02
5.167999999999999972e+01,2.168205246242095249e-02
5.171999999999999886e+01,1.752553327056202009e-02
5.175999999999999801e+01,2.641841835392821566e-02
5.179999999999999716e+01,3.469881682715490051e-02
5.184000000000000341e+01,2.381102677930267003e-02
5.188000000000000256e+01,2.821563240982406101e-02
5.192000000000000171e+01,2.792957025865384565e-02
5.196000000000000085e+01,3.579909249562324841e-02
5.200000000000000000e+01,3.122940928247018577e-02
5.203999999999999915e+01,2.604722882536448028e-02
5.207999999999999829e+01,3.717697914878292931e-02
5.211999999999999744e+01,2.179781200664527088e-02
5.215999999999999659e+01,2.497356882048244048e-02
5.220000000000000284e+01,2.977981802121329111e-02
5.224000000000000199e+01,3.173056439642563120e-02
5.228000000000000114e+01,1.818346102441609213e-02
5.232000000000000028e+01,1.931700745725936641e-02
5.235999999999999943e+01,3.207257003166919668e-02
5.239999999999999858e+01,2.749509840736012387e-02
5.243999999999999773e+01,3.515136575821006110e-02
5.247999999999999687e+01,2.771759208579176181e-02
5.252000000000000313e+01,3.353709780758949016e-02
5.256000000000000227e+01,3.038382274348295359e-02
5.260000000000000142e+01,2.559848165953191104e-02
5.264000000000000057e+01,4.099931360578777662e-02
5.267999999999999972e+01,2.601693621234374421e-02
5.271999999999999886e+01,2.510346452253397684e-02
5.275999999999999801e+01,3.030645384749751717e-02
5.279999999999999716e+01,3.632427380389297716e-02
5.284000000000000341e+01,2.786376316449741541e-02
5.288000000000000256e+01,3.387996872499195178e-02
5.292000000000000171e+01,3.826409408722456634e-02
5.296000000000000085e+01,3.306369456233423237e-02
5.300000000000000000e+01,3.785401248031741717e-02
5.303999999999999915e+01,2.612690301367591797e-02
5.307999999999999829e+01,3.173122398366547831e-02
5.311999999999999744e+01,3.549954710114992112e-02
5.315999999999999659e+01,3.763577938655940369e-02
5.320000000000000284e+01,3.018747615103288540e-02
5.324000000000000199e+01,2.783606869899211619e-02
5.328000000000000114e+01,3.914572455289057340e-02
5.332000000000000028e+01,4.250210991080473344e-02
5.335999999999999943e+01,5.177102090622717062e-02
5.339999999999999858e+01,3.860913357706938914e-02
5.343999999999999773e+01,2.748550127890231690e-02
5.347999999999999687e+01,3.797536634172229281e-02
5.352000000000000313e+01,3.704550257059840285e-02
5.356000000000000227e+01,3.346398628071634712e-02
5.360000000000000142e+01,3.028944759075806806e-02
5.364000000000000057e+01,3.037660782667327836e-02
5.367999999999999972e+01,3.698800589987619181e-02
5.371999999999999886e+01,3.095621352123071809e-02
5.375999999999999801e+01,3.960500714455968130e-02
5.379999999999999716e+01,3.622233314963265588e-02
5.384000000000000341e+01,3.508180525540684908e-02
5.388000000000000256e+01,2.170589740558842226e-02
5.392000000000000171e+01,3.320600810514954399e-02
5.396000000000000085e+01,3.185900892631689241e-02
5.400000000000000000e+01,3.499714547903177986e-02
5.403999999999999915e+01,3.589142583082687021e-02
5.407999999999999829e+01,4.025129440590378277e-02
5.411999999999999744e+01,4.073603289359838120e-02
5.415999999999999659e+01,4.346290330357671650e-02
5.420000000000000284e+01,4.109118732517474254e-02
5.424000000000000199e+01,3.933032938259401617e-02
5.428000000000000114e+01,4.083114200905182956e-02
5.432000000000000028e+01,3.376691345377410419e-02
5.435999999999999943e+01,3.812070363222172520e-02
5.439999999999999858e+01,3.921107769536855137e-02
5.443999999999999773e+01,4.417484161654215008e-02
5.447999999999999687e+01,4.546736829234607202e-02
5.452000000000000313e+01,4.614728784146231166e-02
5.456000000000000227e+01,4.784586883344685987e-02
5.460000000000000142e+01,3.425040607741545312e-02
5.464000000000000057e+01,2.677132103795499055e-02
5.467999999999999972e+01,3.662359554303837306e-02
5.471999999999999886e+01,3.852253752156127586e-02
5.475999999999999801e+01,2.879778693204051651e-02
5.479999999999999716e+01,3.823956970474752526e-02
5.484000000000000341e+01,3.564983877934195522e-02
5.488000000000000256e+01,4.182728924221385675e-02
5.492000000000000171e+01,3.597322246236873966e-02
5.496000000000000085e+01,3.032216423144111148e-02
5.500000000000000000e+01,3.282655569368748971e-02
5.503999999999999915e+01,4.287466869860892538e-02
5.507999999999999829e+01,4.558115960444702325e-02
5.511999999999999744e+01,3.340140130780543115e-02
5.515999999999999659e+01,2.937708561512919481e-02
5.520000000000000284e+01,4.533492073258811594e-02
5.524000000000000199e+01,3.723060565770835995e-02
5.528000000000000114e+01,4.380680923732021420e-02
5.532000000000000028e+01,4.793519110961030893e-02
5.535999999999999943e+01,4.125548900025315102e-02
5.539999999999999858e+01,3.824522542093818089e-02
5.543999999999999773e+01,4.073957773395370935e-02
5.547999999999999687e+01,5.057372330158801249e-02
5.552000000000000313e+01,4.694896349284674586e-02
5.556000000000000227e+01,4.189591530663207275e-02
5.560000000000000142e+01,4.397874626539735599e-02
5.564000000000000057e+01,4.300201496022663245e-02
5.567999999999999972e+01,5.283151752461257705e-02
5.571999999999999886e+01,4.573565637466327216e-02
5.575999999999999801e+01,4.190140021857200608e-02
5.579999999999999716e+01,4.866946382239854818e-02
5.584000000000000341e+01,5.054277716618770649e-02
5.588000000000000256e+01,4.690961209944044530e-02
5.592000000000000171e+01,6.101556922133411637e-02
5.596000000000000085e+01,5.432188493316631589e-02
5.600000000000000000e+01,5.476406206695669243e-02
5.603999999999999915e+01,5.969128454488353830e-02
5.607999999999999829e+01,5.890811095803080016e-02
5.611999999999999744e+01,4.874418126491532333e-02
5.615999999999999659e+01,5.203727847924991684e-02
5.620000000000000284e+01,6.368968101042551955e-02
5.624000000000000199e+01,6.718477487482546473e-02
5.628000000000000114e+01,6.619291656932861645e-02
5.632000000000000028e+01,6.785091206726245883e-02
5.635999999999999943e+01,7.317830355998621028e-02
5.639999999999999858e+01,7.809691342055213870e-02
5.643999999999999773e+01,7.363475299643791605e-02
5.647999999999999687e+01,8.018269978856903957e-02
5.652000000000000313e+01,7.775769033688015308e-02
5.656000000000000227e+01,1.095883869283117568e-01
5.660000000000000142e+01,9.023700363573786132e-02
5.664000000000000057e+01,8.903252821583022836e-02
5.667999999999999972e+01,9.863424235792468686e-02
5.671999999999999886e+01,9.518481554004283585e-02
5.675999999999999801e+01,8.296633063726020774e-02
5.679999999999999716e+01,9.541982788536799986e-02
5.684000000000000341e+01,7.381957320516838172e-02
5.688000000000000256e+01,6.995839817835744490e-02
5.692000000000000171e+01,7.527213173787732081e-02
5.696000000000000085e+01,8.038096764574120812e-02
5.700000000000000000e+01,6.917610950379703139e-02
5.703999999999999915e+01,7.122433048592270721e-02
5.707999999999999829e+01,6.205657369194287482e-02
5.711999999999999744e+01,7.144352108846770133e-02
5.715999999999999659e+01,6.166204424772397247e-02
5.720000000000000284e+01,4.678184809593647492e-02
5.724000000000000199e+01,6.289478717441593369e-02
5.728000000000000114e+01,6.534483410249172786e-02
5.732000000000000028e+01,5.392807831512937133e-02
5.735999999999999943e+01,6.310510401178136275e-02
5.739999999999999858e+01,5.107460691002890796e-02
5.743999999999999773e+01,5.413235034391501027e-02
5.747999999999999687e+01,4.903273016965798564e-02
5.752000000000000313e+01,5.514707992452185653e-02
5.756000000000000227e+01,4.902588667199277161e-02
5.760000000000000142e+01,5.860465324409030313e-02
5.764000000000000057e+01,5.696741722785190337e-02
5.767999999999999972e+01,5.410570769485684162e-02
5.771999999999999886e+01,4.940779649460613765e-02
5.775999999999999801e+01,6.142938199343475625e-02
5.779999999999999716e+01,5.224342697083715625e-02
5.784000000000000341e+01,4.529944081872289141e-02
5.788000000000000256e+01,4.956940864500997135e-02
5.792000000000000171e+01,3.711782407307434584e-02
5.796000000000000085e+01,4.933817025526594097e-02
5.800000000000000000e+01,5.380894737485062557e-02
5.803999999999999915e+01,5.420051192870719431e-02
5.807999999999999829e+01,4.786204783901393256e-02
5.811999999999999744e+01,4.825153365379885456e-02
5.815999999999999659e+01,4.741652468420096134e-02
5.820000000000000284e+01,5.045473897622507892e-02
5.824000000000000199e+01,3.636356910614445964e-02
5.828000000000000114e+01,5.224594442281284973e-02
5.832000000000000028e+01,5.344583754555952415e-02
5.835999999999999943e+01,4.302187859306640105e-02
5.839999999999999858e+01,5.502683417932147797e-02
5.843999999999999773e+01,3.705614279982760717e-02
5.847999999999999687e+01,4.416517671999722894e-02
5.852000000000000313e+01,3.394090527921456851e-02
5.856000000000000227e+01,4.410645336064866057e-02
5.860000000000000142e+01,4.713413217314005310e-02
5.864000000000000057e+01,4.180048718799280610e-02
5.867999999999999972e+01,5.298238934624253937e-02
5.871999999999999886e+01,3.928635195093491822e-02
5.875999999999999801e+01,4.944657469278185974e-02
5.879999999999999716e+01,4.777901707133279385e-02
5.884000000000000341e+01,4.223612023084431094e-02
5.888000000000000256e+01,4.933449461032868300e-02
5.892000000000000171e+01,4.460508330961047985e-02
5.896000000000000085e+01,4.680749348775699314e-02
5.900000000000000000e+01,3.697820564836435536e-02
5.903999999999999915e+01,4.448008417257817010e-02
5.907999999999999829e+01,3.954244354918388243e-02
5.911999999999999744e+01,3.317635681342231968e-02
5.915999999999999659e+01,4.352970474616382063e-02
5.920000000000000284e+01,4.613343044723300368e-02
5.924000000000000199e+01,4.363834644984740385e-02
5.928000000000000114e+01,4.685161699651543832e-02
5.932000000000000028e+01,3.619799621263633527e-02
5.935999999999999943e+01,3.838953417383619837e-02
5.939999999999999858e+01,4.323078947119903676e-02
5.943999999999999773e+01,4.399277017225750736e-02
5.947999999999999687e+01,4.087938329744168070e-02
5.952000000000000313e+01,4.653297222385060355e-02
5.956000000000000227e+01,4.076656469868665533e-02
5.960000000000000142e+01,4.478667339380448809e-02
5.964000000000000057e+01,4.982521844941394801e-02
5.967999999999999972e+01,3.854995071096940090e-02
5.971999999999999886e+01,4.399409282879742505e-02
5.975999999999999801e+01,4.433940220824229839e-02
5.979999999999999716e+01,4.651877602989924060e-02
5.984000000000000341e+01,4.156022564124586816e-02
5.988000000000000256e+01,4.169827683391663653e-02
5.992000000000000171e+01,4.652511025014480911e-02
5.996000000000000085e+01,4.299056138276247802e-02
