2.003999999999999915e+01,1.137769587325536749e-02
2.007999999999999829e+01,5.891160723235431933e-03
2.012000000000000099e+01,6.656644090878922199e-03
2.016000000000000014e+01,6.528830615278666781e-03
2.019999999999999929e+01,5.182933295226886151e-03
2.023999999999999844e+01,6.841184035983200080e-03
2.028000000000000114e+01,6.875367228433693252e-03
2.032000000000000028e+01,7.234205324604425433e-03
2.035999999999999943e+01,9.216846647026141759e-03
2.039999999999999858e+01,7.707894989463456338e-03
2.044000000000000128e+01,7.822746685232032787e-03
2.048000000000000043e+01,8.099860006507562243e-03
2.051999999999999957e+01,8.864022081577856496e-03
2.055999999999999872e+01,5.162230236581338144e-03
2.060000000000000142e+01,7.550064139356855476e-03
2.064000000000000057e+01,7.989044000940121945e-03
2.067999999999999972e+01,7.209940780553541692e-03
2.071999999999999886e+01,4.887967476989564172e-03
2.076000000000000156e+01,7.356471916367549393e-03
2.080000000000000071e+01,8.200909633461529041e-03
2.083999999999999986e+01,7.340083925624695665e-03
2.087999999999999901e+01,7.047504309630763311e-03
2.092000000000000171e+01,6.430006420963830897e-03
2.096000000000000085e+01,7.517509477836871977e-03
2.100000000000000000e+01,3.895469015023869663e-03
2.103999999999999915e+01,5.713480869429106782e-03
2.107999999999999829e+01,6.069819978705116685e-03
2.112000000000000099e+01,5.532863769700416094e-03
2.116000000000000014e+01,5.888941162067239804e-03
2.119999999999999929e+01,5.514116895607457450e-03
2.123999999999999844e+01,3.190439541057508033e-03
2.128000000000000114e+01,1.840992744686408738e-03
2.132000000000000028e+01,4.307663386576264693e-03
2.135999999999999943e+01,7.098990584229926057e-03
2.139999999999999858e+01,5.018381365225101608e-03
2.144000000000000128e+01,5.779528580858678787e-03
2.148000000000000043e+01,7.514906672371788471e-03
2.151999999999999957e+01,5.677496796837437805e-03
2.155999999999999872e+01,5.626285586132029164e-03
2.160000000000000142e+01,3.382631560636962728e-03
2.164000000000000057e+01,4.630308416976303826e-03
2.167999999999999972e+01,4.578707013662273138e-03
2.171999999999999886e+01,5.095353036534054809e-03
2.176000000000000156e+01,3.906737095898203845e-03
2.180000000000000071e+01,8.239371445930121496e-03
2.183999999999999986e+01,5.182970326450752133e-03
2.187999999999999901e+01,4.643539275803651098e-03
2.192000000000000171e+01,6.296291292781299072e-03
2.196000000000000085e+01,6.406175196325824585e-03
2.200000000000000000e+01,4.080026621921343903e-03
2.203999999999999915e+01,8.899064043163701712e-03
2.207999999999999829e+01,5.111114883331913626e-03
2.212000000000000099e+01,5.220481198750751874e-03
2.216000000000000014e+01,4.761340912680108763e-03
2.219999999999999929e+01,5.601219710959121599e-03
2.223999999999999844e+01,8.389691786623265993e-03
2.228000000000000114e+01,5.575457947829725973e-03
2.232000000000000028e+01,8.201278459538826476e-03
2.235999999999999943e+01,3.681654626319189137e-03
2.239999999999999858e+01,4.845675569243220078e-03
2.244000000000000128e+01,5.522387121645643340e-03
2.248000000000000043e+01,4.737428152823662704e-03
2.251999999999999957e+01,3.708750219121093473e-03
2.255999999999999872e+01,2.923533981199575877e-03
2.260000000000000142e+01,4.411698657272028826e-03
2.264000000000000057e+01,8.173244310878650595e-03
2.267999999999999972e+01,5.926100854494386824e-03
2.271999999999999886e+01,6.114732035098378524e-03
2.276000000000000156e+01,4.273315775950526675e-03
2.280000000000000071e+01,6.410412838422540477e-03
2.283999999999999986e+01,3.756772537867941828e-03
2.287999999999999901e+01,5.974810114069514788e-03
2.292000000000000171e+01,5.594423141371408781e-03
2.296000000000000085e+01,4.645530837986589119e-03
2.300000000000000000e+01,4.833265357380355995e-03
2.303999999999999915e+01,5.264462335036819603e-03
2.307999999999999829e+01,6.263908899243765711e-03
2.312000000000000099e+01,8.075195412102061099e-03
2.316000000000000014e+01,1.929071188965233519e-03
2.319999999999999929e+01,2.765741271765434755e-03
2.323999999999999844e+01,1.815954975856176080e-03
2.328000000000000114e+01,4.195108634553140411e-03
2.332000000000000028e+01,3.894641613564887167e-03
2.335999999999999943e+01,5.217982584337923016e-03
2.339999999999999858e+01,4.105293301066776854e-03
2.344000000000000128e+01,4.454018604263381212e-03
2.348000000000000043e+01,7.482110050271584788e-03
2.351999999999999957e+01,6.937416706239209543e-03
2.355999999999999872e+01,2.251561272398006075e-03
2.360000000000000142e+01,4.386107247521397676e-03
2.364000000000000057e+01,3.759836285093735853e-03
2.367999999999999972e+01,6.462505912673662672e-03
2.371999999999999886e+01,5.024013704605327126e-03
2.376000000000000156e+01,7.888823407867799967e-03
2.380000000000000071e+01,3.608191053646491071e-03
2.383999999999999986e+01,3.549663971649364477e-03
2.387999999999999901e+01,6.495290732612865256e-03
2.392000000000000171e+01,8.385233090731459421e-03
2.396000000000000085e+01,2.642553048405361926e-03
2.400000000000000000e+01,7.861310125977769708e-03
2.403999999999999915e+01,8.776512343849183703e-03
2.407999999999999829e+01,6.037733895055027479e-03
2.412000000000000099e+01,8.901406188443556494e-03
2.416000000000000014e+01,7.380327046564566333e-03
2.419999999999999929e+01,4.884760712808571860e-03
2.423999999999999844e+01,3.688216703949267605e-03
2.428000000000000114e+01,5.089843342517390463e-03
2.432000000000000028e+01,4.055441188464476571e-03
2.435999999999999943e+01,3.345700355685726594e-03
2.439999999999999858e+01,6.695672152319244626e-03
2.444000000000000128e+01,6.310467087961527978e-03
2.448000000000000043e+01,5.356759107442317196e-03
2.451999999999999957e+01,7.894386583647430497e-03
2.455999999999999872e+01,7.021624454229376082e-03
2.460000000000000142e+01,9.315410843868237104e-03
2.464000000000000057e+01,5.762904769356830097e-03
2.467999999999999972e+01,4.808569977674225816e-03
2.471999999999999886e+01,3.772913248192439825e-03
2.476000000000000156e+01,1.275589619274084636e-03
2.480000000000000071e+01,6.167046668832839619e-03
2.483999999999999986e+01,3.507079482016815537e-03
2.487999999999999901e+01,3.445283895730293262e-03
2.492000000000000171e+01,5.981659973513409057e-03
2.496000000000000085e+01,9.573469221354954581e-03
2.500000000000000000e+01,6.750609213599062346e-03
2.503999999999999915e+01,7.825069319523848821e-03
2.507999999999999829e+01,9.792569253753626718e-03
2.512000000000000099e+01,6.888138680557738883e-03
2.516000000000000014e+01,7.718634879289107929e-03
2.519999999999999929e+01,3.433610399114323756e-03
2.523999999999999844e+01,6.537367296358159025e-03
2.528000000000000114e+01,3.957226278467736169e-03
2.532000000000000028e+01,2.919699599618454273e-03
2.535999999999999943e+01,5.698296776584034322e-03
2.539999999999999858e+01,4.498128318960936331e-03
2.544000000000000128e+01,7.844854739915198619e-03
2.548000000000000043e+01,3.802551473510698901e-03
2.551999999999999957e+01,4.307143212763828513e-03
2.555999999999999872e+01,4.162036985252277367e-03
2.560000000000000142e+01,5.153561710628271585e-03
2.564000000000000057e+01,1.841534117908762754e-03
2.567999999999999972e+01,6.405469198670879667e-03
2.571999999999999886e+01,6.178671491296283333e-03
2.576000000000000156e+01,4.246618174427827831e-03
2.580000000000000071e+01,5.562312049007342267e-03
2.583999999999999986e+01,3.873602182182674190e-03
2.587999999999999901e+01,8.924100579923512772e-03
2.592000000000000171e+01,4.718044366948113619e-03
2.596000000000000085e+01,4.409309729076556217e-03
2.600000000000000000e+01,5.805584042802300684e-03
2.603999999999999915e+01,7.851309411235629643e-03
2.607999999999999829e+01,6.892631419505602756e-03
2.612000000000000099e+01,4.634682221077495064e-03
2.616000000000000014e+01,4.406529293154917183e-03
2.619999999999999929e+01,4.746630907913548976e-03
2.623999999999999844e+01,6.223364492201945326e-03
2.628000000000000114e+01,8.024762447691081643e-03
2.632000000000000028e+01,5.116625334332500566e-03
2.635999999999999943e+01,4.319481575367056098e-03
2.639999999999999858e+01,3.441018547288189709e-03
2.644000000000000128e+01,3.374400741692116634e-03
2.648000000000000043e+01,4.769202351614277788e-03
2.651999999999999957e+01,6.651062246351849630e-03
2.655999999999999872e+01,4.554158349164733575e-03
2.660000000000000142e+01,4.487051421424656170e-03
2.664000000000000057e+01,6.043757695737187775e-03
2.667999999999999972e+01,3.296913303997800297e-03
2.671999999999999886e+01,5.015769057933243055e-03
2.676000000000000156e+01,7.059289945551096464e-03
2.680000000000000071e+01,1.713783242634761431e-03
2.683999999999999986e+01,4.975011951546232970e-03
2.687999999999999901e+01,3.851493545919573106e-03
2.692000000000000171e+01,6.706495006546956371e-03
2.696000000000000085e+01,4.121191519286605646e-03
2.700000000000000000e+01,4.864833895865281095e-03
2.703999999999999915e+01,3.740829163860680869e-03
2.707999999999999829e+01,5.945770422775348112e-03
2.712000000000000099e+01,5.227506739757147719e-03
2.716000000000000014e+01,3.209973502084487347e-03
2.719999999999999929e+01,6.957289431558912052e-03
2.723999999999999844e+01,5.101907325552738556e-03
2.728000000000000114e+01,5.276323269175949189e-03
2.732000000000000028e+01,4.719847275613621440e-03
2.735999999999999943e+01,4.812824433583415100e-03
2.739999999999999858e+01,6.610812767055335680e-03
2.744000000000000128e+01,6.622351393532277357e-03
2.748000000000000043e+01,5.009833908928193989e-03
2.751999999999999957e+01,3.965573063829865887e-03
2.755999999999999872e+01,5.681881608824083767e-03
2.760000000000000142e+01,6.910888959974482298e-03
2.764000000000000057e+01,8.058579011755745425e-03
2.767999999999999972e+01,5.227507050736199257e-03
2.771999999999999886e+01,8.486072147633189414e-03
2.776000000000000156e+01,4.436807945146200097e-03
2.780000000000000071e+01,5.421622967226162083e-03
2.783999999999999986e+01,5.269563047207807653e-03
2.787999999999999901e+01,4.711399144313490640e-03
2.792000000000000171e+01,8.537740527111242067e-03
2.796000000000000085e+01,6.355401187216306799e-03
2.800000000000000000e+01,5.228499846430269792e-03
2.803999999999999915e+01,6.293791294910048607e-03
2.807999999999999829e+01,5.572634053037031285e-03
2.812000000000000099e+01,7.612047090818502282e-03
2.816000000000000014e+01,6.971847137271410151e-03
2.819999999999999929e+01,6.575117838664785302e-03
2.823999999999999844e+01,4.067153039118250740e-03
2.828000000000000114e+01,4.076168474826020321e-03
2.832000000000000028e+01,5.708999781272184292e-03
2.835999999999999943e+01,5.311792543585774559e-03
2.839999999999999858e+01,5.076859512353591383e-03
2.844000000000000128e+01,6.790529607227859150e-03
2.848000000000000043e+01,3.063897168739630663e-03
2.851999999999999957e+01,4.614935397101572676e-03
2.855999999999999872e+01,4.947903060900764489e-03
2.860000000000000142e+01,4.955964651733386211e-03
2.864000000000000057e+01,2.933988143214414507e-03
2.867999999999999972e+01,5.052927829089384412e-03
2.871999999999999886e+01,3.517894218954748572e-03
2.876000000000000156e+01,4.012661009434599635e-03
2.880000000000000071e+01,5.319276771265357522e-03
2.883999999999999986e+01,3.621493557202236108e-03
2.887999999999999901e+01,4.521888297682398646e-03
2.892000000000000171e+01,3.067458318844257757e-03
2.896000000000000085e+01,3.967616123068939786e-03
2.900000000000000000e+01,5.354836151597566068e-03
2.903999999999999915e+01,4.793215482362877915e-03
2.907999999999999829e+01,4.069083035017107518e-03
2.912000000000000099e+01,6.755096585324570427e-03
2.916000000000000014e+01,4.000808682451864780e-03
2.919999999999999929e+01,4.250683073378103832e-03
2.923999999999999844e+01,2.226930019494067180e-03
2.928000000000000114e+01,3.856913515984550667e-03
2.932000000000000028e+01,6.217550043660824595e-03
2.935999999999999943e+01,2.813098371109967830e-03
2.939999999999999858e+01,5.417089658974527655e-03
2.944000000000000128e+01,4.285912028365074407e-03
2.948000000000000043e+01,7.214455096765381124e-03
2.951999999999999957e+01,4.702697283846777286e-03
2.955999999999999872e+01,3.814757311410825729e-03
2.960000000000000142e+01,4.225848178250017108e-03
2.964000000000000057e+01,4.718018455100789557e-03
2.967999999999999972e+01,3.910923180325770118e-03
2.971999999999999886e+01,2.616530079334199958e-03
2.976000000000000156e+01,5.381858122133387386e-03
2.980000000000000071e+01,5.792362843497297735e-03
2.983999999999999986e+01,4.660011968835226816e-03
2.987999999999999901e+01,7.262595363836664084e-03
2.992000000000000171e+01,3.694107617238319777e-03
2.996000000000000085e+01,6.377654019178071419e-03
3.000000000000000000e+01,3.377310003719807135e-03
3.003999999999999915e+01,5.979426134384602763e-03
3.007999999999999829e+01,5.414751726525961553e-03
3.012000000000000099e+01,6.067912217777346462e-03
3.016000000000000014e+01,5.259414387510749633e-03
3.019999999999999929e+01,4.044816259696186120e-03
3.023999999999999844e+01,3.723266156864408864e-03
3.028000000000000114e+01,2.670828818817281864e-03
3.032000000000000028e+01,2.105455801898636903e-03
3.035999999999999943e+01,3.813476025760725689e-03
3.039999999999999858e+01,0.000000000000000000e+00
3.044000000000000128e+01,3.575313611875789721e-03
3.048000000000000043e+01,6.906920903358408463e-03
3.051999999999999957e+01,7.964902783315153459e-03
3.055999999999999872e+01,3.257798369248901104e-03
3.060000000000000142e+01,4.234351757054553508e-03
3.064000000000000057e+01,2.937279923954735743e-03
3.067999999999999972e+01,4.725569501825880106e-03
3.071999999999999886e+01,4.483824284432571215e-03
3.076000000000000156e+01,5.784702047539153243e-03
3.080000000000000071e+01,4.568364545340090899e-03
3.083999999999999986e+01,6.031404877337954648e-03
3.087999999999999901e+01,5.708000966792672361e-03
3.092000000000000171e+01,2.623791683001419628e-03
3.096000000000000085e+01,3.599305449205030070e-03
3.100000000000000000e+01,4.655900785784919046e-03
3.103999999999999915e+01,4.250839198729853934e-03
3.107999999999999829e+01,6.606352593299462742e-03
3.112000000000000099e+01,4.901912673333183069e-03
3.116000000000000014e+01,4.252915772146669861e-03
3.119999999999999929e+01,4.334574888532424612e-03
3.123999999999999844e+01,2.305003269488610160e-03
3.128000000000000114e+01,3.360794014517814749e-03
3.132000000000000028e+01,1.006205892207127873e-03
3.135999999999999943e+01,5.309637973273891032e-03
3.139999999999999858e+01,1.330885342866259223e-03
3.144000000000000128e+01,4.822120704785487835e-03
3.148000000000000043e+01,6.120928946329070100e-03
3.151999999999999957e+01,7.338426051896893357e-03
3.155999999999999872e+01,4.820757606617980841e-03
3.160000000000000142e+01,1.409810490574454596e-03
3.164000000000000057e+01,3.276538997511834264e-03
3.167999999999999972e+01,5.955121050690019742e-03
3.171999999999999886e+01,4.817341040995131926e-03
3.176000000000000156e+01,4.166627639873702639e-03
3.180000000000000071e+01,4.327767975613493363e-03
3.183999999999999986e+01,5.219565345567742619e-03
3.187999999999999901e+01,5.786461852846733027e-03
3.192000000000000171e+01,3.267767510635550317e-03
3.196000000000000085e+01,4.971191339296489146e-03
3.200000000000000000e+01,3.995008276482108454e-03
3.203999999999999915e+01,4.317859928891252391e-03
3.207999999999999829e+01,2.610678946400643574e-03
3.211999999999999744e+01,3.745271363765206862e-03
3.215999999999999659e+01,3.824192467553244081e-03
3.220000000000000284e+01,1.548294062314279360e-03
3.224000000000000199e+01,1.708185416616325291e-03
3.228000000000000114e+01,6.171392216298528070e-03
3.232000000000000028e+01,9.720707407519838493e-04
3.235999999999999943e+01,5.110264341254465437e-03
3.239999999999999858e+01,5.513293725253121287e-03
3.243999999999999773e+01,3.155520150531027079e-03
3.247999999999999687e+01,3.558323781338440951e-03
3.252000000000000313e+01,2.905456670430568537e-03
3.256000000000000227e+01,2.658460672711973009e-03
3.260000000000000142e+01,3.710500279778852252e-03
3.264000000000000057e+01,5.006017594741478914e-03
3.267999999999999972e+01,6.301422382579220140e-03
3.271999999999999886e+01,6.378763214028550059e-03
3.275999999999999801e+01,5.562827217377256175e-03
3.279999999999999716e+01,6.695501272707407407e-03
3.284000000000000341e+01,2.550273252923909717e-03
3.288000000000000256e+01,4.575887253921630086e-03
3.292000000000000171e+01,5.464634382418525997e-03
3.296000000000000085e+01,3.511382612029554599e-03
3.300000000000000000e+01,2.126396186145214275e-03
3.303999999999999915e+01,4.801136114342914596e-03
3.307999999999999829e+01,4.146696737153682776e-03
3.311999999999999744e+01,6.090442049762324200e-03
3.315999999999999659e+01,6.491337040176401937e-03
3.320000000000000284e+01,4.618610876253840744e-03
3.324000000000000199e+01,5.262872826562652560e-03
3.328000000000000114e+01,5.663432904287915744e-03
3.332000000000000028e+01,5.089520277287563725e-03
3.335999999999999943e+01,4.028315606223210714e-03
3.339999999999999858e+01,4.915721940242387053e-03
3.343999999999999773e+01,3.935491332100317027e-03
3.347999999999999687e+01,5.878233050365012577e-03
3.352000000000000313e+01,2.949057604632935019e-03
3.356000000000000227e+01,2.861657846200997384e-03
3.360000000000000142e+01,6.022017669543873637e-03
3.364000000000000057e+01,5.772002310874844132e-03
3.367999999999999972e+01,5.278285715023658953e-03
3.371999999999999886e+01,3.566506751287484584e-03
3.375999999999999801e+01,3.234962001187695856e-03
3.379999999999999716e+01,4.933225657759724575e-03
3.384000000000000341e+01,6.306591565123221936e-03
3.388000000000000256e+01,5.893517995453904229e-03
3.392000000000000171e+01,3.856398544665724012e-03
3.396000000000000085e+01,5.148236013700528170e-03
3.400000000000000000e+01,4.247650365388356240e-03
3.403999999999999915e+01,2.372593156073048680e-03
3.407999999999999829e+01,3.907689823388043292e-03
3.411999999999999744e+01,2.276002369733516432e-03
3.415999999999999659e+01,2.836517426985872645e-03
3.420000000000000284e+01,4.208890033507740706e-03
3.424000000000000199e+01,5.743546123343930970e-03
3.428000000000000114e+01,5.166976306801028367e-03
3.432000000000000028e+01,3.453541841662125921e-03
3.435999999999999943e+01,3.363932841822396547e-03
3.439999999999999858e+01,7.090462057868648742e-03
3.443999999999999773e+01,2.047630794369475950e-03
3.447999999999999687e+01,4.637185884621473561e-03
3.452000000000000313e+01,6.089876643978145258e-03
3.456000000000000227e+01,4.132193682746082043e-03
3.460000000000000142e+01,4.610304229923160337e-03
3.464000000000000057e+01,1.678041183591769949e-03
3.467999999999999972e+01,7.433722769142104420e-03
3.471999999999999886e+01,5.800389345105493207e-03
3.475999999999999801e+01,4.654127295152664552e-03
3.479999999999999716e+01,4.725707578505969689e-03
3.484000000000000341e+01,5.203162596836409179e-03
3.488000000000000256e+01,3.569392661889816618e-03
3.492000000000000171e+01,4.696203808421117731e-03
3.496000000000000085e+01,3.224609531634183100e-03
3.500000000000000000e+01,2.889661139667157146e-03
3.503999999999999915e+01,2.635800735630307746e-03
3.507999999999999829e+01,3.437389577306714916e-03
3.511999999999999744e+01,4.157673001619755296e-03
3.515999999999999659e+01,5.283831669231030086e-03
3.520000000000000284e+01,4.948340021381683607e-03
3.524000000000000199e+01,4.693936679163196284e-03
3.528000000000000114e+01,3.789850810433485501e-03
3.532000000000000028e+01,5.159166061461572562e-03
3.535999999999999943e+01,4.660847420255020968e-03
3.539999999999999858e+01,6.029946194951971671e-03
3.543999999999999773e+01,6.180985333989858291e-03
3.547999999999999687e+01,4.707981069974253793e-03
3.552000000000000313e+01,4.209229984426524768e-03
3.556000000000000227e+01,5.415503036569023314e-03
3.560000000000000142e+01,4.348158746783144409e-03
3.564000000000000057e+01,5.879003149823807707e-03
3.567999999999999972e+01,7.734526855997583827e-03
3.571999999999999886e+01,4.312153061947611964e-03
3.575999999999999801e+01,5.030706708895946525e-03
3.579999999999999716e+01,3.719233630177334101e-03
3.584000000000000341e+01,5.087146328172864607e-03
3.588000000000000256e+01,4.993409790890110216e-03
3.592000000000000171e+01,5.549140002728951762e-03
3.596000000000000085e+01,3.912450210687572899e-03
3.600000000000000000e+01,6.416688240885318022e-03
3.603999999999999915e+01,7.378080523778422078e-03
3.607999999999999829e+01,8.826546277579843877e-03
3.611999999999999744e+01,7.757805216913940365e-03
3.615999999999999659e+01,6.688957157115149599e-03
3.620000000000000284e+01,6.919150420714222788e-03
3.624000000000000199e+01,5.038120891400944476e-03
3.628000000000000114e+01,4.618526344939639754e-03
3.632000000000000028e+01,4.117628287319082502e-03
3.635999999999999943e+01,5.078165339630767890e-03
3.639999999999999858e+01,5.957399007863475003e-03
3.643999999999999773e+01,3.426261941893920821e-03
3.647999999999999687e+01,4.224085798776016504e-03
3.652000000000000313e+01,8.269673875862993198e-03
3.656000000000000227e+01,6.874972254695282253e-03
3.660000000000000142e+01,7.753673786569777182e-03
3.664000000000000057e+01,7.495514355176248651e-03
3.667999999999999972e+01,4.801345765064239657e-03
3.671999999999999886e+01,7.709647932278271970e-03
3.675999999999999801e+01,4.690480121816834741e-03
3.679999999999999716e+01,7.192586429574802757e-03
3.684000000000000341e+01,7.339880598961751740e-03
3.688000000000000256e+01,8.217839808620517120e-03
3.692000000000000171e+01,8.933299694035182203e-03
3.696000000000000085e+01,9.486260318745894093e-03
3.700000000000000000e+01,1.085108294053574625e-02
3.703999999999999915e+01,8.074764885543168208e-03
3.707999999999999829e+01,1.033254079642949297e-02
3.711999999999999744e+01,9.342340585669711706e-03
3.715999999999999659e+01,1.054434765132714232e-02
3.720000000000000284e+01,1.004111727997009790e-02
3.724000000000000199e+01,1.099932341642832247e-02
3.728000000000000114e+01,1.301298229330738639e-02
3.732000000000000028e+01,1.145387830149338301e-02
3.735999999999999943e+01,1.322373663041406799e-02
3.739999999999999858e+01,1.336955460620787607e-02
3.743999999999999773e+01,1.497680940751762967e-02
3.747999999999999687e+01,1.593438517702374865e-02
3.752000000000000313e+01,1.648587227682710155e-02
3.756000000000000227e+01,1.996033818413126687e-02
3.760000000000000142e+01,1.961845136896258127e-02
3.764000000000000057e+01,1.943885343801993182e-02
3.767999999999999972e+01,2.453694072461898995e-02
3.771999999999999886e+01,2.979731702252435763e-02
3.775999999999999801e+01,3.562596622621073267e-02
3.779999999999999716e+01,4.421520108626492834e-02
3.784000000000000341e+01,5.426587340723645903e-02
3.788000000000000256e+01,7.219252778143159244e-02
3.792000000000000171e+01,1.018114122831753898e-01
3.796000000000000085e+01,1.557892225011664189e-01
3.800000000000000000e+01,2.693653550240651673e-01
3.803999999999999915e+01,4.995399397786247087e-01
3.807999999999999829e+01,8.040094616450034204e-01
3.811999999999999744e+01,1.000000000000000000e+00
3.815999999999999659e+01,9.979515218029897383e-01
3.820000000000000284e+01,8.182444154304274742e-01
3.824000000000000199e+01,6.177508332189700635e-01
3.828000000000000114e+01,3.908681983652601000e-01
3.832000000000000028e+01,2.238274766233397106e-01
3.835999999999999943e+01,1.323808406970100604e-01
3.839999999999999858e+01,9.387439288366258849e-02
3.843999999999999773e+01,6.933368547711914187e-02
3.847999999999999687e+01,5.502366729632185427e-02
3.852000000000000313e+01,4.436740034367091939e-02
3.856000000000000227e+01,3.842044264313629331e-02
3.860000000000000142e+01,3.653322012876285274e-02
3.864000000000000057e+01,2.741938236410979002e-02
3.867999999999999972e+01,2.780546324722136045e-02
3.871999999999999886e+01,2.648630910784369186e-02
3.875999999999999801e+01,2.110721379009641852e-02
3.879999999999999716e+01,1.808272188628583590e-02
3.884000000000000341e+01,1.765642375851281601e-02
3.888000000000000256e+01,1.706762941996245106e-02
3.892000000000000171e+01,1.323086181907218162e-02
3.896000000000000085e+01,1.532135559850332333e-02
3.900000000000000000e+01,1.554422126785235878e-02
3.903999999999999915e+01,1.438663948778089348e-02
3.907999999999999829e+01,1.071185559521229715e-02
3.911999999999999744e+01,1.166518507813505030e-02
3.915999999999999659e+01,1.205003496412685934e-02
3.920000000000000284e+01,9.268108798746637136e-03
3.924000000000000199e+01,9.733951174300653139e-03
3.928000000000000114e+01,1.149883976584314266e-02
3.932000000000000028e+01,1.212687165130684440e-02
3.935999999999999943e+01,1.056248893380202190e-02
3.939999999999999858e+01,8.510823766793995312e-03
3.943999999999999773e+01,8.082992134682630281e-03
3.947999999999999687e+01,9.684977931942643711e-03
3.952000000000000313e+01,8.607368783273207369e-03
3.956000000000000227e+01,7.286067737821850729e-03
3.960000000000000142e+01,7.263813416680062890e-03
3.964000000000000057e+01,6.754277027275893720e-03
3.967999999999999972e+01,6.407032762644787605e-03
3.971999999999999886e+01,7.115245114382919879e-03
3.975999999999999801e+01,4.737879070497867488e-03
3.979999999999999716e+01,6.014266288043543761e-03
3.984000000000000341e+01,6.072600859345317174e-03
3.988000000000000256e+01,8.891524391102058333e-03
3.992000000000000171e+01,7.488115054779372060e-03
3.996000000000000085e+01,7.789736845562065908e-03
4.000000000000000000e+01,7.441683607569787168e-03
4.003999999999999915e+01,7.824300429520198233e-03
4.007999999999999829e+01,7.557242349775917037e-03
4.011999999999999744e+01,5.503754705260295935e-03
4.015999999999999659e+01,7.510004724971219153e-03
4.020000000000000284e+01,7.405038242243424176e-03
4.024000000000000199e+01,5.919626216299269175e-03
4.028000000000000114e+01,7.763181149519848834e-03
4.032000000000000028e+01,7.901503601856690179e-03
4.035999999999999943e+01,6.659380701597583316e-03
4.039999999999999858e+01,6.147928433142416452e-03
4.043999999999999773e+01,3.525260043489349387e-03
4.047999999999999687e+01,6.586265150122190722e-03
4.052000000000000313e+01,7.698447795011241490e-03
4.056000000000000227e+01,7.024201574070470730e-03
4.060000000000000142e+01,6.999429536447404447e-03
4.064000000000000057e+01,5.594212591009357222e-03
4.067999999999999972e+01,6.381208513520638531e-03
4.071999999999999886e+01,5.056988759614995145e-03
4.075999999999999801e+01,4.707030507935256423e-03
4.079999999999999716e+01,5.168940289647740161e-03
4.084000000000000341e+01,5.305963441675802181e-03
4.088000000000000256e+01,5.036903261372662789e-03
4.092000000000000171e+01,6.716466031698939410e-03
4.096000000000000085e+01,4.823271715484679818e-03
4.100000000000000000e+01,5.528274606475419919e-03
4.103999999999999915e+01,6.070784717856251948e-03
4.107999999999999829e+01,3.527718530438434495e-03
4.111999999999999744e+01,6.668326855948726421e-03
4.115999999999999659e+01,5.343013984563129565e-03
4.120000000000000284e+01,7.184276001391611509e-03
4.124000000000000199e+01,6.021158739768910605e-03
4.128000000000000114e+01,9.242567986244256545e-03
4.132000000000000028e+01,5.399759772003052266e-03
4.135999999999999943e+01,6.103871725313990589e-03
4.139999999999999858e+01,4.047194952895038535e-03
4.143999999999999773e+01,5.887864345613214728e-03
4.147999999999999687e+01,7.484844891476078767e-03
4.152000000000000313e+01,4.453511279930466235e-03
4.156000000000000227e+01,5.400720790329296278e-03
4.160000000000000142e+01,7.322193137296937118e-03
4.164000000000000057e+01,5.346122413158725141e-03
4.167999999999999972e+01,3.532346990800453411e-03
4.171999999999999886e+01,3.991982854622012737e-03
4.175999999999999801e+01,6.237849471042054492e-03
4.179999999999999716e+01,5.560534464759758246e-03
4.184000000000000341e+01,5.045515014417955094e-03
4.188000000000000256e+01,6.966300636790357347e-03
4.192000000000000171e+01,7.263053086071436654e-03
4.196000000000000085e+01,4.068246803502337770e-03
4.200000000000000000e+01,6.800706730305119442e-03
4.203999999999999915e+01,6.772378948020211717e-03
4.207999999999999829e+01,7.231134167664281069e-03
4.211999999999999744e+01,7.202611258534503090e-03
4.215999999999999659e+01,5.550055557554233604e-03
4.220000000000000284e+01,5.277747477179398593e-03
4.224000000000000199e+01,3.706193796782006680e-03
4.228000000000000114e+01,7.331135874855235039e-03
4.232000000000000028e+01,7.626913325313345628e-03
4.235999999999999943e+01,4.268739146948827799e-03
4.239999999999999858e+01,4.077141763002516475e-03
4.243999999999999773e+01,6.808530938453822602e-03
4.247999999999999687e+01,5.804771909515988801e-03
4.252000000000000313e+01,7.561606034682214796e-03
4.256000000000000227e+01,6.314062978221803533e-03
4.260000000000000142e+01,6.933948774889685945e-03
4.264000000000000057e+01,8.122115229235379874e-03
4.267999999999999972e+01,6.224707926387937178e-03
4.271999999999999886e+01,7.250287627719067055e-03
4.275999999999999801e+01,6.814229022675602487e-03
4.279999999999999716e+01,3.942170980554719067e-03
4.284000000000000341e+01,4.399083964167378562e-03
4.288000000000000256e+01,7.697787439932251424e-03
4.292000000000000171e+01,6.936556345501858865e-03
4.296000000000000085e+01,8.854722337930122020e-03
4.300000000000000000e+01,7.606118315299441324e-03
4.303999999999999915e+01,6.195024690065728014e-03
4.307999999999999829e+01,7.057344511376526311e-03
4.311999999999999744e+01,7.351191026230009459e-03
4.315999999999999659e+01,1.089281230895123263e-02
4.320000000000000284e+01,9.400138272015195681e-03
4.324000000000000199e+01,6.851810522120776147e-03
4.328000000000000114e+01,8.282028626396724727e-03
4.332000000000000028e+01,7.601035184364699632e-03
4.335999999999999943e+01,1.008662006171419379e-02
4.339999999999999858e+01,1.070458381839671687e-02
4.343999999999999773e+01,1.067287801075611844e-02
4.347999999999999687e+01,1.194022509081844874e-02
4.352000000000000313e+01,1.377585422644162297e-02
4.356000000000000227e+01,1.195753363944629388e-02
4.360000000000000142e+01,1.022031463797062022e-02
4.364000000000000057e+01,1.213685499777888976e-02
4.367999999999999972e+01,1.397210353781325534e-02
4.371999999999999886e+01,1.856794713815580755e-02
4.375999999999999801e+01,1.642436421847785072e-02
4.379999999999999716e+01,2.004565683510414753e-02
4.384000000000000341e+01,1.773949072065933788e-02
4.388000000000000256e+01,2.257854529477658356e-02
4.392000000000000171e+01,2.579356987280938610e-02
4.396000000000000085e+01,2.835892571254085975e-02
4.400000000000000000e+01,3.409086088829604844e-02
4.403999999999999915e+01,4.022868541326004438e-02
4.407999999999999829e+01,4.977667969988878310e-02
4.411999999999999744e+01,6.646989505632037998e-02
4.415999999999999659e+01,9.404338279069299200e-02
4.420000000000000284e+01,1.368005715744531614e-01
4.424000000000000199e+01,2.074081569962994420e-01
4.428000000000000114e+01,2.725754649831376719e-01
4.432000000000000028e+01,3.094862042999853013e-01
4.435999999999999943e+01,3.112386498844949001e-01
4.439999999999999858e+01,2.676832060268424240e-01
4.443999999999999773e+01,2.222601427005666264e-01
4.447999999999999687e+01,1.687173089728152553e-01
4.452000000000000313e+01,1.100589852560442811e-01
4.456000000000000227e+01,8.038781341229729593e-02
4.460000000000000142e+01,5.225928653393783346e-02
4.464000000000000057e+01,4.231874175282321349e-02
4.467999999999999972e+01,3.383964529798949572e-02
4.471999999999999886e+01,2.917670345239726029e-02
4.475999999999999801e+01,2.394529090549336534e-02
4.479999999999999716e+01,2.033772040786458596e-02
4.484000000000000341e+01,1.551210520650911362e-02
4.488000000000000256e+01,1.661376078941543752e-02
4.492000000000000171e+01,1.649737179567533490e-02
4.496000000000000085e+01,1.500054475645511663e-02
4.500000000000000000e+01,1.220447650148183752e-02
4.503999999999999915e+01,1.176302157270673124e-02
4.507999999999999829e+01,8.804374062455136776e-03
4.511999999999999744e+01,9.255897965911854749e-03
4.515999999999999659e+01,8.895361504897548316e-03
4.520000000000000284e+01,7.641567976765424770e-03
4.524000000000000199e+01,8.092813963036864580e-03
4.528000000000000114e+01,6.920032113588551331e-03
4.532000000000000028e+01,1.005058642360527436e-02
4.535999999999999943e+01,7.253684417076139944e-03
4.539999999999999858e+01,7.379773671914799903e-03
4.543999999999999773e+01,8.723722161736212691e-03
4.547999999999999687e+01,6.982101342174137221e-03
4.552000000000000313e+01,4.834404560936829583e-03
4.556000000000000227e+01,6.015683126162439838e-03
4.560000000000000142e+01,7.765247051036062824e-03
4.564000000000000057e+01,5.942061323565248597e-03
4.567999999999999972e+01,4.443570784261978261e-03
4.571999999999999886e+01,4.731317288030827128e-03
4.575999999999999801e+01,7.373678261720327531e-03
4.579999999999999716e+01,7.661241330029645163e-03
4.584000000000000341e+01,7.217941880237182910e-03
4.588000000000000256e+01,3.932664055023346768e-03
4.592000000000000171e+01,5.275510407124269809e-03
4.596000000000000085e+01,4.994330003687780933e-03
4.600000000000000000e+01,4.144680868683895195e-03
4.603999999999999915e+01,5.649646648381617849e-03
4.607999999999999829e+01,5.124602032227785348e-03
4.611999999999999744e+01,3.706301810379312653e-03
4.615999999999999659e+01,5.129797290974335081e-03
4.620000000000000284e+01,3.548921372095253501e-03
4.624000000000000199e+01,4.485054217992293091e-03
4.628000000000000114e+01,4.527931712355250105e-03
4.632000000000000028e+01,5.382686008649439045e-03
4.635999999999999943e+01,5.344185080489800149e-03
4.639999999999999858e+01,4.656019289977230552e-03
4.643999999999999773e+01,5.266911089137777009e-03
4.647999999999999687e+01,2.467448102670618659e-03
4.652000000000000313e+01,3.971323181872632967e-03
4.656000000000000227e+01,6.449468976620523902e-03
4.660000000000000142e+01,5.517260176361123147e-03
4.664000000000000057e+01,5.884109283475526253e-03
4.667999999999999972e+01,4.789326311148831526e-03
4.671999999999999886e+01,4.668814308528557167e-03
4.675999999999999801e+01,3.898638015416591891e-03
4.679999999999999716e+01,3.615552221969850228e-03
4.684000000000000341e+01,4.144344056476110573e-03
4.688000000000000256e+01,4.429455622045663787e-03
4.692000000000000171e+01,4.876870813153206391e-03
4.696000000000000085e+01,4.512228499095904434e-03
4.700000000000000000e+01,3.497922275787738663e-03
4.703999999999999915e+01,2.483526336264139586e-03
4.707999999999999829e+01,6.909224078588433772e-03
4.711999999999999744e+01,2.890368548338607090e-03
4.715999999999999659e+01,4.961180956512244340e-03
4.720000000000000284e+01,4.596000917023619625e-03
4.724000000000000199e+01,3.743550881898777966e-03
4.728000000000000114e+01,3.702979173668461462e-03
4.732000000000000028e+01,4.961466452994288227e-03
4.735999999999999943e+01,2.322419747453963353e-03
4.739999999999999858e+01,4.879876933521883932e-03
4.743999999999999773e+01,4.676554988420716236e-03
4.747999999999999687e+01,5.772292285036234247e-03
4.752000000000000313e+01,3.701266746628372340e-03
4.756000000000000227e+01,4.634432666942656445e-03
4.760000000000000142e+01,3.456393839743701537e-03
4.764000000000000057e+01,3.090233911300510703e-03
4.767999999999999972e+01,5.565872099826048823e-03
4.771999999999999886e+01,4.549960706281250093e-03
4.775999999999999801e+01,4.833108999234099999e-03
4.779999999999999716e+01,2.842659330000578931e-03
4.784000000000000341e+01,5.723927186569164813e-03
4.788000000000000256e+01,3.652103923863515064e-03
4.792000000000000171e+01,3.041734134189906080e-03
4.796000000000000085e+01,2.918456686845509549e-03
4.800000000000000000e+01,2.145516918753693873e-03
4.803999999999999915e+01,5.269933799921722693e-03
4.807999999999999829e+01,3.766046944263842788e-03
4.811999999999999744e+01,4.048400944086352239e-03
4.815999999999999659e+01,5.142634668686414494e-03
4.820000000000000284e+01,4.694041962183695058e-03
4.824000000000000199e+01,4.326558211856592479e-03
4.828000000000000114e+01,5.826512337357327674e-03
4.832000000000000028e+01,5.946033754749524905e-03
4.835999999999999943e+01,3.061187203835047735e-03
4.839999999999999858e+01,5.129255834471534506e-03
4.843999999999999773e+01,4.436546922442360756e-03
4.847999999999999687e+01,4.393324711138017064e-03
4.852000000000000313e+01,4.268818368416435124e-03
4.856000000000000227e+01,5.037389152060697123e-03
4.860000000000000142e+01,4.263134140003553042e-03
4.864000000000000057e+01,3.894775784271052674e-03
4.867999999999999972e+01,3.607527083655678868e-03
4.871999999999999886e+01,5.187716957809673790e-03
4.875999999999999801e+01,6.199442484665763572e-03
4.879999999999999716e+01,3.719620145035221984e-03
4.884000000000000341e+01,3.269630103168275504e-03
4.888000000000000256e+01,4.037504760735931633e-03
4.892000000000000171e+01,4.318112091353156629e-03
4.896000000000000085e+01,4.192648924746995333e-03
4.900000000000000000e+01,4.310689453952890396e-03
4.903999999999999915e+01,2.804708120211984838e-03
4.907999999999999829e+01,5.358478620148325773e-03
4.911999999999999744e+01,3.365143801489268310e-03
4.915999999999999659e+01,5.593954475961562638e-03
4.920000000000000284e+01,5.873956476899946239e-03
4.924000000000000199e+01,5.341904594461351422e-03
4.928000000000000114e+01,4.728569787868122480e-03
4.932000000000000028e+01,4.115148886847316834e-03
4.935999999999999943e+01,5.125577278677333030e-03
4.939999999999999858e+01,5.729935872225470905e-03
4.943999999999999773e+01,4.629076472041272587e-03
4.947999999999999687e+01,5.070869789141401081e-03
4.952000000000000313e+01,2.345903448225018610e-03
4.956000000000000227e+01,3.193509106346070162e-03
4.960000000000000142e+01,4.852996776689631059e-03
4.964000000000000057e+01,3.914102342945498421e-03
4.967999999999999972e+01,5.979402735550811213e-03
4.971999999999999886e+01,4.634353489279573364e-03
4.975999999999999801e+01,5.319138002195092363e-03
4.979999999999999716e+01,3.161950366622731483e-03
4.984000000000000341e+01,4.983319005803322176e-03
4.988000000000000256e+01,4.612289753071607129e-03
4.992000000000000171e+01,4.078781826640554692e-03
4.996000000000000085e+01,2.895614692928823609e-03
5.000000000000000000e+01,5.366217023382935727e-03
5.003999999999999915e+01,5.563224949898392009e-03
5.007999999999999829e+01,2.837064406520004977e-03
5.011999999999999744e+01,5.632199140226885718e-03
5.015999999999999659e+01,5.666559063494037117e-03
5.020000000000000284e+01,4.564079563599854686e-03
5.024000000000000199e+01,5.166647520626438568e-03
5.028000000000000114e+01,3.658014987328999604e-03
5.032000000000000028e+01,4.098020336593345171e-03
5.035999999999999943e+01,6.892647462894172655e-03
5.039999999999999858e+01,5.221368070070912283e-03
5.043999999999999773e+01,3.387610829570109321e-03
5.047999999999999687e+01,4.314459387660762521e-03
5.052000000000000313e+01,2.561730473359840384e-03
5.056000000000000227e+01,2.920033355235344876e-03
5.060000000000000142e+01,4.333810136397543006e-03
5.064000000000000057e+01,4.529551427153014932e-03
5.067999999999999972e+01,4.238028186724109719e-03
5.071999999999999886e+01,5.489159633323801787e-03
5.075999999999999801e+01,4.791484884454950618e-03
5.079999999999999716e+01,4.580906989265093494e-03
5.084000000000000341e+01,4.938622777481288702e-03
5.088000000000000256e+01,3.591122859410092114e-03
5.092000000000000171e+01,5.491410035993351917e-03
5.096000000000000085e+01,4.793317205313462476e-03
5.100000000000000000e+01,4.907108610760903961e-03
5.103999999999999915e+01,3.478078096455341009e-03
5.107999999999999829e+01,4.160080204348002957e-03
5.111999999999999744e+01,2.649686390072620093e-03
5.115999999999999659e+01,3.981096220757959596e-03
5.120000000000000284e+01,4.581652047719967161e-03
5.124000000000000199e+01,4.776140999246444169e-03
5.128000000000000114e+01,4.320972840316790291e-03
5.132000000000000028e+01,1.754605843106694062e-03
5.135999999999999943e+01,4.141158729417745640e-03
5.139999999999999858e+01,3.848135541220243025e-03
5.143999999999999773e+01,5.016571417586895669e-03
5.147999999999999687e+01,4.155005476020584738e-03
5.152000000000000313e+01,5.242079323220175634e-03
5.156000000000000227e+01,3.243593519137201019e-03
5.160000000000000142e+01,1.894599371909809005e-03
5.164000000000000057e+01,3.225016099750948207e-03
5.167999999999999972e+01,4.636547248219549493e-03
5.171999999999999886e+01,5.154831686612796476e-03
5.175999999999999801e+01,4.130295348975509054e-03
5.179999999999999716e+01,3.674054219707571962e-03
5.184000000000000341e+01,4.841666322778999387e-03
5.188000000000000256e+01,5.359622268496348936e-03
5.192000000000000171e+01,3.928773861409157533e-03
5.196000000000000085e+01,5.420927136272345702e-03
5.200000000000000000e+01,5.532653548719667150e-03
5.203999999999999915e+01,4.426346694665069664e-03
5.207999999999999829e+01,4.943893454190655123e-03
5.211999999999999744e+01,5.704948865659047533e-03
5.215999999999999659e+01,4.517200305563718286e-03
5.220000000000000284e+01,3.654157290678376659e-03
5.224000000000000199e+01,1.979065157926385415e-03
5.228000000000000114e+01,3.957746111128089203e-03
5.232000000000000028e+01,3.987623346926627219e-03
5.235999999999999943e+01,2.718271058357440810e-03
5.239999999999999858e+01,4.290724384493243768e-03
5.243999999999999773e+01,4.076767716220113837e-03
5.247999999999999687e+01,3.294352609881889739e-03
5.252000000000000313e+01,4.298185348439203211e-03
5.256000000000000227e+01,3.840395347955647722e-03
5.260000000000000142e+01,6.955182175559978738e-03
5.264000000000000057e+01,7.715181963147691585e-03
5.267999999999999972e+01,4.171672385772988607e-03
5.271999999999999886e+01,4.769117190414977857e-03
5.275999999999999801e+01,5.853661962202712059e-03
5.279999999999999716e+01,5.557781142377336836e-03
5.284000000000000341e+01,2.582326535488357454e-03
5.288000000000000256e+01,4.803384525206491965e-03
5.292000000000000171e+01,4.669655919688966463e-03
5.296000000000000085e+01,4.129863170961822066e-03
5.300000000000000000e+01,4.807941666303468600e-03
5.303999999999999915e+01,3.699611120338256072e-03
5.307999999999999829e+01,5.839071100194925638e-03
5.311999999999999744e+01,3.999809478778360711e-03
5.315999999999999659e+01,5.733125575011620290e-03
5.320000000000000284e+01,4.624474923668689223e-03
5.324000000000000199e+01,4.408908832887719308e-03
5.328000000000000114e+01,4.518050002900458537e-03
5.332000000000000028e+01,4.464717900125569558e-03
5.335999999999999943e+01,3.680535224794779982e-03
5.339999999999999858e+01,5.250979155550942155e-03
5.343999999999999773e+01,4.141850252345582670e-03
5.347999999999999687e+01,3.195035395260783454e-03
5.352000000000000313e+01,5.496011762939389048e-03
5.356000000000000227e+01,3.980660760660104797e-03
5.360000000000000142e+01,2.708820761308709021e-03
5.364000000000000057e+01,3.629214216911255848e-03
5.367999999999999972e+01,5.117905867269630094e-03
5.371999999999999886e+01,4.333008959382009771e-03
5.375999999999999801e+01,4.684787736638875918e-03
5.379999999999999716e+01,3.737339276972975483e-03
5.384000000000000341e+01,3.033402201475801901e-03
5.388000000000000256e+01,2.654173339874393942e-03
5.392000000000000171e+01,4.061194547073330822e-03
5.396000000000000085e+01,4.412579070070799664e-03
5.400000000000000000e+01,4.845081699023706320e-03
5.403999999999999915e+01,3.085193044238629216e-03
5.407999999999999829e+01,5.303867399461105123e-03
5.411999999999999744e+01,5.492544130399702566e-03
5.415999999999999659e+01,3.976010365342202112e-03
5.420000000000000284e+01,4.326923880052926247e-03
5.424000000000000199e+01,5.976907374763629037e-03
5.428000000000000114e+01,4.947319369855685510e-03
5.432000000000000028e+01,5.460391770588723243e-03
5.435999999999999943e+01,4.755434590147841409e-03
5.439999999999999858e+01,5.836728240988954715e-03
5.443999999999999773e+01,4.725631243493459005e-03
5.447999999999999687e+01,4.426424010117279394e-03
5.452000000000000313e+01,4.939106604400564718e-03
5.456000000000000227e+01,5.289317895640475824e-03
5.460000000000000142e+01,3.365942026517416107e-03
5.464000000000000057e+01,2.660440006608795135e-03
5.467999999999999972e+01,3.578795730389306394e-03
5.471999999999999886e+01,5.715025430464526317e-03
5.475999999999999801e+01,4.765700562468199071e-03
5.479999999999999716e+01,5.277840096407592635e-03
5.484000000000000341e+01,2.948015487916447706e-03
5.488000000000000256e+01,5.083935757357093202e-03
5.492000000000000171e+01,5.027466140942778682e-03
5.496000000000000085e+01,3.915361428830431249e-03
5.500000000000000000e+01,5.157885864410538881e-03
5.503999999999999915e+01,3.964430306195375169e-03
5.507999999999999829e+01,5.612784619874412219e-03
5.511999999999999744e+01,3.850797872595485005e-03
5.515999999999999659e+01,4.362243760982663192e-03
5.520000000000000284e+01,5.360793492463974096e-03
5.524000000000000199e+01,5.060118274467477126e-03
5.528000000000000114e+01,4.596972897150100254e-03
5.532000000000000028e+01,5.595292747790226416e-03
5.535999999999999943e+01,5.619174904320613402e-03
5.539999999999999858e+01,4.506225897907568598e-03
5.543999999999999773e+01,5.341922907193931772e-03
5.547999999999999687e+01,4.634805049682570212e-03
5.552000000000000313e+01,4.333594777399538481e-03
5.556000000000000227e+01,3.301537427268197607e-03
5.560000000000000142e+01,4.299323113183720069e-03
5.564000000000000057e+01,5.459426276387247152e-03
5.567999999999999972e+01,6.619453448045100989e-03
5.571999999999999886e+01,5.099911407529263314e-03
5.575999999999999801e+01,3.093112905426540892e-03
5.579999999999999716e+01,5.552060742678766730e-03
5.584000000000000341e+01,4.681865428882434239e-03
5.588000000000000256e+01,7.059465088717620067e-03
5.592000000000000171e+01,4.483986400846247389e-03
5.596000000000000085e+01,5.156302813686685499e-03
5.600000000000000000e+01,5.503756678554887032e-03
5.603999999999999915e+01,5.851135123738642092e-03
5.607999999999999829e+01,5.467667317095878908e-03
5.611999999999999744e+01,3.784975958858330294e-03
5.615999999999999659e+01,4.456915590977231223e-03
5.620000000000000284e+01,5.047583291385334715e-03
5.624000000000000199e+01,4.257830864632149506e-03
5.628000000000000114e+01,3.468003399435344060e-03
5.632000000000000028e+01,5.925971606811586585e-03
5.635999999999999943e+01,4.567616892039574189e-03
5.639999999999999858e+01,6.132270912173222802e-03
5.643999999999999773e+01,6.722488953780847258e-03
5.647999999999999687e+01,5.932287249468024860e-03
5.652000000000000313e+01,5.142010887952403256e-03
5.656000000000000227e+01,5.326021127017086312e-03
5.660000000000000142e+01,4.860382706463954074e-03
5.664000000000000057e+01,4.800653650263000775e-03
5.667999999999999972e+01,5.390424320515120084e-03
5.671999999999999886e+01,5.005759457022168624e-03
5.675999999999999801e+01,6.244955641305523393e-03
5.679999999999999716e+01,5.860142289428778295e-03
5.684000000000000341e+01,5.231664490109605263e-03
5.688000000000000256e+01,5.821064098252580477e-03
5.692000000000000171e+01,5.517225256538093453e-03
5.696000000000000085e+01,5.213312456562332539e-03
5.700000000000000000e+01,5.315309592799999892e-03
5.703999999999999915e+01,5.985610261165045035e-03
5.707999999999999829e+01,6.249853330954672180e-03
5.711999999999999744e+01,4.890087372905299948e-03
5.715999999999999659e+01,4.585805734725230398e-03
5.720000000000000284e+01,7.042140569879737702e-03
5.724000000000000199e+01,5.113776517460626864e-03
5.728000000000000114e+01,4.403290507905044220e-03
5.732000000000000028e+01,6.047437331369890853e-03
5.735999999999999943e+01,5.986378742049665302e-03
5.739999999999999858e+01,5.600459828662035164e-03
5.743999999999999773e+01,4.889680654747122386e-03
5.747999999999999687e+01,5.640370139957152223e-03
5.752000000000000313e+01,5.903805959346369522e-03
5.756000000000000227e+01,5.355201111707235014e-03
5.760000000000000142e+01,5.456097451944328346e-03
5.764000000000000057e+01,4.826150018420266585e-03
5.767999999999999972e+01,5.008097432226548372e-03
5.771999999999999886e+01,7.625875080641551437e-03
5.775999999999999801e+01,6.833315861747679687e-03
5.779999999999999716e+01,5.066322824692477342e-03
5.784000000000000341e+01,4.598405486249625487e-03
5.788000000000000256e+01,5.997941273267671201e-03
5.792000000000000171e+01,4.880304875193437059e-03
5.796000000000000085e+01,6.036105560594931529e-03
5.800000000000000000e+01,4.025160058489120514e-03
5.803999999999999915e+01,5.180816194995360550e-03
5.807999999999999829e+01,5.199645425747402745e-03
5.811999999999999744e+01,4.650025177593764686e-03
5.815999999999999659e+01,6.130252032055806891e-03
5.820000000000000284e+01,6.311258639010235497e-03
5.824000000000000199e+01,4.868257997249521643e-03
5.828000000000000114e+01,5.861088479659474007e-03
5.832000000000000028e+01,5.067518308060749675e-03
5.835999999999999943e+01,4.273876402105554820e-03
5.839999999999999858e+01,5.834869044754528548e-03
5.843999999999999773e+01,7.152199781566576792e-03
5.847999999999999687e+01,5.871162456661365055e-03
5.852000000000000313e+01,6.538776040046156111e-03
5.856000000000000227e+01,5.419989350663091503e-03
5.860000000000000142e+01,6.655837527584883284e-03
5.864000000000000057e+01,5.049727598389217899e-03
5.867999999999999972e+01,5.717055896391758096e-03
5.871999999999999886e+01,5.003968006721571347e-03
5.875999999999999801e+01,5.671154043273811916e-03
5.879999999999999716e+01,5.120317551607416091e-03
5.884000000000000341e+01,8.629248397411873328e-03
5.888000000000000256e+01,5.967154104676272545e-03
5.892000000000000171e+01,7.608417575052527429e-03
5.896000000000000085e+01,6.245329915258608471e-03
5.900000000000000000e+01,6.018926264367219919e-03
5.903999999999999915e+01,4.655697232684930659e-03
5.907999999999999829e+01,3.860774973677053024e-03
5.911999999999999744e+01,6.070062536491129500e-03
5.915999999999999659e+01,7.548508740069271271e-03
5.920000000000000284e+01,6.590981558026456737e-03
5.924000000000000199e+01,5.470990507136393871e-03
5.928000000000000114e+01,7.436406298415734403e-03
5.932000000000000028e+01,5.910290934264658159e-03
5.935999999999999943e+01,5.683253683251177947e-03
5.939999999999999858e+01,5.212556051364081525e-03
5.943999999999999773e+01,6.122133425881766573e-03
5.947999999999999687e+01,6.138476417110803711e-03
5.952000000000000313e+01,6.317143049021217531e-03
5.956000000000000227e+01,3.978640100984981963e-03
5.960000000000000142e+01,5.456315399121481301e-03
5.964000000000000057e+01,5.309985672447668434e-03
5.967999999999999972e+01,5.731963671550332345e-03
5.971999999999999886e+01,6.235068862848127877e-03
5.975999999999999801e+01,5.438956284703679901e-03
5.979999999999999716e+01,6.104316051012176510e-03
5.984000000000000341e+01,6.444819369201647621e-03
5.988000000000000256e+01,7.353630730868293726e-03
5.992000000000000171e+01,6.638437512505596626e-03
5.996000000000000085e+01,7.465913658943281253e-03
