2.003999999999999915e+01,5.191211221920134095e-02
2.007999999999999829e+01,5.612108446570914649e-02
2.012000000000000099e+01,8.230875516676409986e-02
2.016000000000000014e+01,6.398855973840228417e-02
2.019999999999999929e+01,5.638280813207525305e-02
2.023999999999999844e+01,4.740303318596669757e-02
2.028000000000000114e+01,6.507249614045278185e-02
2.032000000000000028e+01,4.812465186116725302e-02
2.035999999999999943e+01,6.634291718528885495e-02
2.039999999999999858e+01,7.384606746148397738e-02
2.044000000000000128e+01,4.233610144759892419e-02
2.048000000000000043e+01,5.423437780616052750e-02
2.051999999999999957e+01,6.668178840928776219e-02
2.055999999999999872e+01,4.423714750484775832e-02
2.060000000000000142e+01,4.624383303081852636e-02
2.064000000000000057e+01,5.456914477847854550e-02
2.067999999999999972e+01,6.701517875367600519e-02
2.071999999999999886e+01,6.819661340537333527e-02
2.076000000000000156e+01,6.195977778632439509e-02
2.080000000000000071e+01,7.577845740536878760e-02
2.083999999999999986e+01,7.036513638961458539e-02
2.087999999999999901e+01,1.006673868247454084e-01
2.092000000000000171e+01,7.904382846262472673e-02
2.096000000000000085e+01,9.450952874422222094e-02
2.100000000000000000e+01,1.198654378904576157e-01
2.103999999999999915e+01,8.120706894161641709e-02
2.107999999999999829e+01,7.249477092250039556e-02
2.112000000000000099e+01,7.394741642977711860e-02
2.116000000000000014e+01,6.963020818087266306e-02
2.119999999999999929e+01,6.366421309430919662e-02
2.123999999999999844e+01,1.093485760611587060e-01
2.128000000000000114e+01,1.044808099475583035e-01
2.132000000000000028e+01,1.056569140338013413e-01
2.135999999999999943e+01,1.117779357888094155e-01
2.139999999999999858e+01,1.280638935941784129e-01
2.144000000000000128e+01,1.657790388784098345e-01
2.148000000000000043e+01,1.477220302925680573e-01
2.151999999999999957e+01,1.480720905261267428e-01
2.155999999999999872e+01,1.371575290080896681e-01
2.160000000000000142e+01,1.125057038785370750e-01
2.164000000000000057e+01,1.238441677735511448e-01
2.167999999999999972e+01,1.013895017199440418e-01
2.171999999999999886e+01,1.242662099910216977e-01
2.176000000000000156e+01,1.408235727543129534e-01
2.180000000000000071e+01,1.145214527946113031e-01
2.183999999999999986e+01,9.014212116416733811e-02
2.187999999999999901e+01,9.268672257990415164e-02
2.192000000000000171e+01,9.110987714198419407e-02
2.196000000000000085e+01,8.101577793010757145e-02
2.200000000000000000e+01,8.465819100351348880e-02
2.203999999999999915e+01,6.522224128122618148e-02
2.207999999999999829e+01,8.589763682198223171e-02
2.212000000000000099e+01,1.021768423032903272e-01
2.216000000000000014e+01,9.263030312720742232e-02
2.219999999999999929e+01,6.028013474918194475e-02
2.223999999999999844e+01,7.655818120100282842e-02
2.228000000000000114e+01,3.843774175150186517e-02
2.232000000000000028e+01,4.922025286160679886e-02
2.235999999999999943e+01,3.802334409505613022e-02
2.239999999999999858e+01,4.715664571218505796e-02
2.244000000000000128e+01,6.892749640347214934e-02
2.248000000000000043e+01,2.970614707497207588e-02
2.251999999999999957e+01,5.779517997254047385e-02
2.255999999999999872e+01,7.736694307608414645e-02
2.260000000000000142e+01,8.072877507608215708e-02
2.264000000000000057e+01,7.035331569644596994e-02
2.267999999999999972e+01,5.585638917106602180e-02
2.271999999999999886e+01,8.421816947834104283e-02
2.276000000000000156e+01,4.856562576634412820e-02
2.280000000000000071e+01,0.000000000000000000e+00
2.283999999999999986e+01,5.528488406289008839e-02
2.287999999999999901e+01,4.270911078173661446e-02
2.292000000000000171e+01,3.040766979910726822e-02
2.296000000000000085e+01,3.266692906695614629e-02
2.300000000000000000e+01,5.168479044342656065e-02
2.303999999999999915e+01,4.432740793486897313e-02
2.307999999999999829e+01,5.510231472776595113e-02
2.312000000000000099e+01,4.664516000960525904e-02
2.316000000000000014e+01,2.994545734311973226e-02
2.319999999999999929e+01,5.610444869323457512e-02
2.323999999999999844e+01,4.297551112718223792e-02
2.328000000000000114e+01,2.270297387186514387e-02
2.332000000000000028e+01,2.523326322803879848e-02
2.335999999999999943e+01,5.743482477190919172e-02
2.339999999999999858e+01,4.595264727529928955e-02
2.344000000000000128e+01,5.122906013926063762e-02
2.348000000000000043e+01,3.507549895397577000e-02
2.351999999999999957e+01,5.189006007359114186e-02
2.355999999999999872e+01,6.485786841713121753e-02
2.360000000000000142e+01,2.892191293056758927e-02
2.364000000000000057e+01,2.842671733680644103e-02
2.367999999999999972e+01,4.194272703790499074e-02
2.371999999999999886e+01,4.996355249629942652e-02
2.376000000000000156e+01,7.034715391893361924e-02
2.380000000000000071e+01,4.347541336605226237e-02
2.383999999999999986e+01,3.034013597024394493e-02
2.387999999999999901e+01,2.682025267697739704e-02
2.392000000000000171e+01,5.049898582742796266e-02
2.396000000000000085e+01,4.780245052874625145e-02
2.400000000000000000e+01,4.098441284017067393e-02
2.403999999999999915e+01,2.977013382792837240e-02
2.407999999999999829e+01,3.229231156473188341e-02
2.412000000000000099e+01,5.019937217718696554e-02
2.416000000000000014e+01,4.502801338970798678e-02
2.419999999999999929e+01,3.683409833538620753e-02
2.423999999999999844e+01,3.578292697964949309e-02
2.428000000000000114e+01,3.061024575798710137e-02
2.432000000000000028e+01,4.769088871616476710e-02
2.435999999999999943e+01,4.636365065244887201e-02
2.439999999999999858e+01,5.410231707567876580e-02
2.444000000000000128e+01,5.744473149519646604e-02
2.448000000000000043e+01,3.193922278960658473e-02
2.451999999999999957e+01,3.528074170227622069e-02
2.455999999999999872e+01,5.125975308486332288e-02
2.460000000000000142e+01,9.268624366874429754e-03
2.464000000000000057e+01,2.249935517690167253e-02
2.467999999999999972e+01,4.424650726630584979e-02
2.471999999999999886e+01,3.192571037297473741e-02
2.476000000000000156e+01,2.757185689147474000e-02
2.480000000000000071e+01,4.299867398184405165e-02
2.483999999999999986e+01,4.056707296580214228e-02
2.487999999999999901e+01,2.549707222494491249e-02
2.492000000000000171e+01,3.158142818078559649e-02
2.496000000000000085e+01,1.674663685484522506e-03
2.500000000000000000e+01,6.105724446144473322e-02
2.503999999999999915e+01,5.367806168418914198e-02
2.507999999999999829e+01,6.250794974778139945e-02
2.512000000000000099e+01,3.232459656476068671e-02
2.516000000000000014e+01,4.829673945533865392e-02
2.519999999999999929e+01,5.987261005011778464e-02
2.523999999999999844e+01,3.408366338888108721e-02
2.528000000000000114e+01,6.516498636219825169e-02
2.532000000000000028e+01,3.140770336664679141e-02
2.535999999999999943e+01,4.408064897043937475e-02
2.539999999999999858e+01,2.158667597234551275e-02
2.544000000000000128e+01,3.151129828339644529e-02
2.548000000000000043e+01,4.390808746682754726e-02
2.551999999999999957e+01,4.201803264275980748e-02
2.555999999999999872e+01,3.270957938739983001e-02
2.560000000000000142e+01,3.109330925000668849e-02
2.564000000000000057e+01,3.085025024990196291e-02
2.567999999999999972e+01,1.604560510451187583e-02
2.571999999999999886e+01,4.739644108065625694e-02
2.576000000000000156e+01,4.083297018518895760e-02
2.580000000000000071e+01,6.586387138951994846e-02
2.583999999999999986e+01,5.160677425738786211e-02
2.587999999999999901e+01,4.971239648525434957e-02
2.592000000000000171e+01,3.820170774363993577e-02
2.596000000000000085e+01,5.938433829287969451e-02
2.600000000000000000e+01,4.155370409940628562e-02
2.603999999999999915e+01,4.020685298043994577e-02
2.607999999999999829e+01,5.067324014991255593e-02
2.612000000000000099e+01,3.943484491607020248e-02
2.616000000000000014e+01,3.726230717697336797e-02
2.619999999999999929e+01,4.992512104575465987e-02
2.623999999999999844e+01,5.022423674333425375e-02
2.628000000000000114e+01,4.008281826208656001e-02
2.632000000000000028e+01,2.417140825207068217e-02
2.635999999999999943e+01,4.809649136284258053e-02
2.639999999999999858e+01,6.075682349346804567e-02
2.644000000000000128e+01,2.808490822065657852e-02
2.648000000000000043e+01,3.607369646192479240e-02
2.651999999999999957e+01,2.757771106943266923e-02
2.655999999999999872e+01,4.710448522966265150e-02
2.660000000000000142e+01,5.289386227780786681e-02
2.664000000000000057e+01,4.412162754855839669e-02
2.667999999999999972e+01,6.666900355723849592e-02
2.671999999999999886e+01,5.420823478868537666e-03
2.676000000000000156e+01,3.373667954532812152e-02
2.680000000000000071e+01,5.051303608582764088e-02
2.683999999999999986e+01,5.987096001888875946e-02
2.687999999999999901e+01,4.285353753848521186e-02
2.692000000000000171e+01,4.891358341493091955e-02
2.696000000000000085e+01,2.282878556076555973e-02
2.700000000000000000e+01,4.399838611506286939e-02
2.703999999999999915e+01,5.335374286960421764e-02
2.707999999999999829e+01,5.062011689061663572e-02
2.712000000000000099e+01,5.283125478773902789e-02
2.716000000000000014e+01,2.619439800344856156e-02
2.719999999999999929e+01,4.159191483799773437e-02
2.723999999999999844e+01,6.056050301580079981e-02
2.728000000000000114e+01,4.298843306666130792e-02
2.732000000000000028e+01,4.354853921049364057e-02
2.735999999999999943e+01,3.888810178897641329e-02
2.739999999999999858e+01,4.521665381444244652e-02
2.744000000000000128e+01,3.011512605821192040e-02
2.748000000000000043e+01,4.495949835097784453e-02
2.751999999999999957e+01,5.430858494060732122e-02
2.755999999999999872e+01,2.931490885340982261e-02
2.760000000000000142e+01,5.267456661768058629e-02
2.764000000000000057e+01,5.323044993138960346e-02
2.767999999999999972e+01,3.647731504190118018e-02
2.771999999999999886e+01,3.263632611573899500e-02
2.776000000000000156e+01,2.439899654148675046e-02
2.780000000000000071e+01,6.698763627059588222e-02
2.783999999999999986e+01,3.429756384734890251e-02
2.787999999999999901e+01,3.539971091381120122e-02
2.792000000000000171e+01,5.353506659010343061e-02
2.796000000000000085e+01,3.952555183567070529e-02
2.800000000000000000e+01,6.095668056154391473e-02
2.803999999999999915e+01,2.798916959343973956e-02
2.807999999999999829e+01,1.287907656045264755e-02
2.812000000000000099e+01,5.271601227331705608e-02
2.816000000000000014e+01,4.831960612162251173e-02
2.819999999999999929e+01,6.562694482178950406e-02
2.823999999999999844e+01,4.419569683675711458e-02
2.828000000000000114e+01,4.803978382256669094e-02
2.832000000000000028e+01,8.595081641580391840e-02
2.835999999999999943e+01,4.418731712033099196e-02
2.839999999999999858e+01,4.912870312162444242e-02
2.844000000000000128e+01,5.324532257374034461e-02
2.848000000000000043e+01,6.835090263671673994e-02
2.851999999999999957e+01,3.949786908886162434e-02
2.855999999999999872e+01,2.712855133122683490e-02
2.860000000000000142e+01,4.965038530229300140e-02
2.864000000000000057e+01,6.200635994803180978e-02
2.867999999999999972e+01,4.139323134165824591e-02
2.871999999999999886e+01,6.968288241416256690e-02
2.876000000000000156e+01,5.731076785702914761e-02
2.880000000000000071e+01,3.065172171602376094e-02
2.883999999999999986e+01,6.773129680137793263e-02
2.887999999999999901e+01,6.469857878461766909e-02
2.892000000000000171e+01,5.699475128186706763e-02
2.896000000000000085e+01,7.181886193619670122e-02
2.900000000000000000e+01,8.554345322351641911e-02
2.903999999999999915e+01,5.118834902941898218e-02
2.907999999999999829e+01,8.689083056632808388e-02
2.912000000000000099e+01,9.896528453920161450e-02
2.916000000000000014e+01,9.098330213502478503e-02
2.919999999999999929e+01,9.371552325185834864e-02
2.923999999999999844e+01,8.985346127828586216e-02
2.928000000000000114e+01,8.544134819320849117e-02
2.932000000000000028e+01,9.723819274049644301e-02
2.935999999999999943e+01,9.227544995993275379e-02
2.939999999999999858e+01,7.879525475656569411e-02
2.944000000000000128e+01,1.109209656187731263e-01
2.948000000000000043e+01,1.056817460164824057e-01
2.951999999999999957e+01,1.150030515119234154e-01
2.955999999999999872e+01,1.213016576279118824e-01
2.960000000000000142e+01,1.468313304236866790e-01
2.964000000000000057e+01,1.531287676236618711e-01
2.967999999999999972e+01,1.531066478509493789e-01
2.971999999999999886e+01,1.822061547216732025e-01
2.976000000000000156e+01,1.758638887122461192e-01
2.980000000000000071e+01,1.964453442840987663e-01
2.983999999999999986e+01,2.236199183023621639e-01
2.987999999999999901e+01,2.334854153771777907e-01
2.992000000000000171e+01,2.551640482119953979e-01
2.996000000000000085e+01,2.795894661684519278e-01
3.000000000000000000e+01,3.298396489030918088e-01
3.003999999999999915e+01,3.064594879397359306e-01
3.007999999999999829e+01,3.819843619129584811e-01
3.012000000000000099e+01,3.761862298106599667e-01
3.016000000000000014e+01,4.365993244824869501e-01
3.019999999999999929e+01,4.437126732511642579e-01
3.023999999999999844e+01,4.964319067253250006e-01
3.028000000000000114e+01,5.771738004277845446e-01
3.032000000000000028e+01,6.455518870225782635e-01
3.035999999999999943e+01,6.716197380729413968e-01
3.039999999999999858e+01,7.221386538926002352e-01
3.044000000000000128e+01,7.490295069040736609e-01
3.048000000000000043e+01,8.473515975952360391e-01
3.051999999999999957e+01,8.918244581076756328e-01
3.055999999999999872e+01,9.972885152645948326e-01
3.060000000000000142e+01,1.000000000000000000e+00
3.064000000000000057e+01,9.299053386146465261e-01
3.067999999999999972e+01,8.455236954492070245e-01
3.071999999999999886e+01,7.281728945634232675e-01
3.076000000000000156e+01,7.001112851562451000e-01
3.080000000000000071e+01,5.772644960948152271e-01
3.083999999999999986e+01,5.373879254633078251e-01
3.087999999999999901e+01,5.098739406912301542e-01
3.092000000000000171e+01,4.820845988852295871e-01
3.096000000000000085e+01,4.380851027627317706e-01
3.100000000000000000e+01,3.732049075376691616e-01
3.103999999999999915e+01,3.396442066380401803e-01
3.107999999999999829e+01,3.305345523516293182e-01
3.112000000000000099e+01,2.931262733828919886e-01
3.116000000000000014e+01,2.570910581668149897e-01
3.119999999999999929e+01,2.493532164807006346e-01
3.123999999999999844e+01,2.182620284920779863e-01
3.128000000000000114e+01,2.061271244612819797e-01
3.132000000000000028e+01,2.036074158841811865e-01
3.135999999999999943e+01,1.837785908474641738e-01
3.139999999999999858e+01,1.562564735850216213e-01
3.144000000000000128e+01,1.512622282633772630e-01
3.148000000000000043e+01,1.138482806608388104e-01
3.151999999999999957e+01,1.170949020038064142e-01
3.155999999999999872e+01,1.244619550770730970e-01
3.160000000000000142e+01,1.065524871754114783e-01
3.164000000000000057e+01,1.163909053241255348e-01
3.167999999999999972e+01,1.028759654222812653e-01
3.171999999999999886e+01,9.320671511294961742e-02
3.176000000000000156e+01,1.090874447238323469e-01
3.180000000000000071e+01,9.337267710709011570e-02
3.183999999999999986e+01,7.436041136886724356e-02
3.187999999999999901e+01,1.146908798363630855e-01
3.192000000000000171e+01,7.204986697352241953e-02
3.196000000000000085e+01,5.550830442241033724e-02
3.200000000000000000e+01,6.479145324925386640e-02
3.203999999999999915e+01,7.489816660112068314e-02
3.207999999999999829e+01,6.714626853775250426e-02
3.211999999999999744e+01,6.516321444723026379e-02
3.215999999999999659e+01,4.669523613430606734e-02
3.220000000000000284e+01,6.916254647657886501e-02
3.224000000000000199e+01,4.877009534667055279e-02
3.228000000000000114e+01,6.711502780980260763e-02
3.232000000000000028e+01,3.628122575207037848e-02
3.235999999999999943e+01,4.363532941983246094e-02
3.239999999999999858e+01,5.291193946365073397e-02
3.243999999999999773e+01,3.361515171522379969e-02
3.247999999999999687e+01,4.756098490444574112e-02
3.252000000000000313e+01,5.765982608457289466e-02
3.256000000000000227e+01,2.215151859079813462e-02
3.260000000000000142e+01,5.285437272287106525e-02
3.264000000000000057e+01,5.196170719922338366e-02
3.267999999999999972e+01,2.634196759606133656e-02
3.271999999999999886e+01,2.819534734138375368e-02
3.275999999999999801e+01,5.092813658874332378e-02
3.279999999999999716e+01,5.223070294179628370e-02
3.284000000000000341e+01,3.952096770828586458e-02
3.288000000000000256e+01,3.093162896092429073e-02
3.292000000000000171e+01,5.915649165815121957e-02
3.296000000000000085e+01,6.210479706829510199e-02
3.300000000000000000e+01,5.131553448562589659e-02
3.303999999999999915e+01,5.288880009014043648e-02
3.307999999999999829e+01,4.099923343160111894e-02
3.311999999999999744e+01,6.070384342802721128e-02
3.315999999999999659e+01,6.227507530732689922e-02
3.320000000000000284e+01,5.175716104840139692e-02
3.324000000000000199e+01,3.986487634821499898e-02
3.328000000000000114e+01,4.637934647409069217e-02
3.332000000000000028e+01,3.723307500273777271e-02
3.335999999999999943e+01,3.852615811415321251e-02
3.339999999999999858e+01,4.861016754572188014e-02
3.343999999999999773e+01,5.292399534371203251e-02
3.347999999999999687e+01,3.058756264171776443e-02
3.352000000000000313e+01,4.341688816963308606e-02
3.356000000000000227e+01,3.893703849768170161e-02
3.360000000000000142e+01,3.006069224897583644e-02
3.364000000000000057e+01,5.799852822077645326e-02
3.367999999999999972e+01,4.307656427223216511e-02
3.371999999999999886e+01,5.727612016666897010e-02
3.375999999999999801e+01,3.630853424626800940e-02
3.379999999999999716e+01,6.918887395199850576e-02
3.384000000000000341e+01,5.014305989500730115e-02
3.388000000000000256e+01,3.961342147634632632e-02
3.392000000000000171e+01,2.386306433958905113e-02
3.396000000000000085e+01,4.135528862431211289e-02
3.400000000000000000e+01,5.994576296760392026e-02
3.403999999999999915e+01,5.683124344267947992e-02
3.407999999999999829e+01,5.701287476646210023e-02
3.411999999999999744e+01,5.032535483751500449e-02
3.415999999999999659e+01,3.237287673553867345e-02
3.420000000000000284e+01,6.854305144541672501e-02
3.424000000000000199e+01,4.344597427640077558e-02
3.428000000000000114e+01,5.461358650828159605e-02
3.432000000000000028e+01,7.072577037545281498e-02
3.435999999999999943e+01,6.568242756190829923e-02
3.439999999999999858e+01,5.844046973766560404e-02
3.443999999999999773e+01,7.097892509619528612e-02
3.447999999999999687e+01,7.692295745572279297e-02
3.452000000000000313e+01,7.215149776171697615e-02
3.456000000000000227e+01,9.183099176453318746e-02
3.460000000000000142e+01,8.650862255784824706e-02
3.464000000000000057e+01,6.937180663054259844e-02
3.467999999999999972e+01,8.163122277987730491e-02
3.471999999999999886e+01,9.801098628715154693e-02
3.475999999999999801e+01,8.883940658136943447e-02
3.479999999999999716e+01,1.104377450770562957e-01
3.484000000000000341e+01,1.141773984651940216e-01
3.488000000000000256e+01,1.126963075031261197e-01
3.492000000000000171e+01,1.249513838608703742e-01
3.496000000000000085e+01,1.289635972089471505e-01
3.500000000000000000e+01,1.324256067208681720e-01
3.503999999999999915e+01,1.562174891270301791e-01
3.507999999999999829e+01,1.541832819103310104e-01
3.511999999999999744e+01,1.658852366734211159e-01
3.515999999999999659e+01,1.866528086302326472e-01
3.520000000000000284e+01,2.118154529946975617e-01
3.524000000000000199e+01,2.163720229138834106e-01
3.528000000000000114e+01,2.346647505408404333e-01
3.532000000000000028e+01,2.438903919487835359e-01
3.535999999999999943e+01,2.808638200826791831e-01
3.539999999999999858e+01,2.793732082243290948e-01
3.543999999999999773e+01,3.031577401640063174e-01
3.547999999999999687e+01,3.560637449544643562e-01
3.552000000000000313e+01,3.611646191125362781e-01
3.556000000000000227e+01,3.742321483212102118e-01
3.560000000000000142e+01,3.752104673113856870e-01
3.564000000000000057e+01,3.943207402495863545e-01
3.567999999999999972e+01,3.936491405917633135e-01
3.571999999999999886e+01,3.737451430014486764e-01
3.575999999999999801e+01,3.318613677529538286e-01
3.579999999999999716e+01,2.710199303017266637e-01
3.584000000000000341e+01,2.131998588412379325e-01
3.588000000000000256e+01,2.215908614302236346e-01
3.592000000000000171e+01,1.780556547202510054e-01
3.596000000000000085e+01,1.630924323134678999e-01
3.600000000000000000e+01,1.357652511423723118e-01
3.603999999999999915e+01,1.273942268365617081e-01
3.607999999999999829e+01,1.297372223549783377e-01
3.611999999999999744e+01,1.136720228581632880e-01
3.615999999999999659e+01,9.678185068729212859e-02
3.620000000000000284e+01,9.225412233124516415e-02
3.624000000000000199e+01,8.745089489666972582e-02
3.628000000000000114e+01,7.577845853711887014e-02
3.632000000000000028e+01,6.685263748648329063e-02
3.635999999999999943e+01,5.572814909292646973e-02
3.639999999999999858e+01,4.377868161728624974e-02
3.643999999999999773e+01,6.424751574953878330e-02
3.647999999999999687e+01,5.971443647607633382e-02
3.652000000000000313e+01,5.105952052729536422e-02
3.656000000000000227e+01,6.822919420395115453e-02
3.660000000000000142e+01,6.012221340510973122e-02
3.664000000000000057e+01,4.377232474040957527e-02
3.667999999999999972e+01,6.176389633595416595e-02
3.671999999999999886e+01,7.371046085577846740e-02
3.675999999999999801e+01,6.340248315154016490e-02
3.679999999999999716e+01,3.660945733637181732e-02
3.684000000000000341e+01,5.514740214016748687e-02
3.688000000000000256e+01,5.417818017357119847e-02
3.692000000000000171e+01,4.469130499931603384e-02
3.696000000000000085e+01,6.954588260927363486e-02
3.700000000000000000e+01,5.209004738604533502e-02
3.703999999999999915e+01,7.062409000563130146e-02
3.707999999999999829e+01,7.624466929324515141e-02
3.711999999999999744e+01,5.081908504016540568e-02
3.715999999999999659e+01,3.995382189594815642e-02
3.720000000000000284e+01,5.518786915486328243e-02
3.724000000000000199e+01,5.311264295749298231e-02
3.728000000000000114e+01,3.153023930968524430e-02
3.732000000000000028e+01,5.390510413594470918e-02
3.735999999999999943e+01,7.627917784531675072e-02
3.739999999999999858e+01,7.639869224255328717e-02
3.743999999999999773e+01,6.772580168230325770e-02
3.747999999999999687e+01,7.498691301572152357e-02
3.752000000000000313e+01,1.066988990136250731e-01
3.756000000000000227e+01,9.582571936051059724e-02
3.760000000000000142e+01,1.366024609469476125e-01
3.764000000000000057e+01,1.836973748531394446e-01
3.767999999999999972e+01,2.376599357426182613e-01
3.771999999999999886e+01,2.754121618228310142e-01
3.775999999999999801e+01,2.771729256904453820e-01
3.779999999999999716e+01,2.805813138877327195e-01
3.784000000000000341e+01,2.532182571860130960e-01
3.788000000000000256e+01,2.132164536579986835e-01
3.792000000000000171e+01,1.685433003429697152e-01
3.796000000000000085e+01,1.463978448839968194e-01
3.800000000000000000e+01,1.459558726157702546e-01
3.803999999999999915e+01,1.051266248066186071e-01
3.807999999999999829e+01,1.011114406694680751e-01
3.811999999999999744e+01,7.786379451955306730e-02
3.815999999999999659e+01,7.549541369106078925e-02
3.820000000000000284e+01,5.499352017686864186e-02
3.824000000000000199e+01,5.317298692194271509e-02
3.828000000000000114e+01,6.893486139520457745e-02
3.832000000000000028e+01,5.420001601917316669e-02
3.835999999999999943e+01,5.017912959110961552e-02
3.839999999999999858e+01,5.165218159340895926e-02
3.843999999999999773e+01,2.784852999200177273e-02
3.847999999999999687e+01,5.267265961059314217e-02
3.852000000000000313e+01,3.298843288567814003e-02
3.856000000000000227e+01,5.753617939245758012e-02
3.860000000000000142e+01,7.686308222460817852e-02
3.864000000000000057e+01,5.058267404616496876e-02
3.867999999999999972e+01,4.573099303662232079e-02
3.871999999999999886e+01,4.115322246380579557e-02
3.875999999999999801e+01,5.443258466889103891e-02
3.879999999999999716e+01,5.589738908088208447e-02
3.884000000000000341e+01,5.928452792019637402e-02
3.888000000000000256e+01,3.162545622661680489e-02
3.892000000000000171e+01,3.610988205887942504e-02
3.896000000000000085e+01,4.086821191984105206e-02
3.900000000000000000e+01,5.084572632532888270e-02
3.903999999999999915e+01,3.527178324127330789e-02
3.907999999999999829e+01,3.535706146493552970e-02
3.911999999999999744e+01,2.939726853260441267e-02
3.915999999999999659e+01,5.173463659733017889e-02
3.920000000000000284e+01,4.577316424280991614e-02
3.924000000000000199e+01,5.739407398436836144e-02
3.928000000000000114e+01,4.318878196258763708e-02
3.932000000000000028e+01,4.656586990087650119e-02
3.935999999999999943e+01,3.730417149670216259e-02
3.939999999999999858e+01,5.936174420501019039e-02
3.943999999999999773e+01,5.586784874372927034e-02
3.947999999999999687e+01,4.770256184325625398e-02
3.952000000000000313e+01,2.470058140215441317e-02
3.956000000000000227e+01,6.104113010989725002e-02
3.960000000000000142e+01,5.314803150377930829e-02
3.964000000000000057e+01,5.899097419293627964e-02
3.967999999999999972e+01,4.670036468022498860e-02
3.971999999999999886e+01,5.803635749444326086e-02
3.975999999999999801e+01,5.013984450771039741e-02
3.979999999999999716e+01,6.449624238305587398e-02
3.984000000000000341e+01,5.440011287184069039e-02
3.988000000000000256e+01,5.968844544248387562e-02
3.992000000000000171e+01,7.624017104045414939e-02
3.996000000000000085e+01,6.366882232978683664e-02
4.000000000000000000e+01,8.269146657730183647e-02
4.003999999999999915e+01,7.726157809823355760e-02
4.007999999999999829e+01,7.292977734104200138e-02
4.011999999999999744e+01,7.189396616387019878e-02
4.015999999999999659e+01,9.475948343134643626e-02
4.020000000000000284e+01,1.019640754048110609e-01
4.024000000000000199e+01,1.154867702777345184e-01
4.028000000000000114e+01,1.647245186193352640e-01
4.032000000000000028e+01,1.801686393221938187e-01
4.035999999999999943e+01,2.464383939749845986e-01
4.039999999999999858e+01,3.550169076708812876e-01
4.043999999999999773e+01,4.407913051547597272e-01
4.047999999999999687e+01,5.018384202982363318e-01
4.052000000000000313e+01,5.637088735497711722e-01
4.056000000000000227e+01,5.640371683119244084e-01
4.060000000000000142e+01,5.520013814892417159e-01
4.064000000000000057e+01,4.806213369673157931e-01
4.067999999999999972e+01,4.136362185364196309e-01
4.071999999999999886e+01,3.554418309808436982e-01
4.075999999999999801e+01,3.035655324406675293e-01
4.079999999999999716e+01,2.514136130694439863e-01
4.084000000000000341e+01,2.088766349668322309e-01
4.088000000000000256e+01,2.034283836416716507e-01
4.092000000000000171e+01,1.586917313423318321e-01
4.096000000000000085e+01,1.532417066105815628e-01
4.100000000000000000e+01,1.159212011443908480e-01
4.103999999999999915e+01,1.200852240359279455e-01
4.107999999999999829e+01,1.160062205131012630e-01
4.111999999999999744e+01,9.269467487716846754e-02
4.115999999999999659e+01,8.009701342888500553e-02
4.120000000000000284e+01,7.683954577140392206e-02
4.124000000000000199e+01,5.544848425987698032e-02
4.128000000000000114e+01,7.883879908727188524e-02
4.132000000000000028e+01,9.013975097151739890e-02
4.135999999999999943e+01,6.380071732814442120e-02
4.139999999999999858e+01,5.449453237706734093e-02
4.143999999999999773e+01,6.112224358720785150e-02
4.147999999999999687e+01,7.571645178327683634e-02
4.152000000000000313e+01,4.360432060935057197e-02
4.156000000000000227e+01,5.929567482176700821e-02
4.160000000000000142e+01,7.526086257458204642e-02
4.164000000000000057e+01,4.946498933722003055e-02
4.167999999999999972e+01,5.883465645683895462e-02
4.171999999999999886e+01,5.748863928210522223e-02
4.175999999999999801e+01,6.081225722804679129e-02
4.179999999999999716e+01,7.759712093124906951e-02
4.184000000000000341e+01,7.789680195494788628e-02
4.188000000000000256e+01,5.841444484191738590e-02
4.192000000000000171e+01,6.860286436247177433e-02
4.196000000000000085e+01,7.714194275100456910e-02
4.200000000000000000e+01,5.133787291306724648e-02
4.203999999999999915e+01,4.009399388743712517e-02
4.207999999999999829e+01,6.593880959912151729e-02
4.211999999999999744e+01,4.974781363880583646e-02
4.215999999999999659e+01,5.031490821293113647e-02
4.220000000000000284e+01,4.758422805239703735e-02
4.224000000000000199e+01,4.347893714957788008e-02
4.228000000000000114e+01,4.981276266451210855e-02
4.232000000000000028e+01,3.416663536851946570e-02
4.235999999999999943e+01,4.599337003191411588e-02
4.239999999999999858e+01,2.430115938609838169e-02
4.243999999999999773e+01,3.914815813401930494e-02
4.247999999999999687e+01,2.432253955747897683e-02
4.252000000000000313e+01,2.598026403757018252e-02
4.256000000000000227e+01,3.725288386207756264e-02
4.260000000000000142e+01,2.105078608425745706e-02
4.264000000000000057e+01,3.918998943400375801e-02
4.267999999999999972e+01,5.622930815918338737e-02
4.271999999999999886e+01,3.480439144728444956e-02
4.275999999999999801e+01,3.343440363897941248e-02
4.279999999999999716e+01,2.959083867325203870e-02
4.284000000000000341e+01,3.838427809936170720e-02
4.288000000000000256e+01,3.426409933283921377e-02
4.292000000000000171e+01,2.876929166795433312e-02
4.296000000000000085e+01,3.096620360706105191e-02
4.300000000000000000e+01,4.689906712906032754e-02
4.303999999999999915e+01,2.079609441495489444e-02
4.307999999999999829e+01,4.249656650301932709e-02
4.311999999999999744e+01,3.479914204431790864e-02
4.315999999999999659e+01,1.995758709808969147e-02
4.320000000000000284e+01,3.506151247506909818e-02
4.324000000000000199e+01,3.532864498699640060e-02
4.328000000000000114e+01,4.136432349849972212e-02
4.332000000000000028e+01,4.767378962620574812e-02
4.335999999999999943e+01,3.420117810101415412e-02
4.339999999999999858e+01,4.215716772018584385e-02
4.343999999999999773e+01,2.950686395314539023e-02
4.347999999999999687e+01,3.691146986561712195e-02
4.352000000000000313e+01,4.239195512812125172e-02
4.356000000000000227e+01,4.897043519610619344e-02
4.360000000000000142e+01,3.906368559238723032e-02
4.364000000000000057e+01,4.179391902041441204e-02
4.367999999999999972e+01,3.023682356687614273e-02
4.371999999999999886e+01,3.214092260638018450e-02
4.375999999999999801e+01,4.311040921862690362e-02
4.379999999999999716e+01,2.742935978571486855e-02
4.384000000000000341e+01,5.158433675560151338e-02
4.388000000000000256e+01,4.222032890010930101e-02
4.392000000000000171e+01,1.609634496310839366e-02
4.396000000000000085e+01,2.156624825183943439e-02
4.400000000000000000e+01,2.208990155109542830e-02
4.403999999999999915e+01,3.085472134975699235e-02
4.407999999999999829e+01,1.763954134529142209e-02
4.411999999999999744e+01,4.371090453605572940e-02
4.415999999999999659e+01,2.444954719736649323e-02
4.420000000000000284e+01,2.331991525372844459e-02
4.424000000000000199e+01,4.361886202635809756e-02
4.428000000000000114e+01,4.276201725314310309e-02
4.432000000000000028e+01,3.558522461757460120e-02
4.435999999999999943e+01,2.813271609855367422e-02
4.439999999999999858e+01,2.617398580921290185e-02
4.443999999999999773e+01,1.240054713813615490e-02
4.447999999999999687e+01,3.901259351332209135e-02
4.452000000000000313e+01,3.924882248503581972e-02
4.456000000000000227e+01,4.113249529365341911e-02
4.460000000000000142e+01,3.944359142156991099e-02
4.464000000000000057e+01,3.747896419000212170e-02
4.467999999999999972e+01,3.496387466517702353e-02
4.471999999999999886e+01,4.893206945673320152e-02
4.475999999999999801e+01,4.284341134946387936e-02
4.479999999999999716e+01,4.334747225490295786e-02
4.484000000000000341e+01,3.341050342740280871e-02
4.488000000000000256e+01,4.545157195963445140e-02
4.492000000000000171e+01,4.705160862291775381e-02
4.496000000000000085e+01,5.771700081880718619e-02
4.500000000000000000e+01,5.849083474127599047e-02
4.503999999999999915e+01,4.854889572501432798e-02
4.507999999999999829e+01,3.640805654083922177e-02
4.511999999999999744e+01,4.926736483182146686e-02
4.515999999999999659e+01,5.388353777197544409e-02
4.520000000000000284e+01,6.179556465557114325e-02
4.524000000000000199e+01,5.761812393157141748e-02
4.528000000000000114e+01,5.426389422308826316e-02
4.532000000000000028e+01,6.052448616670719206e-02
4.535999999999999943e+01,6.788302485560203381e-02
4.539999999999999858e+01,3.897515947726074015e-02
4.543999999999999773e+01,5.951910308343126566e-02
4.547999999999999687e+01,6.385250468745252983e-02
4.552000000000000313e+01,5.774485840245718871e-02
4.556000000000000227e+01,7.059311479766340602e-02
4.560000000000000142e+01,8.261614646973922116e-02
4.564000000000000057e+01,7.485703961265792461e-02
4.567999999999999972e+01,6.380006510452099211e-02
4.571999999999999886e+01,8.845799881644224316e-02
4.575999999999999801e+01,7.437687805717040079e-02
4.579999999999999716e+01,6.798740107356701645e-02
4.584000000000000341e+01,6.983904252916421640e-02
4.588000000000000256e+01,6.976650032252544598e-02
4.592000000000000171e+01,5.897816168105608076e-02
4.596000000000000085e+01,7.401416168395370809e-02
4.600000000000000000e+01,6.707011061950574060e-02
4.603999999999999915e+01,6.507031826501437355e-02
4.607999999999999829e+01,5.537684172712707686e-02
4.611999999999999744e+01,5.007814603165043621e-02
4.615999999999999659e+01,6.648271565399151151e-02
4.620000000000000284e+01,5.815985021127976357e-02
4.624000000000000199e+01,4.956121868890168980e-02
4.628000000000000114e+01,5.332476184420080478e-02
4.632000000000000028e+01,3.373455605927568740e-02
4.635999999999999943e+01,4.793607634595670186e-02
4.639999999999999858e+01,4.592703006638376023e-02
4.643999999999999773e+01,4.116957157520573229e-02
4.647999999999999687e+01,3.586160273056557962e-02
4.652000000000000313e+01,2.972838459869026409e-02
4.656000000000000227e+01,3.513312007115498153e-02
4.660000000000000142e+01,4.932842942227079475e-02
4.664000000000000057e+01,3.055415598723057805e-02
4.667999999999999972e+01,3.650525050940176680e-02
4.671999999999999886e+01,3.119105150511440605e-02
4.675999999999999801e+01,4.043691728859706569e-02
4.679999999999999716e+01,3.759327381230689186e-02
4.684000000000000341e+01,2.897909092091324051e-02
4.688000000000000256e+01,4.069446479441315989e-02
4.692000000000000171e+01,5.295826802947465467e-02
4.696000000000000085e+01,2.098822743783776770e-02
4.700000000000000000e+01,4.918473094350434005e-02
4.703999999999999915e+01,1.748733013766244626e-02
4.707999999999999829e+01,5.722072378962084899e-02
4.711999999999999744e+01,4.585182269865174798e-02
4.715999999999999659e+01,4.711981065502809929e-02
4.720000000000000284e+01,3.849618159773351284e-02
4.724000000000000199e+01,3.976206079409094069e-02
4.728000000000000114e+01,3.635634029036857728e-02
4.732000000000000028e+01,4.284012590428919881e-02
4.735999999999999943e+01,3.228910572254119898e-02
4.739999999999999858e+01,5.855190036773395140e-02
4.743999999999999773e+01,5.459246952436398043e-02
4.747999999999999687e+01,5.118145309049185188e-02
4.752000000000000313e+01,2.826298579701705047e-02
4.756000000000000227e+01,1.825613473661062691e-02
4.760000000000000142e+01,2.967777268008963201e-02
4.764000000000000057e+01,2.076774296264699560e-02
4.767999999999999972e+01,3.520936517345976680e-02
4.771999999999999886e+01,2.739615252696264366e-02
4.775999999999999801e+01,4.815460912231212670e-02
4.779999999999999716e+01,3.319607330168926340e-02
4.784000000000000341e+01,4.186392300307203301e-02
4.788000000000000256e+01,4.448646765546454551e-02
4.792000000000000171e+01,4.600898777469418499e-02
4.796000000000000085e+01,4.258515217199825703e-02
4.800000000000000000e+01,2.679703740362437969e-02
4.803999999999999915e+01,3.628373001184402591e-02
4.807999999999999829e+01,5.043988899601975495e-02
4.811999999999999744e+01,3.547275579862916445e-02
4.815999999999999659e+01,5.209939768649249348e-02
4.820000000000000284e+01,4.427328897484386627e-02
4.824000000000000199e+01,3.534714718599594324e-02
4.828000000000000114e+01,5.361897142609327316e-02
4.832000000000000028e+01,4.359171174190683978e-02
4.835999999999999943e+01,5.581713436682465834e-02
4.839999999999999858e+01,3.287502428723870079e-02
4.843999999999999773e+01,3.465823517266385101e-02
4.847999999999999687e+01,3.534140657286234666e-02
4.852000000000000313e+01,4.399088699018817439e-02
4.856000000000000227e+01,3.588026743747732561e-02
4.860000000000000142e+01,3.930754702087429359e-02
4.864000000000000057e+01,3.696423912896307923e-02
4.867999999999999972e+01,4.176302238485555401e-02
4.871999999999999886e+01,3.227434219060917181e-02
4.875999999999999801e+01,5.300573173270618083e-02
4.879999999999999716e+01,5.532858770212858296e-02
4.884000000000000341e+01,5.352927805083063789e-02
4.888000000000000256e+01,5.145413183156580944e-02
4.892000000000000171e+01,4.388312852672931336e-02
4.896000000000000085e+01,3.960787877290661285e-02
4.900000000000000000e+01,4.329892522015658246e-02
4.903999999999999915e+01,6.017628625007498400e-02
4.907999999999999829e+01,5.644720330513936651e-02
4.911999999999999744e+01,5.409070457882025895e-02
4.915999999999999659e+01,6.601946869422969932e-02
4.920000000000000284e+01,5.953968855691901818e-02
4.924000000000000199e+01,6.130093607842215103e-02
4.928000000000000114e+01,5.481893824462820419e-02
4.932000000000000028e+01,6.729274269860799351e-02
4.935999999999999943e+01,5.970957143323893379e-02
4.939999999999999858e+01,6.338954007811817282e-02
4.943999999999999773e+01,5.525466684069251649e-02
4.947999999999999687e+01,5.343764979367427587e-02
4.952000000000000313e+01,6.425745878173300119e-02
4.956000000000000227e+01,7.205403438806309846e-02
4.960000000000000142e+01,4.935358896781631005e-02
4.964000000000000057e+01,6.374163643202382379e-02
4.967999999999999972e+01,5.175372872017178910e-02
4.971999999999999886e+01,4.086365134109959385e-02
4.975999999999999801e+01,6.458942285055209453e-02
4.979999999999999716e+01,6.248871171146826858e-02
4.984000000000000341e+01,6.533215782190877896e-02
4.988000000000000256e+01,6.240498334889984372e-02
4.992000000000000171e+01,4.464083765407859256e-02
4.996000000000000085e+01,5.901989471584332542e-02
5.000000000000000000e+01,5.663881335940744444e-02
5.003999999999999915e+01,6.139978683862061526e-02
5.007999999999999829e+01,8.319337725314193688e-02
5.011999999999999744e+01,8.163311726700660242e-02
5.015999999999999659e+01,1.080949867109079199e-01
5.020000000000000284e+01,8.812502289359461227e-02
5.024000000000000199e+01,7.639606003498132514e-02
5.028000000000000114e+01,9.076605834201192935e-02
5.032000000000000028e+01,1.018380651094590306e-01
5.035999999999999943e+01,9.532571024935937443e-02
5.039999999999999858e+01,1.091428181697526589e-01
5.043999999999999773e+01,1.204861449438542204e-01
5.047999999999999687e+01,1.224872428594483836e-01
5.052000000000000313e+01,1.341030235865528497e-01
5.056000000000000227e+01,1.361018354533724550e-01
5.060000000000000142e+01,1.334289589757345351e-01
5.064000000000000057e+01,1.543823932597835624e-01
5.067999999999999972e+01,1.445640398153644202e-01
5.071999999999999886e+01,1.548004027416334527e-01
5.075999999999999801e+01,1.826188401786701110e-01
5.079999999999999716e+01,1.846107682670568018e-01
5.084000000000000341e+01,2.047342444617390178e-01
5.088000000000000256e+01,2.157902189836367057e-01
5.092000000000000171e+01,2.317903219189358932e-01
5.096000000000000085e+01,2.378987074481361819e-01
5.100000000000000000e+01,2.519733357781814842e-01
5.103999999999999915e+01,2.470898949957604229e-01
5.107999999999999829e+01,2.210504811067210418e-01
5.111999999999999744e+01,2.175384137002401852e-01
5.115999999999999659e+01,2.173220411045227729e-01
5.120000000000000284e+01,1.888065076881939031e-01
5.124000000000000199e+01,1.874888612684733613e-01
5.128000000000000114e+01,1.614436441471219785e-01
5.132000000000000028e+01,1.543541759133167934e-01
5.135999999999999943e+01,1.373729795933671949e-01
5.139999999999999858e+01,1.355011999041965953e-01
5.143999999999999773e+01,1.297819230397781187e-01
5.147999999999999687e+01,1.166435556771175802e-01
5.152000000000000313e+01,1.068008735131795173e-01
5.156000000000000227e+01,1.068475842584017815e-01
5.160000000000000142e+01,8.546357014717820277e-02
5.164000000000000057e+01,9.127743235251732645e-02
5.167999999999999972e+01,9.104588804843383176e-02
5.171999999999999886e+01,8.614262549576544303e-02
5.175999999999999801e+01,9.305191557261366375e-02
5.179999999999999716e+01,8.375049490259345308e-02
5.184000000000000341e+01,8.296477033685963065e-02
5.188000000000000256e+01,5.717672118365808159e-02
5.192000000000000171e+01,8.138978372976794773e-02
5.196000000000000085e+01,6.878679132435829013e-02
5.200000000000000000e+01,6.332580142237462240e-02
5.203999999999999915e+01,6.775419161349668928e-02
5.207999999999999829e+01,6.036766943401342123e-02
5.211999999999999744e+01,6.369473880893221363e-02
5.215999999999999659e+01,7.526275787833242026e-02
5.220000000000000284e+01,6.732320113159741271e-02
5.224000000000000199e+01,6.432773755411357042e-02
5.228000000000000114e+01,6.215529809134974493e-02
5.232000000000000028e+01,6.272904673568042988e-02
5.235999999999999943e+01,6.192791443257454620e-02
5.239999999999999858e+01,6.112558944286976270e-02
5.243999999999999773e+01,6.032207069856144327e-02
5.247999999999999687e+01,7.737531840659354898e-02
5.252000000000000313e+01,5.046931170106309927e-02
5.256000000000000227e+01,8.565286570058232296e-02
5.260000000000000142e+01,7.412978449284544913e-02
5.264000000000000057e+01,7.112237802930394814e-02
5.267999999999999972e+01,7.553169377887941627e-02
5.271999999999999886e+01,8.680825494203046888e-02
5.275999999999999801e+01,8.654462344426723519e-02
5.279999999999999716e+01,7.803765260680649296e-02
5.284000000000000341e+01,8.766217647541356406e-02
5.288000000000000256e+01,9.673601910983015140e-02
5.292000000000000171e+01,1.063581309051256085e-01
5.296000000000000085e+01,8.850524848491456154e-02
5.300000000000000000e+01,9.153123515643757369e-02
5.303999999999999915e+01,8.961073046945697285e-02
5.307999999999999829e+01,9.785431597323220043e-02
5.311999999999999744e+01,7.202919421104024555e-02
5.315999999999999659e+01,8.658932573812329336e-02
5.320000000000000284e+01,6.735548572899849318e-02
5.324000000000000199e+01,6.707734334320132608e-02
5.328000000000000114e+01,5.855584880165200234e-02
5.332000000000000028e+01,6.816583615011596875e-02
5.335999999999999943e+01,7.063142066989229473e-02
5.339999999999999858e+01,5.990836824607091021e-02
5.343999999999999773e+01,6.401994011902789605e-02
5.347999999999999687e+01,5.988815449620986386e-02
5.352000000000000313e+01,5.218355402767577839e-02
5.356000000000000227e+01,5.107143867885326205e-02
5.360000000000000142e+01,6.342025402594869687e-02
5.364000000000000057e+01,5.763514443758716022e-02
5.367999999999999972e+01,4.855195359725977128e-02
5.371999999999999886e+01,4.908336012807865134e-02
5.375999999999999801e+01,4.988827552591221931e-02
5.379999999999999716e+01,4.629615500469243944e-02
5.384000000000000341e+01,4.023016255679404130e-02
5.388000000000000256e+01,4.213033601341288625e-02
5.392000000000000171e+01,5.694195589037645555e-02
5.396000000000000085e+01,4.098170046249854925e-02
5.400000000000000000e+01,4.480133596316709238e-02
5.403999999999999915e+01,5.356501657288192247e-02
5.407999999999999829e+01,4.886530421715321731e-02
5.411999999999999744e+01,4.169171245871394066e-02
5.415999999999999659e+01,4.605587138374980100e-02
5.420000000000000284e+01,3.585768267625472072e-02
5.424000000000000199e+01,4.571411635504727539e-02
5.428000000000000114e+01,3.084289923186754254e-02
5.432000000000000028e+01,5.498321509698850251e-02
5.435999999999999943e+01,5.906642174219162850e-02
5.439999999999999858e+01,4.281778023370372277e-02
5.443999999999999773e+01,3.261212461729037088e-02
5.447999999999999687e+01,3.861475485837922300e-02
5.452000000000000313e+01,5.368248537898641370e-02
5.456000000000000227e+01,3.770358670891531955e-02
5.460000000000000142e+01,4.150456294732243756e-02
5.464000000000000057e+01,3.568846138898049830e-02
5.467999999999999972e+01,3.042058199931693338e-02
5.471999999999999886e+01,4.108624419335986377e-02
5.475999999999999801e+01,4.048639819202936446e-02
5.479999999999999716e+01,3.933581969228992781e-02
5.484000000000000341e+01,4.615138146495853522e-02
5.488000000000000256e+01,5.378989793205134901e-02
5.492000000000000171e+01,4.082181449562556630e-02
5.496000000000000085e+01,2.977563508068867271e-02
5.500000000000000000e+01,5.307042677991160445e-02
5.503999999999999915e+01,3.570275117050648178e-02
5.507999999999999829e+01,3.509282113007212295e-02
5.511999999999999744e+01,4.052585882563489172e-02
5.515999999999999659e+01,4.375972721613717586e-02
5.520000000000000284e+01,6.182817291121753961e-02
5.524000000000000199e+01,4.665206833339475417e-02
5.528000000000000114e+01,3.257364563571915617e-02
5.532000000000000028e+01,4.926459325317726623e-02
5.535999999999999943e+01,4.892052147405647616e-02
5.539999999999999858e+01,3.950882733763692867e-02
5.543999999999999773e+01,4.960224781583160575e-02
5.547999999999999687e+01,4.925435447187618415e-02
5.552000000000000313e+01,4.835570940542987389e-02
5.556000000000000227e+01,5.734635044768889717e-02
5.560000000000000142e+01,4.930196568534157137e-02
5.564000000000000057e+01,4.125630172802669665e-02
5.567999999999999972e+01,5.463891103767779672e-02
5.571999999999999886e+01,6.115179237214115465e-02
5.575999999999999801e+01,5.832230387149630463e-02
5.579999999999999716e+01,4.807360952811780969e-02
5.584000000000000341e+01,5.210999966970771696e-02
5.588000000000000256e+01,5.806826926868170063e-02
5.592000000000000171e+01,6.787158231741431680e-02
5.596000000000000085e+01,6.393671433872104293e-02
5.600000000000000000e+01,4.461523706998661576e-02
5.603999999999999915e+01,5.496415942923026099e-02
5.607999999999999829e+01,6.119072285892969421e-02
5.611999999999999744e+01,5.203067379457433639e-02
5.615999999999999659e+01,6.539783664420406595e-02
5.620000000000000284e+01,5.568572462225371972e-02
5.624000000000000199e+01,5.201655043217299351e-02
5.628000000000000114e+01,4.669765276444120400e-02
5.632000000000000028e+01,6.088384621522344164e-02
5.635999999999999943e+01,4.677074107280713294e-02
5.639999999999999858e+01,5.408588997327470199e-02
5.643999999999999773e+01,4.409125277527209397e-02
5.647999999999999687e+01,5.827224614182878459e-02
5.652000000000000313e+01,3.563706280434700974e-02
5.656000000000000227e+01,5.256282837844794553e-02
5.660000000000000142e+01,3.954086175671233522e-02
5.664000000000000057e+01,3.530920094448523200e-02
5.667999999999999972e+01,4.508786432336251565e-02
5.671999999999999886e+01,4.497465650348548422e-02
5.675999999999999801e+01,5.859703287293528684e-02
5.679999999999999716e+01,4.392009890113628134e-02
5.684000000000000341e+01,5.122088295570812605e-02
5.688000000000000256e+01,4.093713129799127909e-02
5.692000000000000171e+01,4.548791102065670444e-02
5.696000000000000085e+01,3.547626941847705634e-02
5.700000000000000000e+01,3.810125413452324084e-02
5.703999999999999915e+01,4.072492227544237398e-02
5.707999999999999829e+01,4.581991356514602404e-02
5.711999999999999744e+01,3.937459578143913397e-02
5.715999999999999659e+01,5.298382241968772888e-02
5.720000000000000284e+01,4.983271839891637717e-02
5.724000000000000199e+01,4.942767112067968094e-02
5.728000000000000114e+01,3.775704836278285376e-02
5.732000000000000028e+01,4.669044148635993763e-02
5.735999999999999943e+01,3.694033461851992106e-02
5.739999999999999858e+01,5.273952307997672312e-02
5.743999999999999773e+01,4.271202490402786073e-02
5.747999999999999687e+01,4.174954797526045369e-02
5.752000000000000313e+01,4.435733391030120820e-02
5.756000000000000227e+01,4.174376993655543738e-02
5.760000000000000142e+01,5.259102985827242283e-02
5.764000000000000057e+01,4.530425804407740842e-02
5.767999999999999972e+01,5.120357012356759746e-02
5.771999999999999886e+01,3.924358619690491989e-02
5.775999999999999801e+01,3.360123738370743990e-02
5.779999999999999716e+01,4.114496926018156031e-02
5.784000000000000341e+01,4.236839228876362884e-02
5.788000000000000256e+01,4.276626271681779196e-02
5.792000000000000171e+01,2.832694832214929445e-02
5.796000000000000085e+01,5.317380759313571070e-02
5.800000000000000000e+01,3.598443119431493642e-02
5.803999999999999915e+01,4.791592529170783654e-02
5.807999999999999829e+01,4.720813322050734784e-02
5.811999999999999744e+01,4.704847146959387216e-02
5.815999999999999659e+01,3.095266702485650542e-02
5.820000000000000284e+01,3.353768990511405562e-02
5.824000000000000199e+01,3.309924764665521379e-02
5.828000000000000114e+01,5.353953350332961436e-02
5.832000000000000028e+01,3.881202179037140931e-02
5.835999999999999943e+01,3.919374087540006962e-02
5.839999999999999858e+01,4.396991292544201457e-02
5.843999999999999773e+01,6.000898351670359843e-02
5.847999999999999687e+01,4.390236878976724877e-02
5.852000000000000313e+01,5.004816509877894198e-02
5.856000000000000227e+01,5.536839065118535907e-02
5.860000000000000142e+01,4.640088895632865640e-02
5.864000000000000057e+01,5.556472710687972161e-02
5.867999999999999972e+01,5.785875824990621696e-02
5.871999999999999886e+01,5.740404930393031707e-02
5.875999999999999801e+01,5.502481279825264388e-02
5.879999999999999716e+01,5.841370790638487909e-02
5.884000000000000341e+01,4.833908295653189385e-02
5.888000000000000256e+01,4.485680108178515674e-02
5.892000000000000171e+01,5.456056999258247081e-02
5.896000000000000085e+01,5.657031082251804538e-02
5.900000000000000000e+01,5.500709049011404811e-02
5.903999999999999915e+01,5.866251963195572711e-02
5.907999999999999829e+01,4.610704365010052930e-02
5.911999999999999744e+01,5.552922481835678020e-02
5.915999999999999659e+01,6.000475122341284578e-02
5.920000000000000284e+01,5.129148582421112074e-02
5.924000000000000199e+01,5.851164132420155067e-02
5.928000000000000114e+01,6.325777964889416072e-02
5.932000000000000028e+01,7.349729783756912826e-02
5.935999999999999943e+01,6.835011702382060017e-02
5.939999999999999858e+01,5.413520705231816832e-02
5.943999999999999773e+01,6.162320782112216955e-02
5.947999999999999687e+01,4.713079760504663290e-02
5.952000000000000313e+01,6.258343196632158711e-02
5.956000000000000227e+01,4.781351723365469264e-02
5.960000000000000142e+01,5.914231482157111114e-02
5.964000000000000057e+01,4.849069715258973873e-02
5.967999999999999972e+01,4.553035266169717238e-02
5.971999999999999886e+01,6.262448424046858364e-02
5.975999999999999801e+01,6.817823625752923722e-02
5.979999999999999716e+01,7.125795721523293935e-02
5.984000000000000341e+01,5.757727702561627608e-02
5.988000000000000256e+01,5.351102973444490235e-02
5.992000000000000171e+01,7.334558329367286966e-02
5.996000000000000085e+01,6.900181012581904638e-02
