2.003999999999999915e+01,8.748782412825774346e-02
2.007999999999999829e+01,8.258379800263024317e-02
2.012000000000000099e+01,1.094252357681436555e-01
2.016000000000000014e+01,8.288874469150753210e-02
2.019999999999999929e+01,1.031471530148693888e-01
2.023999999999999844e+01,9.213149266136672066e-02
2.028000000000000114e+01,6.794811837006711763e-02
2.032000000000000028e+01,7.856711592557047430e-02
2.035999999999999943e+01,6.237984144934020925e-02
2.039999999999999858e+01,9.063598209217946233e-02
2.044000000000000128e+01,8.597201224286872556e-02
2.048000000000000043e+01,6.908090901449771837e-02
2.051999999999999957e+01,6.253682942853633353e-02
2.055999999999999872e+01,7.880258849891157158e-02
2.060000000000000142e+01,7.178927659122201488e-02
2.064000000000000057e+01,7.112547538336243258e-02
2.067999999999999972e+01,7.493000308786242070e-02
2.071999999999999886e+01,8.437859526836877233e-02
2.076000000000000156e+01,6.137735690109492881e-02
2.080000000000000071e+01,1.009258714801424539e-01
2.083999999999999986e+01,7.627964079931558172e-02
2.087999999999999901e+01,7.538382369629040292e-02
2.092000000000000171e+01,5.026833062828543752e-02
2.096000000000000085e+01,6.301209669275111003e-02
2.100000000000000000e+01,6.540988485835848298e-02
2.103999999999999915e+01,7.603834484126981152e-02
2.107999999999999829e+01,6.738521860233633032e-02
2.112000000000000099e+01,8.177705220101841310e-02
2.116000000000000014e+01,7.712244330822197458e-02
2.119999999999999929e+01,6.564905944932675208e-02
2.123999999999999844e+01,8.309931700446246405e-02
2.128000000000000114e+01,9.043873099565319373e-02
2.132000000000000028e+01,6.932579543710273851e-02
2.135999999999999943e+01,9.430226231927944791e-02
2.139999999999999858e+01,8.071503388599106377e-02
2.144000000000000128e+01,8.288317811262042867e-02
2.148000000000000043e+01,6.365338992957150777e-02
2.151999999999999957e+01,6.135470809099652367e-02
2.155999999999999872e+01,7.151932843540237394e-02
2.160000000000000142e+01,5.958056826721552790e-02
2.164000000000000057e+01,5.892936908109062261e-02
2.167999999999999972e+01,7.074146644067487444e-02
2.171999999999999886e+01,6.609371737553441928e-02
2.176000000000000156e+01,6.332762411328406171e-02
2.180000000000000071e+01,6.597039710304579418e-02
2.183999999999999986e+01,8.201704907634391195e-02
2.187999999999999901e+01,5.103467359737963449e-02
2.192000000000000171e+01,5.720606968706835882e-02
2.196000000000000085e+01,4.973937794005865026e-02
2.200000000000000000e+01,4.979787044653557343e-02
2.203999999999999915e+01,5.902757774724076006e-02
2.207999999999999829e+01,8.001512033710631022e-02
2.212000000000000099e+01,6.243893378787554460e-02
2.216000000000000014e+01,5.285821895286377248e-02
2.219999999999999929e+01,6.702785568566310692e-02
2.223999999999999844e+01,6.638365398539225470e-02
2.228000000000000114e+01,6.879682110257093197e-02
2.232000000000000028e+01,4.675509899805047748e-02
2.235999999999999943e+01,7.762200952486907057e-02
2.239999999999999858e+01,4.546983895001684844e-02
2.244000000000000128e+01,3.800859862262176425e-02
2.248000000000000043e+01,5.147592684683346270e-02
2.251999999999999957e+01,5.553779572093322375e-02
2.255999999999999872e+01,5.419171067113810053e-02
2.260000000000000142e+01,4.978914470383217356e-02
2.264000000000000057e+01,4.609245575668523276e-02
2.267999999999999972e+01,6.050255610312173932e-02
2.271999999999999886e+01,3.964096396376780990e-02
2.276000000000000156e+01,7.074739571065674637e-02
2.280000000000000071e+01,7.904494810659155879e-02
2.283999999999999986e+01,5.747919461605666136e-02
2.287999999999999901e+01,6.507215298538475412e-02
2.292000000000000171e+01,4.585871906117958835e-02
2.296000000000000085e+01,5.345251835318113459e-02
2.300000000000000000e+01,4.105919876134550561e-02
2.303999999999999915e+01,4.606720908563533695e-02
2.307999999999999829e+01,5.624887804248979162e-02
2.312000000000000099e+01,5.044092978354284412e-02
2.316000000000000014e+01,6.650210808585196864e-02
2.319999999999999929e+01,4.423465400216555765e-02
2.323999999999999844e+01,5.559369714892918590e-02
2.328000000000000114e+01,5.002252560933901498e-02
2.332000000000000028e+01,4.868441147357957521e-02
2.335999999999999943e+01,6.145554738155550173e-02
2.339999999999999858e+01,4.624453100417291046e-02
2.344000000000000128e+01,6.889265725564240606e-02
2.348000000000000043e+01,2.875679915854165158e-02
2.351999999999999957e+01,4.529187901591193860e-02
2.355999999999999872e+01,7.523075705592197071e-02
2.360000000000000142e+01,5.484846200310757036e-02
2.364000000000000057e+01,3.658288192447153170e-02
2.367999999999999972e+01,5.241407338338372607e-02
2.371999999999999886e+01,5.202047195158759907e-02
2.376000000000000156e+01,7.232023145195058678e-02
2.380000000000000071e+01,3.524438380761099610e-02
2.383999999999999986e+01,3.743854493250241278e-02
2.387999999999999901e+01,6.126665130647097196e-02
2.392000000000000171e+01,5.452595859288038305e-02
2.396000000000000085e+01,4.378813111850823198e-02
2.400000000000000000e+01,5.327335832465646820e-02
2.403999999999999915e+01,4.582833514172907768e-02
2.407999999999999829e+01,5.672518297276073901e-02
2.412000000000000099e+01,4.504823693139549390e-02
2.416000000000000014e+01,4.912653577178553721e-02
2.419999999999999929e+01,3.627457670673736589e-02
2.423999999999999844e+01,5.540303547504128040e-02
2.428000000000000114e+01,6.841801705291082614e-02
2.432000000000000028e+01,5.039388577521991541e-02
2.435999999999999943e+01,3.871909044193125315e-02
2.439999999999999858e+01,4.938365839518454176e-02
2.444000000000000128e+01,3.653382748912561290e-02
2.448000000000000043e+01,3.943922643209710893e-02
2.451999999999999957e+01,7.244385014640629394e-02
2.455999999999999872e+01,4.478076617362584250e-02
2.460000000000000142e+01,2.722936668746383029e-02
2.464000000000000057e+01,3.836630140408252981e-02
2.467999999999999972e+01,5.209019721561843758e-02
2.471999999999999886e+01,3.124774905247503648e-02
2.476000000000000156e+01,2.051697785958779205e-02
2.480000000000000071e+01,3.659335344473874096e-02
2.483999999999999986e+01,4.114783329559395381e-02
2.487999999999999901e+01,3.206408813613543379e-02
2.492000000000000171e+01,1.475050832386509518e-02
2.496000000000000085e+01,2.306833033053286644e-02
2.500000000000000000e+01,2.785926369715782322e-02
2.503999999999999915e+01,3.782376362090669741e-02
2.507999999999999829e+01,2.733075197101115031e-02
2.512000000000000099e+01,4.340972457788124655e-02
2.516000000000000014e+01,3.080101975376295376e-02
2.519999999999999929e+01,2.454161141314379485e-02
2.523999999999999844e+01,3.521313466157073579e-02
2.528000000000000114e+01,3.459788899425266656e-02
2.532000000000000028e+01,4.338885152427947312e-02
2.535999999999999943e+01,3.995245142618996520e-02
2.539999999999999858e+01,2.993222654603374180e-02
2.544000000000000128e+01,4.765970833265579382e-02
2.548000000000000043e+01,4.281333235779954255e-02
2.551999999999999957e+01,6.054141454349513257e-02
2.555999999999999872e+01,5.357930781260371311e-02
2.560000000000000142e+01,3.885762946145491364e-02
2.564000000000000057e+01,3.330699678637833588e-02
2.567999999999999972e+01,1.811560882448314674e-02
2.571999999999999886e+01,5.983020295562238577e-02
2.576000000000000156e+01,5.286955494287595009e-02
2.580000000000000071e+01,3.579785102894395693e-02
2.583999999999999986e+01,3.189469070093875480e-02
2.587999999999999901e+01,4.774420175909976916e-02
2.592000000000000171e+01,3.278967228662306443e-02
2.596000000000000085e+01,5.075606980079151037e-02
2.600000000000000000e+01,3.956445544597349956e-02
2.603999999999999915e+01,1.802662642687877237e-02
2.607999999999999829e+01,3.787502834486747294e-02
2.612000000000000099e+01,1.022390864989243531e-02
2.616000000000000014e+01,2.137239375979716263e-02
2.619999999999999929e+01,5.862251741392578153e-02
2.623999999999999844e+01,4.037809920720367846e-02
2.628000000000000114e+01,3.741853131333912341e-02
2.632000000000000028e+01,7.417263914690445242e-03
2.635999999999999943e+01,2.961899877267617359e-02
2.639999999999999858e+01,2.313299794786423391e-02
2.644000000000000128e+01,3.945655955306729551e-02
2.648000000000000043e+01,3.367651139662162368e-02
2.651999999999999957e+01,2.342891324049915444e-02
2.655999999999999872e+01,5.738929333494281748e-02
2.660000000000000142e+01,2.268685529806005463e-02
2.664000000000000057e+01,5.829376298233503173e-02
2.667999999999999972e+01,2.688388119693463363e-02
2.671999999999999886e+01,2.463253087869771499e-02
2.676000000000000156e+01,2.120568412590543780e-02
2.680000000000000071e+01,1.918996143348978417e-02
2.683999999999999986e+01,3.104817781537765053e-02
2.687999999999999901e+01,2.385968299582804861e-02
2.692000000000000171e+01,2.066892897340575491e-02
2.696000000000000085e+01,2.829519103689776688e-02
2.700000000000000000e+01,8.879721651065330262e-03
2.703999999999999915e+01,3.672912531782878548e-02
2.707999999999999829e+01,1.684381478490643708e-02
2.712000000000000099e+01,2.517642697405096663e-02
2.716000000000000014e+01,2.175188695309631173e-02
2.719999999999999929e+01,2.843890927786954861e-02
2.723999999999999844e+01,4.265086969525771349e-02
2.728000000000000114e+01,2.347210331890441093e-02
2.732000000000000028e+01,2.051872835324227221e-02
2.735999999999999943e+01,3.049867807951579454e-02
2.739999999999999858e+01,2.660513692421874118e-02
2.744000000000000128e+01,1.800885506161331584e-02
2.748000000000000043e+01,3.128149681847656322e-02
2.751999999999999957e+01,8.811925621579683524e-03
2.755999999999999872e+01,2.772851583541317139e-02
2.760000000000000142e+01,3.582852312334063732e-02
2.764000000000000057e+01,3.953657026380952288e-03
2.767999999999999972e+01,1.064317684030959173e-02
2.771999999999999886e+01,4.084764141899600159e-02
2.776000000000000156e+01,2.543368725038337025e-02
2.780000000000000071e+01,2.789113436320690004e-02
2.783999999999999986e+01,1.153697266496543465e-02
2.787999999999999901e+01,3.750954729891949058e-02
2.792000000000000171e+01,2.444782534854193431e-02
2.796000000000000085e+01,1.256202547636553826e-02
2.800000000000000000e+01,2.842381200916745815e-02
2.803999999999999915e+01,1.959529312176361282e-02
2.807999999999999829e+01,1.546990300350152558e-02
2.812000000000000099e+01,2.615898178283330988e-02
2.816000000000000014e+01,1.733099425273258720e-02
2.819999999999999929e+01,2.590409423606680750e-02
2.823999999999999844e+01,1.378438670904993946e-02
2.828000000000000114e+01,2.605438738961628718e-03
2.832000000000000028e+01,1.000331008777397002e-02
2.835999999999999943e+01,1.175780755600345368e-02
2.839999999999999858e+01,2.621043337126492331e-02
2.844000000000000128e+01,5.030426830334994159e-02
2.848000000000000043e+01,1.420050637455947708e-02
2.851999999999999957e+01,2.442095801782204201e-02
2.855999999999999872e+01,2.123815926298100107e-02
2.860000000000000142e+01,2.981288950552863845e-02
2.864000000000000057e+01,3.580115006497673613e-02
2.867999999999999972e+01,2.250746737536180389e-02
2.871999999999999886e+01,2.783290536833403907e-04
2.876000000000000156e+01,2.554913047225167502e-02
2.880000000000000071e+01,3.906270263800533382e-02
2.883999999999999986e+01,2.623989938190836313e-02
2.887999999999999901e+01,3.693198639694096619e-02
2.892000000000000171e+01,1.776048190372894048e-02
2.896000000000000085e+01,0.000000000000000000e+00
2.900000000000000000e+01,2.292016939409653384e-02
2.903999999999999915e+01,1.668218410831924514e-02
2.907999999999999829e+01,1.326610070603813016e-02
2.912000000000000099e+01,3.266017766262311380e-03
2.916000000000000014e+01,7.139764913533992209e-03
2.919999999999999929e+01,6.075541184962337388e-03
2.923999999999999844e+01,1.770940634251944382e-02
2.928000000000000114e+01,2.605132928588442531e-02
2.932000000000000028e+01,2.357658850244665275e-02
2.935999999999999943e+01,4.641642387975220170e-03
2.939999999999999858e+01,1.698142923852287781e-02
2.944000000000000128e+01,1.521248188533077909e-02
2.948000000000000043e+01,2.862010777520818464e-03
2.951999999999999957e+01,3.424908389047581075e-02
2.955999999999999872e+01,1.272808155208108270e-02
2.960000000000000142e+01,1.918973794358719981e-02
2.964000000000000057e+01,1.201294571299543930e-02
2.967999999999999972e+01,1.333075460203695327e-04
2.971999999999999886e+01,2.023382977698185564e-02
2.976000000000000156e+01,3.116370003097623451e-02
2.980000000000000071e+01,2.281157442137009619e-02
2.983999999999999986e+01,4.150150631293111209e-02
2.987999999999999901e+01,3.597134132321280764e-02
2.992000000000000171e+01,1.633241958066729282e-02
2.996000000000000085e+01,3.572807161793984526e-02
3.000000000000000000e+01,3.889863574727622092e-02
3.003999999999999915e+01,1.314614570802091417e-02
3.007999999999999829e+01,3.583412335321179559e-02
3.012000000000000099e+01,1.666593120151683288e-02
3.016000000000000014e+01,4.552244991726271846e-03
3.019999999999999929e+01,3.311915370704254791e-02
3.023999999999999844e+01,1.042398744630086867e-02
3.028000000000000114e+01,2.864455984103226466e-02
3.032000000000000028e+01,1.958809733337000397e-02
3.035999999999999943e+01,1.993760625763405306e-02
3.039999999999999858e+01,2.122777514702356080e-02
3.044000000000000128e+01,2.228286467971048873e-02
3.048000000000000043e+01,5.287140760437234084e-04
3.051999999999999957e+01,2.345265067006643139e-02
3.055999999999999872e+01,3.344353788854943776e-02
3.060000000000000142e+01,1.991973686776447872e-02
3.064000000000000057e+01,1.580189412527135615e-02
3.067999999999999972e+01,2.320633517890708861e-02
3.071999999999999886e+01,3.225686363058589967e-02
3.076000000000000156e+01,2.743374335708181205e-02
3.080000000000000071e+01,2.731362407455719538e-02
3.083999999999999986e+01,2.719355413297116011e-02
3.087999999999999901e+01,2.001910699680804068e-02
3.092000000000000171e+01,3.283224196994020266e-02
3.096000000000000085e+01,5.222955032606928227e-02
3.100000000000000000e+01,2.835976261403372334e-02
3.103999999999999915e+01,5.363583995391209280e-02
3.107999999999999829e+01,6.480310604733512114e-02
3.112000000000000099e+01,3.552504029789176065e-02
3.116000000000000014e+01,5.139532665778284715e-02
3.119999999999999929e+01,3.740191440126394012e-02
3.123999999999999844e+01,4.692328154952793429e-02
3.128000000000000114e+01,6.467483946789633065e-02
3.132000000000000028e+01,6.596609997979065165e-02
3.135999999999999943e+01,4.985647125193015672e-02
3.139999999999999858e+01,6.031853176360760238e-02
3.144000000000000128e+01,5.761235407120410268e-02
3.148000000000000043e+01,7.113137236406717745e-02
3.151999999999999957e+01,1.208631212896439100e-01
3.155999999999999872e+01,1.031075565193942944e-01
3.160000000000000142e+01,1.436685825471425981e-01
3.164000000000000057e+01,1.355540902046837581e-01
3.167999999999999972e+01,1.735285154975713673e-01
3.171999999999999886e+01,2.067999990204537064e-01
3.176000000000000156e+01,2.252571968866977081e-01
3.180000000000000071e+01,1.978606387289421065e-01
3.183999999999999986e+01,2.243128578122380312e-01
3.187999999999999901e+01,2.098494143728507066e-01
3.192000000000000171e+01,1.880963973939825395e-01
3.196000000000000085e+01,1.574077725767104863e-01
3.200000000000000000e+01,1.349493047059116824e-01
3.203999999999999915e+01,1.334189562840607246e-01
3.207999999999999829e+01,1.325940414169815007e-01
3.211999999999999744e+01,9.673213996636305378e-02
3.215999999999999659e+01,1.013155938768633274e-01
3.220000000000000284e+01,1.011960834682709282e-01
3.224000000000000199e+01,8.179446257155019440e-02
3.228000000000000114e+01,8.919963706292108330e-02
3.232000000000000028e+01,9.495875894904509673e-02
3.235999999999999943e+01,7.485163503043856803e-02
3.239999999999999858e+01,7.708349858024940437e-02
3.243999999999999773e+01,3.463731348334812138e-02
3.247999999999999687e+01,5.168341528718849165e-02
3.252000000000000313e+01,4.733106605233854819e-02
3.256000000000000227e+01,5.332517485362054527e-02
3.260000000000000142e+01,7.483898455998917731e-02
3.264000000000000057e+01,8.365479466665319552e-02
3.267999999999999972e+01,9.623292749284724501e-02
3.271999999999999886e+01,7.683096290026011910e-02
3.275999999999999801e+01,8.682239352069974492e-02
3.279999999999999716e+01,9.798951884937513734e-02
3.284000000000000341e+01,9.105024294630013892e-02
3.288000000000000256e+01,8.246488813070948498e-02
3.292000000000000171e+01,7.387948494334516114e-02
3.296000000000000085e+01,9.280628766517445838e-02
3.300000000000000000e+01,4.369420149182468571e-01
3.303999999999999915e+01,1.000000000000000000e+00
3.307999999999999829e+01,6.817251421175715143e-01
3.311999999999999744e+01,1.280675904318646918e-01
3.315999999999999659e+01,5.058364340853620938e-02
3.320000000000000284e+01,5.704728827125858659e-02
3.324000000000000199e+01,4.070156334037433599e-02
3.328000000000000114e+01,4.881111193484110461e-02
3.332000000000000028e+01,2.964348469511745437e-02
3.335999999999999943e+01,4.104496192479879096e-02
3.339999999999999858e+01,3.575089654674608319e-02
3.343999999999999773e+01,4.080324786483180421e-02
3.347999999999999687e+01,3.644962496197483998e-02
3.352000000000000313e+01,3.703402276048238517e-02
3.356000000000000227e+01,3.244509737372124752e-02
3.360000000000000142e+01,3.632140125835586070e-02
3.364000000000000057e+01,4.537086769563056926e-02
3.367999999999999972e+01,4.666038293634212908e-02
3.371999999999999886e+01,5.312305697151254585e-02
3.375999999999999801e+01,5.253121851758110750e-02
3.379999999999999716e+01,5.217443784042966048e-02
3.384000000000000341e+01,5.463933543499024936e-02
3.388000000000000256e+01,7.003725142971488349e-02
3.392000000000000171e+01,7.156137025109746141e-02
3.396000000000000085e+01,7.590716170692013431e-02
3.400000000000000000e+01,6.684944720831453857e-02
3.403999999999999915e+01,7.919005318122064596e-02
3.407999999999999829e+01,1.014067508077201307e-01
3.411999999999999744e+01,9.305417017855166506e-02
3.415999999999999659e+01,1.021023970783154766e-01
3.420000000000000284e+01,1.127965478952381584e-01
3.424000000000000199e+01,1.258420632158716024e-01
3.428000000000000114e+01,1.224271420773248437e-01
3.432000000000000028e+01,1.136037145622399019e-01
3.435999999999999943e+01,1.240622650890141343e-01
3.439999999999999858e+01,1.382830575344216606e-01
3.443999999999999773e+01,1.329864886531690049e-01
3.447999999999999687e+01,1.267492081614182975e-01
3.452000000000000313e+01,1.249796064166715653e-01
3.456000000000000227e+01,1.187420769750328065e-01
3.460000000000000142e+01,1.193236974076919005e-01
3.464000000000000057e+01,1.093235516830428911e-01
3.467999999999999972e+01,1.030856347233926468e-01
3.471999999999999886e+01,1.147187939625010922e-01
3.475999999999999801e+01,9.789897227741906072e-02
3.479999999999999716e+01,1.060046476893394540e-01
3.484000000000000341e+01,9.388750051805089258e-02
3.488000000000000256e+01,7.448064075457545841e-02
3.492000000000000171e+01,7.811809254245047351e-02
3.496000000000000085e+01,7.164405811738741581e-02
3.500000000000000000e+01,7.998416938633094719e-02
3.503999999999999915e+01,6.316335141711483525e-02
3.507999999999999829e+01,7.456008223093182896e-02
3.511999999999999744e+01,7.208295949868799568e-02
3.515999999999999659e+01,8.159820508151836849e-02
3.520000000000000284e+01,6.595251390982656559e-02
3.524000000000000199e+01,6.206403980648007856e-02
3.528000000000000114e+01,5.135612929713551794e-02
3.532000000000000028e+01,6.510339647952020914e-02
3.535999999999999943e+01,7.273666596336812729e-02
3.539999999999999858e+01,6.931783861009099823e-02
3.543999999999999773e+01,7.318841664730355023e-02
3.547999999999999687e+01,6.765292650904226879e-02
3.552000000000000313e+01,7.575582019387207267e-02
3.556000000000000227e+01,7.797985427325938856e-02
3.560000000000000142e+01,8.937446613515394322e-02
3.564000000000000057e+01,9.818227947308982850e-02
3.567999999999999972e+01,1.060493248278090023e-01
3.571999999999999886e+01,1.092132405034607484e-01
3.575999999999999801e+01,1.316590684527998989e-01
3.579999999999999716e+01,1.470502880794153089e-01
3.584000000000000341e+01,1.457458504737687288e-01
3.588000000000000256e+01,1.686614167640353157e-01
3.592000000000000171e+01,1.772327969493335820e-01
3.596000000000000085e+01,1.966207704251560773e-01
3.600000000000000000e+01,2.167139933048694289e-01
3.603999999999999915e+01,2.339852513811702672e-01
3.607999999999999829e+01,2.832363710799988832e-01
3.611999999999999744e+01,2.729949774772852389e-01
3.615999999999999659e+01,2.883844595481355189e-01
3.620000000000000284e+01,3.199989158715587090e-01
3.624000000000000199e+01,3.224548792787959028e-01
3.628000000000000114e+01,3.338462410354522403e-01
3.632000000000000028e+01,3.109058613696963347e-01
3.635999999999999943e+01,2.983117612264631902e-01
3.639999999999999858e+01,2.847768592763821882e-01
3.643999999999999773e+01,2.794719056937153834e-01
3.647999999999999687e+01,2.609984771415490568e-01
3.652000000000000313e+01,2.262996543896752533e-01
3.656000000000000227e+01,2.266375880623591188e-01
3.660000000000000142e+01,2.065174689832990906e-01
3.664000000000000057e+01,1.866322742655848188e-01
3.667999999999999972e+01,1.867343910681162067e-01
3.671999999999999886e+01,1.924798207104047032e-01
3.675999999999999801e+01,1.490791964817914372e-01
3.679999999999999716e+01,1.491806269909021487e-01
3.684000000000000341e+01,1.457546126491456318e-01
3.688000000000000256e+01,1.416229214400012149e-01
3.692000000000000171e+01,1.217361122173379467e-01
3.696000000000000085e+01,1.335939757886611123e-01
3.700000000000000000e+01,1.221719979547641194e-01
3.703999999999999915e+01,1.156878754622567701e-01
3.707999999999999829e+01,1.115549840580260105e-01
3.711999999999999744e+01,1.137708291682887340e-01
3.715999999999999659e+01,8.776872809747118809e-02
3.720000000000000284e+01,1.017414506452589268e-01
3.724000000000000199e+01,9.266946800183024913e-02
3.728000000000000114e+01,1.052308011121204229e-01
3.732000000000000028e+01,9.286624536463281010e-02
3.735999999999999943e+01,9.484542946771014338e-02
3.739999999999999858e+01,1.074059917255016788e-01
3.743999999999999773e+01,1.070331814041663165e-01
3.747999999999999687e+01,9.184581671623354149e-02
3.752000000000000313e+01,1.093436884692083749e-01
3.756000000000000227e+01,1.172002468454496488e-01
3.760000000000000142e+01,1.100070977292739172e-01
3.764000000000000057e+01,1.061057433482961582e-01
3.767999999999999972e+01,1.243079809072258485e-01
3.771999999999999886e+01,1.248738829624442964e-01
3.775999999999999801e+01,1.437810133826289138e-01
3.779999999999999716e+01,1.372919374188533992e-01
3.784000000000000341e+01,1.681910326342107576e-01
3.788000000000000256e+01,1.868621770660868486e-01
3.792000000000000171e+01,2.189364450870691092e-01
3.796000000000000085e+01,2.679410471462794208e-01
3.800000000000000000e+01,3.082449051129492745e-01
3.803999999999999915e+01,3.939319394739139724e-01
3.807999999999999829e+01,4.274159406028686936e-01
3.811999999999999744e+01,4.740679084369288643e-01
3.815999999999999659e+01,4.722791990975580001e-01
3.820000000000000284e+01,4.770743230257811773e-01
3.824000000000000199e+01,4.435401080299345988e-01
3.828000000000000114e+01,3.766146494904253350e-01
3.832000000000000028e+01,3.463718971153189052e-01
3.835999999999999943e+01,3.314134275677017016e-01
3.839999999999999858e+01,2.952913782436201173e-01
3.843999999999999773e+01,2.739833130117516613e-01
3.847999999999999687e+01,2.562021505427252710e-01
3.852000000000000313e+01,2.219603524309129161e-01
3.856000000000000227e+01,2.041785651938740620e-01
3.860000000000000142e+01,1.988592796472109236e-01
3.864000000000000057e+01,1.860149573852947769e-01
3.867999999999999972e+01,1.774029709564102220e-01
3.871999999999999886e+01,1.509194545580013758e-01
3.875999999999999801e+01,1.404256446618181720e-01
3.879999999999999716e+01,1.426294745491047955e-01
3.884000000000000341e+01,1.410706181424455086e-01
3.888000000000000256e+01,1.063556374943116639e-01
3.892000000000000171e+01,1.132614320837187633e-01
3.896000000000000085e+01,1.074689301771029198e-01
3.900000000000000000e+01,1.150795011241463606e-01
3.903999999999999915e+01,1.052888220460355129e-01
3.907999999999999829e+01,1.166610791854703344e-01
3.911999999999999744e+01,1.129835574270447313e-01
3.915999999999999659e+01,9.072904256345523666e-02
3.920000000000000284e+01,9.622158795946986198e-02
3.924000000000000199e+01,9.089700361420703645e-02
3.928000000000000114e+01,9.145075933544909164e-02
3.932000000000000028e+01,9.553137835863033389e-02
3.935999999999999943e+01,1.029037113161126171e-01
3.939999999999999858e+01,1.065133316723801821e-01
3.943999999999999773e+01,9.507315809806220208e-02
3.947999999999999687e+01,8.034056314144331912e-02
3.952000000000000313e+01,8.818176866365838584e-02
3.956000000000000227e+01,6.874550521354573507e-02
3.960000000000000142e+01,8.975424761369610316e-02
3.964000000000000057e+01,9.641862915345032758e-02
3.967999999999999972e+01,1.019069073123780450e-01
3.971999999999999886e+01,1.024567203946285393e-01
3.975999999999999801e+01,9.383541172725620716e-02
3.979999999999999716e+01,1.026146456370382321e-01
3.984000000000000341e+01,1.012821640848260984e-01
3.988000000000000256e+01,9.101370263426672436e-02
3.992000000000000171e+01,1.089625625967751282e-01
3.996000000000000085e+01,9.845819735331211298e-02
4.000000000000000000e+01,8.959948355886772353e-02
4.003999999999999915e+01,9.320320380753639722e-02
4.007999999999999829e+01,1.120911260827976152e-01
4.011999999999999744e+01,1.058178804753900915e-01
4.015999999999999659e+01,1.054229335944936313e-01
4.020000000000000284e+01,1.139632009121352846e-01
4.024000000000000199e+01,1.145080613738040792e-01
4.028000000000000114e+01,1.016491208638168053e-01
4.032000000000000028e+01,1.172426304645385886e-01
4.035999999999999943e+01,1.208432202667080319e-01
4.039999999999999858e+01,1.312626874750348893e-01
4.043999999999999773e+01,1.144046443710404481e-01
4.047999999999999687e+01,1.165931443194924144e-01
4.052000000000000313e+01,1.060832744873870664e-01
4.056000000000000227e+01,1.244961384685420031e-01
4.060000000000000142e+01,1.193938444377732472e-01
4.064000000000000057e+01,1.441548704162735339e-01
4.067999999999999972e+01,1.371705725255062680e-01
4.071999999999999886e+01,1.278343849548186917e-01
4.075999999999999801e+01,1.309605976036130048e-01
4.079999999999999716e+01,1.413759638447535938e-01
4.084000000000000341e+01,1.261598334024991441e-01
4.088000000000000256e+01,1.264630148935722287e-01
4.092000000000000171e+01,1.359365242480997105e-01
4.096000000000000085e+01,1.418823952054256710e-01
4.100000000000000000e+01,1.374813487185819749e-01
4.103999999999999915e+01,1.185007281146228386e-01
4.107999999999999829e+01,1.390244538803835361e-01
4.111999999999999744e+01,1.496715515417977038e-01
4.115999999999999659e+01,1.417415621435170470e-01
4.120000000000000284e+01,1.394546751268437024e-01
4.124000000000000199e+01,1.369322013989995868e-01
4.128000000000000114e+01,1.214761746993288510e-01
4.132000000000000028e+01,1.323562237361741167e-01
4.135999999999999943e+01,1.093745895622836029e-01
4.139999999999999858e+01,1.338923013360030501e-01
4.143999999999999773e+01,1.229022937209730687e-01
4.147999999999999687e+01,1.032113785325184108e-01
4.152000000000000313e+01,7.787647124266601495e-02
4.156000000000000227e+01,1.016869348038936527e-01
4.160000000000000142e+01,9.963071849045695982e-02
4.164000000000000057e+01,9.945522407187078195e-02
4.167999999999999972e+01,1.025713346003294946e-01
4.171999999999999886e+01,9.487019888389236488e-02
4.175999999999999801e+01,8.599286207391622361e-02
4.179999999999999716e+01,8.322889443628322947e-02
4.184000000000000341e+01,9.739507856508791694e-02
4.188000000000000256e+01,7.581837514659864330e-02
4.192000000000000171e+01,9.162965123999879113e-02
4.196000000000000085e+01,7.569554333323123829e-02
4.200000000000000000e+01,6.963715502011384728e-02
4.203999999999999915e+01,6.381343739110814650e-02
4.207999999999999829e+01,7.586045020818639462e-02
4.211999999999999744e+01,6.157046374532724325e-02
4.215999999999999659e+01,6.115369666506320634e-02
4.220000000000000284e+01,7.296411466847106675e-02
4.224000000000000199e+01,5.467516793790962865e-02
4.228000000000000114e+01,5.261090983814645239e-02
4.232000000000000028e+01,6.371442113897346493e-02
4.235999999999999943e+01,6.141403375543195986e-02
4.239999999999999858e+01,6.099433256401914222e-02
4.243999999999999773e+01,6.527708554821447240e-02
4.247999999999999687e+01,4.439855978339418002e-02
4.252000000000000313e+01,4.868031593963369208e-02
4.256000000000000227e+01,6.636497771046709349e-02
4.260000000000000142e+01,3.325727884333514600e-02
4.264000000000000057e+01,4.553254027507637469e-02
4.267999999999999972e+01,5.498552497436177966e-02
4.271999999999999886e+01,5.761872375679333302e-02
4.275999999999999801e+01,5.648905209439780001e-02
4.279999999999999716e+01,5.653460536758225796e-02
4.284000000000000341e+01,4.976036708664086788e-02
4.288000000000000256e+01,4.369105500600321823e-02
4.292000000000000171e+01,5.031918916250130436e-02
4.296000000000000085e+01,3.860529918877396438e-02
4.300000000000000000e+01,5.017048867863888734e-02
4.303999999999999915e+01,3.539863566948200230e-02
4.307999999999999829e+01,3.567569626657345755e-02
4.311999999999999744e+01,3.171957452992726217e-02
4.315999999999999659e+01,3.223072565671050715e-02
4.320000000000000284e+01,4.920166968375518091e-02
4.324000000000000199e+01,4.030585679342001820e-02
4.328000000000000114e+01,3.117436135829227198e-02
4.332000000000000028e+01,3.591603081213159271e-02
4.335999999999999943e+01,3.548391670349957533e-02
4.339999999999999858e+01,4.022450664939564852e-02
4.343999999999999773e+01,4.143734169447163551e-02
4.347999999999999687e+01,5.017435192136962541e-02
4.352000000000000313e+01,3.610150942837088428e-02
4.356000000000000227e+01,4.178050776348307682e-02
4.360000000000000142e+01,3.946394139901013981e-02
4.364000000000000057e+01,5.055022991368419982e-02
4.367999999999999972e+01,6.234140704684957429e-02
4.371999999999999886e+01,6.472612891187286277e-02
4.375999999999999801e+01,6.546426075173103487e-02
4.379999999999999716e+01,5.632563858817096758e-02
4.384000000000000341e+01,4.883248748092960251e-02
4.388000000000000256e+01,5.568276993248161971e-02
4.392000000000000171e+01,5.359688269753342532e-02
4.396000000000000085e+01,6.115147549224728835e-02
4.400000000000000000e+01,6.752976196434737344e-02
4.403999999999999915e+01,5.203876124256268804e-02
4.407999999999999829e+01,8.193065317238877598e-02
4.411999999999999744e+01,7.020086511215845038e-02
4.415999999999999659e+01,8.151495453334488273e-02
4.420000000000000284e+01,8.553889353422916564e-02
4.424000000000000199e+01,9.544093959438118557e-02
4.428000000000000114e+01,9.005781686543477826e-02
4.432000000000000028e+01,1.030156143305923921e-01
4.435999999999999943e+01,1.072723689278005238e-01
4.439999999999999858e+01,9.718453905282842253e-02
4.443999999999999773e+01,8.403920227686564881e-02
4.447999999999999687e+01,8.171005854512430888e-02
4.452000000000000313e+01,7.632340415421101643e-02
4.456000000000000227e+01,7.352277695017535308e-02
4.460000000000000142e+01,6.178594811509895146e-02
4.464000000000000057e+01,4.840248791486365804e-02
4.467999999999999972e+01,4.607035885194431940e-02
4.471999999999999886e+01,5.149749420758513441e-02
4.475999999999999801e+01,4.258002817923009498e-02
4.479999999999999716e+01,5.553067212410416065e-02
4.484000000000000341e+01,3.673579677428586571e-02
4.488000000000000256e+01,4.874463220432066063e-02
4.492000000000000171e+01,5.087666101639961441e-02
4.496000000000000085e+01,4.477791375126485840e-02
4.500000000000000000e+01,4.549782779686575157e-02
4.503999999999999915e+01,3.493004465595404839e-02
4.507999999999999829e+01,3.376754144161938503e-02
4.511999999999999744e+01,4.577267609153132938e-02
4.515999999999999659e+01,3.191096362771342343e-02
4.520000000000000284e+01,4.297425969733605078e-02
4.524000000000000199e+01,1.688362544476740626e-02
4.528000000000000114e+01,2.512389550935817048e-02
4.532000000000000028e+01,2.466307760782451841e-02
4.535999999999999943e+01,3.501841141051854900e-02
4.539999999999999858e+01,3.243999869505181932e-02
4.543999999999999773e+01,2.962580196389885678e-02
4.547999999999999687e+01,3.292480152875176119e-02
4.552000000000000313e+01,3.269594848007218585e-02
4.556000000000000227e+01,3.834514048066955255e-02
4.560000000000000142e+01,2.729821675089300417e-02
4.564000000000000057e+01,3.764906855634754523e-02
4.567999999999999972e+01,2.942262096486683923e-02
4.571999999999999886e+01,2.801480086049071283e-02
4.575999999999999801e+01,3.272016389848597662e-02
4.579999999999999716e+01,4.071693833719203931e-02
4.584000000000000341e+01,2.214139125198519992e-02
4.588000000000000256e+01,3.860216276322091938e-02
4.592000000000000171e+01,1.979015191610494426e-02
4.596000000000000085e+01,2.637340887680255513e-02
4.600000000000000000e+01,3.648321533130533673e-02
4.603999999999999915e+01,2.002069086644214096e-02
4.607999999999999829e+01,3.036431350340574112e-02
4.611999999999999744e+01,2.283605853907978711e-02
4.615999999999999659e+01,4.070306198711436119e-02
4.620000000000000284e+01,2.941110462539783116e-02
4.624000000000000199e+01,2.728922520808289148e-02
4.628000000000000114e+01,3.151565199350880170e-02
4.632000000000000028e+01,3.127359862939976809e-02
4.635999999999999943e+01,2.374129337409503632e-02
4.639999999999999858e+01,3.031715580632690296e-02
4.643999999999999773e+01,1.996171555873426165e-02
4.647999999999999687e+01,3.664755111060963300e-02
4.652000000000000313e+01,4.157532497252445364e-02
4.656000000000000227e+01,4.038857499052786459e-02
4.660000000000000142e+01,2.556257965200938939e-02
4.664000000000000057e+01,2.907739552033884040e-02
4.667999999999999972e+01,2.459650199910516644e-02
4.671999999999999886e+01,2.199609172821292633e-02
4.675999999999999801e+01,2.621426008806898578e-02
4.679999999999999716e+01,2.455304081801759283e-02
4.684000000000000341e+01,3.323760874874598370e-02
4.688000000000000256e+01,2.499085332965289563e-02
4.692000000000000171e+01,4.190417313165106100e-02
4.696000000000000085e+01,2.142833432201366947e-02
4.700000000000000000e+01,3.716449893701893187e-02
4.703999999999999915e+01,3.667477515148283990e-02
4.707999999999999829e+01,4.135758254413759299e-02
4.711999999999999744e+01,4.274760964818245107e-02
4.715999999999999659e+01,4.296118198145427308e-02
4.720000000000000284e+01,3.306269310005739009e-02
4.724000000000000199e+01,3.515600504836646767e-02
4.728000000000000114e+01,3.960006891684327013e-02
4.732000000000000028e+01,3.910531068142456684e-02
4.735999999999999943e+01,4.307762800491977268e-02
4.739999999999999858e+01,5.927688613030602377e-02
4.743999999999999773e+01,5.407699231619954999e-02
4.747999999999999687e+01,5.404961088937771524e-02
4.752000000000000313e+01,4.908339796320727172e-02
4.756000000000000227e+01,4.364615394100007650e-02
4.760000000000000142e+01,5.302246369925329994e-02
4.764000000000000057e+01,6.310347604602616067e-02
4.767999999999999972e+01,3.603044344607975180e-02
4.771999999999999886e+01,3.317685853122208373e-02
4.775999999999999801e+01,4.960462216286491699e-02
4.779999999999999716e+01,4.721983931722203987e-02
4.784000000000000341e+01,4.412886473336054965e-02
4.788000000000000256e+01,4.762126867716252182e-02
4.792000000000000171e+01,3.488774288042940930e-02
4.796000000000000085e+01,4.167070372329114564e-02
4.800000000000000000e+01,3.928215572386174054e-02
4.803999999999999915e+01,2.748694951450298893e-02
4.807999999999999829e+01,2.744835718539963276e-02
4.811999999999999744e+01,2.999562480410840684e-02
4.815999999999999659e+01,4.735641989600888890e-02
4.820000000000000284e+01,3.790963510910225209e-02
4.824000000000000199e+01,3.269473705256838864e-02
4.828000000000000114e+01,2.465729919089159478e-02
4.832000000000000028e+01,3.472544612570906131e-02
4.835999999999999943e+01,2.292410292485446213e-02
4.839999999999999858e+01,2.429024350281536529e-02
4.843999999999999773e+01,3.788327602631105795e-02
4.847999999999999687e+01,3.148799268524287570e-02
4.852000000000000313e+01,1.850779844772794738e-02
4.856000000000000227e+01,2.339803024361605116e-02
4.860000000000000142e+01,1.723554510247355537e-02
4.864000000000000057e+01,3.200039958767042503e-02
4.867999999999999972e+01,2.395515895028024408e-02
4.871999999999999886e+01,2.719620715060051125e-02
4.875999999999999801e+01,3.890177244697055892e-02
4.879999999999999716e+01,2.826753196057669310e-02
4.884000000000000341e+01,2.774383723188386663e-02
4.888000000000000256e+01,2.510301697733123560e-02
4.892000000000000171e+01,3.022126383682337963e-02
4.896000000000000085e+01,2.922487410696693322e-02
4.900000000000000000e+01,2.281928837431375368e-02
4.903999999999999915e+01,2.464305909552847590e-02
4.907999999999999829e+01,2.576057982671533381e-02
4.911999999999999744e+01,3.063965097118627121e-02
4.915999999999999659e+01,3.739909074147062390e-02
4.920000000000000284e+01,2.464047580065486034e-02
4.924000000000000199e+01,2.575474764339404435e-02
4.928000000000000114e+01,4.191764183333494820e-02
4.932000000000000028e+01,2.751054371317124617e-02
4.935999999999999943e+01,1.827586966303291691e-02
4.939999999999999858e+01,2.879276209377455362e-02
4.943999999999999773e+01,2.096732598160994804e-02
4.947999999999999687e+01,3.007168272957396263e-02
4.952000000000000313e+01,3.776432635187079723e-02
4.956000000000000227e+01,3.557994538169960419e-02
4.960000000000000142e+01,2.869178268801484896e-02
4.964000000000000057e+01,2.462455602524607837e-02
4.967999999999999972e+01,2.596488588832519470e-02
4.971999999999999886e+01,4.282411240570425243e-02
4.975999999999999801e+01,3.734348804214444872e-02
4.979999999999999716e+01,2.974569493364050479e-02
4.984000000000000341e+01,1.861984626981684834e-02
4.988000000000000256e+01,2.677524656069067005e-02
4.992000000000000171e+01,3.986789712577361311e-02
4.996000000000000085e+01,2.826921252898959708e-02
5.000000000000000000e+01,3.336514887560868003e-02
5.003999999999999915e+01,2.435138328681719574e-02
5.007999999999999829e+01,3.320797232598503984e-02
5.011999999999999744e+01,3.665531274781878152e-02
5.015999999999999659e+01,2.223058578021003956e-02
5.020000000000000284e+01,2.403017538345622248e-02
5.024000000000000199e+01,4.087834223572926751e-02
5.028000000000000114e+01,4.643856574061803327e-02
5.032000000000000028e+01,3.694848420227189040e-02
5.035999999999999943e+01,3.451195966506555302e-02
5.039999999999999858e+01,2.925279573091327245e-02
5.043999999999999773e+01,3.551498732212210463e-02
5.047999999999999687e+01,3.589761840708619728e-02
5.052000000000000313e+01,3.087098208380993636e-02
5.056000000000000227e+01,3.172215592348282681e-02
5.060000000000000142e+01,3.915658051265678147e-02
5.064000000000000057e+01,3.530304484263088738e-02
5.067999999999999972e+01,2.439420182816962046e-02
5.071999999999999886e+01,3.276656830750278998e-02
5.075999999999999801e+01,3.572965610405177961e-02
5.079999999999999716e+01,3.398890580436859932e-02
5.084000000000000341e+01,3.930168995673774535e-02
5.088000000000000256e+01,3.708886239212333402e-02
5.092000000000000171e+01,3.017219109400486390e-02
5.096000000000000085e+01,2.396006641988426833e-02
5.100000000000000000e+01,3.561825315463870711e-02
5.103999999999999915e+01,2.234990650353178843e-02
5.107999999999999829e+01,2.365980266345368149e-02
5.111999999999999744e+01,3.413954751872103760e-02
5.115999999999999659e+01,3.944514238884555546e-02
5.120000000000000284e+01,3.369789818104905466e-02
5.124000000000000199e+01,3.947197191680119899e-02
5.128000000000000114e+01,2.996054802259598415e-02
5.132000000000000028e+01,4.208178032130088092e-02
5.135999999999999943e+01,3.021705415560953928e-02
5.139999999999999858e+01,2.728701604308180970e-02
5.143999999999999773e+01,4.293271113507477615e-02
5.147999999999999687e+01,2.471624760640445811e-02
5.152000000000000313e+01,2.883787334083363907e-02
5.156000000000000227e+01,4.001299970368396575e-02
5.160000000000000142e+01,2.343979651083420365e-02
5.164000000000000057e+01,2.849923447816958902e-02
5.167999999999999972e+01,3.308744780313409295e-02
5.171999999999999886e+01,3.932076200356471318e-02
5.175999999999999801e+01,3.732298068137551716e-02
5.179999999999999716e+01,4.237868871306376545e-02
5.184000000000000341e+01,2.697562805948081413e-02
5.188000000000000256e+01,2.873739500913669725e-02
5.192000000000000171e+01,3.590661325556555872e-02
5.196000000000000085e+01,2.779030192749641637e-02
5.200000000000000000e+01,3.213586279444421295e-02
5.203999999999999915e+01,2.636913507675781379e-02
5.207999999999999829e+01,3.776722556685717380e-02
5.211999999999999744e+01,2.682535430967094778e-02
5.215999999999999659e+01,3.445918243337420944e-02
5.220000000000000284e+01,3.950543408960097841e-02
5.224000000000000199e+01,3.984778000233309830e-02
5.228000000000000114e+01,3.266444842990988418e-02
5.232000000000000028e+01,3.512120415720852012e-02
5.235999999999999943e+01,3.522552338921565440e-02
5.239999999999999858e+01,4.144271383455087887e-02
5.243999999999999773e+01,3.002287727082555285e-02
5.247999999999999687e+01,4.094108487202481605e-02
5.252000000000000313e+01,2.951931193503228718e-02
5.256000000000000227e+01,4.278705429025812107e-02
5.260000000000000142e+01,1.819507810497560454e-02
5.264000000000000057e+01,4.439398468250321805e-02
5.267999999999999972e+01,3.179257900715114216e-02
5.271999999999999886e+01,3.094756923754228908e-02
5.275999999999999801e+01,2.869069413592571782e-02
5.279999999999999716e+01,2.172988698354585274e-02
5.284000000000000341e+01,3.310959977896728301e-02
5.288000000000000256e+01,4.119626169672914451e-02
5.292000000000000171e+01,4.011118364405322212e-02
5.296000000000000085e+01,3.667364090972645430e-02
5.300000000000000000e+01,2.876730421773066385e-02
5.303999999999999915e+01,4.131780547501075901e-02
5.307999999999999829e+01,4.234508436001545306e-02
5.311999999999999744e+01,2.996795908527415467e-02
5.315999999999999659e+01,2.652543918370913606e-02
5.320000000000000284e+01,4.683181455472247567e-02
5.324000000000000199e+01,4.950112533486287353e-02
5.328000000000000114e+01,4.417441667548738932e-02
5.332000000000000028e+01,3.861155381957301347e-02
5.335999999999999943e+01,4.409961433830929950e-02
5.339999999999999858e+01,4.229709224590030153e-02
5.343999999999999773e+01,3.485001808308797744e-02
5.347999999999999687e+01,3.868900914620193587e-02
5.352000000000000313e+01,4.911111378520151977e-02
5.356000000000000227e+01,4.612879359445827554e-02
5.360000000000000142e+01,3.397470148873660278e-02
5.364000000000000057e+01,4.204227165738386174e-02
5.367999999999999972e+01,4.940337574058165787e-02
5.371999999999999886e+01,3.701106528689149938e-02
5.375999999999999801e+01,3.966716672225336499e-02
5.379999999999999716e+01,3.315148684718367822e-02
5.384000000000000341e+01,4.215451008007981004e-02
5.388000000000000256e+01,4.033971582453060867e-02
5.392000000000000171e+01,4.628375379669829454e-02
5.396000000000000085e+01,3.694216823983693249e-02
5.400000000000000000e+01,3.794603352653370953e-02
5.403999999999999915e+01,4.035974321289289429e-02
5.407999999999999829e+01,3.430710090082873809e-02
5.411999999999999744e+01,3.389695402410085323e-02
5.415999999999999659e+01,3.442635093266847163e-02
5.420000000000000284e+01,4.247941942677115751e-02
5.424000000000000199e+01,3.242508137564038828e-02
5.428000000000000114e+01,3.812457325102593109e-02
5.432000000000000028e+01,5.158287856322221060e-02
5.435999999999999943e+01,3.211947991442032357e-02
5.439999999999999858e+01,3.805095258531063923e-02
5.443999999999999773e+01,4.139474355964960217e-02
5.447999999999999687e+01,4.897012812622414391e-02
5.452000000000000313e+01,4.008412541376339677e-02
5.456000000000000227e+01,3.190250020714444079e-02
5.460000000000000142e+01,4.488308213090947546e-02
5.464000000000000057e+01,4.375374602384240336e-02
5.467999999999999972e+01,4.520996169372524381e-02
5.471999999999999886e+01,5.418982452096512276e-02
5.475999999999999801e+01,3.800783171836819713e-02
5.479999999999999716e+01,4.463406907053468764e-02
5.484000000000000341e+01,4.161818127881845852e-02
5.488000000000000256e+01,4.306901577697918454e-02
5.492000000000000171e+01,4.122670356385848417e-02
5.496000000000000085e+01,4.244022495114844334e-02
5.500000000000000000e+01,5.446944518182602474e-02
5.503999999999999915e+01,4.086650165193751738e-02
5.507999999999999829e+01,3.478718836759035760e-02
5.511999999999999744e+01,4.634284545723649923e-02
5.515999999999999659e+01,4.167223269094491589e-02
5.520000000000000284e+01,3.794111485359267372e-02
5.524000000000000199e+01,3.914699737139668706e-02
5.528000000000000114e+01,4.623046831945641644e-02
5.532000000000000028e+01,3.708766189521582601e-02
5.535999999999999943e+01,5.239909173830246958e-02
5.539999999999999858e+01,3.737539113805735114e-02
5.543999999999999773e+01,4.069208834472313324e-02
5.547999999999999687e+01,6.187888650211421232e-02
5.552000000000000313e+01,6.072556318951671112e-02
5.556000000000000227e+01,5.110581835214286078e-02
5.560000000000000142e+01,6.217793869079246694e-02
5.564000000000000057e+01,4.220947484592397353e-02
5.567999999999999972e+01,4.763582218984784011e-02
5.571999999999999886e+01,5.635311492000795452e-02
5.575999999999999801e+01,5.472279682155850589e-02
5.579999999999999716e+01,4.345030848105143478e-02
5.584000000000000341e+01,5.145878911073901996e-02
5.588000000000000256e+01,6.416909254158542630e-02
5.592000000000000171e+01,4.866056849784946431e-02
5.596000000000000085e+01,5.666566258089147240e-02
5.600000000000000000e+01,5.596916698061266127e-02
5.603999999999999915e+01,5.691756931401264347e-02
5.607999999999999829e+01,4.728319829753058201e-02
5.611999999999999744e+01,6.539509268531898400e-02
5.615999999999999659e+01,5.481785334688629718e-02
5.620000000000000284e+01,6.634333592940280799e-02
5.624000000000000199e+01,7.269442988226730573e-02
5.628000000000000114e+01,7.763349314314928196e-02
5.632000000000000028e+01,7.927934392457811064e-02
5.635999999999999943e+01,7.575080043908320737e-02
5.639999999999999858e+01,8.162700509751898148e-02
5.643999999999999773e+01,7.974218935682723941e-02
5.647999999999999687e+01,7.644533352869987974e-02
5.652000000000000313e+01,9.242941472622659416e-02
5.656000000000000227e+01,9.312775025383371319e-02
5.660000000000000142e+01,9.523580991930341577e-02
5.664000000000000057e+01,1.032213941259475937e-01
5.667999999999999972e+01,1.100300763382505709e-01
5.671999999999999886e+01,1.053153651810315311e-01
5.675999999999999801e+01,8.719607886681977893e-02
5.679999999999999716e+01,9.917450089781298939e-02
5.684000000000000341e+01,9.469142666251467721e-02
5.688000000000000256e+01,8.362304880082943592e-02
5.692000000000000171e+01,8.337027958618194179e-02
5.696000000000000085e+01,7.653220298696626622e-02
5.700000000000000000e+01,7.016324178051690230e-02
5.703999999999999915e+01,6.214706669081571100e-02
5.707999999999999829e+01,7.411724478514240821e-02
5.711999999999999744e+01,6.939076597099574917e-02
5.715999999999999659e+01,6.489824754470545354e-02
5.720000000000000284e+01,7.216191456600851151e-02
5.724000000000000199e+01,6.225862406447135733e-02
5.728000000000000114e+01,6.223033534396630456e-02
5.732000000000000028e+01,6.173055702931258548e-02
5.735999999999999943e+01,6.122958221851455135e-02
5.739999999999999858e+01,5.767049168136406667e-02
5.743999999999999773e+01,6.375124792033569354e-02
5.747999999999999687e+01,5.384077280466086773e-02
5.752000000000000313e+01,5.121866582145189611e-02
5.756000000000000227e+01,5.776610499999814546e-02
5.760000000000000142e+01,4.079758755310596008e-02
5.764000000000000057e+01,4.687231433409055903e-02
5.767999999999999972e+01,4.495081497559071798e-02
5.771999999999999886e+01,4.961223188846106136e-02
5.775999999999999801e+01,5.638876091120838263e-02
5.779999999999999716e+01,5.752053304267452927e-02
5.784000000000000341e+01,6.123770850293139278e-02
5.788000000000000256e+01,5.813438587098826438e-02
5.792000000000000171e+01,3.880466372585434504e-02
5.796000000000000085e+01,4.204787579877715398e-02
5.800000000000000000e+01,4.928736861541329478e-02
5.803999999999999915e+01,4.947120833493938441e-02
5.807999999999999829e+01,4.565631042938244483e-02
5.811999999999999744e+01,5.712476708054714525e-02
5.815999999999999659e+01,5.048563303559721466e-02
5.820000000000000284e+01,5.160513015566760980e-02
5.824000000000000199e+01,4.802043966864986274e-02
5.828000000000000114e+01,3.808552727562088819e-02
5.832000000000000028e+01,5.236956460866563218e-02
5.835999999999999943e+01,4.807570687304763696e-02
5.839999999999999858e+01,5.224591337263929935e-02
5.843999999999999773e+01,3.736792606829202057e-02
5.847999999999999687e+01,4.929550334767852232e-02
5.852000000000000313e+01,6.286786205712509290e-02
5.856000000000000227e+01,4.281287703541564876e-02
5.860000000000000142e+01,4.039269890681544684e-02
5.864000000000000057e+01,3.844155912826598132e-02
5.867999999999999972e+01,4.330843801145927568e-02
5.871999999999999886e+01,4.017904189881196103e-02
5.875999999999999801e+01,4.668943055229620581e-02
5.879999999999999716e+01,4.026544319226098290e-02
5.884000000000000341e+01,4.324608935162860962e-02
5.888000000000000256e+01,4.316855025829072906e-02
5.892000000000000171e+01,4.614665873539178231e-02
5.896000000000000085e+01,4.888834806417614171e-02
5.900000000000000000e+01,3.893079947253546419e-02
5.903999999999999915e+01,4.590259463836457443e-02
5.907999999999999829e+01,3.594249333173230726e-02
5.911999999999999744e+01,4.103055211600868668e-02
5.915999999999999659e+01,5.434749194422531376e-02
5.920000000000000284e+01,4.273751505209352070e-02
5.924000000000000199e+01,4.758657754488349045e-02
5.928000000000000114e+01,4.773140357422916980e-02
5.932000000000000028e+01,5.563480815405770497e-02
5.935999999999999943e+01,3.861128849717530148e-02
5.939999999999999858e+01,3.922253815158965179e-02
5.943999999999999773e+01,3.959734610859982906e-02
5.947999999999999687e+01,3.855997304637766299e-02
5.952000000000000313e+01,4.198910429952017187e-02
5.956000000000000227e+01,3.836251105010896056e-02
5.960000000000000142e+01,4.743258045704383530e-02
5.964000000000000057e+01,4.544941429793620397e-02
5.967999999999999972e+01,4.017287781576306394e-02
5.971999999999999886e+01,3.889254127640646291e-02
5.975999999999999801e+01,4.701679503736835852e-02
5.979999999999999716e+01,4.620413311285281877e-02
5.984000000000000341e+01,3.551396366957913081e-02
5.988000000000000256e+01,5.351047295024749517e-02
5.992000000000000171e+01,4.187708191598612378e-02
5.996000000000000085e+01,4.035371425223266417e-02
