2.003999999999999915e+01,4.345605197377712392e-02
2.007999999999999829e+01,6.354138744733124622e-02
2.012000000000000099e+01,6.221839325023740402e-02
2.016000000000000014e+01,6.529750018386626387e-02
2.019999999999999929e+01,6.157417796225883588e-02
2.023999999999999844e+01,3.884349194574338027e-02
2.028000000000000114e+01,6.173156185970605364e-02
2.032000000000000028e+01,6.061024316142431256e-02
2.035999999999999943e+01,7.489546586274974105e-02
2.039999999999999858e+01,5.656781946113243614e-02
2.044000000000000128e+01,5.144582183217868976e-02
2.048000000000000043e+01,6.193044190040754987e-02
2.051999999999999957e+01,5.300752576152105433e-02
2.055999999999999872e+01,3.548143891121655763e-02
2.060000000000000142e+01,4.316584698055993263e-02
2.064000000000000057e+01,5.905387443206369658e-02
2.067999999999999972e+01,4.933185258588376060e-02
2.071999999999999886e+01,7.742541594295219987e-02
2.076000000000000156e+01,6.050108249155243534e-02
2.080000000000000071e+01,7.078804504527912156e-02
2.083999999999999986e+01,7.767392885616582199e-02
2.087999999999999901e+01,6.155080706707453941e-02
2.092000000000000171e+01,5.763291140426760051e-02
2.096000000000000085e+01,6.051805683331296787e-02
2.100000000000000000e+01,4.779718430667994483e-02
2.103999999999999915e+01,6.048687080215880973e-02
2.107999999999999829e+01,4.936722059274532143e-02
2.112000000000000099e+01,5.905626632959214140e-02
2.116000000000000014e+01,3.012998787783579754e-02
2.119999999999999929e+01,5.382526077159330291e-02
2.123999999999999844e+01,5.751272740700721919e-02
2.128000000000000114e+01,6.400160552431508054e-02
2.132000000000000028e+01,6.388809267423811722e-02
2.135999999999999943e+01,4.656790118304338782e-02
2.139999999999999858e+01,5.445817412371745103e-02
2.144000000000000128e+01,7.095219770025747164e-02
2.148000000000000043e+01,5.003137011753677754e-02
2.151999999999999957e+01,5.412092152277571400e-02
2.155999999999999872e+01,6.081179286844357046e-02
2.160000000000000142e+01,5.229678513408334006e-02
2.164000000000000057e+01,3.958034468613481210e-02
2.167999999999999972e+01,6.728050417574975295e-02
2.171999999999999886e+01,5.316402420343906143e-02
2.176000000000000156e+01,5.665492185528769875e-02
2.180000000000000071e+01,2.473176486018744888e-02
2.183999999999999986e+01,4.122843653478876214e-02
2.187999999999999901e+01,4.692099761497057347e-02
2.192000000000000171e+01,6.421850409948597072e-02
2.196000000000000085e+01,5.490550815215929775e-02
2.200000000000000000e+01,3.778961009838160967e-02
2.203999999999999915e+01,4.468366686179534031e-02
2.207999999999999829e+01,6.438314815644087530e-02
2.212000000000000099e+01,3.446282078631975054e-02
2.216000000000000014e+01,3.615551674843222457e-02
2.219999999999999929e+01,4.445112567559679484e-02
2.223999999999999844e+01,4.274293377181107023e-02
2.228000000000000114e+01,6.984662843669904586e-02
2.232000000000000028e+01,3.932727198518220363e-02
2.235999999999999943e+01,4.642335736622421605e-02
2.239999999999999858e+01,4.311547407727517323e-02
2.244000000000000128e+01,3.060410581839990984e-02
2.248000000000000043e+01,3.950162428878740278e-02
2.251999999999999957e+01,4.359743389680243580e-02
2.255999999999999872e+01,4.609282704993333812e-02
2.260000000000000142e+01,3.678367781593196856e-02
2.264000000000000057e+01,4.928357095512205660e-02
2.267999999999999972e+01,6.118344741997289865e-02
2.271999999999999886e+01,5.347562296557333700e-02
2.276000000000000156e+01,5.016980055661524746e-02
2.280000000000000071e+01,5.406711085910196474e-02
2.283999999999999986e+01,3.995736263511038416e-02
2.287999999999999901e+01,4.185430238644866768e-02
2.292000000000000171e+01,4.915364243938415145e-02
2.296000000000000085e+01,5.765368298393869217e-02
2.300000000000000000e+01,2.913897618393681763e-02
2.303999999999999915e+01,3.203717830886919360e-02
2.307999999999999829e+01,4.073793637932746764e-02
2.312000000000000099e+01,3.963494095302035752e-02
2.316000000000000014e+01,4.393433668197680581e-02
2.319999999999999929e+01,4.543280634137165930e-02
2.323999999999999844e+01,4.773180408017831111e-02
2.328000000000000114e+01,3.142348391200106700e-02
2.332000000000000028e+01,3.932515065131102910e-02
2.335999999999999943e+01,4.142467216236864203e-02
2.339999999999999858e+01,4.832633307012886709e-02
2.344000000000000128e+01,5.102649266679764456e-02
2.348000000000000043e+01,3.451908412231066009e-02
2.351999999999999957e+01,4.502278705375890866e-02
2.355999999999999872e+01,5.432619716208375582e-02
2.360000000000000142e+01,4.142082149495097260e-02
2.364000000000000057e+01,5.112477357425509322e-02
2.367999999999999972e+01,3.041662112888780453e-02
2.371999999999999886e+01,2.651544812965177245e-02
2.376000000000000156e+01,2.441518774648249873e-02
2.380000000000000071e+01,4.072255072660548036e-02
2.383999999999999986e+01,4.902686060764291365e-02
2.387999999999999901e+01,2.751930095429113224e-02
2.392000000000000171e+01,3.062186708407696467e-02
2.396000000000000085e+01,3.412477211278851230e-02
2.400000000000000000e+01,4.002882322346039412e-02
2.403999999999999915e+01,2.612504223930413663e-02
2.407999999999999829e+01,3.803186616518362123e-02
2.412000000000000099e+01,4.393643502867843748e-02
2.416000000000000014e+01,5.004125429841182332e-02
2.419999999999999929e+01,5.834713115741839429e-02
2.423999999999999844e+01,6.145107186384261150e-02
2.428000000000000114e+01,4.214612000945459208e-02
2.432000000000000028e+01,3.964812473536350607e-02
2.435999999999999943e+01,3.534956353814282942e-02
2.439999999999999858e+01,5.786199940955803755e-02
2.444000000000000128e+01,4.395987567064157941e-02
2.448000000000000043e+01,5.006599634634351786e-02
2.451999999999999957e+01,4.456758233498567950e-02
2.455999999999999872e+01,2.646422775846740683e-02
2.460000000000000142e+01,2.976967911859704913e-02
2.464000000000000057e+01,2.867350256522429100e-02
2.467999999999999972e+01,2.257545396173292473e-02
2.471999999999999886e+01,4.188782413656936404e-02
2.476000000000000156e+01,2.278481379853911082e-02
2.480000000000000071e+01,2.369003568001564267e-02
2.483999999999999986e+01,3.960146648805165648e-02
2.487999999999999901e+01,3.470462883537971804e-02
2.492000000000000171e+01,1.560218993210797309e-02
2.496000000000000085e+01,1.990935195340697017e-02
2.500000000000000000e+01,4.282417247707162589e-02
2.503999999999999915e+01,4.733168889138071600e-02
2.507999999999999829e+01,3.723343621604942311e-02
2.512000000000000099e+01,2.473434604197159367e-02
2.516000000000000014e+01,3.764565787794300900e-02
2.519999999999999929e+01,3.635135779259198591e-02
2.523999999999999844e+01,5.246422183881881834e-02
2.528000000000000114e+01,3.036176642586483829e-02
2.532000000000000028e+01,3.487019214985849491e-02
2.535999999999999943e+01,3.537712426283291800e-02
2.539999999999999858e+01,4.408749435568205810e-02
2.544000000000000128e+01,3.699159641493623280e-02
2.548000000000000043e+01,4.150050820790687073e-02
2.551999999999999957e+01,3.220395762592799527e-02
2.555999999999999872e+01,3.711326504853806191e-02
2.560000000000000142e+01,5.122640718278958366e-02
2.564000000000000057e+01,3.072567181172172063e-02
2.567999999999999972e+01,2.763208380395315578e-02
2.571999999999999886e+01,3.114127461500890148e-02
2.576000000000000156e+01,3.525081659822988656e-02
2.580000000000000071e+01,2.375415769909764580e-02
2.583999999999999986e+01,3.486674270500966788e-02
2.587999999999999901e+01,3.937676296319592151e-02
2.592000000000000171e+01,1.767629161651821171e-02
2.596000000000000085e+01,3.679241883927063944e-02
2.600000000000000000e+01,3.850160972104425122e-02
2.603999999999999915e+01,4.581316287281863436e-02
2.607999999999999829e+01,3.504756445319914988e-03
2.612000000000000099e+01,3.662693312811985541e-02
2.616000000000000014e+01,3.213399942740888249e-02
2.619999999999999929e+01,6.432585219669826812e-03
2.623999999999999844e+01,2.634969980845429730e-02
2.628000000000000114e+01,3.726326395671537145e-02
2.632000000000000028e+01,4.217448920119896971e-02
2.635999999999999943e+01,1.927455910660151595e-02
2.639999999999999858e+01,2.678700553455418132e-02
2.644000000000000128e+01,3.830115202267942581e-02
2.648000000000000043e+01,3.540955693829329898e-02
2.651999999999999957e+01,4.092143802163343558e-02
2.655999999999999872e+01,3.843016234743894949e-02
2.660000000000000142e+01,2.333386836424733435e-02
2.664000000000000057e+01,2.644500864198945020e-02
2.667999999999999972e+01,2.535452413313460038e-02
2.671999999999999886e+01,3.666912558490784124e-02
2.676000000000000156e+01,3.898015830349021993e-02
2.680000000000000071e+01,1.768171720030196903e-02
2.683999999999999986e+01,1.018892357977141047e-02
2.687999999999999901e+01,2.810646642056500652e-02
2.692000000000000171e+01,4.202245619917031189e-02
2.696000000000000085e+01,3.573034086106885443e-02
2.700000000000000000e+01,3.363998511243712630e-02
2.703999999999999915e+01,4.875664402713788398e-02
2.707999999999999829e+01,3.186042187816717081e-02
2.712000000000000099e+01,3.697315224156725449e-02
2.716000000000000014e+01,4.828844480430454639e-02
2.719999999999999929e+01,2.258882996164500098e-02
2.723999999999999844e+01,2.690139788788288230e-02
2.728000000000000114e+01,3.981749388919907789e-02
2.732000000000000028e+01,3.052466234688458457e-02
2.735999999999999943e+01,5.764659686405546046e-02
2.739999999999999858e+01,4.115094761938771495e-02
2.744000000000000128e+01,3.966140821599723615e-02
2.748000000000000043e+01,5.938048412250752223e-02
2.751999999999999957e+01,4.688658132632553960e-02
2.755999999999999872e+01,3.079126281921668387e-02
2.760000000000000142e+01,5.171094383748632561e-02
2.764000000000000057e+01,4.161812680435089673e-02
2.767999999999999972e+01,4.292995479279688997e-02
2.771999999999999886e+01,5.344553670026967046e-02
2.776000000000000156e+01,4.455330648622605333e-02
2.780000000000000071e+01,3.546102621754154693e-02
2.783999999999999986e+01,7.078672854536827153e-02
2.787999999999999901e+01,7.930162196104527383e-02
2.792000000000000171e+01,6.080562406944124698e-02
2.796000000000000085e+01,6.151741448764710962e-02
2.800000000000000000e+01,8.944022652096746129e-02
2.803999999999999915e+01,9.575432618388306227e-02
2.807999999999999829e+01,1.086711147266744143e-01
2.812000000000000099e+01,1.207875984074862075e-01
2.816000000000000014e+01,1.261013495796592387e-01
2.819999999999999929e+01,1.194102640795037806e-01
2.823999999999999844e+01,1.273250961913618695e-01
2.828000000000000114e+01,1.510463296152985413e-01
2.832000000000000028e+01,1.327505911823893547e-01
2.835999999999999943e+01,1.654754842634320877e-01
2.839999999999999858e+01,1.469796823847034917e-01
2.844000000000000128e+01,1.418893052715896053e-01
2.848000000000000043e+01,1.436016826652042333e-01
2.851999999999999957e+01,1.485153573677964467e-01
2.855999999999999872e+01,1.392232921003939972e-01
2.860000000000000142e+01,1.221280732023625609e-01
2.864000000000000057e+01,1.036322870130681889e-01
2.867999999999999972e+01,1.057448277897787281e-01
2.871999999999999886e+01,8.284725547885250785e-02
2.876000000000000156e+01,7.975768360218414565e-02
2.880000000000000071e+01,7.706826617337793339e-02
2.883999999999999986e+01,6.757609032132082250e-02
2.887999999999999901e+01,7.629126336441584277e-02
2.892000000000000171e+01,6.479825659574543761e-02
2.896000000000000085e+01,6.110839039484790985e-02
2.900000000000000000e+01,5.861899450283704349e-02
2.903999999999999915e+01,4.752610472894944205e-02
2.907999999999999829e+01,6.604516586058242766e-02
2.912000000000000099e+01,3.354358546418532983e-02
2.916000000000000014e+01,7.087020794374074284e-02
2.919999999999999929e+01,3.116567264998420031e-02
2.923999999999999844e+01,3.227761092576355434e-02
2.928000000000000114e+01,2.458596530258989887e-02
2.932000000000000028e+01,5.570998149275085271e-02
2.935999999999999943e+01,4.721795664086098077e-02
2.939999999999999858e+01,1.731724846008422802e-02
2.944000000000000128e+01,3.943753498846926109e-02
2.948000000000000043e+01,3.674776033656972779e-02
2.951999999999999957e+01,2.785544395903413045e-02
2.955999999999999872e+01,3.156818618125299680e-02
2.960000000000000142e+01,1.547288441857870567e-02
2.964000000000000057e+01,1.918554955360532444e-02
2.967999999999999972e+01,2.389857821216405387e-02
2.971999999999999886e+01,0.000000000000000000e+00
2.976000000000000156e+01,1.811836076476925489e-02
2.980000000000000071e+01,2.383166214016729789e-02
2.983999999999999986e+01,3.594750445158469143e-02
2.987999999999999901e+01,1.625043986284609859e-02
2.992000000000000171e+01,4.837427081985952448e-02
2.996000000000000085e+01,9.669422033183336720e-03
3.000000000000000000e+01,3.258942840985580569e-02
3.003999999999999915e+01,1.569328695912297969e-02
3.007999999999999829e+01,2.280679392340152420e-02
3.012000000000000099e+01,2.251725107175548551e-02
3.016000000000000014e+01,1.682546558721934038e-02
3.019999999999999929e+01,2.553944214889545747e-02
3.023999999999999844e+01,3.185238609003858412e-02
3.028000000000000114e+01,3.156259760067071929e-02
3.032000000000000028e+01,2.146878122452542531e-02
3.035999999999999943e+01,1.877789032105479927e-02
3.039999999999999858e+01,2.689129816848961213e-02
3.044000000000000128e+01,2.099897527039111533e-02
3.048000000000000043e+01,3.811588118970270223e-02
3.051999999999999957e+01,1.041459922038307472e-02
3.055999999999999872e+01,2.453014486947537737e-02
3.060000000000000142e+01,2.744108586587120160e-02
3.064000000000000057e+01,3.175251554194893910e-02
3.067999999999999972e+01,2.225828619690186500e-02
3.071999999999999886e+01,3.317222520328082236e-02
3.076000000000000156e+01,3.308163433014981586e-02
3.080000000000000071e+01,2.418740163128568071e-02
3.083999999999999986e+01,1.849437782683964124e-02
3.087999999999999901e+01,3.801145717407988095e-02
3.092000000000000171e+01,1.811251689884238458e-02
3.096000000000000085e+01,3.202715416843377599e-02
3.100000000000000000e+01,1.973110623576391359e-02
3.103999999999999915e+01,2.824337620089305972e-02
3.107999999999999829e+01,1.674746490799541854e-02
3.112000000000000099e+01,2.450325716523035508e-03
3.116000000000000014e+01,2.056619035273841295e-02
3.119999999999999929e+01,2.647702311671133041e-02
3.123999999999999844e+01,2.278387380370316267e-02
3.128000000000000114e+01,2.509304880722734027e-02
3.132000000000000028e+01,2.780228222210943262e-02
3.135999999999999943e+01,3.411286645583785221e-02
3.139999999999999858e+01,3.141970512725646147e-02
3.144000000000000128e+01,3.412861940542454009e-02
3.148000000000000043e+01,3.123515987512455114e-02
3.151999999999999957e+01,3.414393464428082392e-02
3.155999999999999872e+01,2.944952384876777310e-02
3.160000000000000142e+01,4.076146871179230080e-02
3.164000000000000057e+01,4.607087192730827813e-02
3.167999999999999972e+01,5.198040070542385427e-02
3.171999999999999886e+01,5.548884046061512004e-02
3.176000000000000156e+01,5.079384441696525171e-02
3.180000000000000071e+01,5.730325551209206059e-02
3.183999999999999986e+01,6.441278607226265385e-02
3.187999999999999901e+01,6.031766319929024456e-02
3.192000000000000171e+01,4.661853233472450925e-02
3.196000000000000085e+01,4.672485383103001239e-02
3.200000000000000000e+01,4.583064172888483973e-02
3.203999999999999915e+01,5.974228329254460679e-02
3.207999999999999829e+01,4.304141933910986956e-02
3.211999999999999744e+01,5.615247130837752038e-02
3.215999999999999659e+01,5.205643305150924743e-02
3.220000000000000284e+01,3.855645700306746526e-02
3.224000000000000199e+01,4.386394441333253680e-02
3.228000000000000114e+01,4.236854230289650164e-02
3.232000000000000028e+01,4.927639532378788600e-02
3.235999999999999943e+01,2.217035735424233850e-02
3.239999999999999858e+01,2.507630550741882930e-02
3.243999999999999773e+01,3.518501899430194479e-02
3.247999999999999687e+01,3.829075446779675596e-02
3.252000000000000313e+01,3.699456172316473168e-02
3.256000000000000227e+01,8.887381712875095513e-03
3.260000000000000142e+01,2.839929682868836194e-02
3.264000000000000057e+01,2.450159643268584597e-02
3.267999999999999972e+01,3.961142359785411321e-02
3.271999999999999886e+01,2.550928695090095774e-02
3.275999999999999801e+01,2.961435133337126172e-02
3.279999999999999716e+01,2.471561679991832877e-02
3.284000000000000341e+01,8.612192247987296781e-03
3.288000000000000256e+01,2.172041204314154386e-02
3.292000000000000171e+01,3.522862927409547984e-02
3.296000000000000085e+01,4.113360758676657541e-02
3.300000000000000000e+01,3.343291933449590164e-02
3.303999999999999915e+01,3.993780402607927105e-02
3.307999999999999829e+01,3.683863651878956091e-02
3.311999999999999744e+01,3.874131885242854123e-02
3.315999999999999659e+01,2.023557891833037761e-02
3.320000000000000284e+01,1.193378841568375030e-02
3.324000000000000199e+01,2.143901890830850199e-02
3.328000000000000114e+01,2.974358615129355995e-02
3.332000000000000028e+01,3.244570946391869132e-02
3.335999999999999943e+01,2.174223336284364719e-02
3.339999999999999858e+01,3.244722783284620382e-02
3.343999999999999773e+01,2.474459807181236468e-02
3.347999999999999687e+01,1.584129743919404990e-02
3.352000000000000313e+01,2.854654367522887690e-02
3.356000000000000227e+01,3.224796203195020444e-02
3.360000000000000142e+01,3.274789623649684844e-02
3.364000000000000057e+01,2.644488909111785205e-02
3.367999999999999972e+01,4.235066532906309189e-02
3.371999999999999886e+01,3.044500574035934395e-02
3.375999999999999801e+01,3.434553862244715816e-02
3.379999999999999716e+01,3.024263883259940486e-02
3.384000000000000341e+01,4.594754587961212555e-02
3.388000000000000256e+01,3.224036403648131155e-02
3.392000000000000171e+01,2.993758941025477863e-02
3.396000000000000085e+01,3.123606651759245484e-02
3.400000000000000000e+01,4.694016085419162182e-02
3.403999999999999915e+01,3.583321152274185351e-02
3.407999999999999829e+01,3.312945024950548351e-02
3.411999999999999744e+01,3.042547893891544078e-02
3.415999999999999659e+01,3.892582482815364064e-02
3.420000000000000284e+01,3.121940710113092418e-02
3.424000000000000199e+01,3.191617133476584017e-02
3.428000000000000114e+01,3.901530729724599078e-02
3.432000000000000028e+01,3.190848377772178418e-02
3.435999999999999943e+01,3.600596983608102958e-02
3.439999999999999858e+01,4.430493347195299525e-02
3.443999999999999773e+01,5.040278529719385836e-02
3.447999999999999687e+01,4.649636982846366146e-02
3.452000000000000313e+01,4.359013343220183301e-02
3.456000000000000227e+01,4.748641983554733464e-02
3.460000000000000142e+01,4.417956656214746397e-02
3.464000000000000057e+01,3.907175559765646566e-02
3.467999999999999972e+01,4.676888898187600563e-02
3.471999999999999886e+01,3.505794500090083504e-02
3.475999999999999801e+01,4.395509627880941905e-02
3.479999999999999716e+01,4.384837242134682900e-02
3.484000000000000341e+01,4.694270501940678297e-02
3.488000000000000256e+01,4.983671774598057158e-02
3.492000000000000171e+01,5.773251171597990755e-02
3.496000000000000085e+01,5.342313052117498434e-02
3.500000000000000000e+01,3.450760218826869757e-02
3.503999999999999915e+01,5.500776029330318312e-02
3.507999999999999829e+01,3.088963760010783946e-02
3.511999999999999744e+01,4.398630871790965013e-02
3.515999999999999659e+01,4.867933359306667734e-02
3.520000000000000284e+01,4.676943853787118854e-02
3.524000000000000199e+01,5.066163601395897581e-02
3.528000000000000114e+01,4.514977832052349815e-02
3.532000000000000028e+01,3.163443002837215690e-02
3.535999999999999943e+01,4.472958025154037676e-02
3.539999999999999858e+01,4.461913418791407793e-02
3.543999999999999773e+01,5.231158174104964809e-02
3.547999999999999687e+01,6.840716399878522813e-02
3.552000000000000313e+01,4.868800700267526121e-02
3.556000000000000227e+01,5.717998786587881466e-02
3.560000000000000142e+01,5.206620307885829330e-02
3.564000000000000057e+01,4.235029030063006128e-02
3.567999999999999972e+01,5.304235684959725250e-02
3.571999999999999886e+01,5.152921927036993588e-02
3.575999999999999801e+01,5.721872050056588804e-02
3.579999999999999716e+01,4.189945624112655781e-02
3.584000000000000341e+01,6.259447312922918061e-02
3.588000000000000256e+01,5.587813361516382610e-02
3.592000000000000171e+01,6.636847035008278106e-02
3.596000000000000085e+01,5.725060159300702362e-02
3.600000000000000000e+01,7.214215564137711756e-02
3.603999999999999915e+01,6.442428808783953742e-02
3.607999999999999829e+01,6.771058369271797106e-02
3.611999999999999744e+01,7.559845306786867891e-02
3.615999999999999659e+01,6.988053545135000655e-02
3.620000000000000284e+01,7.656734251527681778e-02
3.624000000000000199e+01,7.525062391954179253e-02
3.628000000000000114e+01,8.013611996246193525e-02
3.632000000000000028e+01,9.962722569082642365e-02
3.635999999999999943e+01,1.067130220300308158e-01
3.639999999999999858e+01,9.999294136048972326e-02
3.643999999999999773e+01,8.066746738226825142e-02
3.647999999999999687e+01,8.915293446092957541e-02
3.652000000000000313e+01,7.803017470615079831e-02
3.656000000000000227e+01,9.351786773502285266e-02
3.660000000000000142e+01,9.459943352097772984e-02
3.664000000000000057e+01,1.098864350557805791e-01
3.667999999999999972e+01,9.916261579583278418e-02
3.671999999999999886e+01,8.043525258355559149e-02
3.675999999999999801e+01,8.271607015219904768e-02
3.679999999999999716e+01,8.119503900532434870e-02
3.684000000000000341e+01,7.467167239408856183e-02
3.688000000000000256e+01,8.915648199060655088e-02
3.692000000000000171e+01,6.862682246263486496e-02
3.696000000000000085e+01,7.710857092333256446e-02
3.700000000000000000e+01,8.438951436621765223e-02
3.703999999999999915e+01,7.826471815161872847e-02
3.707999999999999829e+01,6.453652600667456052e-02
3.711999999999999744e+01,7.641836095022415398e-02
3.715999999999999659e+01,6.368992290155191249e-02
3.720000000000000284e+01,8.477482459303138651e-02
3.724000000000000199e+01,8.104936937276877029e-02
3.728000000000000114e+01,7.492261323951691920e-02
3.732000000000000028e+01,8.840345045054397166e-02
3.735999999999999943e+01,9.468104280198769152e-02
3.739999999999999858e+01,8.435158784456942005e-02
3.743999999999999773e+01,7.642276677442212673e-02
3.747999999999999687e+01,8.389983466540879009e-02
3.752000000000000313e+01,8.857543075558776957e-02
3.756000000000000227e+01,7.584364995637955797e-02
3.760000000000000142e+01,8.832171621151295449e-02
3.764000000000000057e+01,8.479296862367756427e-02
3.767999999999999972e+01,1.022723667558168431e-01
3.771999999999999886e+01,9.013944878573039443e-02
3.775999999999999801e+01,9.781418826238673370e-02
3.779999999999999716e+01,1.060888200701324419e-01
3.784000000000000341e+01,1.159637470382902380e-01
3.788000000000000256e+01,1.408443859822077482e-01
3.792000000000000171e+01,1.265088194063226923e-01
3.796000000000000085e+01,1.359825200700822689e-01
3.800000000000000000e+01,1.580609576875267319e-01
3.803999999999999915e+01,1.893427559316472608e-01
3.807999999999999829e+01,1.934131948029496062e-01
3.811999999999999744e+01,2.114889321499663077e-01
3.815999999999999659e+01,2.549745760806216288e-01
3.820000000000000284e+01,2.928575901054642494e-01
3.824000000000000199e+01,3.693558451341618087e-01
3.828000000000000114e+01,4.546572899017171654e-01
3.832000000000000028e+01,5.529636211693303993e-01
3.835999999999999943e+01,6.334623833182924102e-01
3.839999999999999858e+01,6.937526043753065030e-01
3.843999999999999773e+01,7.620456855906532212e-01
3.847999999999999687e+01,8.591500359971464551e-01
3.852000000000000313e+01,9.510519060442002015e-01
3.856000000000000227e+01,9.709242833794847760e-01
3.860000000000000142e+01,1.000000000000000000e+00
3.864000000000000057e+01,9.300353033097523703e-01
3.867999999999999972e+01,8.560686053869634993e-01
3.871999999999999886e+01,7.104725703963343797e-01
3.875999999999999801e+01,5.890859338990552807e-01
3.879999999999999716e+01,4.959103117855842568e-01
3.884000000000000341e+01,4.125382624232372120e-01
3.888000000000000256e+01,3.487737469539998747e-01
3.892000000000000171e+01,3.064174916901640788e-01
3.896000000000000085e+01,2.390507330951188447e-01
3.900000000000000000e+01,2.271059796828948096e-01
3.903999999999999915e+01,2.279660044609850278e-01
3.907999999999999829e+01,2.118187561643923300e-01
3.911999999999999744e+01,2.058752316896856061e-01
3.915999999999999659e+01,1.677182849151004906e-01
3.920000000000000284e+01,1.693770277834893700e-01
3.924000000000000199e+01,1.596307558604249943e-01
3.928000000000000114e+01,1.662907086547032454e-01
3.932000000000000028e+01,1.605452392550386076e-01
3.935999999999999943e+01,1.547993601230670535e-01
3.939999999999999858e+01,1.730627742234800426e-01
3.943999999999999773e+01,1.591127553532919181e-01
3.947999999999999687e+01,1.539658804902929445e-01
3.952000000000000313e+01,1.712276473205728566e-01
3.956000000000000227e+01,1.748834975861222329e-01
3.960000000000000142e+01,1.551294670961775035e-01
3.964000000000000057e+01,1.769918373176092574e-01
3.967999999999999972e+01,2.072571821828005922e-01
3.971999999999999886e+01,1.820997024005569509e-01
3.975999999999999801e+01,2.091629049058669199e-01
3.979999999999999716e+01,2.380264087472724055e-01
3.984000000000000341e+01,2.272734721567207794e-01
3.988000000000000256e+01,2.701417793757521779e-01
3.992000000000000171e+01,2.807966353315149988e-01
3.996000000000000085e+01,3.520755625240646336e-01
4.000000000000000000e+01,3.879397414726905025e-01
4.003999999999999915e+01,4.264045360940474372e-01
4.007999999999999829e+01,4.962815902506432786e-01
4.011999999999999744e+01,5.639573161333764073e-01
4.015999999999999659e+01,6.178270217148020826e-01
4.020000000000000284e+01,6.760980647080843120e-01
4.024000000000000199e+01,7.403710905547725707e-01
4.028000000000000114e+01,7.794334818946734300e-01
4.032000000000000028e+01,7.954861267815636072e-01
4.035999999999999943e+01,7.755237670928022409e-01
4.039999999999999858e+01,7.883742208393645923e-01
4.043999999999999773e+01,7.460019033702328661e-01
4.047999999999999687e+01,7.240373823016220678e-01
4.052000000000000313e+01,6.326443451458333422e-01
4.056000000000000227e+01,5.622593439540146676e-01
4.060000000000000142e+01,5.244870677048322216e-01
4.064000000000000057e+01,4.496993718555639119e-01
4.067999999999999972e+01,4.107256918320314476e-01
4.071999999999999886e+01,3.451407944382367532e-01
4.075999999999999801e+01,3.093674836991299193e-01
4.079999999999999716e+01,2.701923335470940435e-01
4.084000000000000341e+01,2.446222164708388436e-01
4.088000000000000256e+01,2.232533300210854110e-01
4.092000000000000171e+01,2.056855109319602193e-01
4.096000000000000085e+01,1.897178681009084877e-01
4.100000000000000000e+01,1.617449007930624461e-01
4.103999999999999915e+01,1.249679014159105067e-01
4.107999999999999829e+01,1.316079757088137181e-01
4.111999999999999744e+01,1.236416696321053083e-01
4.115999999999999659e+01,1.206769069941453637e-01
4.120000000000000284e+01,1.077076209648696881e-01
4.124000000000000199e+01,1.085434336382273962e-01
4.128000000000000114e+01,1.155812704016207643e-01
4.132000000000000028e+01,1.040111017586110020e-01
4.135999999999999943e+01,8.563769755860700661e-02
4.139999999999999858e+01,1.034784434868223912e-01
4.143999999999999773e+01,9.630859157171298146e-02
4.147999999999999687e+01,8.533671258757762057e-02
4.152000000000000313e+01,7.756563548600904634e-02
4.156000000000000227e+01,8.820150491903604173e-02
4.160000000000000142e+01,6.462305035703480582e-02
4.164000000000000057e+01,7.785897938914626559e-02
4.167999999999999972e+01,7.488785974426209746e-02
4.171999999999999886e+01,7.971939438707367764e-02
4.175999999999999801e+01,8.034872954865190930e-02
4.179999999999999716e+01,7.337448890198809692e-02
4.184000000000000341e+01,7.680394928950358413e-02
4.188000000000000256e+01,6.922845601737936949e-02
4.192000000000000171e+01,6.445358764244776828e-02
4.196000000000000085e+01,5.727724000101911545e-02
4.200000000000000000e+01,7.290960128223880621e-02
4.203999999999999915e+01,6.353134185429941405e-02
4.207999999999999829e+01,5.195167945743835863e-02
4.211999999999999744e+01,5.337675874368433965e-02
4.215999999999999659e+01,6.340479903231699410e-02
4.220000000000000284e+01,5.182358731685435260e-02
4.224000000000000199e+01,6.045002405805607881e-02
4.228000000000000114e+01,6.667496933764903433e-02
4.232000000000000028e+01,5.509219458408429887e-02
4.235999999999999943e+01,4.590986621794897193e-02
4.239999999999999858e+01,5.613485672795277132e-02
4.243999999999999773e+01,4.435042434604295758e-02
4.247999999999999687e+01,6.017662349193016180e-02
4.252000000000000313e+01,4.438951490149362772e-02
4.256000000000000227e+01,5.661319653156091092e-02
4.260000000000000142e+01,4.382623611102368782e-02
4.264000000000000057e+01,3.864181404649397189e-02
4.267999999999999972e+01,4.065976707209810470e-02
4.271999999999999886e+01,3.307330052109079543e-02
4.275999999999999801e+01,4.189292606558697729e-02
4.279999999999999716e+01,4.090804811395147567e-02
4.284000000000000341e+01,4.252367912782027692e-02
4.288000000000000256e+01,5.054135412690883428e-02
4.292000000000000171e+01,6.316034375014709101e-02
4.296000000000000085e+01,4.396592799804079077e-02
4.300000000000000000e+01,4.858058741257066659e-02
4.303999999999999915e+01,4.279049157240818330e-02
4.307999999999999829e+01,5.380663737412212655e-02
4.311999999999999744e+01,4.741519439638395422e-02
4.315999999999999659e+01,5.402845346763997941e-02
4.320000000000000284e+01,5.123735554035942219e-02
4.324000000000000199e+01,5.364780265434399703e-02
4.328000000000000114e+01,4.525332362581776374e-02
4.332000000000000028e+01,4.386111442645966585e-02
4.335999999999999943e+01,4.606979872926122987e-02
4.339999999999999858e+01,4.887816194869828990e-02
4.343999999999999773e+01,5.288644517260885497e-02
4.347999999999999687e+01,5.589375729843843593e-02
4.352000000000000313e+01,5.569920722363221055e-02
4.356000000000000227e+01,5.590424909716337071e-02
4.360000000000000142e+01,4.970613178940349458e-02
4.364000000000000057e+01,3.650461116373656528e-02
4.367999999999999972e+01,5.871683029314914842e-02
4.371999999999999886e+01,5.291715162793142468e-02
4.375999999999999801e+01,5.672077734325373100e-02
4.379999999999999716e+01,6.192439021429139989e-02
4.384000000000000341e+01,4.731941641796766351e-02
4.388000000000000256e+01,6.732785127180934692e-02
4.392000000000000171e+01,5.932438070907585653e-02
4.396000000000000085e+01,5.852323645602968555e-02
4.400000000000000000e+01,6.672514482496286203e-02
4.403999999999999915e+01,6.332177460502566579e-02
4.407999999999999829e+01,6.131838087008107535e-02
4.411999999999999744e+01,6.051488122499788097e-02
4.415999999999999659e+01,7.251596464844257961e-02
4.420000000000000284e+01,7.711346167105025129e-02
4.424000000000000199e+01,8.691246562519906738e-02
4.428000000000000114e+01,9.851160018388042949e-02
4.432000000000000028e+01,9.170269587772926501e-02
4.435999999999999943e+01,9.869877137187295368e-02
4.439999999999999858e+01,1.287035451960700516e-01
4.443999999999999773e+01,1.060864466853281285e-01
4.447999999999999687e+01,1.210839470200522905e-01
4.452000000000000313e+01,1.274773635343736944e-01
4.456000000000000227e+01,1.494764800637261581e-01
4.460000000000000142e+01,1.600703775335053092e-01
4.464000000000000057e+01,1.646612379293651840e-01
4.467999999999999972e+01,1.638493023391438541e-01
4.471999999999999886e+01,2.052538164751287197e-01
4.475999999999999801e+01,2.002389530740752988e-01
4.479999999999999716e+01,2.318382719696646110e-01
4.484000000000000341e+01,2.294232242654627441e-01
4.488000000000000256e+01,2.224056964362043087e-01
4.492000000000000171e+01,2.319942592561879680e-01
4.496000000000000085e+01,2.307778319093246877e-01
4.500000000000000000e+01,2.233582728982991816e-01
4.503999999999999915e+01,2.083350146035262140e-01
4.507999999999999829e+01,1.951118564255066579e-01
4.511999999999999744e+01,1.768860472346120427e-01
4.515999999999999659e+01,1.644619525265396398e-01
4.520000000000000284e+01,1.642421586406553891e-01
4.524000000000000199e+01,1.436134821215692137e-01
4.528000000000000114e+01,1.121798032405244144e-01
4.532000000000000028e+01,9.975317021374026372e-02
4.535999999999999943e+01,8.532509008888240765e-02
4.539999999999999858e+01,7.709887704199777647e-02
4.543999999999999773e+01,7.387404432424329870e-02
4.547999999999999687e+01,7.044848777192927458e-02
4.552000000000000313e+01,6.282058844582004420e-02
4.556000000000000227e+01,6.019406487567408037e-02
4.560000000000000142e+01,7.237287820347711176e-02
4.564000000000000057e+01,6.594352149086965542e-02
4.567999999999999972e+01,5.391124981171480091e-02
4.571999999999999886e+01,4.788075214467912150e-02
4.575999999999999801e+01,5.665558527803658123e-02
4.579999999999999716e+01,3.261650045072177206e-02
4.584000000000000341e+01,4.399107306148296315e-02
4.588000000000000256e+01,4.756183350558618184e-02
4.592000000000000171e+01,4.392902287086959678e-02
4.596000000000000085e+01,4.029555097966825566e-02
4.600000000000000000e+01,4.486473200802915812e-02
4.603999999999999915e+01,3.662807300361791557e-02
4.607999999999999829e+01,4.099584302632236499e-02
4.611999999999999744e+01,4.116124740939723636e-02
4.615999999999999659e+01,3.012145415247178409e-02
4.620000000000000284e+01,3.328673231543387290e-02
4.624000000000000199e+01,3.164939765337247690e-02
4.628000000000000114e+01,3.821470524015056769e-02
4.632000000000000028e+01,4.337877175574709337e-02
4.635999999999999943e+01,4.173941216572985696e-02
4.639999999999999858e+01,2.089161095968508977e-02
4.643999999999999773e+01,3.385679735994316653e-02
4.647999999999999687e+01,3.061475215653083198e-02
4.652000000000000313e+01,4.517922185125645973e-02
4.656000000000000227e+01,2.692974462191978502e-02
4.660000000000000142e+01,3.769130800351404992e-02
4.664000000000000057e+01,3.064498671794335313e-02
4.667999999999999972e+01,3.420226288623061384e-02
4.671999999999999886e+01,3.575804012721973263e-02
4.675999999999999801e+01,3.671288301171802410e-02
4.679999999999999716e+01,2.726282734896202237e-02
4.684000000000000341e+01,3.081733349141625028e-02
4.688000000000000256e+01,4.197421640464862880e-02
4.692000000000000171e+01,3.832441704112842656e-02
4.696000000000000085e+01,4.707893229742457497e-02
4.700000000000000000e+01,3.282344652775441574e-02
4.703999999999999915e+01,3.757494106361980446e-02
4.707999999999999829e+01,3.392233508893157529e-02
4.711999999999999744e+01,2.866837668454027058e-02
4.715999999999999659e+01,2.461419651644962750e-02
4.720000000000000284e+01,3.396472617555330170e-02
4.724000000000000199e+01,3.211001703615477820e-02
4.728000000000000114e+01,3.605694158696382684e-02
4.732000000000000028e+01,2.339644078044975789e-02
4.735999999999999943e+01,2.534112892802815181e-02
4.739999999999999858e+01,2.728510094111939038e-02
4.743999999999999773e+01,2.362609091454923732e-02
4.747999999999999687e+01,3.497242701038933560e-02
4.752000000000000313e+01,4.211634411298637026e-02
4.756000000000000227e+01,3.445355454860757338e-02
4.760000000000000142e+01,3.999537869679117841e-02
4.764000000000000057e+01,3.413186793184072587e-02
4.767999999999999972e+01,3.266940951801188681e-02
4.771999999999999886e+01,4.401139850209388749e-02
4.775999999999999801e+01,3.454424707498515018e-02
4.779999999999999716e+01,3.147895213325457853e-02
4.784000000000000341e+01,3.621607824770952527e-02
4.788000000000000256e+01,4.135263167649459726e-02
4.792000000000000171e+01,2.347914901836736443e-02
4.796000000000000085e+01,3.681754472011226215e-02
4.800000000000000000e+01,3.334840827917940481e-02
4.803999999999999915e+01,2.787772260611280986e-02
4.807999999999999829e+01,2.700815491102062302e-02
4.811999999999999744e+01,4.114390894811542632e-02
4.815999999999999659e+01,4.307398477205039850e-02
4.820000000000000284e+01,2.579555038245481477e-02
4.824000000000000199e+01,3.332639581825386915e-02
4.828000000000000114e+01,2.965196282143790080e-02
4.832000000000000028e+01,3.297960910517067773e-02
4.835999999999999943e+01,3.710682615205072865e-02
4.839999999999999858e+01,3.262981151279934627e-02
4.843999999999999773e+01,3.015284981237138437e-02
4.847999999999999687e+01,3.807933609755601023e-02
4.852000000000000313e+01,3.139916000117223133e-02
4.856000000000000227e+01,3.432210535865379275e-02
4.860000000000000142e+01,2.223822354430425932e-02
4.864000000000000057e+01,3.176231237958245662e-02
4.867999999999999972e+01,2.307827706237428403e-02
4.871999999999999886e+01,2.179646752330995085e-02
4.875999999999999801e+01,3.471963184323997170e-02
4.879999999999999716e+01,4.584129883838838904e-02
4.884000000000000341e+01,4.375685735205307042e-02
4.888000000000000256e+01,2.966679108429904482e-02
4.892000000000000171e+01,3.898541263213105290e-02
4.896000000000000085e+01,3.469775938382776287e-02
4.900000000000000000e+01,3.200997599141783279e-02
4.903999999999999915e+01,2.571995829121155597e-02
4.907999999999999829e+01,4.023757098938512272e-02
4.911999999999999744e+01,4.234938801832155431e-02
4.915999999999999659e+01,3.545678265625168413e-02
4.920000000000000284e+01,2.816323082070699285e-02
4.924000000000000199e+01,2.427026753140302043e-02
4.928000000000000114e+01,2.877991303250914887e-02
4.932000000000000028e+01,3.749046751404740141e-02
4.935999999999999943e+01,2.959351889442572714e-02
4.939999999999999858e+01,4.130370325361822081e-02
4.943999999999999773e+01,3.480573449693416532e-02
4.947999999999999687e+01,3.110810252793002467e-02
4.952000000000000313e+01,3.441250410780593433e-02
4.956000000000000227e+01,3.371448982134440248e-02
4.960000000000000142e+01,3.681721210310760078e-02
4.964000000000000057e+01,5.872673473438190517e-02
4.967999999999999972e+01,6.502914642309627624e-02
4.971999999999999886e+01,5.252315171298440472e-02
4.975999999999999801e+01,7.162912850672636944e-02
4.979999999999999716e+01,7.612839413845320924e-02
4.984000000000000341e+01,6.562078534229134896e-02
4.988000000000000256e+01,7.772150429341129207e-02
4.992000000000000171e+01,8.581979365869316090e-02
4.996000000000000085e+01,8.051185098885814406e-02
5.000000000000000000e+01,8.680778360230945179e-02
5.003999999999999915e+01,7.089392281920313399e-02
5.007999999999999829e+01,6.878482384877093736e-02
5.011999999999999744e+01,5.987215548016316946e-02
5.015999999999999659e+01,5.776141539946985648e-02
5.020000000000000284e+01,5.685033770151649846e-02
5.024000000000000199e+01,4.833536254925143577e-02
5.028000000000000114e+01,3.881915715278269619e-02
5.032000000000000028e+01,3.430414610999152347e-02
5.035999999999999943e+01,4.039259227727443752e-02
5.039999999999999858e+01,2.827284874334581866e-02
5.043999999999999773e+01,3.996189683970761269e-02
5.047999999999999687e+01,4.044558266206180891e-02
5.052000000000000313e+01,3.452584558383554880e-02
5.056000000000000227e+01,3.220672761775676685e-02
5.060000000000000142e+01,4.069113858616059398e-02
5.064000000000000057e+01,3.636953421706233536e-02
5.067999999999999972e+01,2.604466259131247088e-02
5.071999999999999886e+01,3.312598406137549911e-02
5.075999999999999801e+01,3.900597612382512153e-02
5.079999999999999716e+01,3.067938065602041423e-02
5.084000000000000341e+01,3.235598149339533741e-02
5.088000000000000256e+01,4.343553449933378052e-02
5.092000000000000171e+01,3.510639276255030083e-02
5.096000000000000085e+01,4.038189843114161487e-02
5.100000000000000000e+01,2.584854456674835765e-02
5.103999999999999915e+01,3.112234205196441963e-02
5.107999999999999829e+01,2.419035004362689659e-02
5.111999999999999744e+01,3.086299934310825568e-02
5.115999999999999659e+01,2.713058393693919268e-02
5.120000000000000284e+01,2.859941021863293339e-02
5.124000000000000199e+01,3.226826360266549926e-02
5.128000000000000114e+01,2.313107725897272857e-02
5.132000000000000028e+01,2.319674544482262443e-02
5.135999999999999943e+01,2.006025264980143552e-02
5.139999999999999858e+01,2.632669220628739565e-02
5.143999999999999773e+01,2.658983554273157759e-02
5.147999999999999687e+01,2.705218812775750034e-02
5.152000000000000313e+01,3.531682152518498402e-02
5.156000000000000227e+01,3.217597061936078306e-02
5.160000000000000142e+01,2.703343481078572183e-02
5.164000000000000057e+01,3.169398394886875636e-02
5.167999999999999972e+01,3.235203642799963641e-02
5.171999999999999886e+01,2.540613505042738779e-02
5.175999999999999801e+01,3.866751932494787852e-02
5.179999999999999716e+01,2.411677874901127158e-02
5.184000000000000341e+01,3.077372513010120936e-02
5.188000000000000256e+01,3.242776287658253459e-02
5.192000000000000171e+01,2.727816262738525649e-02
5.196000000000000085e+01,4.013495083017025455e-02
5.200000000000000000e+01,2.297871698238767788e-02
5.203999999999999915e+01,2.863080943562551148e-02
5.207999999999999829e+01,1.887578035370846355e-02
5.211999999999999744e+01,3.893190500001576099e-02
5.215999999999999659e+01,3.217629543007700932e-02
5.220000000000000284e+01,4.002569036316705464e-02
5.224000000000000199e+01,3.887054552730116047e-02
5.228000000000000114e+01,3.051158723477143814e-02
5.232000000000000028e+01,3.295609232799920352e-02
5.235999999999999943e+01,3.539969226250934409e-02
5.239999999999999858e+01,3.504125332352018424e-02
5.243999999999999773e+01,3.928376620410916481e-02
5.247999999999999687e+01,3.011995101307711128e-02
5.252000000000000313e+01,3.816217944961262237e-02
5.256000000000000227e+01,2.759597412644828121e-02
5.260000000000000142e+01,2.523217019866842367e-02
5.264000000000000057e+01,3.827367748860825009e-02
5.267999999999999972e+01,3.830901082646681610e-02
5.271999999999999886e+01,2.833938174899027634e-02
5.275999999999999801e+01,2.337085403746497203e-02
5.279999999999999716e+01,3.340746970461887233e-02
5.284000000000000341e+01,3.103814793436272118e-02
5.288000000000000256e+01,3.847186385470700853e-02
5.292000000000000171e+01,1.589252266353770315e-02
5.296000000000000085e+01,3.933085371855398610e-02
5.300000000000000000e+01,1.734989756611873477e-02
5.303999999999999915e+01,2.417965572725021273e-02
5.307999999999999829e+01,2.920775345398180997e-02
5.311999999999999744e+01,2.022925610664196017e-02
5.315999999999999659e+01,3.906106414599030963e-02
5.320000000000000284e+01,1.907624609043942834e-02
5.324000000000000199e+01,3.810625913436969936e-02
5.328000000000000114e+01,3.252538485732884427e-02
5.332000000000000028e+01,3.254583321702087667e-02
5.335999999999999943e+01,3.536647049866405851e-02
5.339999999999999858e+01,3.678559689228040608e-02
5.343999999999999773e+01,2.879997604378744039e-02
5.347999999999999687e+01,3.701995788381539504e-02
5.352000000000000313e+01,2.182952848099247931e-02
5.356000000000000227e+01,3.504963183319521891e-02
5.360000000000000142e+01,2.866085743787359641e-02
5.364000000000000057e+01,2.847363609640017265e-02
5.367999999999999972e+01,3.108659148176631457e-02
5.371999999999999886e+01,2.769616375692020641e-02
5.375999999999999801e+01,2.490502013197000084e-02
5.379999999999999716e+01,2.991607042925089124e-02
5.384000000000000341e+01,2.712300520647165092e-02
5.388000000000000256e+01,3.053148389120685646e-02
5.392000000000000171e+01,2.753641010230037031e-02
5.396000000000000085e+01,2.954239194767644891e-02
5.400000000000000000e+01,3.895039835185415411e-02
5.403999999999999915e+01,3.515209810398378654e-02
5.407999999999999829e+01,4.315759852246859457e-02
5.411999999999999744e+01,3.835695098161213956e-02
5.415999999999999659e+01,2.835322704523420348e-02
5.420000000000000284e+01,3.635580619505703742e-02
5.424000000000000199e+01,2.655021104381331820e-02
5.428000000000000114e+01,3.415067331776538290e-02
5.432000000000000028e+01,3.114586958859709431e-02
5.435999999999999943e+01,3.374234886204880574e-02
5.439999999999999858e+01,2.893485301547963143e-02
5.443999999999999773e+01,3.553098237428034545e-02
5.447999999999999687e+01,4.052547881581003431e-02
5.452000000000000313e+01,3.451453989078995255e-02
5.456000000000000227e+01,3.250422938050635813e-02
5.460000000000000142e+01,3.369422227760100752e-02
5.464000000000000057e+01,3.608370835026155493e-02
5.467999999999999972e+01,2.646734860510477003e-02
5.471999999999999886e+01,2.925500774830686393e-02
5.475999999999999801e+01,3.584320681355838284e-02
5.479999999999999716e+01,4.102984163716955068e-02
5.484000000000000341e+01,2.840827929387978665e-02
5.488000000000000256e+01,3.539364108811725307e-02
5.492000000000000171e+01,2.937274356449191826e-02
5.496000000000000085e+01,3.355496620472604719e-02
5.500000000000000000e+01,3.733602133508674009e-02
5.503999999999999915e+01,3.851501785301939679e-02
5.507999999999999829e+01,3.269017507780355020e-02
5.511999999999999744e+01,3.286674808330222741e-02
5.515999999999999659e+01,3.684384576696080049e-02
5.520000000000000284e+01,2.841491607426091873e-02
5.524000000000000199e+01,3.238998545286347203e-02
5.528000000000000114e+01,2.876096530414579827e-02
5.532000000000000028e+01,3.433464724607523944e-02
5.535999999999999943e+01,4.310860363199274514e-02
5.539999999999999858e+01,3.647531195847197177e-02
5.543999999999999773e+01,3.864455606094679280e-02
5.547999999999999687e+01,3.741140129974568351e-02
5.552000000000000313e+01,3.637730182384172478e-02
5.556000000000000227e+01,2.893958737434889836e-02
5.560000000000000142e+01,4.310957833080539259e-02
5.564000000000000057e+01,3.506956247625040574e-02
5.567999999999999972e+01,3.383126454393397403e-02
5.571999999999999886e+01,3.699371256055893065e-02
5.575999999999999801e+01,3.555326581833125749e-02
5.579999999999999716e+01,4.431590722779493036e-02
5.584000000000000341e+01,4.407387167329662736e-02
5.588000000000000256e+01,3.242618718153931351e-02
5.592000000000000171e+01,3.778433587354593226e-02
5.596000000000000085e+01,3.393772215768139228e-02
5.600000000000000000e+01,3.709289503968598439e-02
5.603999999999999915e+01,4.364839732180875870e-02
5.607999999999999829e+01,3.879824304472775237e-02
5.611999999999999744e+01,3.554768728230592312e-02
5.615999999999999659e+01,3.929891202019742541e-02
5.620000000000000284e+01,5.005191573401339411e-02
5.624000000000000199e+01,3.239238277797101134e-02
5.628000000000000114e+01,4.574433023815561300e-02
5.632000000000000028e+01,4.488947980240995395e-02
5.635999999999999943e+01,3.723082216381163462e-02
5.639999999999999858e+01,4.897894986521780097e-02
5.643999999999999773e+01,4.471954726084582943e-02
5.647999999999999687e+01,4.966280253984133031e-02
5.652000000000000313e+01,5.120361932104795094e-02
5.656000000000000227e+01,4.834159172636514484e-02
5.660000000000000142e+01,5.568262179559459180e-02
5.664000000000000057e+01,5.121781222269018025e-02
5.667999999999999972e+01,4.615169024483391919e-02
5.671999999999999886e+01,5.489007703108506053e-02
5.675999999999999801e+01,4.922156828238512943e-02
5.679999999999999716e+01,4.835392606560948159e-02
5.684000000000000341e+01,4.828553144152251952e-02
5.688000000000000256e+01,4.461460372940381086e-02
5.692000000000000171e+01,5.494825803019007249e-02
5.696000000000000085e+01,4.627314914700671189e-02
5.700000000000000000e+01,4.960181052052708983e-02
5.703999999999999915e+01,4.612663877658244871e-02
5.707999999999999829e+01,5.125385943794390220e-02
5.711999999999999744e+01,3.557158298109882461e-02
5.715999999999999659e+01,5.510245168951285327e-02
5.720000000000000284e+01,4.241921059862917981e-02
5.724000000000000199e+01,4.654167151593156110e-02
5.728000000000000114e+01,4.085907710830021661e-02
5.732000000000000028e+01,5.518347559195441870e-02
5.735999999999999943e+01,5.029901477700705892e-02
5.739999999999999858e+01,4.341264802291027597e-02
5.743999999999999773e+01,5.733359306990149645e-02
5.747999999999999687e+01,4.864429944250458354e-02
5.752000000000000313e+01,3.955374226873003413e-02
5.756000000000000227e+01,3.586426527571670575e-02
5.760000000000000142e+01,4.637942525173840980e-02
5.764000000000000057e+01,4.728959705406813457e-02
5.767999999999999972e+01,5.340076359324982813e-02
5.771999999999999886e+01,4.870645368550752946e-02
5.775999999999999801e+01,4.821273111212758672e-02
5.779999999999999716e+01,4.491676387273933063e-02
5.784000000000000341e+01,5.602550532679472645e-02
5.788000000000000256e+01,4.592455895776879210e-02
5.792000000000000171e+01,5.022831823340862673e-02
5.796000000000000085e+01,4.312634930356373797e-02
5.800000000000000000e+01,6.863644220715939270e-02
5.803999999999999915e+01,5.813085675518493006e-02
5.807999999999999829e+01,6.303037520403212413e-02
5.811999999999999744e+01,6.572787940398627793e-02
5.815999999999999659e+01,6.142142693284239480e-02
5.820000000000000284e+01,5.151158236140783442e-02
5.824000000000000199e+01,6.480998955219022251e-02
5.828000000000000114e+01,5.449772322709366817e-02
5.832000000000000028e+01,4.958650811936813479e-02
5.835999999999999943e+01,5.807957753431818720e-02
5.839999999999999858e+01,7.337426121305765103e-02
5.843999999999999773e+01,7.466214707399458639e-02
5.847999999999999687e+01,6.914614493946416585e-02
5.852000000000000313e+01,6.723045856367891593e-02
5.856000000000000227e+01,7.051573338818863113e-02
5.860000000000000142e+01,7.259938002484957187e-02
5.864000000000000057e+01,7.108042650036466847e-02
5.867999999999999972e+01,7.236145915409981921e-02
5.871999999999999886e+01,6.683859466603385424e-02
5.875999999999999801e+01,6.791724985151438576e-02
5.879999999999999716e+01,6.499313703680861809e-02
5.884000000000000341e+01,6.066730601717798543e-02
5.888000000000000256e+01,6.614428402980443433e-02
5.892000000000000171e+01,5.681412244899147757e-02
5.896000000000000085e+01,5.428555379052260599e-02
5.900000000000000000e+01,5.215598866625406616e-02
5.903999999999999915e+01,6.763238043563790658e-02
5.907999999999999829e+01,5.869774471839436097e-02
5.911999999999999744e+01,5.576437234296977713e-02
5.915999999999999659e+01,5.583104872384002382e-02
5.920000000000000284e+01,5.669688275845051473e-02
5.924000000000000199e+01,5.496049811979256822e-02
5.928000000000000114e+01,5.342302547386989370e-02
5.932000000000000028e+01,4.668227978625046765e-02
5.935999999999999943e+01,4.534254568188920975e-02
5.939999999999999858e+01,5.140463034382056207e-02
5.943999999999999773e+01,4.986246694198018248e-02
5.947999999999999687e+01,5.011985487686905494e-02
5.952000000000000313e+01,4.377339605292007024e-02
5.956000000000000227e+01,5.223174211517427751e-02
5.960000000000000142e+01,4.688332702308855432e-02
5.964000000000000057e+01,4.573542761908429288e-02
5.967999999999999972e+01,4.078480754907899686e-02
5.971999999999999886e+01,4.103510447208890549e-02
5.975999999999999801e+01,4.408534641481709482e-02
5.979999999999999716e+01,3.833084134981898372e-02
5.984000000000000341e+01,4.618064527584732348e-02
5.988000000000000256e+01,4.442537566240215008e-02
5.992000000000000171e+01,3.226470750212514366e-02
5.996000000000000085e+01,3.470874811341942423e-02
