2.003999999999999915e+01,3.899007120975788582e-02
2.007999999999999829e+01,4.292157598695092030e-02
2.012000000000000099e+01,3.694138286518700715e-02
2.016000000000000014e+01,3.933811957893811051e-02
2.019999999999999929e+01,3.321923389132248883e-02
2.023999999999999844e+01,4.120119710472006785e-02
2.028000000000000114e+01,3.899224055970048480e-02
2.032000000000000028e+01,3.524804985572402988e-02
2.035999999999999943e+01,3.248156488296630867e-02
2.039999999999999858e+01,2.496886196688019588e-02
2.044000000000000128e+01,2.904405884353217920e-02
2.048000000000000043e+01,2.809381899009746886e-02
2.051999999999999957e+01,4.250088799648917004e-02
2.055999999999999872e+01,3.708408435499939426e-02
2.060000000000000142e+01,3.362223222583302085e-02
2.064000000000000057e+01,3.127768293046494924e-02
2.067999999999999972e+01,5.196886848612955467e-02
2.071999999999999886e+01,3.580401669095046452e-02
2.076000000000000156e+01,3.904509239134486276e-02
2.080000000000000071e+01,2.385836479605018060e-02
2.083999999999999986e+01,4.259677875466565122e-02
2.087999999999999901e+01,2.810895349979687999e-02
2.092000000000000171e+01,3.972822673250344522e-02
2.096000000000000085e+01,4.073773051775612941e-02
2.100000000000000000e+01,4.356256259480354581e-02
2.103999999999999915e+01,2.921605287132483797e-02
2.107999999999999829e+01,2.380486907543020308e-02
2.112000000000000099e+01,2.956273538323675454e-02
2.116000000000000014e+01,3.113278598518284812e-02
2.119999999999999929e+01,3.340129434094046140e-02
2.123999999999999844e+01,2.743335606429086679e-02
2.128000000000000114e+01,4.282583530907427272e-02
2.132000000000000028e+01,3.239127486307164655e-02
2.135999999999999943e+01,3.745359887057565090e-02
2.139999999999999858e+01,4.139947080876191232e-02
2.144000000000000128e+01,4.115751628663803785e-02
2.148000000000000043e+01,4.133479304981756836e-02
2.151999999999999957e+01,4.095404456274623350e-02
2.155999999999999872e+01,3.764193571957778067e-02
2.160000000000000142e+01,2.078826784974304592e-02
2.164000000000000057e+01,3.576559295138174305e-02
2.167999999999999972e+01,3.273390452871986073e-02
2.171999999999999886e+01,3.361163459899178807e-02
2.176000000000000156e+01,3.113917306032918178e-02
2.180000000000000071e+01,3.467024479733837872e-02
2.183999999999999986e+01,3.736406327923883636e-02
2.187999999999999901e+01,3.265905768930808806e-02
2.192000000000000171e+01,3.563287505034977432e-02
2.196000000000000085e+01,2.953257098251005006e-02
2.200000000000000000e+01,3.320520464838083025e-02
2.203999999999999915e+01,3.380685166492575916e-02
2.207999999999999829e+01,3.496731477855423431e-02
2.212000000000000099e+01,3.501129816856580340e-02
2.216000000000000014e+01,3.379919244158140906e-02
2.219999999999999929e+01,3.244785891748463991e-02
2.223999999999999844e+01,3.123651177398399648e-02
2.228000000000000114e+01,3.644750304104334149e-02
2.232000000000000028e+01,2.993180976851704880e-02
2.235999999999999943e+01,3.137413826117213533e-02
2.239999999999999858e+01,1.773919057284089121e-02
2.244000000000000128e+01,3.509755798680892769e-02
2.248000000000000043e+01,3.598256757679867135e-02
2.251999999999999957e+01,2.569931637356977217e-02
2.255999999999999872e+01,2.058192211318859294e-02
2.260000000000000142e+01,2.635430539750227216e-02
2.264000000000000057e+01,3.785097398008058917e-02
2.267999999999999972e+01,1.737780492668973206e-02
2.271999999999999886e+01,2.859597950629464216e-02
2.276000000000000156e+01,2.459725622073435577e-02
2.280000000000000071e+01,2.646241994506820863e-02
2.283999999999999986e+01,2.009107558299689719e-02
2.287999999999999901e+01,3.186910657668915597e-02
2.292000000000000171e+01,3.582944998236423789e-02
2.296000000000000085e+01,2.973837855120471663e-02
2.300000000000000000e+01,3.383903001609470107e-02
2.303999999999999915e+01,4.701453998445054988e-02
2.307999999999999829e+01,4.036608051487822202e-02
2.312000000000000099e+01,4.432816290339301746e-02
2.316000000000000014e+01,3.474862634759363911e-02
2.319999999999999929e+01,3.633806000529843372e-02
2.323999999999999844e+01,2.634038164439786098e-02
2.328000000000000114e+01,3.435245541873224728e-02
2.332000000000000028e+01,3.091702195879064349e-02
2.335999999999999943e+01,1.980349186801155792e-02
2.339999999999999858e+01,3.549500429625702946e-02
2.344000000000000128e+01,3.010606274616200659e-02
2.348000000000000043e+01,2.737000137634036656e-02
2.351999999999999957e+01,2.826407364964638944e-02
2.355999999999999872e+01,2.999612088914629243e-02
2.360000000000000142e+01,2.698182727732225186e-02
2.364000000000000057e+01,2.215295627543729939e-02
2.367999999999999972e+01,2.011656562910516671e-02
2.371999999999999886e+01,3.232049807837018146e-02
2.376000000000000156e+01,3.112239639510096939e-02
2.380000000000000071e+01,1.470735690156814435e-02
2.383999999999999986e+01,2.495773517018133256e-02
2.387999999999999901e+01,2.906568326272887526e-02
2.392000000000000171e+01,3.540767106461263636e-02
2.396000000000000085e+01,1.354918420711757193e-02
2.400000000000000000e+01,2.282356039130301051e-02
2.403999999999999915e+01,2.930608882272376509e-02
2.407999999999999829e+01,2.392225725813199380e-02
2.412000000000000099e+01,3.222030199752115576e-02
2.416000000000000014e+01,2.990845438146062449e-02
2.419999999999999929e+01,3.150593000463714627e-02
2.423999999999999844e+01,3.352253090497088472e-02
2.428000000000000114e+01,1.180609628006048031e-02
2.432000000000000028e+01,1.103113884289952905e-02
2.435999999999999943e+01,1.584079278392626355e-02
2.439999999999999858e+01,2.749152728005352028e-02
2.444000000000000128e+01,1.317549439306970639e-02
2.448000000000000043e+01,5.840146845515599427e-03
2.451999999999999957e+01,2.782274022571324876e-02
2.455999999999999872e+01,1.253032519438487292e-02
2.460000000000000142e+01,1.022172874569195720e-02
2.464000000000000057e+01,1.475420363400000573e-02
2.467999999999999972e+01,1.314421761924330391e-02
2.471999999999999886e+01,2.395961414995564573e-02
2.476000000000000156e+01,2.207097742453106859e-02
2.480000000000000071e+01,1.766967946975125242e-02
2.483999999999999986e+01,1.983022945616422922e-02
2.487999999999999901e+01,1.528987942964597779e-02
2.492000000000000171e+01,0.000000000000000000e+00
2.496000000000000085e+01,1.151510317173061980e-02
2.500000000000000000e+01,1.437479172307157445e-02
2.503999999999999915e+01,2.351710481979714731e-02
2.507999999999999829e+01,1.800086237117749441e-02
2.512000000000000099e+01,1.876724139524252322e-02
2.516000000000000014e+01,1.157623893866411950e-02
2.519999999999999929e+01,2.714158201151588290e-02
2.523999999999999844e+01,1.855502911563716023e-02
2.528000000000000114e+01,6.897365126087105953e-03
2.532000000000000028e+01,1.646035562959620446e-02
2.535999999999999943e+01,2.686125196355160227e-02
2.539999999999999858e+01,2.567495331600455968e-02
2.544000000000000128e+01,9.690477438933741208e-03
2.548000000000000043e+01,1.339096348220113197e-02
2.551999999999999957e+01,2.449091849088730344e-02
2.555999999999999872e+01,1.060131809786839761e-02
2.560000000000000142e+01,2.142255786918892055e-02
2.564000000000000057e+01,1.688718130111906482e-02
2.567999999999999972e+01,2.198499326553536234e-02
2.571999999999999886e+01,1.996304938258414846e-02
2.576000000000000156e+01,1.514919168382054294e-02
2.580000000000000071e+01,1.508224291247137194e-02
2.583999999999999986e+01,1.948298581812820535e-02
2.587999999999999901e+01,2.081259458486453204e-02
2.592000000000000171e+01,8.042046971023572924e-03
2.596000000000000085e+01,1.579408998349668067e-02
2.600000000000000000e+01,2.494244567293376832e-02
2.603999999999999915e+01,2.487691536876567369e-02
2.607999999999999829e+01,2.676612609697841608e-02
2.612000000000000099e+01,2.474654632599562060e-02
2.616000000000000014e+01,2.202915523113906440e-02
2.619999999999999929e+01,2.350022627208059323e-02
2.623999999999999844e+01,2.483191434456527916e-02
2.628000000000000114e+01,9.690098639826701457e-03
2.632000000000000028e+01,1.870066401701196007e-02
2.635999999999999943e+01,3.301654824082908557e-02
2.639999999999999858e+01,2.178441337147535989e-02
2.644000000000000128e+01,3.163328212035319137e-02
2.648000000000000043e+01,2.445020798214128308e-02
2.651999999999999957e+01,3.066970225285517784e-02
2.655999999999999872e+01,1.790274056537063951e-02
2.660000000000000142e+01,1.797991278599517934e-02
2.664000000000000057e+01,1.861572595980923867e-02
2.667999999999999972e+01,2.218351211995930883e-02
2.671999999999999886e+01,2.393660259110272359e-02
2.676000000000000156e+01,1.214793584643685843e-02
2.680000000000000071e+01,1.906692532335657261e-02
2.683999999999999986e+01,2.263552807489850258e-02
2.687999999999999901e+01,1.657138899839896359e-02
2.692000000000000171e+01,1.609176297369041900e-02
2.696000000000000085e+01,2.287194274877350775e-02
2.700000000000000000e+01,1.150329680798402310e-02
2.703999999999999915e+01,1.660857215821326047e-02
2.707999999999999829e+01,3.064894298353464108e-02
2.712000000000000099e+01,2.472558134255407186e-02
2.716000000000000014e+01,2.285103710794367943e-02
2.719999999999999929e+01,1.357746446695925688e-02
2.723999999999999844e+01,2.426800186097394924e-02
2.728000000000000114e+01,2.127715420960074946e-02
2.732000000000000028e+01,2.275394139028558832e-02
2.735999999999999943e+01,2.618542044015298442e-02
2.739999999999999858e+01,2.528923625653901192e-02
2.744000000000000128e+01,2.383479944288217564e-02
2.748000000000000043e+01,2.922132488537993594e-02
2.751999999999999957e+01,3.251390819781369707e-02
2.755999999999999872e+01,3.929686212500140691e-02
2.760000000000000142e+01,3.574900728470249700e-02
2.764000000000000057e+01,4.937308997531918153e-02
2.767999999999999972e+01,4.694243868755217791e-02
2.771999999999999886e+01,4.660607329884742384e-02
2.776000000000000156e+01,5.101654155640971550e-02
2.780000000000000071e+01,5.752129264033431499e-02
2.783999999999999986e+01,6.807483501268003778e-02
2.787999999999999901e+01,5.475559573125727414e-02
2.792000000000000171e+01,7.103338250189908387e-02
2.796000000000000085e+01,8.856779881132824384e-02
2.800000000000000000e+01,1.061023724099320886e-01
2.803999999999999915e+01,1.177735717661341913e-01
2.807999999999999829e+01,1.396362989019425405e-01
2.812000000000000099e+01,1.479572165860433275e-01
2.816000000000000014e+01,1.904822103860726867e-01
2.819999999999999929e+01,2.194653916616946809e-01
2.823999999999999844e+01,2.346275431625007846e-01
2.828000000000000114e+01,2.672408233266818645e-01
2.832000000000000028e+01,2.635562056616462812e-01
2.835999999999999943e+01,2.759266350169936599e-01
2.839999999999999858e+01,2.725215184537166935e-01
2.844000000000000128e+01,2.252796751725965885e-01
2.848000000000000043e+01,1.921383643044007605e-01
2.851999999999999957e+01,1.486662093326695799e-01
2.855999999999999872e+01,1.389792915422798092e-01
2.860000000000000142e+01,1.184030951475379678e-01
2.864000000000000057e+01,7.339565648026190325e-02
2.867999999999999972e+01,6.943305895079564249e-02
2.871999999999999886e+01,6.407451248591308768e-02
2.876000000000000156e+01,4.084628841981866043e-02
2.880000000000000071e+01,4.218917375303887773e-02
2.883999999999999986e+01,3.794786983091685134e-02
2.887999999999999901e+01,3.817414082320503416e-02
2.892000000000000171e+01,2.625465020707874741e-02
2.896000000000000085e+01,3.234469356449498623e-02
2.900000000000000000e+01,3.466544366254881854e-02
2.903999999999999915e+01,2.833062396886832507e-02
2.907999999999999829e+01,3.623592149989217359e-02
2.912000000000000099e+01,3.185584188372268116e-02
2.916000000000000014e+01,2.077469786517775405e-02
2.919999999999999929e+01,2.225837217793696921e-02
2.923999999999999844e+01,1.271313544771568958e-02
2.928000000000000114e+01,2.871624467981421028e-02
2.932000000000000028e+01,4.233181963071442830e-03
2.935999999999999943e+01,2.037611069510194065e-02
2.939999999999999858e+01,2.562973009578135494e-02
2.944000000000000128e+01,2.278619576934387547e-02
2.948000000000000043e+01,1.114746689429343442e-02
2.951999999999999957e+01,9.700210490251090500e-03
2.955999999999999872e+01,2.388913144500576929e-02
2.960000000000000142e+01,5.689125404163102896e-03
2.964000000000000057e+01,1.596921649610371502e-02
2.967999999999999972e+01,2.624940035052127779e-02
2.971999999999999886e+01,5.536731170583582447e-03
2.976000000000000156e+01,1.651513522605100454e-02
2.980000000000000071e+01,1.939637172725194522e-02
2.983999999999999986e+01,9.712987712902021453e-03
2.987999999999999901e+01,2.278576947503862388e-02
2.992000000000000171e+01,1.421941694202661158e-02
2.996000000000000085e+01,1.668216712234858734e-02
3.000000000000000000e+01,1.104774206665424911e-02
3.003999999999999915e+01,1.909496593514875551e-02
3.007999999999999829e+01,5.223833649036533494e-03
3.012000000000000099e+01,5.453170785500772305e-03
3.016000000000000014e+01,4.844935106067345745e-03
3.019999999999999929e+01,1.219442006722579012e-02
3.023999999999999844e+01,1.786868199761147344e-02
3.028000000000000114e+01,1.014065937042170004e-02
3.032000000000000028e+01,2.209741276522668094e-02
3.035999999999999943e+01,1.534677996264687677e-02
3.039999999999999858e+01,2.520954725471949084e-02
3.044000000000000128e+01,1.385198385018177047e-02
3.048000000000000043e+01,1.156899318801992566e-02
3.051999999999999957e+01,8.727631596869256728e-03
3.055999999999999872e+01,5.607113254438321481e-03
3.060000000000000142e+01,1.574939875620922497e-02
3.064000000000000057e+01,2.086585729500720077e-02
3.067999999999999972e+01,9.787858772146317346e-03
3.071999999999999886e+01,1.253109091255432024e-02
3.076000000000000156e+01,1.178417790826072342e-02
3.080000000000000071e+01,1.997221749851416789e-02
3.083999999999999986e+01,1.126775459656300001e-02
3.087999999999999901e+01,2.141039906553212843e-02
3.092000000000000171e+01,1.507936154068434571e-02
3.096000000000000085e+01,1.084248547055313878e-02
3.100000000000000000e+01,1.707624074054043053e-02
3.103999999999999915e+01,1.172258440368291292e-02
3.107999999999999829e+01,1.432661490771847644e-02
3.112000000000000099e+01,2.153774214759641287e-02
3.116000000000000014e+01,1.241478603258691117e-02
3.119999999999999929e+01,1.795068928682215861e-02
3.123999999999999844e+01,2.446388038509076865e-02
3.128000000000000114e+01,2.581161208175806326e-02
3.132000000000000028e+01,2.297113783967841619e-02
3.135999999999999943e+01,2.780912396998383440e-02
3.139999999999999858e+01,2.552713609122928343e-02
3.144000000000000128e+01,3.455340979491905440e-02
3.148000000000000043e+01,3.506362784655697035e-02
3.151999999999999957e+01,4.590484940873492542e-02
3.155999999999999872e+01,3.022059868939449070e-02
3.160000000000000142e+01,5.041558624423755908e-02
3.164000000000000057e+01,5.748745271966543974e-02
3.167999999999999972e+01,5.073815729418225395e-02
3.171999999999999886e+01,6.423201554656239598e-02
3.176000000000000156e+01,6.460274811047755916e-02
3.180000000000000071e+01,6.790525700793555164e-02
3.183999999999999986e+01,6.534424570974699253e-02
3.187999999999999901e+01,5.817618339282464718e-02
3.192000000000000171e+01,6.022224636670932968e-02
3.196000000000000085e+01,5.905733381945239141e-02
3.200000000000000000e+01,6.277869992239734631e-02
3.203999999999999915e+01,6.049693029091674640e-02
3.207999999999999829e+01,5.249123910271911303e-02
3.211999999999999744e+01,4.406672338856400251e-02
3.215999999999999659e+01,4.639201017443740638e-02
3.220000000000000284e+01,3.266238937438317724e-02
3.224000000000000199e+01,2.479629300563558278e-02
3.228000000000000114e+01,2.446901381619508153e-02
3.232000000000000028e+01,2.637545170260211652e-02
3.235999999999999943e+01,2.172031013566733809e-02
3.239999999999999858e+01,2.334751042572694515e-02
3.243999999999999773e+01,1.701704961945281827e-02
3.247999999999999687e+01,2.311167330675800713e-02
3.252000000000000313e+01,2.264471139532151303e-02
3.256000000000000227e+01,1.854792734640655846e-02
3.260000000000000142e+01,1.263622176504280992e-02
3.264000000000000057e+01,5.747240257055517311e-03
3.267999999999999972e+01,1.267941413118975173e-02
3.271999999999999886e+01,1.374803400997860053e-02
3.275999999999999801e+01,9.930353356276438309e-03
3.279999999999999716e+01,1.574558776477009286e-02
3.284000000000000341e+01,1.737255785321884308e-02
3.288000000000000256e+01,1.983714493832397160e-02
3.292000000000000171e+01,3.305150533280853953e-02
3.296000000000000085e+01,2.183445752896468264e-02
3.300000000000000000e+01,8.802472829172507118e-03
3.303999999999999915e+01,2.020182681857147361e-02
3.307999999999999829e+01,1.777996513481118132e-02
3.311999999999999744e+01,1.452041694525717241e-02
3.315999999999999659e+01,1.907886784936982383e-02
3.320000000000000284e+01,1.554002060947054682e-02
3.324000000000000199e+01,7.812893686026934487e-03
3.328000000000000114e+01,5.251211963645354905e-03
3.332000000000000028e+01,1.343928818714381843e-02
3.335999999999999943e+01,1.297162869311374936e-02
3.339999999999999858e+01,3.065294049481136554e-02
3.343999999999999773e+01,7.149882818477255354e-03
3.347999999999999687e+01,1.324363764156528608e-02
3.352000000000000313e+01,2.785341701631634248e-02
3.356000000000000227e+01,1.942784371778176131e-02
3.360000000000000142e+01,7.512016193699297753e-03
3.364000000000000057e+01,3.091691716183627217e-02
3.367999999999999972e+01,1.760489085877625648e-02
3.371999999999999886e+01,2.481515713014067689e-02
3.375999999999999801e+01,2.741830017432388134e-02
3.379999999999999716e+01,2.862529916664749083e-02
3.384000000000000341e+01,3.094909399728714913e-02
3.388000000000000256e+01,2.308144671052773586e-02
3.392000000000000171e+01,1.744745504561811753e-02
3.396000000000000085e+01,2.898515816833248035e-02
3.400000000000000000e+01,3.368200313329876988e-02
3.403999999999999915e+01,3.642426340018904696e-02
3.407999999999999829e+01,3.623468243344885042e-02
3.411999999999999744e+01,2.445757156091797266e-02
3.415999999999999659e+01,3.836822707304253510e-02
3.420000000000000284e+01,2.994154461542823664e-02
3.424000000000000199e+01,3.393987905199557370e-02
3.428000000000000114e+01,3.388950171694921770e-02
3.432000000000000028e+01,4.193629463547945274e-02
3.435999999999999943e+01,3.364888129112654502e-02
3.439999999999999858e+01,3.443589012685478734e-02
3.443999999999999773e+01,4.401810389225575132e-02
3.447999999999999687e+01,3.098375321940986804e-02
3.452000000000000313e+01,3.149127154252956418e-02
3.456000000000000227e+01,3.674536233242542416e-02
3.460000000000000142e+01,3.166837549359405313e-02
3.464000000000000057e+01,3.259442876210171675e-02
3.467999999999999972e+01,3.715018703210211382e-02
3.471999999999999886e+01,3.723839305955181644e-02
3.475999999999999801e+01,3.104414316672122337e-02
3.479999999999999716e+01,3.908979080055260263e-02
3.484000000000000341e+01,3.596670444538190015e-02
3.488000000000000256e+01,2.879488327334824710e-02
3.492000000000000171e+01,3.656099430407272477e-02
3.496000000000000085e+01,2.631758174231453584e-02
3.500000000000000000e+01,2.849915688408900111e-02
3.503999999999999915e+01,2.202493178163721782e-02
3.507999999999999829e+01,3.467686844741972585e-02
3.511999999999999744e+01,2.387456895118105285e-02
3.515999999999999659e+01,3.554901671917753275e-02
3.520000000000000284e+01,3.689236381319757618e-02
3.524000000000000199e+01,4.423872796930750778e-02
3.528000000000000114e+01,4.879281265831783565e-02
3.532000000000000028e+01,3.896716421045510331e-02
3.535999999999999943e+01,4.505668606470548260e-02
3.539999999999999858e+01,4.737666884360203917e-02
3.543999999999999773e+01,4.494985601159041944e-02
3.547999999999999687e+01,3.330879460738636610e-02
3.552000000000000313e+01,5.126446734875706596e-02
3.556000000000000227e+01,4.032118060411842009e-02
3.560000000000000142e+01,4.822481994110639630e-02
3.564000000000000057e+01,4.551812599021010791e-02
3.567999999999999972e+01,4.001913720871472235e-02
3.571999999999999886e+01,5.071452061624139029e-02
3.575999999999999801e+01,4.214387899102362695e-02
3.579999999999999716e+01,4.851113576886517675e-02
3.584000000000000341e+01,6.409236727521896992e-02
3.588000000000000256e+01,7.157619770211443022e-02
3.592000000000000171e+01,5.714144766731089897e-02
3.596000000000000085e+01,7.677086630316716509e-02
3.600000000000000000e+01,6.470915141258062886e-02
3.603999999999999915e+01,7.707865998493923509e-02
3.607999999999999829e+01,9.056487836001687886e-02
3.611999999999999744e+01,8.967133287122261431e-02
3.615999999999999659e+01,9.324508268114820031e-02
3.620000000000000284e+01,9.416612554495464027e-02
3.624000000000000199e+01,9.787916635043070190e-02
3.628000000000000114e+01,1.036861642760803781e-01
3.632000000000000028e+01,9.846397922480920606e-02
3.635999999999999943e+01,9.254359108042785331e-02
3.639999999999999858e+01,8.327244902303161667e-02
3.643999999999999773e+01,8.293604293483998469e-02
3.647999999999999687e+01,8.232025271557594226e-02
3.652000000000000313e+01,7.095448755169962707e-02
3.656000000000000227e+01,7.899404302516802034e-02
3.660000000000000142e+01,6.567342334710514484e-02
3.664000000000000057e+01,7.245616051883307929e-02
3.667999999999999972e+01,6.039166089285543521e-02
3.671999999999999886e+01,4.902502291691007014e-02
3.675999999999999801e+01,5.957663932308528837e-02
3.679999999999999716e+01,5.239787717873865824e-02
3.684000000000000341e+01,4.466050136211168614e-02
3.688000000000000256e+01,3.608529462279602001e-02
3.692000000000000171e+01,3.839931541489444849e-02
3.696000000000000085e+01,4.406373792248023669e-02
3.700000000000000000e+01,4.260797133201361941e-02
3.703999999999999915e+01,3.738260267584530422e-02
3.707999999999999829e+01,3.117978755820942707e-02
3.711999999999999744e+01,4.647638942445696947e-02
3.715999999999999659e+01,3.315318606475566032e-02
3.720000000000000284e+01,3.448861162180711509e-02
3.724000000000000199e+01,3.051874100408607723e-02
3.728000000000000114e+01,3.087651481025722316e-02
3.732000000000000028e+01,2.830232293845234143e-02
3.735999999999999943e+01,2.614675242102217079e-02
3.739999999999999858e+01,3.460117528474827148e-02
3.743999999999999773e+01,3.481852929433897764e-02
3.747999999999999687e+01,3.391881362193341354e-02
3.752000000000000313e+01,2.952869316168521899e-02
3.756000000000000227e+01,3.044346137008402745e-02
3.760000000000000142e+01,3.554625385454627390e-02
3.764000000000000057e+01,4.832726550445195363e-02
3.767999999999999972e+01,3.695590338079383919e-02
3.771999999999999886e+01,4.094118948648525769e-02
3.775999999999999801e+01,2.984860945281088418e-02
3.779999999999999716e+01,3.020365457896854317e-02
3.784000000000000341e+01,3.055847905221402774e-02
3.788000000000000256e+01,3.161112062134335127e-02
3.792000000000000171e+01,3.196549917971459875e-02
3.796000000000000085e+01,2.757298533713103614e-02
3.800000000000000000e+01,5.193946324425040978e-02
3.803999999999999915e+01,3.861159141882423984e-02
3.807999999999999829e+01,3.240349043087530079e-02
3.811999999999999744e+01,3.820143374007563264e-02
3.815999999999999659e+01,4.036933982280501571e-02
3.820000000000000284e+01,4.826093356366983195e-02
3.824000000000000199e+01,3.604875987591837222e-02
3.828000000000000114e+01,5.455007718182903337e-02
3.832000000000000028e+01,5.155154541613152924e-02
3.835999999999999943e+01,5.232218516476086489e-02
3.839999999999999858e+01,5.686199489136711804e-02
3.843999999999999773e+01,6.712548305800912496e-02
3.847999999999999687e+01,6.859343099730029480e-02
3.852000000000000313e+01,8.025250572886166722e-02
3.856000000000000227e+01,9.093407715400741997e-02
3.860000000000000142e+01,1.042679480191467667e-01
3.864000000000000057e+01,1.170431360762582140e-01
3.867999999999999972e+01,1.620674861908533992e-01
3.871999999999999886e+01,1.988547182881149067e-01
3.875999999999999801e+01,2.509985586696272808e-01
3.879999999999999716e+01,3.016064550985075310e-01
3.884000000000000341e+01,3.039097739336242832e-01
3.888000000000000256e+01,2.981155764630366023e-01
3.892000000000000171e+01,2.563022897445549897e-01
3.896000000000000085e+01,2.163036414967421939e-01
3.900000000000000000e+01,1.703015901896132722e-01
3.903999999999999915e+01,1.491494706902711243e-01
3.907999999999999829e+01,1.197602193464456927e-01
3.911999999999999744e+01,1.134059945963275390e-01
3.915999999999999659e+01,1.063534592086029934e-01
3.920000000000000284e+01,1.030700630718563715e-01
3.924000000000000199e+01,8.861776394761358699e-02
3.928000000000000114e+01,8.896362170695558402e-02
3.932000000000000028e+01,8.679626054191180717e-02
3.935999999999999943e+01,8.351175748642422625e-02
3.939999999999999858e+01,8.539246457045696070e-02
3.943999999999999773e+01,9.034426240222195870e-02
3.947999999999999687e+01,1.018573458710993057e-01
3.952000000000000313e+01,9.871131917230081820e-02
3.956000000000000227e+01,1.026850064660315698e-01
3.960000000000000142e+01,1.040058562238977552e-01
3.964000000000000057e+01,1.188683783249364079e-01
3.967999999999999972e+01,1.260521769643593859e-01
3.971999999999999886e+01,1.364466634540942580e-01
3.975999999999999801e+01,1.534024248264918011e-01
3.979999999999999716e+01,1.742669102616473953e-01
3.984000000000000341e+01,1.868942346616706829e-01
3.988000000000000256e+01,2.317706750286794293e-01
3.992000000000000171e+01,2.476083805905054669e-01
3.996000000000000085e+01,3.032340233261937024e-01
4.000000000000000000e+01,3.443401453150360947e-01
4.003999999999999915e+01,4.102961607029164681e-01
4.007999999999999829e+01,4.889561843919447148e-01
4.011999999999999744e+01,5.814370777020045900e-01
4.015999999999999659e+01,6.829921719577531913e-01
4.020000000000000284e+01,7.758912677801323987e-01
4.024000000000000199e+01,8.982473086017636055e-01
4.028000000000000114e+01,9.334877322669159483e-01
4.032000000000000028e+01,1.000000000000000000e+00
4.035999999999999943e+01,9.932178253497958575e-01
4.039999999999999858e+01,9.823867038664361173e-01
4.043999999999999773e+01,9.092901576323950685e-01
4.047999999999999687e+01,8.262811314972725585e-01
4.052000000000000313e+01,7.062756996610534133e-01
4.056000000000000227e+01,6.217303383855422583e-01
4.060000000000000142e+01,5.081462161868994798e-01
4.064000000000000057e+01,4.150841207741403638e-01
4.067999999999999972e+01,3.373785599008345959e-01
4.071999999999999886e+01,2.712601198908440869e-01
4.075999999999999801e+01,2.262221334858042499e-01
4.079999999999999716e+01,1.836967541644817514e-01
4.084000000000000341e+01,1.688133946557824061e-01
4.088000000000000256e+01,1.377351863161878909e-01
4.092000000000000171e+01,1.274582097220859356e-01
4.096000000000000085e+01,1.191354026381846870e-01
4.100000000000000000e+01,9.713068354086404343e-02
4.103999999999999915e+01,1.008134665760080234e-01
4.107999999999999829e+01,8.830139309850711105e-02
4.111999999999999744e+01,8.318818940994592015e-02
4.115999999999999659e+01,9.175620754028843140e-02
4.120000000000000284e+01,7.128544170224995757e-02
4.124000000000000199e+01,8.083001388283153621e-02
4.128000000000000114e+01,7.557580043931046154e-02
4.132000000000000028e+01,7.883731195921299395e-02
4.135999999999999943e+01,7.358238834862691757e-02
4.139999999999999858e+01,6.874593092107099401e-02
4.143999999999999773e+01,6.656166385266250318e-02
4.147999999999999687e+01,6.032840846964988846e-02
4.152000000000000313e+01,6.791596893542069246e-02
4.156000000000000227e+01,5.581845802661727918e-02
4.160000000000000142e+01,5.642489703766379039e-02
4.164000000000000057e+01,5.619332230037796250e-02
4.167999999999999972e+01,4.744530014180400879e-02
4.171999999999999886e+01,5.070318400888410015e-02
4.175999999999999801e+01,5.326265737561129004e-02
4.179999999999999716e+01,4.632842371279606575e-02
4.184000000000000341e+01,3.339067790981845724e-02
4.188000000000000256e+01,3.734510698311711840e-02
4.192000000000000171e+01,4.143876655283822846e-02
4.196000000000000085e+01,4.860342008024504112e-02
4.200000000000000000e+01,3.971278961598737750e-02
4.203999999999999915e+01,2.775040432743076935e-02
4.207999999999999829e+01,2.514136195382398256e-02
4.211999999999999744e+01,2.811624881902863651e-02
4.215999999999999659e+01,3.918800481322046170e-02
4.220000000000000284e+01,2.931819413797606688e-02
4.224000000000000199e+01,2.880172023228171410e-02
4.228000000000000114e+01,3.079779656535671511e-02
4.232000000000000028e+01,3.460838231570505935e-02
4.235999999999999943e+01,3.436994595175052458e-02
4.239999999999999858e+01,2.687150522547156542e-02
4.243999999999999773e+01,2.425894216205854229e-02
4.247999999999999687e+01,3.337304021959217742e-02
4.252000000000000313e+01,1.987026503253974674e-02
4.256000000000000227e+01,2.702905074360285528e-02
4.260000000000000142e+01,2.022664727319024511e-02
4.264000000000000057e+01,2.501129092129537185e-02
4.267999999999999972e+01,2.825984159082357838e-02
4.271999999999999886e+01,2.536523846346142030e-02
4.275999999999999801e+01,2.233061785511446240e-02
4.279999999999999716e+01,2.404225322545467183e-02
4.284000000000000341e+01,3.105857446624894422e-02
4.288000000000000256e+01,2.034428363132955928e-02
4.292000000000000171e+01,2.526565701432503808e-02
4.296000000000000085e+01,1.608621953166609539e-02
4.300000000000000000e+01,2.407812962154328232e-02
4.303999999999999915e+01,2.508922648155535381e-02
4.307999999999999829e+01,3.545362784776852350e-02
4.311999999999999744e+01,2.306152506711723130e-02
4.315999999999999659e+01,2.937645014092345880e-02
4.320000000000000284e+01,2.577879084185158085e-02
4.324000000000000199e+01,1.980736991312835246e-02
4.328000000000000114e+01,2.360806937994411672e-02
4.332000000000000028e+01,2.014872914838669246e-02
4.335999999999999943e+01,2.283170195690924914e-02
4.339999999999999858e+01,2.635188770205220896e-02
4.343999999999999773e+01,2.205359771165539898e-02
4.347999999999999687e+01,3.227408757404056500e-02
4.352000000000000313e+01,2.560158792128809993e-02
4.356000000000000227e+01,3.205178647832580829e-02
4.360000000000000142e+01,2.998546386927793128e-02
4.364000000000000057e+01,3.420105140288950962e-02
4.367999999999999972e+01,3.311109540938721868e-02
4.371999999999999886e+01,4.249128219672050621e-02
4.375999999999999801e+01,2.841690097044414359e-02
4.379999999999999716e+01,3.346834658811378288e-02
4.384000000000000341e+01,3.307463467624049275e-02
4.388000000000000256e+01,3.617066654834309031e-02
4.392000000000000171e+01,2.474702711130496308e-02
4.396000000000000085e+01,3.007587480331671767e-02
4.400000000000000000e+01,2.856348025009378469e-02
4.403999999999999915e+01,3.193690190573889032e-02
4.407999999999999829e+01,1.883613610843472980e-02
4.411999999999999744e+01,2.402353772210178914e-02
4.415999999999999659e+01,2.432420094354319565e-02
4.420000000000000284e+01,1.485184924038706993e-02
4.424000000000000199e+01,2.799550390705740285e-02
4.428000000000000114e+01,1.475280558995569445e-02
4.432000000000000028e+01,2.286963985671786048e-02
4.435999999999999943e+01,1.953815876913224045e-02
4.439999999999999858e+01,1.843993077971040756e-02
4.443999999999999773e+01,2.557809220435795089e-02
4.447999999999999687e+01,3.118009151468099927e-02
4.452000000000000313e+01,2.198318075655577436e-02
4.456000000000000227e+01,2.576932194244281257e-02
4.460000000000000142e+01,2.941537497524749842e-02
4.464000000000000057e+01,2.231114118440082061e-02
4.467999999999999972e+01,2.665426830119540028e-02
4.471999999999999886e+01,2.638985123092345286e-02
4.475999999999999801e+01,1.830690772556342605e-02
4.479999999999999716e+01,2.167132051879484475e-02
4.484000000000000341e+01,1.945092951670549311e-02
4.488000000000000256e+01,2.672338174209886938e-02
4.492000000000000171e+01,2.366435996047887291e-02
4.496000000000000085e+01,1.906915762833504349e-02
4.500000000000000000e+01,2.284993105839047689e-02
4.503999999999999915e+01,1.643883372941188498e-02
4.507999999999999829e+01,1.812449337587431278e-02
4.511999999999999744e+01,2.176416275214308749e-02
4.515999999999999659e+01,1.702685890170755820e-02
4.520000000000000284e+01,2.094473884578000947e-02
4.524000000000000199e+01,1.732328963262347657e-02
4.528000000000000114e+01,2.110055042801224634e-02
4.532000000000000028e+01,2.264357756058158963e-02
4.535999999999999943e+01,3.353982162740520162e-02
4.539999999999999858e+01,3.270849468072403038e-02
4.543999999999999773e+01,2.461704660912250250e-02
4.547999999999999687e+01,2.015488872452820754e-02
4.552000000000000313e+01,2.700045162719709457e-02
4.556000000000000227e+01,3.328706593329731900e-02
4.560000000000000142e+01,3.747904367915780993e-02
4.564000000000000057e+01,3.650501047378612585e-02
4.567999999999999972e+01,3.832261263149680519e-02
4.571999999999999886e+01,4.055851504644341493e-02
4.575999999999999801e+01,4.446918689553880366e-02
4.579999999999999716e+01,5.019423449946223970e-02
4.584000000000000341e+01,4.796110632981991084e-02
4.588000000000000256e+01,4.712352727121814355e-02
4.592000000000000171e+01,4.684384864513178176e-02
4.596000000000000085e+01,4.139814677701375567e-02
4.600000000000000000e+01,3.371818512812731899e-02
4.603999999999999915e+01,4.027768929156789329e-02
4.607999999999999829e+01,2.938567418535750417e-02
4.611999999999999744e+01,3.077861182036549861e-02
4.615999999999999659e+01,3.147296995652644480e-02
4.620000000000000284e+01,2.197541277950488398e-02
4.624000000000000199e+01,2.504201944871030372e-02
4.628000000000000114e+01,2.978337557951519013e-02
4.632000000000000028e+01,3.215085178172286812e-02
4.635999999999999943e+01,2.376797509723146962e-02
4.639999999999999858e+01,2.487788325892483290e-02
4.643999999999999773e+01,2.710410330870115930e-02
4.647999999999999687e+01,2.374545657280887484e-02
4.652000000000000313e+01,3.392821792789835200e-02
4.656000000000000227e+01,2.917238300366302092e-02
4.660000000000000142e+01,3.055873667516196407e-02
4.664000000000000057e+01,3.222374741081893146e-02
4.667999999999999972e+01,3.388819796022552594e-02
4.671999999999999886e+01,2.494188965281273623e-02
4.675999999999999801e+01,3.079345093154477186e-02
4.679999999999999716e+01,2.659268170887428215e-02
4.684000000000000341e+01,2.113487544129088319e-02
4.688000000000000256e+01,1.930630558846656991e-02
4.692000000000000171e+01,1.677912704614626521e-02
4.696000000000000085e+01,2.681608469575379877e-02
4.700000000000000000e+01,2.303129202242078927e-02
4.703999999999999915e+01,2.413220033170985698e-02
4.707999999999999829e+01,2.858312165994987900e-02
4.711999999999999744e+01,2.689072019280542084e-02
4.715999999999999659e+01,1.779852368066367485e-02
4.720000000000000284e+01,1.973476771502900157e-02
4.724000000000000199e+01,1.929709648474837308e-02
4.728000000000000114e+01,2.290746987681490168e-02
4.732000000000000028e+01,2.805294492835319620e-02
4.735999999999999943e+01,2.859077439372844850e-02
4.739999999999999858e+01,3.192017315913828895e-02
4.743999999999999773e+01,2.631407969778011904e-02
4.747999999999999687e+01,2.489563103404858826e-02
4.752000000000000313e+01,2.235972706448425412e-02
4.756000000000000227e+01,2.261538624955473226e-02
4.760000000000000142e+01,2.063672419985890932e-02
4.764000000000000057e+01,2.186844580318559467e-02
4.767999999999999972e+01,2.854427523565198840e-02
4.771999999999999886e+01,2.111911097682040231e-02
4.775999999999999801e+01,1.913805147442867310e-02
4.779999999999999716e+01,1.492266305552089785e-02
4.784000000000000341e+01,2.522588702725096430e-02
4.788000000000000256e+01,2.408066044583799872e-02
4.792000000000000171e+01,2.726266961923154084e-02
4.796000000000000085e+01,1.494759731293537897e-02
4.800000000000000000e+01,1.547583696752691078e-02
4.803999999999999915e+01,1.837679776946629304e-02
4.807999999999999829e+01,1.694930104500203330e-02
4.811999999999999744e+01,2.278079739120768971e-02
4.815999999999999659e+01,2.721559813592299218e-02
4.820000000000000284e+01,1.922468103749131255e-02
4.824000000000000199e+01,2.435628239590604399e-02
4.828000000000000114e+01,1.482843712600671188e-02
4.832000000000000028e+01,1.688742081293271094e-02
4.835999999999999943e+01,2.425087835402013614e-02
4.839999999999999858e+01,1.472115894527652007e-02
4.843999999999999773e+01,1.775551888351277474e-02
4.847999999999999687e+01,2.246454378410147126e-02
4.852000000000000313e+01,2.130940783111596321e-02
4.856000000000000227e+01,1.778030591393622850e-02
4.860000000000000142e+01,1.983488434687664947e-02
4.864000000000000057e+01,1.714216017342662379e-02
4.867999999999999972e+01,1.696174042275447671e-02
4.871999999999999886e+01,1.775793713118911307e-02
4.875999999999999801e+01,2.204369018890617662e-02
4.879999999999999716e+01,2.130291878077454279e-02
4.884000000000000341e+01,1.721091565479470481e-02
4.888000000000000256e+01,2.219277855021537307e-02
4.892000000000000171e+01,2.228772022776675035e-02
4.896000000000000085e+01,1.568083700971928049e-02
4.900000000000000000e+01,2.177761948678167206e-02
4.903999999999999915e+01,2.717571184780086246e-02
4.907999999999999829e+01,2.894334755881375343e-02
4.911999999999999744e+01,1.968130866092289780e-02
4.915999999999999659e+01,2.116841931433329285e-02
4.920000000000000284e+01,2.028153942195034046e-02
4.924000000000000199e+01,2.441988386997163279e-02
4.928000000000000114e+01,2.325246970188648427e-02
4.932000000000000028e+01,1.650007966728659139e-02
4.935999999999999943e+01,2.161369435847184522e-02
4.939999999999999858e+01,2.742468367675635760e-02
4.943999999999999773e+01,1.718010324228638058e-02
4.947999999999999687e+01,2.257093506434005789e-02
4.952000000000000313e+01,2.391246976545044478e-02
4.956000000000000227e+01,2.190274509441355461e-02
4.960000000000000142e+01,3.175901593106211090e-02
4.964000000000000057e+01,3.365696504090000263e-02
4.967999999999999972e+01,3.415816016794952920e-02
4.971999999999999886e+01,4.163907119761275227e-02
4.975999999999999801e+01,3.822989089380224997e-02
4.979999999999999716e+01,4.612826698781063994e-02
4.984000000000000341e+01,4.788321581463820392e-02
4.988000000000000256e+01,5.633865868462120674e-02
4.992000000000000171e+01,5.795263192957750970e-02
4.996000000000000085e+01,5.691336972403309574e-02
5.000000000000000000e+01,5.084753696214157348e-02
5.003999999999999915e+01,4.729395638712984018e-02
5.007999999999999829e+01,4.611301860561864419e-02
5.011999999999999744e+01,4.409374136958653378e-02
5.015999999999999659e+01,3.970043671536236524e-02
5.020000000000000284e+01,3.167663239333338293e-02
5.024000000000000199e+01,3.007409257325198426e-02
5.028000000000000114e+01,2.651634429701628035e-02
5.032000000000000028e+01,3.105515173437860960e-02
5.035999999999999943e+01,1.995717765402527100e-02
5.039999999999999858e+01,2.868281620502278681e-02
5.043999999999999773e+01,1.828147373987476162e-02
5.047999999999999687e+01,2.840178011852370968e-02
5.052000000000000313e+01,2.637549525978716281e-02
5.056000000000000227e+01,2.420889333182624573e-02
5.060000000000000142e+01,1.924942351473627605e-02
5.064000000000000057e+01,1.917551640877322716e-02
5.067999999999999972e+01,2.426638619164550592e-02
5.071999999999999886e+01,2.419104990684254122e-02
5.075999999999999801e+01,2.467342815621146809e-02
5.079999999999999716e+01,2.766802940181115056e-02
5.084000000000000341e+01,2.773014568315289655e-02
5.088000000000000256e+01,2.444095189279911484e-02
5.092000000000000171e+01,2.715417291535624292e-02
5.096000000000000085e+01,2.777255150678077308e-02
5.100000000000000000e+01,1.889686970817523737e-02
5.103999999999999915e+01,2.705261881873741170e-02
5.107999999999999829e+01,2.571430446656965824e-02
5.111999999999999744e+01,3.233290724397178822e-02
5.115999999999999659e+01,2.247705063448415461e-02
5.120000000000000284e+01,1.736712737019499575e-02
5.124000000000000199e+01,2.733411733491503473e-02
5.128000000000000114e+01,2.306036901616262749e-02
5.132000000000000028e+01,2.213647086326684874e-02
5.135999999999999943e+01,2.484163705393617819e-02
5.139999999999999858e+01,2.293900248709790368e-02
5.143999999999999773e+01,1.922072276698611262e-02
5.147999999999999687e+01,2.359895420632391466e-02
5.152000000000000313e+01,2.295055670801667697e-02
5.156000000000000227e+01,1.867160730600649771e-02
5.160000000000000142e+01,2.583975302309684044e-02
5.164000000000000057e+01,2.044244091391559867e-02
5.167999999999999972e+01,2.397927942460941625e-02
5.171999999999999886e+01,2.318752060105450444e-02
5.175999999999999801e+01,1.764833933581328243e-02
5.179999999999999716e+01,1.992644122516371713e-02
5.184000000000000341e+01,2.332064759535430049e-02
5.188000000000000256e+01,3.104193762170662230e-02
5.192000000000000171e+01,2.591854335327936285e-02
5.196000000000000085e+01,2.163203324258402768e-02
5.200000000000000000e+01,2.209142575008823245e-02
5.203999999999999915e+01,2.338769934262445796e-02
5.207999999999999829e+01,2.272869534325878266e-02
5.211999999999999744e+01,2.723441292413041406e-02
5.215999999999999659e+01,2.112916270458993148e-02
5.220000000000000284e+01,2.493529813157960989e-02
5.224000000000000199e+01,2.511085553691723773e-02
5.228000000000000114e+01,2.165583338425284415e-02
5.232000000000000028e+01,1.847925013405404479e-02
5.235999999999999943e+01,1.641875139214609564e-02
5.239999999999999858e+01,2.217551275958061507e-02
5.243999999999999773e+01,2.653541413608051514e-02
5.247999999999999687e+01,1.819021756593074829e-02
5.252000000000000313e+01,1.822070792419038660e-02
5.256000000000000227e+01,2.327629510580869407e-02
5.260000000000000142e+01,1.353266187628952497e-02
5.264000000000000057e+01,1.872628024650228179e-02
5.267999999999999972e+01,1.861400941086315680e-02
5.271999999999999886e+01,1.528996568846019422e-02
5.275999999999999801e+01,2.048120753339617225e-02
5.279999999999999716e+01,1.226929985573695092e-02
5.284000000000000341e+01,2.443934252019862308e-02
5.288000000000000256e+01,1.818034973631402207e-02
5.292000000000000171e+01,1.918016566110579066e-02
5.296000000000000085e+01,1.696819948103402836e-02
5.300000000000000000e+01,1.657033251279996927e-02
5.303999999999999915e+01,1.840538679114128370e-02
5.307999999999999829e+01,1.898316435397802426e-02
5.311999999999999744e+01,1.160248652755872627e-02
5.315999999999999659e+01,1.469158890338767565e-02
5.320000000000000284e+01,1.861752781010019009e-02
5.324000000000000199e+01,1.486422243256522308e-02
5.328000000000000114e+01,1.683402550923591978e-02
5.332000000000000028e+01,2.620222978811269712e-02
5.335999999999999943e+01,2.160883160737818096e-02
5.339999999999999858e+01,2.315736084288706406e-02
5.343999999999999773e+01,1.618899097022356154e-02
5.347999999999999687e+01,1.996960472306710116e-02
5.352000000000000313e+01,1.956115986294351336e-02
5.356000000000000227e+01,1.747659628002841761e-02
5.360000000000000142e+01,1.539120672232222042e-02
5.364000000000000057e+01,1.623675465108818938e-02
5.367999999999999972e+01,1.401010067772082320e-02
5.371999999999999886e+01,2.267202896879004850e-02
5.375999999999999801e+01,1.834959443595294074e-02
5.379999999999999716e+01,2.575338623702769225e-02
5.384000000000000341e+01,2.729281284998536297e-02
5.388000000000000256e+01,3.064630487508190892e-02
5.392000000000000171e+01,2.157385935898912394e-02
5.396000000000000085e+01,2.338998688923324756e-02
5.400000000000000000e+01,1.850409594378529810e-02
5.403999999999999915e+01,2.311069640168236447e-02
5.407999999999999829e+01,2.129449102524585621e-02
5.411999999999999744e+01,2.282802827016977218e-02
5.415999999999999659e+01,1.975365874943977793e-02
5.420000000000000284e+01,2.016863663439947413e-02
5.424000000000000199e+01,2.002433253485220999e-02
5.428000000000000114e+01,1.959996062850635073e-02
5.432000000000000028e+01,2.154806866256675155e-02
5.435999999999999943e+01,2.558943938662509854e-02
5.439999999999999858e+01,2.083465841605389862e-02
5.443999999999999773e+01,1.817313706278073787e-02
5.447999999999999687e+01,2.290997235756521769e-02
5.452000000000000313e+01,2.136359277519591857e-02
5.456000000000000227e+01,1.479046749258568390e-02
5.460000000000000142e+01,2.217726352935555506e-02
5.464000000000000057e+01,2.006985936825027295e-02
5.467999999999999972e+01,2.033492132040171096e-02
5.471999999999999886e+01,1.906342785264242973e-02
5.475999999999999801e+01,2.072282885355678297e-02
5.479999999999999716e+01,2.307939707432764623e-02
5.484000000000000341e+01,2.724999383483868790e-02
5.488000000000000256e+01,2.178677332234566291e-02
5.492000000000000171e+01,1.995248041827248422e-02
5.496000000000000085e+01,2.118868215815244982e-02
5.500000000000000000e+01,2.270321986505158610e-02
5.503999999999999915e+01,2.700903342914558192e-02
5.507999999999999829e+01,2.489200275015734931e-02
5.511999999999999744e+01,2.109879343072966484e-02
5.515999999999999659e+01,2.079489464459297401e-02
5.520000000000000284e+01,1.993167700155059480e-02
5.524000000000000199e+01,2.828168895729642543e-02
5.528000000000000114e+01,2.992963327415190319e-02
5.532000000000000028e+01,1.789511556430713538e-02
5.535999999999999943e+01,2.121656855348547782e-02
5.539999999999999858e+01,2.621242071647555266e-02
5.543999999999999773e+01,2.590227766546749841e-02
5.547999999999999687e+01,2.265947143360771271e-02
5.552000000000000313e+01,3.212008047181649784e-02
5.556000000000000227e+01,1.994057041456106377e-02
5.560000000000000142e+01,1.571780541568152528e-02
5.564000000000000057e+01,2.587374536217110568e-02
5.567999999999999972e+01,2.472054302430735928e-02
5.571999999999999886e+01,2.454368828430971566e-02
5.575999999999999801e+01,1.808357104030998419e-02
5.579999999999999716e+01,2.055744617214080860e-02
5.584000000000000341e+01,2.526413500605076412e-02
5.588000000000000256e+01,2.396677244096715245e-02
5.592000000000000171e+01,2.490222050526275099e-02
5.596000000000000085e+01,2.346341838062407717e-02
5.600000000000000000e+01,2.467624738375228874e-02
5.603999999999999915e+01,2.546933312365512458e-02
5.607999999999999829e+01,2.961208620377099587e-02
5.611999999999999744e+01,1.993273867315848921e-02
5.615999999999999659e+01,2.742423325594974676e-02
5.620000000000000284e+01,2.653833057945154811e-02
5.624000000000000199e+01,2.886248124073735252e-02
5.628000000000000114e+01,2.867276156526008327e-02
5.632000000000000028e+01,3.560211215168451737e-02
5.635999999999999943e+01,2.172896005782102083e-02
5.639999999999999858e+01,3.075056299745873578e-02
5.643999999999999773e+01,3.055711231753209176e-02
5.647999999999999687e+01,3.636586289787377413e-02
5.652000000000000313e+01,3.463485107030155746e-02
5.656000000000000227e+01,3.862682171623939287e-02
5.660000000000000142e+01,2.949471260039548612e-02
5.664000000000000057e+01,3.711460359066844072e-02
5.667999999999999972e+01,2.770139174964221171e-02
5.671999999999999886e+01,3.294605908659492544e-02
5.675999999999999801e+01,3.358271979514727140e-02
5.679999999999999716e+01,3.798784376070118984e-02
5.684000000000000341e+01,3.583044802674603679e-02
5.688000000000000256e+01,3.004229605454504862e-02
5.692000000000000171e+01,2.886024987247096801e-02
5.696000000000000085e+01,2.795646437626872829e-02
5.700000000000000000e+01,2.830819302879275176e-02
5.703999999999999915e+01,3.200955214913109997e-02
5.707999999999999829e+01,2.831073520968547044e-02
5.711999999999999744e+01,3.159134994811342578e-02
5.715999999999999659e+01,3.277688412116715189e-02
5.720000000000000284e+01,2.795831619567903936e-02
5.724000000000000199e+01,2.579133177110951719e-02
5.728000000000000114e+01,3.241867502039336851e-02
5.732000000000000028e+01,3.178544084882279491e-02
5.735999999999999943e+01,3.101162842853699003e-02
5.739999999999999858e+01,2.646743194042684710e-02
5.743999999999999773e+01,2.820461555424471495e-02
5.747999999999999687e+01,3.035964773841429154e-02
5.752000000000000313e+01,2.944233053085569887e-02
5.756000000000000227e+01,2.642991739442333496e-02
5.760000000000000142e+01,3.067613321372360605e-02
5.764000000000000057e+01,2.668450432216551774e-02
5.767999999999999972e+01,3.078914845581533916e-02
5.771999999999999886e+01,3.056496480272442862e-02
5.775999999999999801e+01,3.103783467959400286e-02
5.779999999999999716e+01,2.774030512513980112e-02
5.784000000000000341e+01,3.477276816296088341e-02
5.788000000000000256e+01,3.817443655378745943e-02
5.792000000000000171e+01,3.766609304721121876e-02
5.796000000000000085e+01,3.855283467399170383e-02
5.800000000000000000e+01,4.209113061104181874e-02
5.803999999999999915e+01,4.060254718540560331e-02
5.807999999999999829e+01,4.106747571219315773e-02
5.811999999999999744e+01,3.580748251844853569e-02
5.815999999999999659e+01,4.380923462379279765e-02
5.820000000000000284e+01,4.287508122423346751e-02
5.824000000000000199e+01,5.255012076750836814e-02
5.828000000000000114e+01,4.854258459418699101e-02
5.832000000000000028e+01,5.416698329179561039e-02
5.835999999999999943e+01,6.300135390064105778e-02
5.839999999999999858e+01,5.494216347216885482e-02
5.843999999999999773e+01,5.888823687507314941e-02
5.847999999999999687e+01,6.730074829342726217e-02
5.852000000000000313e+01,5.840087049432624022e-02
5.856000000000000227e+01,5.857448691993872442e-02
5.860000000000000142e+01,5.260433961773212236e-02
5.864000000000000057e+01,6.366533131820338587e-02
5.867999999999999972e+01,6.774490907598050560e-02
5.871999999999999886e+01,5.716463921810752136e-02
5.875999999999999801e+01,5.077158090717631689e-02
5.879999999999999716e+01,4.716965403654501537e-02
5.884000000000000341e+01,5.501454420567394865e-02
5.888000000000000256e+01,4.819958061375303332e-02
5.892000000000000171e+01,4.780554813584129287e-02
5.896000000000000085e+01,4.978381738174203486e-02
5.900000000000000000e+01,4.338458182385704354e-02
5.903999999999999915e+01,4.061411563034742628e-02
5.907999999999999829e+01,4.119320155080484491e-02
5.911999999999999744e+01,3.897909233959465092e-02
5.915999999999999659e+01,3.760159074312598854e-02
5.920000000000000284e+01,3.957363665157451194e-02
5.924000000000000199e+01,3.219091353893323293e-02
5.928000000000000114e+01,3.220636271235601672e-02
5.932000000000000028e+01,3.082468764265340611e-02
5.935999999999999943e+01,3.307176964652660395e-02
5.939999999999999858e+01,2.861662576746499057e-02
5.943999999999999773e+01,2.597533374789968291e-02
5.947999999999999687e+01,3.003416704750272795e-02
5.952000000000000313e+01,2.487782842859553520e-02
5.956000000000000227e+01,2.516514134289398949e-02
5.960000000000000142e+01,2.698708425723059939e-02
5.964000000000000057e+01,2.308404706973710141e-02
5.967999999999999972e+01,2.225132323690304226e-02
5.971999999999999886e+01,2.337204836614488121e-02
5.975999999999999801e+01,2.253720092429511990e-02
5.979999999999999716e+01,1.625658294927384909e-02
5.984000000000000341e+01,2.602980288722772650e-02
5.988000000000000256e+01,2.393528779596703487e-02
5.992000000000000171e+01,2.030401755930259095e-02
5.996000000000000085e+01,1.764893206740997256e-02
