2.003999999999999915e+01,1.465480361173382949e-02
2.007999999999999829e+01,2.092782640780875905e-02
2.012000000000000099e+01,2.066703490744745825e-02
2.016000000000000014e+01,2.084756503222000984e-02
2.019999999999999929e+01,2.049819525728495059e-02
2.023999999999999844e+01,1.970721838398927991e-02
2.028000000000000114e+01,1.918097723728953707e-02
2.032000000000000028e+01,1.909605747904825554e-02
2.035999999999999943e+01,2.739881649650641182e-02
2.039999999999999858e+01,2.130969621745420692e-02
2.044000000000000128e+01,1.204188986821205787e-02
2.048000000000000043e+01,2.520032693915348967e-02
2.051999999999999957e+01,2.246590590731218501e-02
2.055999999999999872e+01,1.443376997539871920e-02
2.060000000000000142e+01,2.114639842130001945e-02
2.064000000000000057e+01,2.697595487457491240e-02
2.067999999999999972e+01,1.567655294117272988e-02
2.071999999999999886e+01,1.885703662653205256e-02
2.076000000000000156e+01,2.177249816536831056e-02
2.080000000000000071e+01,1.788926582035396326e-02
2.083999999999999986e+01,1.974492572554415251e-02
2.087999999999999901e+01,2.442581342475338979e-02
2.092000000000000171e+01,1.824653547888511335e-02
2.096000000000000085e+01,1.136077078807189861e-02
2.100000000000000000e+01,1.577634832327508979e-02
2.103999999999999915e+01,2.425325346304164215e-02
2.107999999999999829e+01,2.098706411589910600e-02
2.112000000000000099e+01,1.304120906393176939e-02
2.116000000000000014e+01,2.107621760863609764e-02
2.119999999999999929e+01,2.310716742244320679e-02
2.123999999999999844e+01,2.911115168445425547e-02
2.128000000000000114e+01,3.361401298352945793e-02
2.132000000000000028e+01,3.846990133132896506e-02
2.135999999999999943e+01,4.712223822879483409e-02
2.139999999999999858e+01,5.586272347510058689e-02
2.144000000000000128e+01,5.762792816982436478e-02
2.148000000000000043e+01,5.762713102422160893e-02
2.151999999999999957e+01,4.447055297260298079e-02
2.155999999999999872e+01,4.967874515989143674e-02
2.160000000000000142e+01,4.932434232717361478e-02
2.164000000000000057e+01,4.384880871785903911e-02
2.167999999999999972e+01,3.245750852813807097e-02
2.171999999999999886e+01,2.759973503155039448e-02
2.176000000000000156e+01,2.662670235345732453e-02
2.180000000000000071e+01,2.485888882736007541e-02
2.183999999999999986e+01,2.803533032760801083e-02
2.187999999999999901e+01,2.706186216191905011e-02
2.192000000000000171e+01,2.079067708442081108e-02
2.196000000000000085e+01,2.317204699741936061e-02
2.200000000000000000e+01,1.840154980944225943e-02
2.203999999999999915e+01,1.707432872320027717e-02
2.207999999999999829e+01,2.696015540490311752e-02
2.212000000000000099e+01,1.424286421788305973e-02
2.216000000000000014e+01,2.518791401317877973e-02
2.219999999999999929e+01,1.856253887080688836e-02
2.223999999999999844e+01,2.420972558589274543e-02
2.228000000000000114e+01,2.085089471499288957e-02
2.232000000000000028e+01,2.323095390505418995e-02
2.235999999999999943e+01,2.711184579215616258e-02
2.239999999999999858e+01,2.375257712607945979e-02
2.244000000000000128e+01,2.622049120397333677e-02
2.248000000000000043e+01,2.171312319189799833e-02
2.251999999999999957e+01,1.614609468523419203e-02
2.255999999999999872e+01,1.923162028153596256e-02
2.260000000000000142e+01,2.381797821986599353e-02
2.264000000000000057e+01,2.098758952897350136e-02
2.267999999999999972e+01,1.956974020125604175e-02
2.271999999999999886e+01,1.982930875909191815e-02
2.276000000000000156e+01,1.964726649093640962e-02
2.280000000000000071e+01,2.202557059515338964e-02
2.283999999999999986e+01,3.217349978299822999e-02
2.287999999999999901e+01,3.481638912609243824e-02
2.292000000000000171e+01,3.163180291506486469e-02
2.296000000000000085e+01,3.842416312305053233e-02
2.300000000000000000e+01,5.254468387541071095e-02
2.303999999999999915e+01,6.110260747768996026e-02
2.307999999999999829e+01,7.725357008755318056e-02
2.312000000000000099e+01,7.459800635164852423e-02
2.316000000000000014e+01,6.823399535898558299e-02
2.319999999999999929e+01,5.842641563194253540e-02
2.323999999999999844e+01,5.276845311569780539e-02
2.328000000000000114e+01,4.861132193561261416e-02
2.332000000000000028e+01,3.041547858176168670e-02
2.335999999999999943e+01,2.917171703597382440e-02
2.339999999999999858e+01,2.819268660162009207e-02
2.344000000000000128e+01,3.074522305861124988e-02
2.348000000000000043e+01,1.952392568670859030e-02
2.351999999999999957e+01,2.560788132825677146e-02
2.355999999999999872e+01,1.244384567060258240e-02
2.360000000000000142e+01,1.375969137156055587e-02
2.364000000000000057e+01,2.319833241483417602e-02
2.367999999999999972e+01,1.100507474747620604e-02
2.371999999999999886e+01,1.991366279989895474e-02
2.376000000000000156e+01,1.001572355985387401e-02
2.380000000000000071e+01,2.033670131609540202e-02
2.383999999999999986e+01,2.553654504145936449e-02
2.387999999999999901e+01,1.705084720675778542e-02
2.392000000000000171e+01,1.377427990317380002e-02
2.396000000000000085e+01,2.453612912310498481e-02
2.400000000000000000e+01,1.878706506896318795e-02
2.403999999999999915e+01,1.577493127399410763e-02
2.407999999999999829e+01,1.240947756098098771e-02
2.412000000000000099e+01,1.787316136438391045e-02
2.416000000000000014e+01,5.413245888788282244e-03
2.419999999999999929e+01,9.817118118196554652e-03
2.423999999999999844e+01,1.404425591391706037e-02
2.428000000000000114e+01,1.579904484337380649e-02
2.432000000000000028e+01,1.411026338172572531e-02
2.435999999999999943e+01,1.665939033466682512e-02
2.439999999999999858e+01,1.311616096269580152e-02
2.444000000000000128e+01,1.707767572605587217e-02
2.448000000000000043e+01,1.600634837235431415e-02
2.451999999999999957e+01,1.926122205708259705e-02
2.455999999999999872e+01,1.527593199352015110e-02
2.460000000000000142e+01,1.358610705818974300e-02
2.464000000000000057e+01,1.842980449667459483e-02
2.467999999999999972e+01,2.150749536133358258e-02
2.471999999999999886e+01,1.416647926246297068e-02
2.476000000000000156e+01,1.503654970969896081e-02
2.480000000000000071e+01,1.281622049786786469e-02
2.483999999999999986e+01,8.565005893988947641e-03
2.487999999999999901e+01,2.047123510512006972e-02
2.492000000000000171e+01,1.471874249459354488e-02
2.496000000000000085e+01,1.426367173731298531e-02
2.500000000000000000e+01,1.636894409812409204e-02
2.503999999999999915e+01,9.644780511337720796e-03
2.507999999999999829e+01,1.095511727627653496e-02
2.512000000000000099e+01,2.021166147325634960e-02
2.516000000000000014e+01,1.410509786697328356e-02
2.519999999999999929e+01,1.841694166883217285e-02
2.523999999999999844e+01,1.336959206415581740e-02
2.528000000000000114e+01,1.927040691237799294e-02
2.532000000000000028e+01,1.554714965418038837e-02
2.535999999999999943e+01,9.969591955772672681e-03
2.539999999999999858e+01,1.586995569585121849e-02
2.544000000000000128e+01,1.982772601686646000e-02
2.548000000000000043e+01,1.698679553128822420e-02
2.551999999999999957e+01,1.149692862418392331e-02
2.555999999999999872e+01,1.872108296611023001e-02
2.560000000000000142e+01,1.225969320371505036e-02
2.564000000000000057e+01,1.621671019860572091e-02
2.567999999999999972e+01,1.505259044085683826e-02
2.571999999999999886e+01,1.274051259450442557e-02
2.576000000000000156e+01,1.537268397596053965e-02
2.580000000000000071e+01,1.394323275345879173e-02
2.583999999999999986e+01,1.295509475412928366e-02
2.587999999999999901e+01,1.231997705828755292e-02
2.592000000000000171e+01,9.035922349232342748e-03
2.596000000000000085e+01,1.617027392411310785e-02
2.600000000000000000e+01,1.853665971506694016e-02
2.603999999999999915e+01,1.428092959209623612e-02
2.607999999999999829e+01,1.090797663986366010e-02
2.612000000000000099e+01,1.194951521982689190e-02
2.616000000000000014e+01,1.263773080497149030e-02
2.619999999999999929e+01,1.403213766231660442e-02
2.623999999999999844e+01,7.480035402158498672e-03
2.628000000000000114e+01,5.607303019068360719e-03
2.632000000000000028e+01,1.432956210842670393e-02
2.635999999999999943e+01,1.289799038988414907e-02
2.639999999999999858e+01,1.791164558121643990e-02
2.644000000000000128e+01,1.568513424332717079e-02
2.648000000000000043e+01,7.277970643235563697e-03
2.651999999999999957e+01,1.096677684851505782e-02
2.655999999999999872e+01,7.768587789129414133e-03
2.660000000000000142e+01,6.777568039023100163e-03
2.664000000000000057e+01,1.002445333088776425e-02
2.667999999999999972e+01,1.327118630080273247e-02
2.671999999999999886e+01,6.717259372360691490e-03
2.676000000000000156e+01,8.462708892103848468e-03
2.680000000000000071e+01,1.100264165703207855e-02
2.683999999999999986e+01,1.627950053932121846e-02
2.687999999999999901e+01,2.199767110639531953e-02
2.692000000000000171e+01,2.259470308659882604e-02
2.696000000000000085e+01,1.612815348941843904e-02
2.700000000000000000e+01,1.001462253900120732e-02
2.703999999999999915e+01,1.882243216126257973e-02
2.707999999999999829e+01,1.447445265305311903e-02
2.712000000000000099e+01,1.356974173214865395e-02
2.716000000000000014e+01,8.515113335033561159e-03
2.719999999999999929e+01,7.874974872558228658e-03
2.723999999999999844e+01,1.677031219546248897e-02
2.728000000000000114e+01,1.648303881525706172e-02
2.732000000000000028e+01,1.857951940032494600e-02
2.735999999999999943e+01,1.882169658674566134e-02
2.739999999999999858e+01,2.003494185185169391e-02
2.744000000000000128e+01,1.692168350553445097e-02
2.748000000000000043e+01,3.473367959610488415e-02
2.751999999999999957e+01,3.179669990100129212e-02
2.755999999999999872e+01,3.645275258658269013e-02
2.760000000000000142e+01,4.517012317305394570e-02
2.764000000000000057e+01,4.841318266555458272e-02
2.767999999999999972e+01,7.152198197291124993e-02
2.771999999999999886e+01,6.964374789399833954e-02
2.776000000000000156e+01,7.094390287414360785e-02
2.780000000000000071e+01,6.094241772960958675e-02
2.783999999999999986e+01,5.579688587559384488e-02
2.787999999999999901e+01,4.438240682795415587e-02
2.792000000000000171e+01,4.709463130663990582e-02
2.796000000000000085e+01,3.488520814282924237e-02
2.800000000000000000e+01,3.812688129474148258e-02
2.803999999999999915e+01,3.236252834036920656e-02
2.807999999999999829e+01,3.525072132367632061e-02
2.812000000000000099e+01,3.963973848372535219e-02
2.816000000000000014e+01,3.837785805957885654e-02
2.819999999999999929e+01,5.230219507376458049e-02
2.823999999999999844e+01,5.413025556777384395e-02
2.828000000000000114e+01,5.542840420998988715e-02
2.832000000000000028e+01,5.460736945196193598e-02
2.835999999999999943e+01,5.661155142339844432e-02
2.839999999999999858e+01,4.960970675603176144e-02
2.844000000000000128e+01,4.101843567400885460e-02
2.848000000000000043e+01,3.445774539930317876e-02
2.851999999999999957e+01,3.919838622689066771e-02
2.855999999999999872e+01,3.131299289785778595e-02
2.860000000000000142e+01,1.980743712563346609e-02
2.864000000000000057e+01,2.101589804644668838e-02
2.867999999999999972e+01,1.851590354521528634e-02
2.871999999999999886e+01,1.804648949628873816e-02
2.876000000000000156e+01,2.428717744782833352e-02
2.880000000000000071e+01,1.366377358298331325e-02
2.883999999999999986e+01,1.178120739212728044e-02
2.887999999999999901e+01,9.810192764525171166e-03
2.892000000000000171e+01,1.163561550369741383e-02
2.896000000000000085e+01,6.220867986017339542e-03
2.900000000000000000e+01,5.573779182446403531e-03
2.903999999999999915e+01,1.455045636217737991e-02
2.907999999999999829e+01,1.293183440795463157e-02
2.912000000000000099e+01,8.046220683409478075e-03
2.916000000000000014e+01,5.985822504953918974e-03
2.919999999999999929e+01,7.633568418575853963e-03
2.923999999999999844e+01,2.217729382195653045e-03
2.928000000000000114e+01,8.279806044933805606e-03
2.932000000000000028e+01,1.028025489686490955e-02
2.935999999999999943e+01,1.263371890460331277e-02
2.939999999999999858e+01,1.445726940382365683e-02
2.944000000000000128e+01,7.186498865337874638e-03
2.948000000000000043e+01,1.024583654342318961e-02
2.951999999999999957e+01,8.978667533310710769e-03
2.955999999999999872e+01,4.091334659956993858e-03
2.960000000000000142e+01,6.355566847104214025e-03
2.964000000000000057e+01,9.679156660002914692e-03
2.967999999999999972e+01,8.764532408544498804e-03
2.971999999999999886e+01,9.527315688109695702e-03
2.976000000000000156e+01,6.846520529621316457e-03
2.980000000000000071e+01,1.034606867011784483e-02
2.983999999999999986e+01,5.104466623283566463e-03
2.987999999999999901e+01,5.425157733487045303e-03
2.992000000000000171e+01,1.113155622052830473e-02
2.996000000000000085e+01,1.251144736851560885e-02
3.000000000000000000e+01,8.063852489513986463e-03
3.003999999999999915e+01,2.468293131684823945e-03
3.007999999999999829e+01,6.673083939801602651e-03
3.012000000000000099e+01,9.729910150753324355e-03
3.016000000000000014e+01,3.868999979992960615e-03
3.019999999999999929e+01,1.557821152305064773e-02
3.023999999999999844e+01,8.216007606757461113e-03
3.028000000000000114e+01,8.800003489737613996e-03
3.032000000000000028e+01,7.088227293005393281e-03
3.035999999999999943e+01,6.170929075440307124e-03
3.039999999999999858e+01,7.549087406639852331e-03
3.044000000000000128e+01,8.927087854028075906e-03
3.048000000000000043e+01,1.109956610307717001e-02
3.051999999999999957e+01,1.106456483708587527e-02
3.055999999999999872e+01,1.235379841751199116e-02
3.060000000000000142e+01,6.491152175683103515e-03
3.064000000000000057e+01,1.431374113412690885e-02
3.067999999999999972e+01,1.383664296527462208e-02
3.071999999999999886e+01,5.501321912535801252e-03
3.076000000000000156e+01,9.261964393281568036e-03
3.080000000000000071e+01,7.548291105726215484e-03
3.083999999999999986e+01,6.893973668860050100e-03
3.087999999999999901e+01,1.286146223600114803e-02
3.092000000000000171e+01,1.768098502260240582e-02
3.096000000000000085e+01,1.631984892010226312e-02
3.100000000000000000e+01,4.628289425095835109e-03
3.103999999999999915e+01,0.000000000000000000e+00
3.107999999999999829e+01,9.145237984836428191e-03
3.112000000000000099e+01,1.140347395977117477e-02
3.116000000000000014e+01,1.180740091502834044e-02
3.119999999999999929e+01,1.327068318845602869e-02
3.123999999999999844e+01,1.455722067366622789e-02
3.128000000000000114e+01,1.451920612478659750e-02
3.132000000000000028e+01,1.209712515646042819e-02
3.135999999999999943e+01,1.426611369025633340e-02
3.139999999999999858e+01,1.290322849956461113e-02
3.144000000000000128e+01,1.357091973770328287e-02
3.148000000000000043e+01,1.732870167169153416e-02
3.151999999999999957e+01,1.066776658346422872e-02
3.155999999999999872e+01,1.998767970803582220e-02
3.160000000000000142e+01,1.367959692163022746e-02
3.164000000000000057e+01,1.770161915668363312e-02
3.167999999999999972e+01,2.304787458142969203e-02
3.171999999999999886e+01,2.389103434266588374e-02
3.176000000000000156e+01,2.287988419669335916e-02
3.180000000000000071e+01,2.372272422600120098e-02
3.183999999999999986e+01,2.253466850873153682e-02
3.187999999999999901e+01,2.849817447934458597e-02
3.192000000000000171e+01,2.695662723307147915e-02
3.196000000000000085e+01,2.603296987818451771e-02
3.200000000000000000e+01,2.502085947138966288e-02
3.203999999999999915e+01,2.374371023248684348e-02
3.207999999999999829e+01,2.017078631044704612e-02
3.211999999999999744e+01,1.606794485641482514e-02
3.215999999999999659e+01,1.399567876617562913e-02
3.220000000000000284e+01,1.757399526170293214e-02
3.224000000000000199e+01,1.965117258205928072e-02
3.228000000000000114e+01,1.457646759507350009e-02
3.232000000000000028e+01,1.329819494551903562e-02
3.235999999999999943e+01,2.190856194980792329e-02
3.239999999999999858e+01,1.418458897561952758e-02
3.243999999999999773e+01,1.670242697899962034e-02
3.247999999999999687e+01,1.074398947145894199e-02
3.252000000000000313e+01,1.299662703128904966e-02
3.256000000000000227e+01,1.445446782672355282e-02
3.260000000000000142e+01,1.335165458828049996e-02
3.264000000000000057e+01,1.374965884051160617e-02
3.267999999999999972e+01,1.141042321949631115e-02
3.271999999999999886e+01,1.066029783133339015e-02
3.275999999999999801e+01,8.673911080352852271e-03
3.279999999999999716e+01,1.454542754049924398e-02
3.284000000000000341e+01,1.432457519112911859e-02
3.288000000000000256e+01,1.207282555679417210e-02
3.292000000000000171e+01,1.423555739596909370e-02
3.296000000000000085e+01,7.480548711620029455e-03
3.300000000000000000e+01,8.495150082038516529e-03
3.303999999999999915e+01,1.259983984072572671e-02
3.307999999999999829e+01,1.043557471385259811e-02
3.311999999999999744e+01,9.154076344019107178e-03
3.315999999999999659e+01,9.373394695666135978e-03
3.320000000000000284e+01,9.945722522921383868e-03
3.324000000000000199e+01,1.290179555847630576e-02
3.328000000000000114e+01,3.408413176530763426e-03
3.332000000000000028e+01,1.422222656922704324e-02
3.335999999999999943e+01,1.814903463857210977e-02
3.339999999999999858e+01,1.059760857858284798e-02
3.343999999999999773e+01,8.785056130644753117e-03
3.347999999999999687e+01,8.208441349290286279e-03
3.352000000000000313e+01,7.808249849162719053e-03
3.356000000000000227e+01,2.012206776431750901e-02
3.360000000000000142e+01,1.530690818129176560e-02
3.364000000000000057e+01,1.146280744662769337e-02
3.367999999999999972e+01,2.130393741541203659e-02
3.371999999999999886e+01,2.231561859698195233e-02
3.375999999999999801e+01,1.794127249227956550e-02
3.379999999999999716e+01,2.919459984486393392e-02
3.384000000000000341e+01,1.969894206311317494e-02
3.388000000000000256e+01,2.088655743143455826e-02
3.392000000000000171e+01,2.048473827898218691e-02
3.396000000000000085e+01,1.778714166246202905e-02
3.400000000000000000e+01,1.659036052487883675e-02
3.403999999999999915e+01,1.415731613107831452e-02
3.407999999999999829e+01,1.843436586830143886e-02
3.411999999999999744e+01,1.635416632106127116e-02
3.415999999999999659e+01,1.427380338731683469e-02
3.420000000000000284e+01,1.899182726760546489e-02
3.424000000000000199e+01,1.805894457004990350e-02
3.428000000000000114e+01,1.050393376980911925e-02
3.432000000000000028e+01,1.990098856539644634e-02
3.435999999999999943e+01,1.216906473859712644e-02
3.439999999999999858e+01,2.024139920258483105e-02
3.443999999999999773e+01,1.745354802246050149e-02
3.447999999999999687e+01,1.254650433010607267e-02
3.452000000000000313e+01,1.523248272307571767e-02
3.456000000000000227e+01,1.235584692536691176e-02
3.460000000000000142e+01,1.769028311825437266e-02
3.464000000000000057e+01,1.834503360728253693e-02
3.467999999999999972e+01,1.873474135906580754e-02
3.471999999999999886e+01,1.815306343031013528e-02
3.475999999999999801e+01,1.668829262236246058e-02
3.479999999999999716e+01,1.504677176017931925e-02
3.484000000000000341e+01,2.400022976750290638e-02
3.488000000000000256e+01,2.218179434037399408e-02
3.492000000000000171e+01,2.813296612791307133e-02
3.496000000000000085e+01,2.031028710512964089e-02
3.500000000000000000e+01,1.893282227094178830e-02
3.503999999999999915e+01,2.355910726360243429e-02
3.507999999999999829e+01,3.118718476641032036e-02
3.511999999999999744e+01,3.978631892833646433e-02
3.515999999999999659e+01,4.291113087256868269e-02
3.520000000000000284e+01,4.824309940480096814e-02
3.524000000000000199e+01,5.366319581348864137e-02
3.528000000000000114e+01,5.722897710811833405e-02
3.532000000000000028e+01,6.388484341839850700e-02
3.535999999999999943e+01,7.142347317226882542e-02
3.539999999999999858e+01,7.189850886415080633e-02
3.543999999999999773e+01,6.107189313012396231e-02
3.547999999999999687e+01,5.280560501197867351e-02
3.552000000000000313e+01,5.248550894200153250e-02
3.556000000000000227e+01,3.883302547674909871e-02
3.560000000000000142e+01,4.036674850361176431e-02
3.564000000000000057e+01,3.925152013925682637e-02
3.567999999999999972e+01,3.857759044256378611e-02
3.571999999999999886e+01,4.187667377499044996e-02
3.575999999999999801e+01,4.199704837559928294e-02
3.579999999999999716e+01,4.202896430326983485e-02
3.584000000000000341e+01,4.417974301172490625e-02
3.588000000000000256e+01,4.394644855549693224e-02
3.592000000000000171e+01,4.759787397202926151e-02
3.596000000000000085e+01,5.054279045533868059e-02
3.600000000000000000e+01,4.430508333675275967e-02
3.603999999999999915e+01,3.744916002712210534e-02
3.607999999999999829e+01,4.030528514761055892e-02
3.611999999999999744e+01,4.969491566048549192e-02
3.615999999999999659e+01,4.716484365880459217e-02
3.620000000000000284e+01,5.337559844406427473e-02
3.624000000000000199e+01,5.702569381109089119e-02
3.628000000000000114e+01,5.458341528008926052e-02
3.632000000000000028e+01,5.999903475336534897e-02
3.635999999999999943e+01,5.349495141624189404e-02
3.639999999999999858e+01,4.919802289205621459e-02
3.643999999999999773e+01,5.214094217103242002e-02
3.647999999999999687e+01,4.890319439562094278e-02
3.652000000000000313e+01,4.239844390366998700e-02
3.656000000000000227e+01,4.198573385067099623e-02
3.660000000000000142e+01,4.245578540703119630e-02
3.664000000000000057e+01,3.701004825387572278e-02
3.667999999999999972e+01,3.633195845443112915e-02
3.671999999999999886e+01,3.574199434219847010e-02
3.675999999999999801e+01,2.932453420345963388e-02
3.679999999999999716e+01,2.767472124092543173e-02
3.684000000000000341e+01,2.681937667222225943e-02
3.688000000000000256e+01,2.764142904333801928e-02
3.692000000000000171e+01,2.978770685304131527e-02
3.696000000000000085e+01,3.228698857649112824e-02
3.700000000000000000e+01,3.107780257079820543e-02
3.703999999999999915e+01,2.386453440338655654e-02
3.707999999999999829e+01,2.733453465254779766e-02
3.711999999999999744e+01,3.442437441786010827e-02
3.715999999999999659e+01,3.250817458641491742e-02
3.720000000000000284e+01,3.315229982659537167e-02
3.724000000000000199e+01,3.582699291613873627e-02
3.728000000000000114e+01,3.452833928081120579e-02
3.732000000000000028e+01,4.055782500744886665e-02
3.735999999999999943e+01,4.084810668056490512e-02
3.739999999999999858e+01,3.901919152213269293e-02
3.743999999999999773e+01,4.743207994517638360e-02
3.747999999999999687e+01,3.995208517789093638e-02
3.752000000000000313e+01,4.315535817632219773e-02
3.756000000000000227e+01,4.114918398848209369e-02
3.760000000000000142e+01,4.037894137284522844e-02
3.764000000000000057e+01,4.826123055355863861e-02
3.767999999999999972e+01,4.351747208717873794e-02
3.771999999999999886e+01,4.053940217858984646e-02
3.775999999999999801e+01,4.118117083945217749e-02
3.779999999999999716e+01,4.093984212429819386e-02
3.784000000000000341e+01,4.069834457911573194e-02
3.788000000000000256e+01,4.257570679711202011e-02
3.792000000000000171e+01,4.339338574055438130e-02
3.796000000000000085e+01,4.138552413996087614e-02
3.800000000000000000e+01,4.458677224308807419e-02
3.803999999999999915e+01,4.849419410446843132e-02
3.807999999999999829e+01,5.037071098894760346e-02
3.811999999999999744e+01,5.613194449190633123e-02
3.815999999999999659e+01,6.445350164644092494e-02
3.820000000000000284e+01,6.562316773665968772e-02
3.824000000000000199e+01,7.394438610693124247e-02
3.828000000000000114e+01,8.606202799849176077e-02
3.832000000000000028e+01,9.491266451091937006e-02
3.835999999999999943e+01,1.010260527481393750e-01
3.839999999999999858e+01,1.175578288678167799e-01
3.843999999999999773e+01,1.393870069008744106e-01
3.847999999999999687e+01,1.718111584190832597e-01
3.852000000000000313e+01,1.984078113073613203e-01
3.856000000000000227e+01,2.489316595003182586e-01
3.860000000000000142e+01,3.087260880931853024e-01
3.864000000000000057e+01,4.229970416108131959e-01
3.867999999999999972e+01,5.406229537554643194e-01
3.871999999999999886e+01,7.116658763803507259e-01
3.875999999999999801e+01,9.040755010591181584e-01
3.879999999999999716e+01,9.851476583775561346e-01
3.884000000000000341e+01,1.000000000000000000e+00
3.888000000000000256e+01,9.407744612813868645e-01
3.892000000000000171e+01,7.858392913362103327e-01
3.896000000000000085e+01,6.547430232435096364e-01
3.900000000000000000e+01,4.941567691926555539e-01
3.903999999999999915e+01,3.663269957880218586e-01
3.907999999999999829e+01,2.727546815992059615e-01
3.911999999999999744e+01,2.196203268031355349e-01
3.915999999999999659e+01,1.756682587180972144e-01
3.920000000000000284e+01,1.414282344480161657e-01
3.924000000000000199e+01,1.278485686376658603e-01
3.928000000000000114e+01,1.029672457212075787e-01
3.932000000000000028e+01,9.230090232849914866e-02
3.935999999999999943e+01,8.887440241963449894e-02
3.939999999999999858e+01,7.776625250829777292e-02
3.943999999999999773e+01,7.804771040670355209e-02
3.947999999999999687e+01,6.844019667140817387e-02
3.952000000000000313e+01,6.439496183348400460e-02
3.956000000000000227e+01,6.997347741748276284e-02
3.960000000000000142e+01,6.892985702935379433e-02
3.964000000000000057e+01,6.355971498333545799e-02
3.967999999999999972e+01,6.304550871388808764e-02
3.971999999999999886e+01,5.626233773686935280e-02
3.975999999999999801e+01,4.992045939230090046e-02
3.979999999999999716e+01,5.664575267475380899e-02
3.984000000000000341e+01,5.639573818800384247e-02
3.988000000000000256e+01,5.535091610897863862e-02
3.992000000000000171e+01,5.713129365965168016e-02
3.996000000000000085e+01,5.785198491816502531e-02
4.000000000000000000e+01,5.963201847772583303e-02
4.003999999999999915e+01,6.838701593371482312e-02
4.007999999999999829e+01,7.634720550158487218e-02
4.011999999999999744e+01,8.730918012434077391e-02
4.015999999999999659e+01,9.367975373846680609e-02
4.020000000000000284e+01,1.055243123835797048e-01
4.024000000000000199e+01,1.094223412021300551e-01
4.028000000000000114e+01,1.330977983368672457e-01
4.032000000000000028e+01,1.331988892154319926e-01
4.035999999999999943e+01,1.442481222402798025e-01
4.039999999999999858e+01,1.419649607104346289e-01
4.043999999999999773e+01,1.350021048972626647e-01
4.047999999999999687e+01,1.255668762544867867e-01
4.052000000000000313e+01,1.072138959052948426e-01
4.056000000000000227e+01,9.495295007818077559e-02
4.060000000000000142e+01,7.668791682333002402e-02
4.064000000000000057e+01,7.051883248728482712e-02
4.067999999999999972e+01,5.243003895061598002e-02
4.071999999999999886e+01,4.864451572730676271e-02
4.075999999999999801e+01,4.062076204989917977e-02
4.079999999999999716e+01,3.798269965543171756e-02
4.084000000000000341e+01,3.278397103832597637e-02
4.088000000000000256e+01,3.023385490983737656e-02
4.092000000000000171e+01,2.971430118718749666e-02
4.096000000000000085e+01,2.292578092273529419e-02
4.100000000000000000e+01,2.461320176342771462e-02
4.103999999999999915e+01,2.347507750409120325e-02
4.107999999999999829e+01,2.657483692681000820e-02
4.111999999999999744e+01,2.508319392084911933e-02
4.115999999999999659e+01,2.058941991632171065e-02
4.120000000000000284e+01,2.271743665026632053e-02
4.124000000000000199e+01,1.504477200760087792e-02
4.128000000000000114e+01,2.026269108168209099e-02
4.132000000000000028e+01,1.709261442906634051e-02
4.135999999999999943e+01,1.983798539412235176e-02
4.139999999999999858e+01,1.375389621156563463e-02
4.143999999999999773e+01,1.393842597040585024e-02
4.147999999999999687e+01,1.906718170373929502e-02
4.152000000000000313e+01,2.137039162701889761e-02
4.156000000000000227e+01,1.890561274973130354e-02
4.160000000000000142e+01,1.326211650198970242e-02
4.164000000000000057e+01,2.059749629899172360e-02
4.167999999999999972e+01,2.175220134966975027e-02
4.171999999999999886e+01,1.866867452619956277e-02
4.175999999999999801e+01,2.123571614716676312e-02
4.179999999999999716e+01,2.124209012544589839e-02
4.184000000000000341e+01,2.018877503063450443e-02
4.188000000000000256e+01,2.019479945593974715e-02
4.192000000000000171e+01,2.488017062333509541e-02
4.196000000000000085e+01,1.437899485762760346e-02
4.200000000000000000e+01,1.685669460414505536e-02
4.203999999999999915e+01,2.348398375215238892e-02
4.207999999999999829e+01,2.013400455997476843e-02
4.211999999999999744e+01,1.863800027754234853e-02
4.215999999999999659e+01,2.093841377703092865e-02
4.220000000000000284e+01,2.315035913658260169e-02
4.224000000000000199e+01,1.794552887422860496e-02
4.228000000000000114e+01,2.121663782361954062e-02
4.232000000000000028e+01,1.715926389328297982e-02
4.235999999999999943e+01,1.963538612500928537e-02
4.239999999999999858e+01,1.884449694239111878e-02
4.243999999999999773e+01,1.611098919399465632e-02
4.247999999999999687e+01,1.858658452241991263e-02
4.252000000000000313e+01,1.611760390919686481e-02
4.256000000000000227e+01,2.018211916219296923e-02
4.260000000000000142e+01,1.223862951395026342e-02
4.264000000000000057e+01,1.674425726813863480e-02
4.267999999999999972e+01,1.745311603070737530e-02
4.271999999999999886e+01,1.727887013950461098e-02
4.275999999999999801e+01,1.251321939370374225e-02
4.279999999999999716e+01,1.595862850890720358e-02
4.284000000000000341e+01,1.975703284005221605e-02
4.288000000000000256e+01,1.499085341588806373e-02
4.292000000000000171e+01,2.108451949069188938e-02
4.296000000000000085e+01,1.464042296864423789e-02
4.300000000000000000e+01,2.091032189805600364e-02
4.303999999999999915e+01,2.179417981404753804e-02
4.307999999999999829e+01,1.941102530982599314e-02
4.311999999999999744e+01,1.411402976828526890e-02
4.315999999999999659e+01,2.356176523338924383e-02
4.320000000000000284e+01,2.320881642261485647e-02
4.324000000000000199e+01,2.223764077042234694e-02
4.328000000000000114e+01,2.488629552239475171e-02
4.332000000000000028e+01,2.700501617512718680e-02
4.335999999999999943e+01,4.139626744422206933e-02
4.339999999999999858e+01,3.857023385827915846e-02
4.343999999999999773e+01,4.607428783901661162e-02
4.347999999999999687e+01,4.898693590011864857e-02
4.352000000000000313e+01,6.002234989667198234e-02
4.356000000000000227e+01,6.929172939175359813e-02
4.360000000000000142e+01,7.750141721032011155e-02
4.364000000000000057e+01,7.220211996049424874e-02
4.367999999999999972e+01,8.332511729791702848e-02
4.371999999999999886e+01,7.908497937778107001e-02
4.375999999999999801e+01,7.970077119900441376e-02
4.379999999999999716e+01,7.237002792764722636e-02
4.384000000000000341e+01,7.607571451540826035e-02
4.388000000000000256e+01,7.130510872915726828e-02
4.392000000000000171e+01,6.247285353550869474e-02
4.396000000000000085e+01,5.107992750406003396e-02
4.400000000000000000e+01,4.772147383752210759e-02
4.403999999999999915e+01,4.701162798527076109e-02
4.407999999999999829e+01,4.718453267782395794e-02
4.411999999999999744e+01,4.232456620146355514e-02
4.415999999999999659e+01,3.843564301208588635e-02
4.420000000000000284e+01,2.969043425648844672e-02
4.424000000000000199e+01,3.710264067823033224e-02
4.428000000000000114e+01,3.197708255055225351e-02
4.432000000000000028e+01,3.117769617277716537e-02
4.435999999999999943e+01,2.878885983118687278e-02
4.439999999999999858e+01,3.567059531003921591e-02
4.443999999999999773e+01,2.736578018732673673e-02
4.447999999999999687e+01,2.992080825600137300e-02
4.452000000000000313e+01,2.823760030871591206e-02
4.456000000000000227e+01,2.840836366188243672e-02
4.460000000000000142e+01,2.804919102240927345e-02
4.464000000000000057e+01,2.645373944700235569e-02
4.467999999999999972e+01,3.033226627568338940e-02
4.471999999999999886e+01,3.491695698143777726e-02
4.475999999999999801e+01,2.360875372815215631e-02
4.479999999999999716e+01,2.722186477662414880e-02
4.484000000000000341e+01,2.800942510403678365e-02
4.488000000000000256e+01,3.356462065556833907e-02
4.492000000000000171e+01,2.967230082902830648e-02
4.496000000000000085e+01,2.789883029279980470e-02
4.500000000000000000e+01,3.195250912937193377e-02
4.503999999999999915e+01,2.541086522366264172e-02
4.507999999999999829e+01,3.317248518192016798e-02
4.511999999999999744e+01,3.122171088471541872e-02
4.515999999999999659e+01,3.536296430518332673e-02
4.520000000000000284e+01,3.923915942702741605e-02
4.524000000000000199e+01,3.631662451291989974e-02
4.528000000000000114e+01,4.019246002310409432e-02
4.532000000000000028e+01,3.726956537899923233e-02
4.535999999999999943e+01,4.193967678548957828e-02
4.539999999999999858e+01,4.864034397091963891e-02
4.543999999999999773e+01,5.013155231383633476e-02
4.547999999999999687e+01,5.586063783024680651e-02
4.552000000000000313e+01,6.300222892448115175e-02
4.556000000000000227e+01,7.411681849232482078e-02
4.560000000000000142e+01,8.523122775140427876e-02
4.564000000000000057e+01,9.281374222192423362e-02
4.567999999999999972e+01,1.106380480851593406e-01
4.571999999999999886e+01,1.191914231079794356e-01
4.575999999999999801e+01,1.401056180575530885e-01
4.579999999999999716e+01,1.608430466814875226e-01
4.584000000000000341e+01,1.553573150684933180e-01
4.588000000000000256e+01,1.579943458999946981e-01
4.592000000000000171e+01,1.515370313162686666e-01
4.596000000000000085e+01,1.337780497452547568e-01
4.600000000000000000e+01,1.190208445313217928e-01
4.603999999999999915e+01,1.010849153792045402e-01
4.607999999999999829e+01,9.241955556244282888e-02
4.611999999999999744e+01,6.759642119335687593e-02
4.615999999999999659e+01,6.413997793193478014e-02
4.620000000000000284e+01,4.841064586254015256e-02
4.624000000000000199e+01,4.663140449915618296e-02
4.628000000000000114e+01,3.681733151421406197e-02
4.632000000000000028e+01,3.362504169414507610e-02
4.635999999999999943e+01,2.884329895182385917e-02
4.639999999999999858e+01,2.388478899633224295e-02
4.643999999999999773e+01,3.075734079863166187e-02
4.647999999999999687e+01,2.279651042382313531e-02
4.652000000000000313e+01,1.986819142876215805e-02
4.656000000000000227e+01,2.029481940448230395e-02
4.660000000000000142e+01,1.957345840551609831e-02
4.664000000000000057e+01,1.505532255722485599e-02
4.667999999999999972e+01,2.069068376191464387e-02
4.671999999999999886e+01,1.723169836800210811e-02
4.675999999999999801e+01,1.386082380994752526e-02
4.679999999999999716e+01,1.048976716806646579e-02
4.684000000000000341e+01,1.771367164506976524e-02
4.688000000000000256e+01,1.354761491338857433e-02
4.692000000000000171e+01,1.450236183028314960e-02
4.696000000000000085e+01,1.051252623779914269e-02
4.700000000000000000e+01,1.164349417555343540e-02
4.703999999999999915e+01,1.295086539550011073e-02
4.707999999999999829e+01,1.646537563033073290e-02
4.711999999999999744e+01,1.671286746890538605e-02
4.715999999999999659e+01,1.766651957526021652e-02
4.720000000000000284e+01,1.561803174856861778e-02
4.724000000000000199e+01,1.268643258203775923e-02
4.728000000000000114e+01,1.478734367104833115e-02
4.732000000000000028e+01,1.732953620961712182e-02
4.735999999999999943e+01,8.570059689992184579e-03
4.739999999999999858e+01,1.234798639223381664e-02
4.743999999999999773e+01,1.745012297168406154e-02
4.747999999999999687e+01,1.389937613090423511e-02
4.752000000000000313e+01,1.087820330435458442e-02
4.756000000000000227e+01,1.536174041360375761e-02
4.760000000000000142e+01,1.366459401955520160e-02
4.764000000000000057e+01,1.152579999655830613e-02
4.767999999999999972e+01,1.706830145288531705e-02
4.771999999999999886e+01,1.695987639150235704e-02
4.775999999999999801e+01,1.349613912664794808e-02
4.779999999999999716e+01,8.178068227919638167e-03
4.784000000000000341e+01,9.658363966683611301e-03
4.788000000000000256e+01,1.193311176870606900e-02
4.792000000000000171e+01,4.760339755001365830e-03
4.796000000000000085e+01,6.240084272111666441e-03
4.800000000000000000e+01,7.101594906723621668e-03
4.803999999999999915e+01,8.492678786372123700e-03
4.807999999999999829e+01,9.618700107247434017e-03
4.811999999999999744e+01,1.189234457843143557e-02
4.815999999999999659e+01,9.927747649299926980e-03
4.820000000000000284e+01,8.581016589045651136e-03
4.824000000000000199e+01,1.076581573551675317e-02
4.828000000000000114e+01,6.063587488696231542e-03
4.832000000000000028e+01,1.177973245048532548e-02
4.835999999999999943e+01,5.222985409189847238e-03
4.839999999999999858e+01,1.500023311271593551e-02
4.843999999999999773e+01,1.365239588152363306e-02
4.847999999999999687e+01,1.089168831316710863e-02
4.852000000000000313e+01,7.689331814149926066e-03
4.856000000000000227e+01,1.296290523738532346e-02
4.860000000000000142e+01,1.134945079397915550e-02
4.864000000000000057e+01,7.263611450545858980e-03
4.867999999999999972e+01,9.269794617936021400e-03
4.871999999999999886e+01,8.097249882836242418e-03
4.875999999999999801e+01,1.672502768188030564e-02
4.879999999999999716e+01,1.166722705873303456e-02
4.884000000000000341e+01,1.022924861529569615e-02
4.888000000000000256e+01,9.409135034866976388e-03
4.892000000000000171e+01,1.476933647076492280e-02
4.896000000000000085e+01,1.739227395173881946e-02
4.900000000000000000e+01,6.947682738287336811e-03
4.903999999999999915e+01,1.442635681223949223e-02
4.907999999999999829e+01,1.351702368075892793e-02
4.911999999999999744e+01,8.369447728913074341e-03
4.915999999999999659e+01,8.519257833224809159e-03
4.920000000000000284e+01,1.520255398174466879e-02
4.924000000000000199e+01,1.632321422465808289e-02
4.928000000000000114e+01,1.823832445992400186e-02
4.932000000000000028e+01,1.026444850597853058e-02
4.935999999999999943e+01,1.094308701194211288e-02
4.939999999999999858e+01,7.206896562327895148e-03
4.943999999999999773e+01,1.477200626975517725e-02
4.947999999999999687e+01,1.235983669078037986e-02
4.952000000000000313e+01,9.682602422957743704e-03
4.956000000000000227e+01,8.506160617431750282e-03
4.960000000000000142e+01,1.412808284597345983e-02
4.964000000000000057e+01,1.180346134329841520e-02
4.967999999999999972e+01,7.271331983755936756e-03
4.971999999999999886e+01,1.121513083057255195e-02
4.975999999999999801e+01,9.154828700010756229e-03
4.979999999999999716e+01,1.036117588704642267e-02
4.984000000000000341e+01,1.801271531107470278e-02
4.988000000000000256e+01,8.623546015760446062e-03
4.992000000000000171e+01,1.071226188849413140e-02
4.996000000000000085e+01,1.182956953739850055e-02
5.000000000000000000e+01,1.524230474238433101e-02
5.003999999999999915e+01,1.141483850859128374e-02
5.007999999999999829e+01,1.147207120182415496e-02
5.011999999999999744e+01,1.303009552899133013e-02
5.015999999999999659e+01,1.414646849957944263e-02
5.020000000000000284e+01,3.872875350477551944e-03
5.024000000000000199e+01,1.037473852701343256e-02
5.028000000000000114e+01,6.899321233772442302e-03
5.032000000000000028e+01,6.513966767903947401e-03
5.035999999999999943e+01,8.600625046629596648e-03
5.039999999999999858e+01,1.006904589273241273e-02
5.043999999999999773e+01,7.034343384354514554e-03
5.047999999999999687e+01,1.115117505039463046e-02
5.052000000000000313e+01,9.263904614850302505e-03
5.056000000000000227e+01,5.610589323304542020e-03
5.060000000000000142e+01,1.299369389135977652e-02
5.064000000000000057e+01,9.516588851962845194e-03
5.067999999999999972e+01,1.169003906237395946e-02
5.071999999999999886e+01,9.536951225154521872e-03
5.075999999999999801e+01,9.944168401357441830e-03
5.079999999999999716e+01,1.397120485800194475e-02
5.084000000000000341e+01,9.610231505789155679e-03
5.088000000000000256e+01,1.116469168908768538e-02
5.092000000000000171e+01,1.183603508902279083e-02
5.096000000000000085e+01,1.029986873869077717e-02
5.100000000000000000e+01,1.035278558109637911e-02
5.103999999999999915e+01,1.543820711718175108e-02
5.107999999999999829e+01,1.240049707094434579e-02
5.111999999999999744e+01,1.474846304211186419e-02
5.115999999999999659e+01,9.856225917775766551e-03
5.120000000000000284e+01,1.052625041353843181e-02
5.124000000000000199e+01,1.384487207321423614e-02
5.128000000000000114e+01,1.424964062514769321e-02
5.132000000000000028e+01,9.974698799856768217e-03
5.135999999999999943e+01,1.346933987088123896e-02
5.139999999999999858e+01,1.343207763304747962e-02
5.143999999999999773e+01,2.169415533628559628e-02
5.147999999999999687e+01,1.565260062941711480e-02
5.152000000000000313e+01,1.667428569806373231e-02
5.156000000000000227e+01,1.849041738644466304e-02
5.160000000000000142e+01,1.924684556456221496e-02
5.164000000000000057e+01,2.106259882562357827e-02
5.167999999999999972e+01,2.340791994736601475e-02
5.171999999999999886e+01,2.213304442638464736e-02
5.175999999999999801e+01,2.430140104476374852e-02
5.179999999999999716e+01,2.744078964889602040e-02
5.184000000000000341e+01,3.252243164528505204e-02
5.188000000000000256e+01,3.680924829877647853e-02
5.192000000000000171e+01,3.367927501152687131e-02
5.196000000000000085e+01,4.193889101420372051e-02
5.200000000000000000e+01,3.253974513798514601e-02
5.203999999999999915e+01,3.505994559644949604e-02
5.207999999999999829e+01,3.113457734317014516e-02
5.211999999999999744e+01,2.791536202074706985e-02
5.215999999999999659e+01,2.716815678032474118e-02
5.220000000000000284e+01,2.809832581809349264e-02
5.224000000000000199e+01,2.505512600188216157e-02
5.228000000000000114e+01,2.192344313521113128e-02
5.232000000000000028e+01,1.322911980694057438e-02
5.235999999999999943e+01,1.680731378206568039e-02
5.239999999999999858e+01,1.729506727169235342e-02
5.243999999999999773e+01,1.283823014582293268e-02
5.247999999999999687e+01,1.182462409427662356e-02
5.252000000000000313e+01,1.566693482613534805e-02
5.256000000000000227e+01,1.703685485943029834e-02
5.260000000000000142e+01,1.460999122725778823e-02
5.264000000000000057e+01,1.756880136407805090e-02
5.267999999999999972e+01,1.372887045956082928e-02
5.271999999999999886e+01,1.545119892673021966e-02
5.275999999999999801e+01,1.496601498103910730e-02
5.279999999999999716e+01,1.430405435517906679e-02
5.284000000000000341e+01,1.487800275823188828e-02
5.288000000000000256e+01,1.306785284988667452e-02
5.292000000000000171e+01,1.549556910964943086e-02
5.296000000000000085e+01,1.447967261348871541e-02
5.300000000000000000e+01,1.602407781730086356e-02
5.303999999999999915e+01,1.730341312541594512e-02
5.307999999999999829e+01,1.231376396360009395e-02
5.311999999999999744e+01,1.677125944447261513e-02
5.315999999999999659e+01,1.443001317398277805e-02
5.320000000000000284e+01,1.358955398143414130e-02
5.324000000000000199e+01,1.583915329693990140e-02
5.328000000000000114e+01,1.446855366214095870e-02
5.332000000000000028e+01,1.592313383551195380e-02
5.335999999999999943e+01,1.411068638230337374e-02
5.339999999999999858e+01,1.335756140861399204e-02
5.343999999999999773e+01,1.878474476518351977e-02
5.347999999999999687e+01,1.114439280042866381e-02
5.352000000000000313e+01,1.180337769997114560e-02
5.356000000000000227e+01,1.811291358917235111e-02
5.360000000000000142e+01,1.532809270274776946e-02
5.364000000000000057e+01,1.572162259320584315e-02
5.367999999999999972e+01,1.743935313054891315e-02
5.371999999999999886e+01,1.703786269549738969e-02
5.375999999999999801e+01,1.513520125249215309e-02
5.379999999999999716e+01,1.137819730030179867e-02
5.384000000000000341e+01,6.649779384914268621e-03
5.388000000000000256e+01,9.426062056664425565e-03
5.392000000000000171e+01,1.229044497306781662e-02
5.396000000000000085e+01,1.383024230670516254e-02
5.400000000000000000e+01,1.263276823015704181e-02
5.403999999999999915e+01,1.099363705766197991e-02
5.407999999999999829e+01,1.279773459274041562e-02
5.411999999999999744e+01,1.265919628476817535e-02
5.415999999999999659e+01,1.260875786643674522e-02
5.420000000000000284e+01,1.246983355754604714e-02
5.424000000000000199e+01,1.330193762511535163e-02
5.428000000000000114e+01,1.466360570739753434e-02
5.432000000000000028e+01,1.169873041686242225e-02
5.435999999999999943e+01,1.526733353776782084e-02
5.439999999999999858e+01,1.344987884133048116e-02
5.443999999999999773e+01,1.542882376201060689e-02
5.447999999999999687e+01,1.431732512041774402e-02
5.452000000000000313e+01,1.161636148614946830e-02
5.456000000000000227e+01,1.394789733871168794e-02
5.460000000000000142e+01,1.310069659097904717e-02
5.464000000000000057e+01,1.375428079111295707e-02
5.467999999999999972e+01,1.220034973828679377e-02
5.471999999999999886e+01,1.603208937767885284e-02
5.475999999999999801e+01,1.836265652989868200e-02
5.479999999999999716e+01,1.539545813360401576e-02
5.484000000000000341e+01,1.966808032285026486e-02
5.488000000000000256e+01,1.917269400833854567e-02
5.492000000000000171e+01,1.964833506441816466e-02
5.496000000000000085e+01,2.109500343192041022e-02
5.500000000000000000e+01,1.874488458383073014e-02
5.503999999999999915e+01,2.345800030440696807e-02
5.507999999999999829e+01,2.428603583053810452e-02
5.511999999999999744e+01,2.440753408161932050e-02
5.515999999999999659e+01,2.020248771733966844e-02
5.520000000000000284e+01,1.785139691462683115e-02
5.524000000000000199e+01,1.964987598771928898e-02
5.528000000000000114e+01,1.676863882588200058e-02
5.532000000000000028e+01,1.715404281635590777e-02
5.535999999999999943e+01,2.080608789997227467e-02
5.539999999999999858e+01,1.951353798960566224e-02
5.543999999999999773e+01,2.440129345106093611e-02
5.547999999999999687e+01,1.692785351688004189e-02
5.552000000000000313e+01,1.616447599927749168e-02
5.556000000000000227e+01,1.389992481112793318e-02
5.560000000000000142e+01,1.428396433749868494e-02
5.564000000000000057e+01,1.758147310076805733e-02
5.567999999999999972e+01,1.593438645587333044e-02
5.571999999999999886e+01,1.781881895314931658e-02
5.575999999999999801e+01,1.431719162134538134e-02
5.579999999999999716e+01,1.311098326615544978e-02
5.584000000000000341e+01,1.852654399367827109e-02
5.588000000000000256e+01,1.855604471461493737e-02
5.592000000000000171e+01,1.311119250928101734e-02
5.596000000000000085e+01,2.329398098175129023e-02
5.600000000000000000e+01,1.714239456618692203e-02
5.603999999999999915e+01,1.584671972717835442e-02
5.607999999999999829e+01,1.958354212658816249e-02
5.611999999999999744e+01,1.563868979099212325e-02
5.615999999999999659e+01,1.451901306258538034e-02
5.620000000000000284e+01,1.578304757962092214e-02
5.624000000000000199e+01,1.748835035158537166e-02
5.628000000000000114e+01,1.822223555105938197e-02
5.632000000000000028e+01,1.754323881629593629e-02
5.635999999999999943e+01,1.659916727482989990e-02
5.639999999999999858e+01,1.556660658852381668e-02
5.643999999999999773e+01,1.576994960594392883e-02
5.647999999999999687e+01,1.923993205978176413e-02
5.652000000000000313e+01,1.935458935219380380e-02
5.656000000000000227e+01,2.088173589185712831e-02
5.660000000000000142e+01,1.561013559164637840e-02
5.664000000000000057e+01,1.837298895902414117e-02
5.667999999999999972e+01,1.786880978881683762e-02
5.671999999999999886e+01,1.983663395537379331e-02
5.675999999999999801e+01,1.862571832652390111e-02
5.679999999999999716e+01,1.838582728733449689e-02
5.684000000000000341e+01,1.540866063697904874e-02
5.688000000000000256e+01,1.781716148372980424e-02
5.692000000000000171e+01,2.031375813747822445e-02
5.696000000000000085e+01,2.236869337596159718e-02
5.700000000000000000e+01,2.071513130093166968e-02
5.703999999999999915e+01,2.056235062364379293e-02
5.707999999999999829e+01,2.226352272699188770e-02
5.711999999999999744e+01,1.716594722127223055e-02
5.715999999999999659e+01,2.089746035858846412e-02
5.720000000000000284e+01,1.871315437365608791e-02
5.724000000000000199e+01,2.394525114517146586e-02
5.728000000000000114e+01,2.555714304950803747e-02
5.732000000000000028e+01,2.107662993305843210e-02
5.735999999999999943e+01,1.659591911223469787e-02
5.739999999999999858e+01,2.076771085840307604e-02
5.743999999999999773e+01,2.273198326896821303e-02
5.747999999999999687e+01,1.860385042207226766e-02
5.752000000000000313e+01,1.818381977578506850e-02
5.756000000000000227e+01,2.588653429672100464e-02
5.760000000000000142e+01,2.264073605432813038e-02
5.764000000000000057e+01,2.116059690369321775e-02
5.767999999999999972e+01,1.870903810966192959e-02
5.771999999999999886e+01,2.332070991999086323e-02
5.775999999999999801e+01,1.795509019598832273e-02
5.779999999999999716e+01,1.859318663182060044e-02
5.784000000000000341e+01,2.417548484213094193e-02
5.788000000000000256e+01,1.801463413029033220e-02
5.792000000000000171e+01,2.077116379779519323e-02
5.796000000000000085e+01,1.646406603214171926e-02
5.800000000000000000e+01,2.001483420130827084e-02
5.803999999999999915e+01,2.356540366023207947e-02
5.807999999999999829e+01,1.908112404281908994e-02
5.811999999999999744e+01,1.980592436724999336e-02
5.815999999999999659e+01,2.017735436186926523e-02
5.820000000000000284e+01,2.416859269071302413e-02
5.824000000000000199e+01,2.091961745118596852e-02
5.828000000000000114e+01,2.217337903270253513e-02
5.832000000000000028e+01,2.183767000051324569e-02
5.835999999999999943e+01,2.370908329762284189e-02
5.839999999999999858e+01,1.472027550854448398e-02
5.843999999999999773e+01,2.330154766015292769e-02
5.847999999999999687e+01,2.234699151497087852e-02
5.852000000000000313e+01,2.236345741519346966e-02
5.856000000000000227e+01,1.796508081019652231e-02
5.860000000000000142e+01,2.133627639197284778e-02
5.864000000000000057e+01,2.205848656050540119e-02
5.867999999999999972e+01,2.013171125662545011e-02
5.871999999999999886e+01,2.429694361221493640e-02
5.875999999999999801e+01,1.945610441992668554e-02
5.879999999999999716e+01,2.300288714217760613e-02
5.884000000000000341e+01,1.772018391924465308e-02
5.888000000000000256e+01,2.647584556551584728e-02
5.892000000000000171e+01,2.551909254310903014e-02
5.896000000000000085e+01,1.997091070276395611e-02
5.900000000000000000e+01,2.245717903905171398e-02
5.903999999999999915e+01,2.476666146484685777e-02
5.907999999999999829e+01,2.319105777932281565e-02
5.911999999999999744e+01,2.391086815940728083e-02
5.915999999999999659e+01,2.286462096221096932e-02
5.920000000000000284e+01,2.331915196764468290e-02
5.924000000000000199e+01,1.988859662508427051e-02
5.928000000000000114e+01,2.608176253425740707e-02
5.932000000000000028e+01,2.291568462512779888e-02
5.935999999999999943e+01,1.895477030854602132e-02
5.939999999999999858e+01,2.267513413484701160e-02
5.943999999999999773e+01,2.162748271215349585e-02
5.947999999999999687e+01,2.049133758862688517e-02
5.952000000000000313e+01,2.200377738108402759e-02
5.956000000000000227e+01,1.795356600239948058e-02
5.960000000000000142e+01,1.699340372393949583e-02
5.964000000000000057e+01,1.797548329983172585e-02
5.967999999999999972e+01,1.984029034471944050e-02
5.971999999999999886e+01,2.188148191530860445e-02
5.975999999999999801e+01,1.950782920561600423e-02
5.979999999999999716e+01,2.190178965010188689e-02
5.984000000000000341e+01,1.996919855648415787e-02
5.988000000000000256e+01,1.900762749653392078e-02
5.992000000000000171e+01,1.680975489819080612e-02
5.996000000000000085e+01,2.035071668302346551e-02
