2.003999999999999915e+01,2.802299248106755389e-02
2.007999999999999829e+01,2.452043769810101706e-02
2.012000000000000099e+01,1.950905591470221759e-02
2.016000000000000014e+01,1.691144000026988461e-02
2.019999999999999929e+01,2.487451386642103648e-02
2.023999999999999844e+01,1.463259446061354607e-02
2.028000000000000114e+01,1.736526780561586936e-02
2.032000000000000028e+01,2.412097502310783792e-02
2.035999999999999943e+01,1.870644687667782219e-02
2.039999999999999858e+01,2.254507626777707552e-02
2.044000000000000128e+01,1.944359395999415568e-02
2.048000000000000043e+01,1.845413765970756181e-02
2.051999999999999957e+01,1.736396229404314068e-02
2.055999999999999872e+01,1.969334349028213985e-02
2.060000000000000142e+01,9.450170633071051235e-03
2.064000000000000057e+01,1.157811249237770089e-02
2.067999999999999972e+01,2.346210675321166658e-02
2.071999999999999886e+01,1.784516002096627960e-02
2.076000000000000156e+01,1.122227898116974314e-02
2.080000000000000071e+01,2.039020825093722580e-02
2.083999999999999986e+01,1.356588546185518405e-02
2.087999999999999901e+01,2.444337939991827677e-02
2.092000000000000171e+01,1.651240010184797796e-02
2.096000000000000085e+01,2.628323704845224665e-02
2.100000000000000000e+01,2.197282787131758439e-02
2.103999999999999915e+01,1.655590338745539097e-02
2.107999999999999829e+01,1.848112544007019312e-02
2.112000000000000099e+01,2.835196965110077169e-02
2.116000000000000014e+01,2.494620125768364297e-02
2.119999999999999929e+01,2.154028900841712876e-02
2.123999999999999844e+01,2.416899129380876282e-02
2.128000000000000114e+01,1.734309405115020894e-02
2.132000000000000028e+01,1.856339707126004185e-02
2.135999999999999943e+01,2.099050699692779978e-02
2.139999999999999858e+01,2.381978910268588503e-02
2.144000000000000128e+01,2.232401555243380270e-02
2.148000000000000043e+01,1.660376541546530749e-02
2.151999999999999957e+01,2.144419709831466361e-02
2.155999999999999872e+01,1.773524135922814604e-02
2.160000000000000142e+01,2.046321522579794966e-02
2.164000000000000057e+01,2.691247707250453078e-02
2.167999999999999972e+01,2.461119215251104594e-02
2.171999999999999886e+01,1.999643609844116779e-02
2.176000000000000156e+01,2.383019489566724075e-02
2.180000000000000071e+01,2.343947517629435887e-02
2.183999999999999986e+01,2.174107670442942952e-02
2.187999999999999901e+01,1.360545440185587790e-02
2.192000000000000171e+01,1.130328391188190930e-02
2.196000000000000085e+01,1.624267534067870902e-02
2.200000000000000000e+01,2.269060774685549564e-02
2.203999999999999915e+01,1.867814293622059238e-02
2.207999999999999829e+01,1.909101862583735196e-02
2.212000000000000099e+01,1.588288973214681266e-02
2.216000000000000014e+01,2.494528707750275076e-02
2.219999999999999929e+01,1.670789312513059136e-02
2.223999999999999844e+01,9.979038702726490684e-03
2.228000000000000114e+01,1.300622703243681406e-02
2.232000000000000028e+01,1.412225785165699236e-02
2.235999999999999943e+01,2.388795852470143241e-02
2.239999999999999858e+01,1.615270807278311113e-02
2.244000000000000128e+01,1.344627181317287201e-02
2.248000000000000043e+01,1.788081502574513648e-02
2.251999999999999957e+01,1.044684777927529402e-02
2.255999999999999872e+01,2.383264575446748107e-02
2.260000000000000142e+01,1.126882931408063233e-02
2.264000000000000057e+01,1.791550864442044075e-02
2.267999999999999972e+01,1.329715241395107092e-02
2.271999999999999886e+01,2.386611905057595476e-02
2.276000000000000156e+01,2.065556688069493732e-02
2.280000000000000071e+01,1.804833706872602597e-02
2.283999999999999986e+01,1.463631902602724293e-02
2.287999999999999901e+01,1.484500217464127143e-02
2.292000000000000171e+01,1.223731039947409567e-02
2.296000000000000085e+01,4.499919317122031553e-03
2.300000000000000000e+01,1.657649769755317748e-02
2.303999999999999915e+01,1.175559695643063444e-02
2.307999999999999829e+01,1.156118930573482063e-02
2.312000000000000099e+01,1.307647449888807434e-02
2.316000000000000014e+01,1.670376953677120066e-02
2.319999999999999929e+01,1.892279830963237985e-02
2.323999999999999844e+01,1.269300883920307724e-02
2.328000000000000114e+01,2.165053885857355642e-02
2.332000000000000028e+01,6.167139778064846360e-03
2.335999999999999943e+01,1.110118385239563556e-02
2.339999999999999858e+01,1.895187080827668430e-02
2.344000000000000128e+01,1.292245554612229605e-02
2.348000000000000043e+01,1.192184820415752994e-02
2.351999999999999957e+01,1.725757957802466838e-02
2.355999999999999872e+01,3.684242483698169524e-03
2.360000000000000142e+01,1.445094020743190912e-02
2.364000000000000057e+01,1.737229313869630490e-02
2.367999999999999972e+01,8.123390683507043797e-03
2.371999999999999886e+01,1.778323955410363727e-02
2.376000000000000156e+01,1.235603255043371540e-02
2.380000000000000071e+01,1.296342464236129900e-02
2.383999999999999986e+01,1.417413282008261194e-02
2.387999999999999901e+01,1.146208786855541437e-02
2.392000000000000171e+01,1.247131714675168979e-02
2.396000000000000085e+01,2.182846869777223947e-02
2.400000000000000000e+01,2.384316983785074451e-02
2.403999999999999915e+01,1.680557204675807437e-02
2.407999999999999829e+01,1.449504062573817031e-02
2.412000000000000099e+01,1.550346498614891752e-02
2.416000000000000014e+01,5.246844860043587203e-03
2.419999999999999929e+01,1.822388351764923572e-02
2.423999999999999844e+01,2.315441514319758684e-02
2.428000000000000114e+01,1.752395673222719580e-02
2.432000000000000028e+01,9.580011506884479958e-03
2.435999999999999943e+01,9.279930968309426167e-03
2.439999999999999858e+01,1.943993557008004761e-02
2.444000000000000128e+01,6.365956043730990055e-03
2.448000000000000043e+01,1.501694395450997067e-02
2.451999999999999957e+01,1.059245761813221859e-02
2.455999999999999872e+01,1.351009683075838144e-02
2.460000000000000142e+01,1.180092339819691950e-02
2.464000000000000057e+01,1.310896467941990995e-02
2.467999999999999972e+01,1.240525490673967043e-02
2.471999999999999886e+01,8.281683491514358481e-03
2.476000000000000156e+01,1.753499505085914095e-02
2.480000000000000071e+01,1.441688584810325684e-02
2.483999999999999986e+01,1.381309360030988018e-02
2.487999999999999901e+01,1.361145254513379359e-02
2.492000000000000171e+01,1.280616933604937849e-02
2.496000000000000085e+01,1.451520235822152671e-02
2.500000000000000000e+01,2.075013758099585048e-02
2.503999999999999915e+01,1.652465749430944569e-02
2.507999999999999829e+01,2.165288603114870827e-02
2.512000000000000099e+01,1.994155395510210579e-02
2.516000000000000014e+01,1.863237138302562684e-02
2.519999999999999929e+01,1.108710357876687390e-02
2.523999999999999844e+01,1.641581930160918718e-02
2.528000000000000114e+01,1.430149758345007627e-02
2.532000000000000028e+01,1.108063474638408714e-02
2.535999999999999943e+01,2.730058128014100239e-03
2.539999999999999858e+01,1.620502270888875621e-02
2.544000000000000128e+01,2.615954199445355913e-02
2.548000000000000043e+01,1.298065019030939134e-02
2.551999999999999957e+01,1.750354713001305018e-02
2.555999999999999872e+01,1.579035666641664948e-02
2.560000000000000142e+01,1.377525787949847660e-02
2.564000000000000057e+01,1.105593328590702071e-02
2.567999999999999972e+01,1.085092058133643039e-02
2.571999999999999886e+01,2.271525402481051198e-02
2.576000000000000156e+01,1.536876780056121300e-02
2.580000000000000071e+01,1.767772378918889761e-02
2.583999999999999986e+01,1.143726654370126779e-02
2.587999999999999901e+01,1.113081653904536214e-02
2.592000000000000171e+01,1.575258042869542852e-02
2.596000000000000085e+01,1.685389588697640967e-02
2.600000000000000000e+01,1.533997646741433289e-02
2.603999999999999915e+01,1.121082192877395460e-02
2.607999999999999829e+01,1.442378377219534838e-02
2.612000000000000099e+01,1.351282035613205618e-02
2.616000000000000014e+01,1.260168317103961891e-02
2.619999999999999929e+01,1.259558577044419050e-02
2.623999999999999844e+01,2.063565896067254268e-02
2.628000000000000114e+01,1.268344728404758280e-02
2.632000000000000028e+01,8.150757431439753509e-03
2.635999999999999943e+01,1.287118917229834562e-02
2.639999999999999858e+01,3.812080154236691804e-03
2.644000000000000128e+01,1.205243708949438851e-02
2.648000000000000043e+01,6.613832093890303562e-03
2.651999999999999957e+01,1.264109255845024399e-02
2.655999999999999872e+01,1.494674235205314949e-02
2.660000000000000142e+01,9.306450191243828898e-03
2.664000000000000057e+01,6.582781371923883407e-03
2.667999999999999972e+01,4.562990821218887438e-03
2.671999999999999886e+01,1.008647141386855885e-02
2.676000000000000156e+01,1.037965047144904368e-02
2.680000000000000071e+01,2.525727747382547524e-03
2.683999999999999986e+01,1.307764098010161767e-02
2.687999999999999901e+01,5.726258827385844428e-03
2.692000000000000171e+01,2.196712122273537186e-03
2.696000000000000085e+01,1.425677995542755545e-02
2.700000000000000000e+01,7.508337884679350954e-03
2.703999999999999915e+01,1.041533054851320403e-02
2.707999999999999829e+01,9.097812852685618554e-03
2.712000000000000099e+01,5.667950077071244944e-03
2.716000000000000014e+01,4.852969575299869755e-03
2.719999999999999929e+01,4.238967653439133267e-03
2.723999999999999844e+01,1.720299237061652387e-02
2.728000000000000114e+01,9.447498595192616033e-03
2.732000000000000028e+01,1.426423787104583868e-02
2.735999999999999943e+01,1.254314095642237135e-02
2.739999999999999858e+01,6.698111062783915735e-03
2.744000000000000128e+01,2.261010027992707474e-03
2.748000000000000043e+01,8.585713490014530713e-03
2.751999999999999957e+01,1.038416600719924317e-02
2.755999999999999872e+01,1.318822941740903885e-02
2.760000000000000142e+01,0.000000000000000000e+00
2.764000000000000057e+01,1.105120172535470693e-02
2.767999999999999972e+01,6.311268761677988996e-03
2.771999999999999886e+01,5.192007799840269756e-03
2.776000000000000156e+01,8.699211703896600825e-03
2.780000000000000071e+01,1.079812160086892139e-02
2.783999999999999986e+01,1.732233726020665499e-02
2.787999999999999901e+01,6.446148055871628139e-03
2.792000000000000171e+01,1.417694691602662191e-02
2.796000000000000085e+01,6.820664572206281209e-03
2.800000000000000000e+01,1.223776979972068107e-02
2.803999999999999915e+01,4.579379551370076074e-03
2.807999999999999829e+01,2.553245344321316244e-03
2.812000000000000099e+01,9.780222116384820058e-03
2.816000000000000014e+01,8.558350973213372029e-03
2.819999999999999929e+01,5.626445479017587632e-03
2.823999999999999844e+01,1.375807782975090911e-02
2.828000000000000114e+01,9.618847741439588359e-03
2.832000000000000028e+01,9.402023968024524059e-03
2.835999999999999943e+01,9.375096942559268346e-04
2.839999999999999858e+01,8.666077137456396420e-03
2.844000000000000128e+01,1.729967085597581070e-02
2.848000000000000043e+01,8.130538850176508708e-03
2.851999999999999957e+01,7.510460237432965702e-03
2.855999999999999872e+01,1.302553132381266930e-02
2.860000000000000142e+01,8.080165630787993283e-03
2.864000000000000057e+01,1.178443191764206102e-02
2.867999999999999972e+01,6.134633358440595360e-03
2.871999999999999886e+01,1.205126630198952511e-02
2.876000000000000156e+01,8.814992538070420477e-03
2.880000000000000071e+01,4.666700449343464210e-05
2.883999999999999986e+01,1.360675847656870815e-02
2.887999999999999901e+01,4.234576974990810622e-03
2.892000000000000171e+01,1.125663267538088048e-02
2.896000000000000085e+01,1.123794598323616008e-02
2.900000000000000000e+01,8.302268389012186847e-03
2.903999999999999915e+01,1.260811001490715240e-02
2.907999999999999829e+01,1.741665681423971296e-02
2.912000000000000099e+01,1.166418438757967253e-02
2.916000000000000014e+01,1.345496838891972746e-02
2.919999999999999929e+01,9.210801655603487528e-03
2.923999999999999844e+01,6.676290857132176522e-03
2.928000000000000114e+01,2.834056436399051606e-03
2.932000000000000028e+01,1.387736714734501275e-02
2.935999999999999943e+01,1.053764338478269807e-02
2.939999999999999858e+01,8.505257350007794023e-03
2.944000000000000128e+01,8.484263975488274059e-03
2.948000000000000043e+01,1.691173889384772061e-02
2.951999999999999957e+01,4.720261120956822584e-03
2.955999999999999872e+01,1.781885642706591919e-03
2.960000000000000142e+01,1.071167429161684441e-02
2.964000000000000057e+01,1.008623368376573848e-02
2.967999999999999972e+01,2.822363583260255240e-03
2.971999999999999886e+01,5.716808607215540308e-03
2.976000000000000156e+01,1.162843746683406981e-02
2.980000000000000071e+01,1.070047748903421407e-02
2.983999999999999986e+01,4.743356022103382280e-03
2.987999999999999901e+01,9.346865956808204923e-03
2.992000000000000171e+01,7.613682883033844051e-03
2.996000000000000085e+01,5.679144501816717205e-03
3.000000000000000000e+01,7.868160924670457301e-03
3.003999999999999915e+01,5.530911204861833561e-03
3.007999999999999829e+01,5.003891664485375472e-03
3.012000000000000099e+01,3.873198609608656529e-03
3.016000000000000014e+01,1.561645940988839847e-02
3.019999999999999929e+01,1.005988066537587093e-02
3.023999999999999844e+01,4.402524235302307694e-03
3.028000000000000114e+01,1.383186576831824978e-02
3.032000000000000028e+01,9.783380832939593541e-03
3.035999999999999943e+01,1.357988302008853419e-02
3.039999999999999858e+01,1.174374447763778216e-02
3.044000000000000128e+01,4.878440827526254499e-03
3.048000000000000043e+01,7.869709786817211117e-03
3.051999999999999957e+01,9.452668335022394383e-03
3.055999999999999872e+01,1.113600588884213448e-02
3.060000000000000142e+01,1.332203944915723824e-02
3.064000000000000057e+01,1.017716876404784268e-02
3.067999999999999972e+01,1.477670396105442568e-02
3.071999999999999886e+01,1.615749995127580343e-02
3.076000000000000156e+01,1.140275648813431596e-02
3.080000000000000071e+01,9.866349209595856248e-03
3.083999999999999986e+01,1.758303650616774294e-02
3.087999999999999901e+01,4.982500841075513005e-03
3.092000000000000171e+01,3.948383410791056307e-03
3.096000000000000085e+01,1.005519431080104976e-02
3.100000000000000000e+01,1.314442293643667235e-02
3.103999999999999915e+01,5.572041446255165432e-03
3.107999999999999829e+01,8.359125499591600963e-03
3.112000000000000099e+01,7.022254139028218101e-03
3.116000000000000014e+01,1.413384093946023524e-02
3.119999999999999929e+01,1.239424424865670331e-02
3.123999999999999844e+01,1.709151902579704105e-02
3.128000000000000114e+01,1.675962362933487021e-02
3.132000000000000028e+01,9.990447470628221679e-03
3.135999999999999943e+01,1.066393516144996736e-02
3.139999999999999858e+01,9.627369202421692460e-03
3.144000000000000128e+01,1.180913556823124863e-02
3.148000000000000043e+01,1.650517884394007637e-02
3.151999999999999957e+01,1.808305739868628845e-02
3.155999999999999872e+01,1.282133650165988813e-02
3.160000000000000142e+01,2.858048492817101896e-02
3.164000000000000057e+01,1.859112304097847168e-02
3.167999999999999972e+01,2.238091963676157314e-02
3.171999999999999886e+01,2.325370892646354617e-02
3.176000000000000156e+01,2.161180791096526874e-02
3.180000000000000071e+01,2.057317497543181134e-02
3.183999999999999986e+01,2.375866505767339210e-02
3.187999999999999901e+01,1.909876065296941400e-02
3.192000000000000171e+01,2.298788913631880093e-02
3.196000000000000085e+01,2.285363645035562788e-02
3.200000000000000000e+01,1.517572648532803346e-02
3.203999999999999915e+01,1.705264178993830607e-02
3.207999999999999829e+01,1.852703038057567503e-02
3.211999999999999744e+01,1.587745752643017830e-02
3.215999999999999659e+01,1.725084713911908749e-02
3.220000000000000284e+01,1.641128172460636428e-02
3.224000000000000199e+01,1.969525760498646444e-02
3.228000000000000114e+01,1.714542279664863639e-02
3.232000000000000028e+01,7.554825332009037706e-03
3.235999999999999943e+01,7.619630517653731144e-03
3.239999999999999858e+01,1.623346569652797319e-02
3.243999999999999773e+01,1.408510300581981151e-02
3.247999999999999687e+01,1.445101119412785066e-02
3.252000000000000313e+01,1.662713484651341667e-02
3.256000000000000227e+01,1.840072889010224005e-02
3.260000000000000142e+01,1.323413789927108813e-02
3.264000000000000057e+01,1.017949958039866473e-02
3.267999999999999972e+01,6.320013686907311606e-03
3.271999999999999886e+01,1.161303171993721163e-02
3.275999999999999801e+01,1.579946376429039803e-02
3.279999999999999716e+01,1.093354404693708259e-02
3.284000000000000341e+01,1.371143787446332807e-02
3.288000000000000256e+01,7.034662215696230528e-03
3.292000000000000171e+01,1.463993411425501892e-02
3.296000000000000085e+01,4.643611891197186974e-03
3.300000000000000000e+01,1.617104710108581075e-02
3.303999999999999915e+01,1.210847391746807528e-02
3.307999999999999829e+01,1.327580937862089805e-02
3.311999999999999744e+01,1.202902564310158635e-02
3.315999999999999659e+01,1.058086730131377849e-02
3.320000000000000284e+01,1.577072722799721313e-02
3.324000000000000199e+01,2.528528103974856181e-02
3.328000000000000114e+01,1.579012845259405995e-02
3.332000000000000028e+01,1.212835892597245203e-02
3.335999999999999943e+01,1.621097911870029995e-02
3.339999999999999858e+01,1.677310601028929662e-02
3.343999999999999773e+01,1.331184280685880975e-02
3.347999999999999687e+01,1.347121686738098761e-02
3.352000000000000313e+01,8.199090003006444943e-03
3.356000000000000227e+01,8.659765441223857621e-03
3.360000000000000142e+01,6.304001545829079033e-03
3.364000000000000057e+01,1.098857050743317146e-02
3.367999999999999972e+01,1.848914104258094632e-02
3.371999999999999886e+01,1.221012667274471233e-02
3.375999999999999801e+01,1.518418926784034957e-02
3.379999999999999716e+01,1.282732855992106159e-02
3.384000000000000341e+01,1.489573742906892539e-02
3.388000000000000256e+01,1.535465700230587670e-02
3.392000000000000171e+01,1.098554910146715136e-02
3.396000000000000085e+01,1.345561350668666827e-02
3.400000000000000000e+01,2.417296032413570120e-02
3.403999999999999915e+01,2.070840306460198024e-02
3.407999999999999829e+01,1.201350012393508776e-02
3.411999999999999744e+01,1.438209956660504822e-02
3.415999999999999659e+01,1.524178733524589498e-02
3.420000000000000284e+01,1.650357008867416042e-02
3.424000000000000199e+01,1.535122689084128522e-02
3.428000000000000114e+01,1.439981957426710556e-02
3.432000000000000028e+01,1.515803755565195247e-02
3.435999999999999943e+01,1.732414266217339668e-02
3.439999999999999858e+01,1.335468636291773682e-02
3.443999999999999773e+01,1.210064774320563155e-02
3.447999999999999687e+01,2.412285416735140270e-02
3.452000000000000313e+01,1.804056050905778613e-02
3.456000000000000227e+01,1.437194587501461167e-02
3.460000000000000142e+01,1.009963070811518808e-02
3.464000000000000057e+01,1.467806995685442054e-02
3.467999999999999972e+01,2.056381509031863022e-02
3.471999999999999886e+01,1.850356929860034333e-02
3.475999999999999801e+01,9.905442687870922094e-03
3.479999999999999716e+01,1.619282815958153141e-02
3.484000000000000341e+01,1.624407026139747592e-02
3.488000000000000256e+01,2.253100325768497836e-02
3.492000000000000171e+01,9.003585480186119747e-03
3.496000000000000085e+01,1.830744435198057227e-02
3.500000000000000000e+01,1.584329680984161021e-02
3.503999999999999915e+01,9.054011591683177110e-03
3.507999999999999829e+01,1.513865055673668802e-02
3.511999999999999744e+01,1.186918583684784881e-02
3.515999999999999659e+01,1.865742412288701885e-02
3.520000000000000284e+01,1.820372376262322650e-02
3.524000000000000199e+01,1.272082934646005976e-02
3.528000000000000114e+01,1.488173375982183855e-02
3.532000000000000028e+01,1.704240916126589442e-02
3.535999999999999943e+01,1.528026219892409353e-02
3.539999999999999858e+01,1.804395471600091921e-02
3.543999999999999773e+01,2.322132095015108644e-02
3.547999999999999687e+01,2.015095374406058668e-02
3.552000000000000313e+01,1.879020459886944494e-02
3.556000000000000227e+01,2.105008017339424567e-02
3.560000000000000142e+01,2.421493884211545558e-02
3.564000000000000057e+01,2.838535967432678081e-02
3.567999999999999972e+01,1.948023895472662109e-02
3.571999999999999886e+01,2.525946614809603669e-02
3.575999999999999801e+01,2.781992373902972271e-02
3.579999999999999716e+01,2.585408044941479855e-02
3.584000000000000341e+01,3.042566019621084639e-02
3.588000000000000256e+01,3.459469031167845127e-02
3.592000000000000171e+01,2.759918432797450402e-02
3.596000000000000085e+01,2.301734892528473422e-02
3.600000000000000000e+01,3.513144595749820298e-02
3.603999999999999915e+01,3.708679927212458344e-02
3.607999999999999829e+01,3.803612588607165057e-02
3.611999999999999744e+01,4.371244625825965180e-02
3.615999999999999659e+01,3.259178769423767830e-02
3.620000000000000284e+01,3.243403965878675216e-02
3.624000000000000199e+01,3.106910533665711155e-02
3.628000000000000114e+01,3.050857069719437389e-02
3.632000000000000028e+01,3.316633895186030245e-02
3.635999999999999943e+01,3.330938915926395100e-02
3.639999999999999858e+01,1.937110036732992910e-02
3.643999999999999773e+01,3.751737586765443999e-02
3.647999999999999687e+01,3.393828428596318975e-02
3.652000000000000313e+01,3.609197715545008761e-02
3.656000000000000227e+01,2.044289557108334640e-02
3.660000000000000142e+01,2.973724626647165220e-02
3.664000000000000057e+01,2.847053238362693209e-02
3.667999999999999972e+01,2.710300197633444888e-02
3.671999999999999886e+01,2.965782722452071571e-02
3.675999999999999801e+01,3.050256649732389219e-02
3.679999999999999716e+01,3.114590921144433019e-02
3.684000000000000341e+01,3.017974477824007448e-02
3.688000000000000256e+01,3.172782468816667117e-02
3.692000000000000171e+01,3.719825904739539058e-02
3.696000000000000085e+01,3.914817863554159033e-02
3.700000000000000000e+01,3.214630044280154114e-02
3.703999999999999915e+01,3.661022426533604851e-02
3.707999999999999829e+01,3.725189466149494977e-02
3.711999999999999744e+01,3.376957345845579134e-02
3.715999999999999659e+01,4.084783975222378710e-02
3.720000000000000284e+01,3.454881739565093812e-02
3.724000000000000199e+01,3.830748550076942122e-02
3.728000000000000114e+01,3.894795414703899894e-02
3.732000000000000028e+01,4.049339551438613238e-02
3.735999999999999943e+01,4.555887143533070976e-02
3.739999999999999858e+01,4.911541614218513374e-02
3.743999999999999773e+01,5.669489147281157188e-02
3.747999999999999687e+01,5.632835923301833525e-02
3.752000000000000313e+01,6.762878473473384056e-02
3.756000000000000227e+01,7.048030563091386980e-02
3.760000000000000142e+01,7.665070101222128118e-02
3.764000000000000057e+01,9.730427410614471417e-02
3.767999999999999972e+01,1.055863487601939460e-01
3.771999999999999886e+01,1.215122075284135045e-01
3.775999999999999801e+01,1.415615743010515681e-01
3.779999999999999716e+01,1.717692074686154591e-01
3.784000000000000341e+01,2.149513274846830968e-01
3.788000000000000256e+01,2.675876582395025904e-01
3.792000000000000171e+01,3.555270822978032208e-01
3.796000000000000085e+01,4.764562752761815623e-01
3.800000000000000000e+01,6.418412783337132943e-01
3.803999999999999915e+01,8.421270567289037556e-01
3.807999999999999829e+01,9.677827410543884401e-01
3.811999999999999744e+01,1.000000000000000000e+00
3.815999999999999659e+01,9.046824470551575459e-01
3.820000000000000284e+01,7.510286476226082364e-01
3.824000000000000199e+01,5.936531670783879999e-01
3.828000000000000114e+01,4.445249431342177537e-01
3.832000000000000028e+01,3.348235618128662661e-01
3.835999999999999943e+01,2.660577125310337188e-01
3.839999999999999858e+01,2.074501260255972868e-01
3.843999999999999773e+01,1.743894365662653489e-01
3.847999999999999687e+01,1.484696300849873973e-01
3.852000000000000313e+01,1.339150373827480978e-01
3.856000000000000227e+01,1.105092168019740084e-01
3.860000000000000142e+01,9.203153364390902202e-02
3.864000000000000057e+01,7.888430490943397488e-02
3.867999999999999972e+01,7.378317174159775005e-02
3.871999999999999886e+01,7.260438216747419626e-02
3.875999999999999801e+01,5.855119108747752071e-02
3.879999999999999716e+01,6.250144659278909776e-02
3.884000000000000341e+01,5.126397596758891506e-02
3.888000000000000256e+01,4.917897211867038737e-02
3.892000000000000171e+01,4.146127615702872166e-02
3.896000000000000085e+01,4.963486029464408283e-02
3.900000000000000000e+01,4.060913112622548116e-02
3.903999999999999915e+01,3.812080569539211261e-02
3.907999999999999829e+01,3.603454581863697881e-02
3.911999999999999744e+01,3.384745470207949081e-02
3.915999999999999659e+01,3.427517348876855940e-02
3.920000000000000284e+01,3.751886055852694801e-02
3.924000000000000199e+01,3.281652944351152318e-02
3.928000000000000114e+01,3.143306268174001633e-02
3.932000000000000028e+01,2.874181174764102106e-02
3.935999999999999943e+01,2.635204536844393958e-02
3.939999999999999858e+01,2.677824606613955424e-02
3.943999999999999773e+01,2.650013773097602623e-02
3.947999999999999687e+01,2.410960977431133093e-02
3.952000000000000313e+01,2.423331023924624530e-02
3.956000000000000227e+01,2.496023198449362490e-02
3.960000000000000142e+01,2.739674718463759595e-02
3.964000000000000057e+01,1.716001419278945922e-02
3.967999999999999972e+01,1.919370177891699392e-02
3.971999999999999886e+01,2.132771312777044515e-02
3.975999999999999801e+01,2.185219971912076911e-02
3.979999999999999716e+01,1.945963027485500541e-02
3.984000000000000341e+01,2.169345284341624158e-02
3.988000000000000256e+01,2.503339131505254167e-02
3.992000000000000171e+01,2.344468681678596109e-02
3.996000000000000085e+01,1.994471842325246450e-02
4.000000000000000000e+01,1.785260314067524043e-02
4.003999999999999915e+01,2.189556832268405376e-02
4.007999999999999829e+01,2.442958612783618921e-02
4.011999999999999744e+01,2.263843562008306665e-02
4.015999999999999659e+01,1.219720620544043933e-02
4.020000000000000284e+01,1.432813216430144782e-02
4.024000000000000199e+01,1.947617875517149155e-02
4.028000000000000114e+01,2.221006296824684645e-02
4.032000000000000028e+01,2.162457076753078813e-02
4.035999999999999943e+01,2.315098468035641302e-02
4.039999999999999858e+01,2.306786997591373997e-02
4.043999999999999773e+01,1.775437123392182778e-02
4.047999999999999687e+01,2.229738479250209515e-02
4.052000000000000313e+01,2.070480003630107216e-02
4.056000000000000227e+01,1.518936155572244047e-02
4.060000000000000142e+01,2.093854499941665004e-02
4.064000000000000057e+01,1.733359146769417394e-02
4.067999999999999972e+01,2.227761799348966162e-02
4.071999999999999886e+01,1.655997602452027179e-02
4.075999999999999801e+01,2.150347915170814500e-02
4.079999999999999716e+01,2.031138227546748845e-02
4.084000000000000341e+01,1.740917481784095416e-02
4.088000000000000256e+01,1.752408413245833130e-02
4.092000000000000171e+01,2.236595825707805504e-02
4.096000000000000085e+01,2.066991417121178537e-02
4.100000000000000000e+01,1.293884818626942629e-02
4.103999999999999915e+01,1.496371181407567252e-02
4.107999999999999829e+01,1.648541513943267006e-02
4.111999999999999744e+01,1.609584757369843938e-02
4.115999999999999659e+01,1.258805714928915888e-02
4.120000000000000284e+01,1.129274708300881912e-02
4.124000000000000199e+01,1.583077231266774923e-02
4.128000000000000114e+01,1.252334636508054683e-02
4.132000000000000028e+01,8.008703493928841233e-03
4.135999999999999943e+01,1.103724347400419394e-02
4.139999999999999858e+01,1.195335225328296967e-02
4.143999999999999773e+01,1.286919511163981539e-02
4.147999999999999687e+01,2.092590285540157566e-02
4.152000000000000313e+01,1.158212347424602585e-02
4.156000000000000227e+01,1.410643609088985118e-02
4.160000000000000142e+01,1.441773699003146697e-02
4.164000000000000057e+01,1.784672938847490717e-02
4.167999999999999972e+01,1.312853026573187337e-02
4.171999999999999886e+01,1.333844974934283480e-02
4.175999999999999801e+01,8.921453097813241209e-03
4.179999999999999716e+01,1.687544354931630464e-02
4.184000000000000341e+01,1.396660013040739931e-02
4.188000000000000256e+01,1.216386055280749452e-02
4.192000000000000171e+01,1.609387285961734471e-02
4.196000000000000085e+01,1.680507817251666869e-02
4.200000000000000000e+01,1.500153142397341564e-02
4.203999999999999915e+01,1.480698410444310741e-02
4.207999999999999829e+01,1.602027735163236849e-02
4.211999999999999744e+01,1.471881781367308586e-02
4.215999999999999659e+01,1.512693629154984037e-02
4.220000000000000284e+01,9.198287701703758770e-03
4.224000000000000199e+01,1.624409942447605296e-02
4.228000000000000114e+01,2.238442636562327365e-02
4.232000000000000028e+01,1.826539240470891404e-02
4.235999999999999943e+01,1.806868008509297449e-02
4.239999999999999858e+01,2.058733743919156922e-02
4.243999999999999773e+01,1.717154352027155592e-02
4.247999999999999687e+01,1.093925671349798602e-02
4.252000000000000313e+01,1.798316646228272433e-02
4.256000000000000227e+01,1.959552076698809972e-02
4.260000000000000142e+01,1.346299524421077330e-02
4.264000000000000057e+01,1.527596209524639988e-02
4.267999999999999972e+01,1.789329003129746382e-02
4.271999999999999886e+01,2.322598571118051486e-02
4.275999999999999801e+01,1.880221438805869047e-02
4.279999999999999716e+01,1.991003102111145798e-02
4.284000000000000341e+01,1.860366983730895110e-02
4.288000000000000256e+01,1.407849611118350795e-02
4.292000000000000171e+01,2.192430273350175901e-02
4.296000000000000085e+01,2.624955839943926908e-02
4.300000000000000000e+01,2.453978010453460035e-02
4.303999999999999915e+01,1.860539519707527650e-02
4.307999999999999829e+01,1.930896897296278600e-02
4.311999999999999744e+01,1.820183910652203516e-02
4.315999999999999659e+01,2.172108123037660987e-02
4.320000000000000284e+01,1.940644680827049648e-02
4.324000000000000199e+01,1.980717699393718528e-02
4.328000000000000114e+01,2.644354741465790651e-02
4.332000000000000028e+01,2.372576469719544015e-02
4.335999999999999943e+01,2.845057345866490797e-02
4.339999999999999858e+01,2.784440102064232592e-02
4.343999999999999773e+01,2.884721956839644136e-02
4.347999999999999687e+01,2.964860127116911853e-02
4.352000000000000313e+01,2.632595277709233808e-02
4.356000000000000227e+01,3.577659801381021659e-02
4.360000000000000142e+01,4.090205395014991085e-02
4.364000000000000057e+01,4.119942379223085621e-02
4.367999999999999972e+01,4.531852800431551698e-02
4.371999999999999886e+01,4.410664908702557896e-02
4.375999999999999801e+01,5.898717994181221225e-02
4.379999999999999716e+01,6.270312717406895109e-02
4.384000000000000341e+01,5.726607675314139556e-02
4.388000000000000256e+01,6.319420778571938069e-02
4.392000000000000171e+01,6.218208551428137248e-02
4.396000000000000085e+01,8.349828906154412034e-02
4.400000000000000000e+01,9.033079053264195246e-02
4.403999999999999915e+01,1.003815483394513292e-01
4.407999999999999829e+01,1.119407139617432656e-01
4.411999999999999744e+01,1.281262457846827074e-01
4.415999999999999659e+01,1.512514677092025028e-01
4.420000000000000284e+01,1.702526553358723327e-01
4.424000000000000199e+01,1.857332842866311895e-01
4.428000000000000114e+01,2.011130508782311421e-01
4.432000000000000028e+01,1.953708789688666791e-01
4.435999999999999943e+01,1.951602856074992898e-01
4.439999999999999858e+01,1.697040015310059269e-01
4.443999999999999773e+01,1.534001506990846364e-01
4.447999999999999687e+01,1.354867466438921808e-01
4.452000000000000313e+01,1.124435132556768080e-01
4.456000000000000227e+01,1.008660365304954731e-01
4.460000000000000142e+01,9.160159896896986897e-02
4.464000000000000057e+01,7.539690376119249915e-02
4.467999999999999972e+01,6.613189551893626505e-02
4.471999999999999886e+01,6.420889124308197526e-02
4.475999999999999801e+01,5.353520100774718932e-02
4.479999999999999716e+01,5.201394184586651676e-02
4.484000000000000341e+01,4.455821693684795110e-02
4.488000000000000256e+01,3.126860534998524010e-02
4.492000000000000171e+01,3.527834826572327775e-02
4.496000000000000085e+01,3.415825919484983403e-02
4.500000000000000000e+01,2.810949651718760642e-02
4.503999999999999915e+01,3.071026691292239388e-02
4.507999999999999829e+01,2.415803217717792453e-02
4.511999999999999744e+01,2.414316451124983581e-02
4.515999999999999659e+01,2.392684986845681344e-02
4.520000000000000284e+01,2.059228800222125469e-02
4.524000000000000199e+01,1.765975453982441407e-02
4.528000000000000114e+01,1.764373200325705313e-02
4.532000000000000028e+01,1.400656496689597907e-02
4.535999999999999943e+01,2.384673597944344040e-02
4.539999999999999858e+01,2.292463096216438775e-02
4.543999999999999773e+01,1.546458071604328056e-02
4.547999999999999687e+01,1.544710916338212260e-02
4.552000000000000313e+01,1.532876777326718995e-02
4.556000000000000227e+01,1.862983217297973365e-02
4.560000000000000142e+01,1.901380555795459046e-02
4.564000000000000057e+01,1.698358423960168520e-02
4.567999999999999972e+01,1.183511280298238204e-02
4.571999999999999886e+01,1.322400481764966079e-02
4.575999999999999801e+01,1.400912899480598849e-02
4.579999999999999716e+01,1.328527129845470320e-02
4.584000000000000341e+01,1.205822459265087562e-02
4.588000000000000256e+01,1.384826450467580190e-02
4.592000000000000171e+01,1.412932181948706178e-02
4.596000000000000085e+01,1.430950664325603833e-02
4.600000000000000000e+01,9.158694587237075149e-03
4.603999999999999915e+01,9.438871636802603424e-03
4.607999999999999829e+01,1.002049271373605527e-02
4.611999999999999744e+01,1.170819206103443713e-02
4.615999999999999659e+01,1.299327977952676946e-02
4.620000000000000284e+01,1.266880390162919770e-02
4.624000000000000199e+01,9.527812459757842994e-03
4.628000000000000114e+01,1.201896729711718521e-02
4.632000000000000028e+01,1.269939919332255945e-02
4.635999999999999943e+01,1.508938377565520288e-02
4.639999999999999858e+01,8.024617334155857012e-03
4.643999999999999773e+01,6.591996206945883313e-03
4.647999999999999687e+01,1.290368567389990444e-02
4.652000000000000313e+01,1.700233375140718789e-02
4.656000000000000227e+01,1.416071260336730642e-02
4.660000000000000142e+01,1.202284958875233199e-02
4.664000000000000057e+01,9.784109982094573235e-03
4.667999999999999972e+01,1.005955561591390102e-02
4.671999999999999886e+01,8.121958654109858594e-03
4.675999999999999801e+01,1.091129128195121936e-02
4.679999999999999716e+01,1.118584290011146072e-02
4.684000000000000341e+01,9.750247751587601264e-03
4.688000000000000256e+01,6.503926284615291556e-03
4.692000000000000171e+01,1.210828517403792978e-02
4.696000000000000085e+01,3.027765514823731793e-03
4.700000000000000000e+01,7.323994703340874594e-03
4.703999999999999915e+01,7.093855224184062412e-03
4.707999999999999829e+01,1.682076755230041062e-02
4.711999999999999744e+01,5.526303803508814810e-03
4.715999999999999659e+01,8.714960353326750564e-03
4.720000000000000284e+01,9.087095549523220225e-03
4.724000000000000199e+01,1.408557813001219336e-02
4.728000000000000114e+01,1.003162162160827452e-02
4.732000000000000028e+01,1.080517063608431305e-02
4.735999999999999943e+01,6.549452500358573029e-03
4.739999999999999858e+01,1.255252217361058423e-02
4.743999999999999773e+01,6.988669029802292883e-03
4.747999999999999687e+01,1.399692735466909373e-02
4.752000000000000313e+01,1.678055204862523644e-02
4.756000000000000227e+01,1.091405320715741097e-02
4.760000000000000142e+01,9.975637510451329515e-03
4.764000000000000057e+01,1.597689092785256962e-02
4.767999999999999972e+01,7.896737317555455049e-03
4.771999999999999886e+01,3.839452333552738524e-03
4.775999999999999801e+01,1.074500816111314920e-02
4.779999999999999716e+01,9.201597626895775470e-03
4.784000000000000341e+01,8.965413610982591111e-03
4.788000000000000256e+01,1.214862139324824133e-02
4.792000000000000171e+01,1.150951037436618099e-02
4.796000000000000085e+01,1.087009411320477396e-02
4.800000000000000000e+01,1.234253788963864291e-02
4.803999999999999915e+01,1.119961386756739875e-02
4.807999999999999829e+01,1.096159767427223528e-02
4.811999999999999744e+01,1.333833734751162063e-02
4.815999999999999659e+01,8.975956766849044546e-03
4.820000000000000284e+01,1.105034537035409423e-02
4.824000000000000199e+01,1.342616497451968455e-02
4.828000000000000114e+01,1.026981532742589874e-02
4.832000000000000028e+01,1.344965483026470954e-02
4.835999999999999943e+01,9.890372873024957587e-03
4.839999999999999858e+01,1.246612096218908776e-02
4.843999999999999773e+01,9.811436766739671522e-03
4.847999999999999687e+01,4.340223498138499891e-03
4.852000000000000313e+01,9.932425768158418752e-03
4.856000000000000227e+01,1.351273296678828437e-02
4.860000000000000142e+01,1.105797243163097326e-02
4.864000000000000057e+01,1.101680600589094623e-02
4.867999999999999972e+01,1.409328862203617500e-02
4.871999999999999886e+01,1.203991657544967696e-02
4.875999999999999801e+01,1.079086894610978113e-02
4.879999999999999716e+01,5.317179966328926602e-03
4.884000000000000341e+01,1.462833908486123498e-02
4.888000000000000256e+01,4.024483927950935416e-03
4.892000000000000171e+01,8.909531560586476592e-03
4.896000000000000085e+01,6.954874804084634592e-03
4.900000000000000000e+01,7.916706538527362377e-03
4.903999999999999915e+01,1.169444721215033914e-02
4.907999999999999829e+01,8.833641393988025947e-03
4.911999999999999744e+01,6.274261269309208341e-03
4.915999999999999659e+01,7.335423844337001995e-03
4.920000000000000284e+01,1.121249439360373114e-02
4.924000000000000199e+01,1.227303128624762305e-02
4.928000000000000114e+01,9.008344623097609694e-03
4.932000000000000028e+01,6.950296242015885535e-03
4.935999999999999943e+01,1.072553418610316944e-02
4.939999999999999858e+01,1.248887199285863767e-02
4.943999999999999773e+01,9.524668036762783813e-03
4.947999999999999687e+01,1.048274278207812250e-02
4.952000000000000313e+01,1.053528908217518482e-02
4.956000000000000227e+01,8.374775658941083223e-03
4.960000000000000142e+01,4.504098823785687884e-03
4.964000000000000057e+01,1.069103766737192727e-02
4.967999999999999972e+01,1.245217123228203882e-02
4.971999999999999886e+01,5.160850992944667273e-03
4.975999999999999801e+01,6.016138808591101061e-03
4.979999999999999716e+01,1.119602063788232085e-02
4.984000000000000341e+01,7.021710007632958085e-03
4.988000000000000256e+01,6.266779113796330965e-03
4.992000000000000171e+01,9.434124267782367790e-03
4.996000000000000085e+01,1.310404867036822803e-02
5.000000000000000000e+01,1.335395896968582206e-02
5.003999999999999915e+01,9.781537682383675478e-03
5.007999999999999829e+01,6.510536298917275408e-03
5.011999999999999744e+01,7.664706309742175781e-03
5.015999999999999659e+01,6.806971599764144801e-03
5.020000000000000284e+01,1.349236642800712323e-02
5.024000000000000199e+01,1.011951121065298234e-02
5.028000000000000114e+01,7.450391933074177603e-03
5.032000000000000028e+01,1.423540837006226877e-02
5.035999999999999943e+01,8.850008516637326156e-03
5.039999999999999858e+01,1.151063354790200430e-02
5.043999999999999773e+01,1.055008320125182079e-02
5.047999999999999687e+01,8.784577930264681270e-03
5.052000000000000313e+01,1.134366233068657276e-02
5.056000000000000227e+01,1.098562580319093103e-02
5.060000000000000142e+01,7.710468106542413616e-03
5.064000000000000057e+01,1.107322349976499684e-02
5.067999999999999972e+01,9.104953788667005665e-03
5.071999999999999886e+01,1.025432081645289741e-02
5.075999999999999801e+01,1.180568295760312317e-02
5.079999999999999716e+01,8.327757202313943244e-03
5.084000000000000341e+01,1.108542608860307518e-02
5.088000000000000256e+01,1.142886866973730729e-02
5.092000000000000171e+01,1.378357436775932109e-02
5.096000000000000085e+01,1.090783258334258009e-02
5.100000000000000000e+01,9.741615501755793508e-03
5.103999999999999915e+01,1.320172288710601098e-02
5.107999999999999829e+01,1.153196137684052089e-02
5.111999999999999744e+01,1.448852385104135339e-02
5.115999999999999659e+01,5.676982452238918744e-03
5.120000000000000284e+01,1.416475768209178587e-02
5.124000000000000199e+01,7.364152687954148187e-03
5.128000000000000114e+01,1.474490521360084273e-02
5.132000000000000028e+01,1.045813221183196536e-02
5.135999999999999943e+01,1.713417831044732748e-02
5.139999999999999858e+01,1.103632598335702562e-02
5.143999999999999773e+01,1.067116812666994187e-02
5.147999999999999687e+01,1.352422173592471473e-02
5.152000000000000313e+01,1.275609345391089111e-02
5.156000000000000227e+01,7.662727865689883747e-03
5.160000000000000142e+01,1.081653854615697782e-02
5.164000000000000057e+01,9.645111437946208427e-03
5.167999999999999972e+01,1.360290148955250501e-02
5.171999999999999886e+01,1.856615672804968684e-02
5.175999999999999801e+01,8.945083780200514811e-03
5.179999999999999716e+01,7.068289342217586903e-03
5.184000000000000341e+01,9.113759372761914140e-03
5.188000000000000256e+01,1.558439018324334936e-02
5.192000000000000171e+01,1.209734012677317512e-02
5.196000000000000085e+01,1.303545036776949592e-02
5.200000000000000000e+01,1.115701030690577529e-02
5.203999999999999915e+01,1.169214385045698294e-02
5.207999999999999829e+01,1.413795420454261147e-02
5.211999999999999744e+01,1.326431698041699928e-02
5.215999999999999659e+01,1.329556297906469078e-02
5.220000000000000284e+01,1.403053333819227755e-02
5.224000000000000199e+01,1.054084160064126634e-02
5.228000000000000114e+01,9.464722020093279536e-03
5.232000000000000028e+01,6.779001934151180665e-03
5.235999999999999943e+01,1.223987422289702330e-02
5.239999999999999858e+01,1.327492482896488676e-02
5.243999999999999773e+01,1.088994661640986690e-02
5.247999999999999687e+01,1.132085659679744893e-02
5.252000000000000313e+01,7.929420033975356774e-03
5.256000000000000227e+01,1.419326429760024537e-02
5.260000000000000142e+01,8.588416693221224973e-03
5.264000000000000057e+01,1.324232529599284232e-02
5.267999999999999972e+01,1.155940362738734802e-02
5.271999999999999886e+01,1.138483766743494420e-02
5.275999999999999801e+01,9.500089237970866726e-03
5.279999999999999716e+01,1.264397190320582301e-02
5.284000000000000341e+01,1.277014057958085480e-02
5.288000000000000256e+01,1.430408468913863668e-02
5.292000000000000171e+01,1.302147294842398266e-02
5.296000000000000085e+01,9.324622358317720405e-03
5.300000000000000000e+01,8.242498204036793549e-03
5.303999999999999915e+01,1.178668645492674666e-02
5.307999999999999829e+01,1.301721444324819600e-02
5.311999999999999744e+01,1.404624744887574862e-02
5.315999999999999659e+01,7.833233493540986067e-03
5.320000000000000284e+01,9.867386157481403477e-03
5.324000000000000199e+01,1.642727070988707003e-02
5.328000000000000114e+01,1.031382480905602278e-02
5.332000000000000028e+01,1.335275859855563838e-02
5.335999999999999943e+01,1.830236147905937166e-02
5.339999999999999858e+01,8.969364214155681539e-03
5.343999999999999773e+01,1.090091143698662841e-02
5.347999999999999687e+01,5.992727011088841427e-03
5.352000000000000313e+01,1.003576244828701704e-02
5.356000000000000227e+01,1.317324507549945574e-02
5.360000000000000142e+01,1.299127119879374230e-02
5.364000000000000057e+01,1.230606127174782571e-02
5.367999999999999972e+01,8.703711600429311565e-03
5.371999999999999886e+01,9.425932301694096502e-03
5.375999999999999801e+01,1.205881968160978958e-02
5.379999999999999716e+01,1.107051141984359728e-02
5.384000000000000341e+01,1.289808314901906734e-02
5.388000000000000256e+01,1.311604496462290097e-02
5.392000000000000171e+01,1.212671386753595877e-02
5.396000000000000085e+01,1.254515169027811163e-02
5.400000000000000000e+01,1.376788232843972719e-02
5.403999999999999915e+01,1.217405036173988507e-02
5.407999999999999829e+01,8.266552101588515306e-03
5.411999999999999744e+01,9.186518354312448592e-03
5.415999999999999659e+01,1.503452818920540147e-02
5.420000000000000284e+01,1.504859513842426999e-02
5.424000000000000199e+01,1.838143621887685861e-02
5.428000000000000114e+01,1.577975462065563106e-02
5.432000000000000028e+01,1.106556390262903276e-02
5.435999999999999943e+01,1.359273970276287345e-02
5.439999999999999858e+01,1.300161279533025224e-02
5.443999999999999773e+01,9.895658802270087054e-03
5.447999999999999687e+01,1.322643611943205913e-02
5.452000000000000313e+01,1.182964103685687704e-02
5.456000000000000227e+01,1.254466642928423609e-02
5.460000000000000142e+01,1.104660170272991383e-02
5.464000000000000057e+01,1.608584663198550299e-02
5.467999999999999972e+01,1.840910440714354016e-02
5.471999999999999886e+01,1.892158858173010119e-02
5.475999999999999801e+01,1.138738166170912003e-02
5.479999999999999716e+01,1.763219379064791953e-02
5.484000000000000341e+01,1.190772123187579246e-02
5.488000000000000256e+01,1.020607411827551859e-02
5.492000000000000171e+01,1.353304531390220333e-02
5.496000000000000085e+01,1.504924146154545950e-02
5.500000000000000000e+01,1.485524163049905914e-02
5.503999999999999915e+01,1.234756971635343932e-02
5.507999999999999829e+01,1.275634962538351944e-02
5.511999999999999744e+01,1.829432594799298289e-02
5.515999999999999659e+01,1.286880875829942740e-02
5.520000000000000284e+01,1.377943922606314660e-02
5.524000000000000199e+01,1.468972054671900847e-02
5.528000000000000114e+01,1.489559730532842574e-02
5.532000000000000028e+01,1.168142787637180442e-02
5.535999999999999943e+01,1.389819134516980491e-02
5.539999999999999858e+01,1.883024608620286269e-02
5.543999999999999773e+01,1.420691597369226448e-02
5.547999999999999687e+01,1.119250423512658556e-02
5.552000000000000313e+01,1.310612787672900924e-02
5.556000000000000227e+01,1.753388320456714458e-02
5.560000000000000142e+01,1.391494237185596575e-02
5.564000000000000057e+01,1.743678102724588799e-02
5.567999999999999972e+01,1.210728855538354028e-02
5.571999999999999886e+01,1.422031302073877013e-02
5.575999999999999801e+01,1.462313692393321651e-02
5.579999999999999716e+01,1.502560830272532330e-02
5.584000000000000341e+01,1.512598898429265079e-02
5.588000000000000256e+01,1.522601665898697110e-02
5.592000000000000171e+01,1.371642211710826995e-02
5.596000000000000085e+01,9.490832701601748314e-03
5.600000000000000000e+01,1.461876543471742410e-02
5.603999999999999915e+01,1.693012350120558576e-02
5.607999999999999829e+01,1.572085148612759747e-02
5.611999999999999744e+01,1.330427329041614266e-02
5.615999999999999659e+01,1.682151972039808846e-02
5.620000000000000284e+01,1.661697672404986031e-02
5.624000000000000199e+01,1.540628544442026147e-02
5.628000000000000114e+01,1.580450771402919230e-02
5.632000000000000028e+01,1.911917432851887796e-02
5.635999999999999943e+01,2.022074020967277660e-02
5.639999999999999858e+01,1.709761890567462056e-02
5.643999999999999773e+01,2.352917571776820191e-02
5.647999999999999687e+01,1.718680346727033750e-02
5.652000000000000313e+01,1.396203297653471342e-02
5.656000000000000227e+01,2.139831229400435478e-02
5.660000000000000142e+01,1.948035838316409737e-02
5.664000000000000057e+01,1.766262619250878740e-02
5.667999999999999972e+01,1.856017755455827839e-02
5.671999999999999886e+01,1.905505360167683224e-02
5.675999999999999801e+01,1.401770925564788800e-02
5.679999999999999716e+01,2.557559259162593690e-02
5.684000000000000341e+01,1.772131019897765433e-02
5.688000000000000256e+01,1.771185498983884887e-02
5.692000000000000171e+01,2.051826119652193012e-02
5.696000000000000085e+01,1.879823890917133727e-02
5.700000000000000000e+01,1.939118100252681595e-02
5.703999999999999915e+01,1.968202516159782769e-02
5.707999999999999829e+01,1.735744700298104404e-02
5.711999999999999744e+01,1.191454973279591247e-02
5.715999999999999659e+01,1.522169175223445949e-02
5.720000000000000284e+01,1.722094176715678604e-02
5.724000000000000199e+01,1.891809264161806517e-02
5.728000000000000114e+01,1.256853722364654168e-02
5.732000000000000028e+01,1.657828909882206464e-02
5.735999999999999943e+01,1.505581696232023529e-02
5.739999999999999858e+01,1.634920334681648837e-02
5.743999999999999773e+01,1.502716524250701999e-02
5.747999999999999687e+01,1.823083345571872849e-02
5.752000000000000313e+01,1.660633186601516084e-02
5.756000000000000227e+01,1.518262575861315314e-02
5.760000000000000142e+01,1.737941145026496159e-02
5.764000000000000057e+01,1.686019213640543857e-02
5.767999999999999972e+01,1.533481585479301752e-02
5.771999999999999886e+01,1.652471685376702415e-02
5.775999999999999801e+01,1.359050177611709730e-02
5.779999999999999716e+01,1.628836350192529661e-02
5.784000000000000341e+01,1.184472935276754610e-02
5.788000000000000256e+01,1.645286808258476785e-02
5.792000000000000171e+01,1.371835183390736866e-02
5.796000000000000085e+01,1.359853210787540477e-02
5.800000000000000000e+01,1.810499487383448666e-02
5.803999999999999915e+01,1.557053986918007470e-02
5.807999999999999829e+01,1.524846342134902021e-02
5.811999999999999744e+01,1.050053079418899159e-02
5.815999999999999659e+01,1.480436935735667502e-02
5.820000000000000284e+01,1.387771677449242506e-02
5.824000000000000199e+01,1.647097282038777546e-02
5.828000000000000114e+01,1.574474413783236507e-02
5.832000000000000028e+01,1.904132015421116514e-02
5.835999999999999943e+01,9.563955769938362050e-03
5.839999999999999858e+01,1.165284389180745554e-02
5.843999999999999773e+01,1.464657736250439546e-02
5.847999999999999687e+01,1.462256283016112948e-02
5.852000000000000313e+01,1.168137936407134987e-02
5.856000000000000227e+01,1.306473708109097756e-02
5.860000000000000142e+01,1.223498055559680414e-02
5.864000000000000057e+01,1.492513024650898856e-02
5.867999999999999972e+01,1.610622038614003756e-02
5.871999999999999886e+01,1.326376797002849252e-02
5.875999999999999801e+01,1.595280725719825862e-02
5.879999999999999716e+01,1.300903453769006526e-02
5.884000000000000341e+01,1.418864269158594434e-02
5.888000000000000256e+01,1.084181077215273271e-02
5.892000000000000171e+01,1.654674545957609752e-02
5.896000000000000085e+01,1.742350165961258773e-02
5.900000000000000000e+01,1.498076878896256563e-02
5.903999999999999915e+01,2.068458800670177136e-02
5.907999999999999829e+01,1.522373145001829770e-02
5.911999999999999744e+01,1.408741269914975947e-02
5.915999999999999659e+01,1.556578323386701053e-02
5.920000000000000284e+01,1.835131177605717548e-02
5.924000000000000199e+01,1.258722565263856175e-02
5.928000000000000114e+01,1.225404878591304127e-02
5.932000000000000028e+01,1.483729817141919531e-02
5.935999999999999943e+01,1.631380114675991602e-02
5.939999999999999858e+01,1.849398506022266811e-02
5.943999999999999773e+01,1.333150482824855751e-02
5.947999999999999687e+01,1.138718781515195462e-02
5.952000000000000313e+01,1.457204067974941265e-02
5.956000000000000227e+01,1.473913902795296292e-02
5.960000000000000142e+01,1.822497918185710802e-02
5.964000000000000057e+01,1.990001606324526273e-02
5.967999999999999972e+01,1.654571149395261953e-02
5.971999999999999886e+01,1.590667214348034583e-02
5.975999999999999801e+01,1.768115983900600194e-02
5.979999999999999716e+01,1.613615363913869019e-02
5.984000000000000341e+01,1.469134986063059742e-02
5.988000000000000256e+01,1.666586550970492256e-02
5.992000000000000171e+01,1.310814170804132893e-02
5.996000000000000085e+01,1.638943340947698196e-02
