2.003999999999999915e+01,5.535015413542473950e-02
2.007999999999999829e+01,2.526222560602315800e-02
2.012000000000000099e+01,7.363520622575962793e-02
2.016000000000000014e+01,3.690786035542127641e-02
2.019999999999999929e+01,6.234565171837133657e-02
2.023999999999999844e+01,4.342253514095528039e-02
2.028000000000000114e+01,9.712311481094585558e-03
2.032000000000000028e+01,6.985343716272439385e-02
2.035999999999999943e+01,5.123147171082760576e-02
2.039999999999999858e+01,4.588732935036699684e-02
2.044000000000000128e+01,4.114652170551547777e-02
2.048000000000000043e+01,4.364806405015941165e-02
2.051999999999999957e+01,5.309018128406863685e-02
2.055999999999999872e+01,3.778665487622924479e-02
2.060000000000000142e+01,6.654183997304294329e-02
2.064000000000000057e+01,5.606625047941720535e-02
2.067999999999999972e+01,5.222945595771888438e-02
2.071999999999999886e+01,4.748711743907536170e-02
2.076000000000000156e+01,2.765587907502598669e-02
2.080000000000000071e+01,7.511990326567674625e-02
2.083999999999999986e+01,3.567293270214335482e-02
2.087999999999999901e+01,2.459244068795071389e-02
2.092000000000000171e+01,5.485468588204728269e-02
2.096000000000000085e+01,5.644821594851862773e-02
2.100000000000000000e+01,4.506525099705386422e-02
2.103999999999999915e+01,6.053989069948461504e-02
2.107999999999999829e+01,6.816818157952889146e-02
2.112000000000000099e+01,3.747099908427962284e-02
2.116000000000000014e+01,7.286197071429768857e-02
2.119999999999999929e+01,4.699268017358172039e-02
2.123999999999999844e+01,7.363173329302249992e-02
2.128000000000000114e+01,7.311092591184896461e-02
2.132000000000000028e+01,4.090365400645654820e-02
2.135999999999999943e+01,8.987320292415612588e-02
2.139999999999999858e+01,9.116228889631190768e-02
2.144000000000000128e+01,6.498973445051522968e-02
2.148000000000000043e+01,1.311596153081925065e-01
2.151999999999999957e+01,9.351915842123720291e-02
2.155999999999999872e+01,8.213273832498685367e-02
2.160000000000000142e+01,5.324319670735600668e-02
2.164000000000000057e+01,5.724670554861290006e-02
2.167999999999999972e+01,6.456946077943094553e-02
2.171999999999999886e+01,4.925894026480485965e-02
2.176000000000000156e+01,8.766383651430539881e-02
2.180000000000000071e+01,7.778470677218009277e-02
2.183999999999999986e+01,6.096451818289426450e-02
2.187999999999999901e+01,4.142809806411981016e-02
2.192000000000000171e+01,4.603328582303661820e-02
2.196000000000000085e+01,3.102292314755978817e-02
2.200000000000000000e+01,2.536726390655692775e-02
2.203999999999999915e+01,4.234434025350269915e-02
2.207999999999999829e+01,6.535660838372184256e-02
2.212000000000000099e+01,2.318552198319337107e-02
2.216000000000000014e+01,4.287772064198536182e-02
2.219999999999999929e+01,4.023839778142573875e-02
2.223999999999999844e+01,2.281188915898081995e-02
2.228000000000000114e+01,3.797663180965101665e-02
2.232000000000000028e+01,4.951980478452063655e-02
2.235999999999999943e+01,4.476691970776260077e-02
2.239999999999999858e+01,4.635098706318187961e-02
2.244000000000000128e+01,3.827801003515643452e-02
2.248000000000000043e+01,3.503311475526896257e-02
2.251999999999999957e+01,4.536773095909274467e-02
2.255999999999999872e+01,4.906303290763096292e-02
2.260000000000000142e+01,4.853320695139532598e-02
2.264000000000000057e+01,5.102081535332515100e-02
2.267999999999999972e+01,7.644290714648499518e-02
2.271999999999999886e+01,2.883550946565748702e-02
2.276000000000000156e+01,4.490201372576855393e-02
2.280000000000000071e+01,6.670190737197501107e-02
2.283999999999999986e+01,6.164365138968205121e-02
2.287999999999999901e+01,4.481591889952546426e-02
2.292000000000000171e+01,4.488719027584623517e-02
2.296000000000000085e+01,4.375105424133487325e-02
2.300000000000000000e+01,3.446671881617251881e-02
2.303999999999999915e+01,3.755478002247721742e-02
2.307999999999999829e+01,3.883188201178779109e-02
2.312000000000000099e+01,4.101398462914215143e-02
2.316000000000000014e+01,5.888798750064933030e-02
2.319999999999999929e+01,3.240096360977842010e-02
2.323999999999999844e+01,3.639273799346674776e-02
2.328000000000000114e+01,3.827177163711964480e-02
2.332000000000000028e+01,4.226289185840914620e-02
2.335999999999999943e+01,4.383949463373084526e-02
2.339999999999999858e+01,5.959912055635421119e-02
2.344000000000000128e+01,3.280835104954317460e-02
2.348000000000000043e+01,2.201124244578874997e-02
2.351999999999999957e+01,2.026700276527248698e-02
2.355999999999999872e+01,6.378844974550430813e-02
2.360000000000000142e+01,4.152293579492869618e-02
2.364000000000000057e+01,2.106772208183974038e-02
2.367999999999999972e+01,3.652321188206029967e-02
2.371999999999999886e+01,2.149923479399737380e-02
2.376000000000000156e+01,2.669373629244591734e-02
2.380000000000000071e+01,2.766306171503435038e-02
2.383999999999999986e+01,1.173272268593546046e-02
2.387999999999999901e+01,3.986096349385447740e-02
2.392000000000000171e+01,4.958066916604655927e-02
2.396000000000000085e+01,2.972621879931820407e-02
2.400000000000000000e+01,5.543921092513320881e-02
2.403999999999999915e+01,5.308691127325584208e-02
2.407999999999999829e+01,4.409523634938398301e-02
2.412000000000000099e+01,4.355285927415392805e-02
2.416000000000000014e+01,3.878529167173807440e-02
2.419999999999999929e+01,4.820071510256648123e-02
2.423999999999999844e+01,2.653310378192067984e-02
2.428000000000000114e+01,2.025557426122059912e-02
2.432000000000000028e+01,4.324970568299518064e-02
2.435999999999999943e+01,7.288248435203369124e-02
2.439999999999999858e+01,5.211871819707262349e-02
2.444000000000000128e+01,4.101133102323725743e-02
2.448000000000000043e+01,5.042416702778858284e-02
2.451999999999999957e+01,3.810893537127543751e-02
2.455999999999999872e+01,1.251529229474460103e-02
2.460000000000000142e+01,5.059547729682060263e-02
2.464000000000000057e+01,4.944472713817061466e-02
2.467999999999999972e+01,6.971951261297325286e-02
2.471999999999999886e+01,1.364521988885097382e-02
2.476000000000000156e+01,3.965293198665733460e-02
2.480000000000000071e+01,3.487936034767599031e-02
2.483999999999999986e+01,4.730648899596096024e-02
2.487999999999999901e+01,5.037824880745334771e-02
2.492000000000000171e+01,4.379286468192365722e-02
2.496000000000000085e+01,5.199398807033756703e-02
2.500000000000000000e+01,3.152623415513666760e-02
2.503999999999999915e+01,3.972656529070543729e-02
2.507999999999999829e+01,3.555378461569951715e-02
2.512000000000000099e+01,1.327419412840740755e-02
2.516000000000000014e+01,4.501165741502523993e-02
2.519999999999999929e+01,3.178446666506821311e-02
2.523999999999999844e+01,3.968101557419709963e-02
2.528000000000000114e+01,2.856542776464790837e-02
2.532000000000000028e+01,3.917712339183247738e-02
2.535999999999999943e+01,3.409618752872774217e-02
2.539999999999999858e+01,2.086695593280029487e-02
2.544000000000000128e+01,2.393308005501608091e-02
2.548000000000000043e+01,3.906972936629730248e-02
2.551999999999999957e+01,4.413335882952205275e-03
2.555999999999999872e+01,3.222363796323841900e-02
2.560000000000000142e+01,4.434129891901803650e-02
2.564000000000000057e+01,3.805035569384735555e-02
2.567999999999999972e+01,1.214371270391667416e-02
2.571999999999999886e+01,2.576897327077050034e-02
2.576000000000000156e+01,5.931085864446591915e-02
2.580000000000000071e+01,2.012490439958035740e-02
2.583999999999999986e+01,3.555952362070945172e-02
2.587999999999999901e+01,4.827775074206348827e-02
2.592000000000000171e+01,5.469222615754017365e-03
2.596000000000000085e+01,4.323378366765335407e-02
2.600000000000000000e+01,1.370241997393916583e-02
2.603999999999999915e+01,7.651330853357239670e-02
2.607999999999999829e+01,2.525337748453637676e-02
2.612000000000000099e+01,4.490977736604071652e-02
2.616000000000000014e+01,7.392071368892105809e-02
2.619999999999999929e+01,3.261798229240578384e-02
2.623999999999999844e+01,4.714290228298394225e-02
2.628000000000000114e+01,4.597515385210673711e-02
2.632000000000000028e+01,5.054065350547270324e-02
2.635999999999999943e+01,5.238974179062912823e-02
2.639999999999999858e+01,7.536252316948822971e-02
2.644000000000000128e+01,7.570183932996484011e-02
2.648000000000000043e+01,1.038038622523277249e-01
2.651999999999999957e+01,7.155072992905570084e-02
2.655999999999999872e+01,7.309577104679955417e-02
2.660000000000000142e+01,4.536832364376039428e-02
2.664000000000000057e+01,8.161639592300878876e-02
2.667999999999999972e+01,5.871640051191796827e-02
2.671999999999999886e+01,5.241348293100536043e-02
2.676000000000000156e+01,4.852428733180977338e-02
2.680000000000000071e+01,2.833885544796810665e-02
2.683999999999999986e+01,4.044271829258840045e-02
2.687999999999999901e+01,4.319113201527310236e-02
2.692000000000000171e+01,7.822883725501372787e-02
2.696000000000000085e+01,4.657412620132575509e-02
2.700000000000000000e+01,4.720870345328834899e-02
2.703999999999999915e+01,5.267117940326183911e-02
2.707999999999999829e+01,4.877819820278530422e-02
2.712000000000000099e+01,2.013931002529006226e-02
2.716000000000000014e+01,7.388410382207860616e-02
2.719999999999999929e+01,5.248681384447130560e-02
2.723999999999999844e+01,4.587593985574453526e-02
2.728000000000000114e+01,4.771423686513305562e-02
2.732000000000000028e+01,6.464072014652294529e-02
2.735999999999999943e+01,6.617626514700698792e-02
2.739999999999999858e+01,7.374678837228347550e-02
2.744000000000000128e+01,6.984942553409666244e-02
2.748000000000000043e+01,7.409945217098395931e-02
2.751999999999999957e+01,5.360355577382411307e-02
2.755999999999999872e+01,5.121357095971614676e-02
2.760000000000000142e+01,6.300644069410914205e-02
2.764000000000000057e+01,5.065692956639993721e-02
2.767999999999999972e+01,1.265616849825182931e-02
2.771999999999999886e+01,2.716349096639669031e-02
2.776000000000000156e+01,5.796607602191816005e-02
2.780000000000000071e+01,6.191031234178523412e-02
2.783999999999999986e+01,4.110861278198208596e-02
2.787999999999999901e+01,3.901635894866149062e-02
2.792000000000000171e+01,4.899453235653172117e-02
2.796000000000000085e+01,2.819129517708771765e-02
2.800000000000000000e+01,4.088440013882953250e-02
2.803999999999999915e+01,4.603265038041308432e-02
2.807999999999999829e+01,4.695555273593003676e-02
2.812000000000000099e+01,3.459990076387433472e-02
2.816000000000000014e+01,6.690620380768368125e-02
2.819999999999999929e+01,4.700516851856071515e-02
2.823999999999999844e+01,4.762420547175520019e-02
2.828000000000000114e+01,4.371611301584192588e-02
2.832000000000000028e+01,4.101458594112675216e-02
2.835999999999999943e+01,4.555509253244242190e-02
2.839999999999999858e+01,6.095891311840721805e-02
2.844000000000000128e+01,4.980613277199820443e-02
2.848000000000000043e+01,4.499006079093115923e-02
2.851999999999999957e+01,3.534507627201231156e-02
2.855999999999999872e+01,3.897758728114550375e-02
2.860000000000000142e+01,4.200601146439616324e-02
2.864000000000000057e+01,5.921724844787319697e-02
2.867999999999999972e+01,4.655236642496482502e-02
2.871999999999999886e+01,3.328339275906540967e-02
2.876000000000000156e+01,4.747526083546192016e-02
2.880000000000000071e+01,5.683820513408656405e-02
2.883999999999999986e+01,5.050837824627297384e-02
2.887999999999999901e+01,4.447977377623675566e-02
2.892000000000000171e+01,6.651555161473880762e-02
2.896000000000000085e+01,7.497096791138130323e-02
2.900000000000000000e+01,5.294670536696170771e-02
2.903999999999999915e+01,6.321164923734649832e-02
2.907999999999999829e+01,4.873060745127246601e-02
2.912000000000000099e+01,2.760998807464310964e-02
2.916000000000000014e+01,6.020448840711038752e-02
2.919999999999999929e+01,6.473348982621561498e-02
2.923999999999999844e+01,7.197788716798698971e-02
2.928000000000000114e+01,3.636988115317869169e-02
2.932000000000000028e+01,4.632910407243275019e-02
2.935999999999999943e+01,7.801544825243111880e-02
2.939999999999999858e+01,8.435224694129389578e-02
2.944000000000000128e+01,8.586009616113932097e-02
2.948000000000000043e+01,6.805386656897907671e-02
2.951999999999999957e+01,7.529426025454609428e-02
2.955999999999999872e+01,7.197200325797835363e-02
2.960000000000000142e+01,1.181400193844009544e-01
2.964000000000000057e+01,1.121006393725879485e-01
2.967999999999999972e+01,9.338618939984409673e-02
2.971999999999999886e+01,1.621854680433555129e-01
2.976000000000000156e+01,1.760613842807819962e-01
2.980000000000000071e+01,1.642859654755176313e-01
2.983999999999999986e+01,1.663915378048670402e-01
2.987999999999999901e+01,1.950525864332519066e-01
2.992000000000000171e+01,1.856895819262395497e-01
2.996000000000000085e+01,1.935270721765268986e-01
3.000000000000000000e+01,1.938196290272156674e-01
3.003999999999999915e+01,1.950169087193525941e-01
3.007999999999999829e+01,2.420831603317241676e-01
3.012000000000000099e+01,2.571608206707197142e-01
3.016000000000000014e+01,2.770662544629028945e-01
3.019999999999999929e+01,3.123615324110080027e-01
3.023999999999999844e+01,3.509757131282609799e-01
3.028000000000000114e+01,4.448138360675644165e-01
3.032000000000000028e+01,5.048527187378168968e-01
3.035999999999999943e+01,6.339971211669453988e-01
3.039999999999999858e+01,6.671769402431021456e-01
3.044000000000000128e+01,6.876816588499730099e-01
3.048000000000000043e+01,7.453039019787737196e-01
3.051999999999999957e+01,7.084704244101276416e-01
3.055999999999999872e+01,6.499086367192842273e-01
3.060000000000000142e+01,6.326891976566368925e-01
3.064000000000000057e+01,5.047182643749879016e-01
3.067999999999999972e+01,4.180896765101291268e-01
3.071999999999999886e+01,3.278391817718680490e-01
3.076000000000000156e+01,2.517714147315817663e-01
3.080000000000000071e+01,2.037679545317988006e-01
3.083999999999999986e+01,1.627046549499422401e-01
3.087999999999999901e+01,1.361258517434783821e-01
3.092000000000000171e+01,1.237297698121778422e-01
3.096000000000000085e+01,1.270252750229713956e-01
3.100000000000000000e+01,1.339414259890853720e-01
3.103999999999999915e+01,1.055494403108629409e-01
3.107999999999999829e+01,8.621002007803720002e-02
3.112000000000000099e+01,7.260365524511053215e-02
3.116000000000000014e+01,6.020374178847850283e-02
3.119999999999999929e+01,6.289185885067000159e-02
3.123999999999999844e+01,3.841971559223358867e-02
3.128000000000000114e+01,6.524841898442794441e-02
3.132000000000000028e+01,5.767429497594615817e-02
3.135999999999999943e+01,7.424139989927952543e-02
3.139999999999999858e+01,6.304469109012009187e-02
3.144000000000000128e+01,7.206615257252207973e-02
3.148000000000000043e+01,4.215817781353486948e-02
3.151999999999999957e+01,6.475813404906823056e-02
3.155999999999999872e+01,5.808540265666346097e-02
3.160000000000000142e+01,6.438827126436599824e-02
3.164000000000000057e+01,7.944190934309823537e-02
3.167999999999999972e+01,6.974945739468535466e-02
3.171999999999999886e+01,4.557121262733487138e-02
3.176000000000000156e+01,7.148670126407344338e-02
3.180000000000000071e+01,5.485145887947866228e-02
3.183999999999999986e+01,7.654078040102299529e-02
3.187999999999999901e+01,8.193366171365766559e-02
3.192000000000000171e+01,1.413433254364180880e-01
3.196000000000000085e+01,3.012428881207246389e-01
3.200000000000000000e+01,2.302850511704763181e-01
3.203999999999999915e+01,2.015748255267008071e-01
3.207999999999999829e+01,1.411777034246358975e-01
3.211999999999999744e+01,5.120609772026595008e-02
3.215999999999999659e+01,5.418004558575833379e-02
3.220000000000000284e+01,4.115931389124479617e-02
3.224000000000000199e+01,6.223830112246715729e-02
3.228000000000000114e+01,6.339955015342967071e-02
3.232000000000000028e+01,3.438276056451929769e-02
3.235999999999999943e+01,4.157809954592335544e-02
3.239999999999999858e+01,4.122840878555703720e-02
3.243999999999999773e+01,3.936915656825273196e-02
3.247999999999999687e+01,3.781098225546820901e-02
3.252000000000000313e+01,4.319290112108968571e-02
3.256000000000000227e+01,2.805352355747783508e-02
3.260000000000000142e+01,3.554645767625849023e-02
3.264000000000000057e+01,2.915710903398915921e-02
3.267999999999999972e+01,4.570184235723337429e-02
3.271999999999999886e+01,6.254764395078019068e-02
3.275999999999999801e+01,5.223312420699036118e-02
3.279999999999999716e+01,5.308351532506137838e-02
3.284000000000000341e+01,4.729417952221057903e-02
3.288000000000000256e+01,6.202472970014476922e-02
3.292000000000000171e+01,4.567189668908280126e-02
3.296000000000000085e+01,3.203431027032046380e-02
3.300000000000000000e+01,4.585739538935038745e-02
3.303999999999999915e+01,4.217689975598037933e-02
3.307999999999999829e+01,3.517617600726592741e-02
3.311999999999999744e+01,5.201483704491378229e-02
3.315999999999999659e+01,5.195345950210667613e-02
3.320000000000000284e+01,4.827007553231979498e-02
3.324000000000000199e+01,4.941434137659988374e-02
3.328000000000000114e+01,5.568802892377085201e-02
3.332000000000000028e+01,5.079536786368406970e-02
3.335999999999999943e+01,7.094917593384958421e-02
3.339999999999999858e+01,4.010253090781741581e-02
3.343999999999999773e+01,4.003604819664046549e-02
3.347999999999999687e+01,5.415218399564340757e-02
3.352000000000000313e+01,5.076471977381195183e-02
3.356000000000000227e+01,2.836478645280942484e-02
3.360000000000000142e+01,1.863859935224417702e-02
3.364000000000000057e+01,5.659188223151929292e-02
3.367999999999999972e+01,7.673978517262179666e-02
3.371999999999999886e+01,3.532514986346659003e-02
3.375999999999999801e+01,5.486801347622124320e-02
3.379999999999999716e+01,5.117356943221261500e-02
3.384000000000000341e+01,4.264999929187137523e-02
3.388000000000000256e+01,4.076469424151185628e-02
3.392000000000000171e+01,6.030455390724323572e-02
3.396000000000000085e+01,4.121665127253452965e-02
3.400000000000000000e+01,5.321066196736780329e-02
3.403999999999999915e+01,3.321592402994433257e-02
3.407999999999999829e+01,1.563461423061345695e-02
3.411999999999999744e+01,4.573275514268847208e-02
3.415999999999999659e+01,2.483041245021139209e-02
3.420000000000000284e+01,2.957805215727999509e-02
3.424000000000000199e+01,6.812355701041428180e-02
3.428000000000000114e+01,5.868630838715555714e-02
3.432000000000000028e+01,7.520081084086066570e-02
3.435999999999999943e+01,6.364960724553420102e-02
3.439999999999999858e+01,8.076611296650680616e-02
3.443999999999999773e+01,4.959808529374812314e-02
3.447999999999999687e+01,8.481945054172959630e-02
3.452000000000000313e+01,1.052531370770461577e-01
3.456000000000000227e+01,1.419818132302524682e-01
3.460000000000000142e+01,2.049640027150294308e-01
3.464000000000000057e+01,2.115137664253379512e-01
3.467999999999999972e+01,2.657429583672121787e-01
3.471999999999999886e+01,2.910011093251487213e-01
3.475999999999999801e+01,3.304418274107733255e-01
3.479999999999999716e+01,3.040951349687880945e-01
3.484000000000000341e+01,2.659784859137826474e-01
3.488000000000000256e+01,2.432514931474639153e-01
3.492000000000000171e+01,2.443638129108785528e-01
3.496000000000000085e+01,2.693154435983237671e-01
3.500000000000000000e+01,2.797811497991963825e-01
3.503999999999999915e+01,2.854176817326503079e-01
3.507999999999999829e+01,3.040296739700621975e-01
3.511999999999999744e+01,2.665109946590981660e-01
3.515999999999999659e+01,2.621865965739804127e-01
3.520000000000000284e+01,2.717429744592924634e-01
3.524000000000000199e+01,2.351272012985033133e-01
3.528000000000000114e+01,2.271791021285503309e-01
3.532000000000000028e+01,2.313011331447579200e-01
3.535999999999999943e+01,2.155053023215850738e-01
3.539999999999999858e+01,1.876377189110251531e-01
3.543999999999999773e+01,1.667101114625622049e-01
3.547999999999999687e+01,1.563437603048145330e-01
3.552000000000000313e+01,1.185152035217055672e-01
3.556000000000000227e+01,1.132773649183607262e-01
3.560000000000000142e+01,8.812165484141837313e-02
3.564000000000000057e+01,9.857439467810205636e-02
3.567999999999999972e+01,7.039930316912243469e-02
3.571999999999999886e+01,4.916417638231966591e-02
3.575999999999999801e+01,4.180980308610652424e-02
3.579999999999999716e+01,5.829470699416383628e-02
3.584000000000000341e+01,5.999187920136166835e-02
3.588000000000000256e+01,3.784811326619374333e-02
3.592000000000000171e+01,5.674470890621381713e-02
3.596000000000000085e+01,7.745111022723831506e-02
3.600000000000000000e+01,3.116295887145981505e-02
3.603999999999999915e+01,4.402157394536712620e-02
3.607999999999999829e+01,3.877293924440321921e-02
3.611999999999999744e+01,2.326316402056121876e-02
3.615999999999999659e+01,4.517245880336873826e-02
3.620000000000000284e+01,4.173193512555387064e-02
3.624000000000000199e+01,2.863381309680586295e-02
3.628000000000000114e+01,2.730400922282292739e-02
3.632000000000000028e+01,3.563010743621479459e-02
3.635999999999999943e+01,4.033407237210048790e-02
3.639999999999999858e+01,6.072940607449071188e-02
3.643999999999999773e+01,3.223657910895288276e-02
3.647999999999999687e+01,1.158900684081767309e-02
3.652000000000000313e+01,4.012965641455040061e-02
3.656000000000000227e+01,2.008391399777330680e-02
3.660000000000000142e+01,3.413771548511958936e-02
3.664000000000000057e+01,5.151016282915549943e-02
3.667999999999999972e+01,2.663345675063516493e-02
3.671999999999999886e+01,3.796870422081714130e-02
3.675999999999999801e+01,5.292436622510689886e-02
3.679999999999999716e+01,3.408052783648145290e-02
3.684000000000000341e+01,3.998124538743236256e-02
3.688000000000000256e+01,3.954384733599887458e-02
3.692000000000000171e+01,5.932439959483419567e-02
3.696000000000000085e+01,5.707461132448721219e-02
3.700000000000000000e+01,6.478247133909306732e-02
3.703999999999999915e+01,3.537131288677211605e-02
3.707999999999999829e+01,6.450333212680883777e-02
3.711999999999999744e+01,6.888904296411084427e-02
3.715999999999999659e+01,5.094263174918944176e-02
3.720000000000000284e+01,6.166381745136648163e-02
3.724000000000000199e+01,6.574509960530655617e-02
3.728000000000000114e+01,5.021021634065557515e-02
3.732000000000000028e+01,5.670390829640548080e-02
3.735999999999999943e+01,8.764036182306757239e-02
3.739999999999999858e+01,1.028837005428780565e-01
3.743999999999999773e+01,1.126942216640443306e-01
3.747999999999999687e+01,2.365742274134662038e-01
3.752000000000000313e+01,5.016833306928505376e-01
3.756000000000000227e+01,6.346147438552368625e-01
3.760000000000000142e+01,5.400080410244617601e-01
3.764000000000000057e+01,4.770866523933213754e-01
3.767999999999999972e+01,3.685965617572586339e-01
3.771999999999999886e+01,2.546736422826316737e-01
3.775999999999999801e+01,1.464835116612282773e-01
3.779999999999999716e+01,8.717977800467423266e-02
3.784000000000000341e+01,6.770923487146357500e-02
3.788000000000000256e+01,7.117256496239403318e-02
3.792000000000000171e+01,6.799596420813877606e-02
3.796000000000000085e+01,4.007302133138861827e-02
3.800000000000000000e+01,5.892405292928609012e-02
3.803999999999999915e+01,4.850213677538125351e-02
3.807999999999999829e+01,2.812077491368479912e-02
3.811999999999999744e+01,3.670874653244778768e-02
3.815999999999999659e+01,3.141421380316528067e-02
3.820000000000000284e+01,1.223717512013453371e-02
3.824000000000000199e+01,0.000000000000000000e+00
3.828000000000000114e+01,4.358999295039633209e-02
3.832000000000000028e+01,1.143390875194710138e-02
3.835999999999999943e+01,3.027661350019457409e-02
3.839999999999999858e+01,3.915985969502748520e-02
3.843999999999999773e+01,3.355704331284136560e-02
3.847999999999999687e+01,3.881713628818238976e-02
3.852000000000000313e+01,5.705255147703519603e-02
3.856000000000000227e+01,3.364228476435061205e-02
3.860000000000000142e+01,3.893833404058476104e-03
3.864000000000000057e+01,3.781864652066752042e-02
3.867999999999999972e+01,4.156516571064808319e-02
3.871999999999999886e+01,6.130473403089375245e-02
3.875999999999999801e+01,2.099042925495460052e-02
3.879999999999999716e+01,3.469263070824844114e-02
3.884000000000000341e+01,4.628146680309225963e-02
3.888000000000000256e+01,4.368599615271226422e-02
3.892000000000000171e+01,4.621972080111927395e-02
3.896000000000000085e+01,4.603652828491425902e-02
3.900000000000000000e+01,3.860981458049255605e-02
3.903999999999999915e+01,5.773820946915028673e-02
3.907999999999999829e+01,4.880070883583822322e-02
3.911999999999999744e+01,3.835337859320970405e-02
3.915999999999999659e+01,6.713563889667642504e-02
3.920000000000000284e+01,3.737287591386071611e-02
3.924000000000000199e+01,7.641350272935824861e-02
3.928000000000000114e+01,3.216367649597218908e-02
3.932000000000000028e+01,6.607221517982371506e-02
3.935999999999999943e+01,8.579642785001702354e-02
3.939999999999999858e+01,9.737178279138490600e-02
3.943999999999999773e+01,1.635671652597933956e-01
3.947999999999999687e+01,3.483585544892157659e-01
3.952000000000000313e+01,6.221721464103253663e-01
3.956000000000000227e+01,7.285004690696611496e-01
3.960000000000000142e+01,8.306029814005051470e-01
3.964000000000000057e+01,1.000000000000000000e+00
3.967999999999999972e+01,9.789769589365775460e-01
3.971999999999999886e+01,9.211365653186633917e-01
3.975999999999999801e+01,7.769879644381628703e-01
3.979999999999999716e+01,7.393644176919829114e-01
3.984000000000000341e+01,7.400651137113689604e-01
3.988000000000000256e+01,7.685279785821810261e-01
3.992000000000000171e+01,7.719426491565311022e-01
3.996000000000000085e+01,7.859183961828757337e-01
4.000000000000000000e+01,6.713376370786687808e-01
4.003999999999999915e+01,5.069632523096954113e-01
4.007999999999999829e+01,3.781971392213302474e-01
4.011999999999999744e+01,2.750807708884867031e-01
4.015999999999999659e+01,1.725669456597396234e-01
4.020000000000000284e+01,1.572646548585703019e-01
4.024000000000000199e+01,1.259673617511193056e-01
4.028000000000000114e+01,8.682294908390639221e-02
4.032000000000000028e+01,7.906196953970960617e-02
4.035999999999999943e+01,6.496273469697902425e-02
4.039999999999999858e+01,7.621145987532330912e-02
4.043999999999999773e+01,3.404526139755140873e-02
4.047999999999999687e+01,5.193097160002758256e-02
4.052000000000000313e+01,5.382166825630190637e-02
4.056000000000000227e+01,2.704286299054696474e-02
4.060000000000000142e+01,5.035743626854791849e-02
4.064000000000000057e+01,3.172447065393588922e-02
4.067999999999999972e+01,3.874122731500528882e-02
4.071999999999999886e+01,4.183390218242945963e-02
4.075999999999999801e+01,3.768298521071103413e-02
4.079999999999999716e+01,4.288601699311975213e-02
4.084000000000000341e+01,3.692239829613194052e-02
4.088000000000000256e+01,3.789853718565130980e-02
4.092000000000000171e+01,4.581443205597505314e-02
4.096000000000000085e+01,3.924416318999925102e-02
4.100000000000000000e+01,2.361965188350296369e-02
4.103999999999999915e+01,3.666258334663015372e-02
4.107999999999999829e+01,3.793530770709022809e-02
4.111999999999999744e+01,5.459743786658986103e-02
4.115999999999999659e+01,3.232974320460696438e-02
4.120000000000000284e+01,3.993657886754317654e-02
4.124000000000000199e+01,3.003950460899204242e-02
4.128000000000000114e+01,3.251409478140132592e-02
4.132000000000000028e+01,3.468586100894381630e-02
4.135999999999999943e+01,4.621155351077320395e-02
4.139999999999999858e+01,3.087835133797373413e-02
4.143999999999999773e+01,3.244340959122499896e-02
4.147999999999999687e+01,3.581805193848517505e-02
4.152000000000000313e+01,4.794306714816744253e-02
4.156000000000000227e+01,3.109676679872192678e-02
4.160000000000000142e+01,4.593562168432759052e-02
4.164000000000000057e+01,3.572621322824786477e-02
4.167999999999999972e+01,2.129091094712735541e-02
4.171999999999999886e+01,5.242233983218099608e-02
4.175999999999999801e+01,2.470686917144198497e-02
4.179999999999999716e+01,3.139250716798060170e-02
4.184000000000000341e+01,4.079303529078294466e-02
4.188000000000000256e+01,4.144105914212848490e-02
4.192000000000000171e+01,3.967382050137670257e-02
4.196000000000000085e+01,4.363920211504753593e-02
4.200000000000000000e+01,4.398222404710838696e-02
4.203999999999999915e+01,4.130643168090965267e-02
4.207999999999999829e+01,4.315616077391797728e-02
4.211999999999999744e+01,2.538953015828858406e-02
4.215999999999999659e+01,1.214841779046041403e-02
4.220000000000000284e+01,2.817824861592616026e-02
4.224000000000000199e+01,2.308284744301162747e-02
4.228000000000000114e+01,4.514597179029792434e-02
4.232000000000000028e+01,3.491824163030755185e-02
4.235999999999999943e+01,4.943484582289797008e-02
4.239999999999999858e+01,1.385595611972649001e-02
4.243999999999999773e+01,1.690297830596166478e-02
4.247999999999999687e+01,1.572407455309876231e-02
4.252000000000000313e+01,2.480437099272000609e-02
4.256000000000000227e+01,2.362326839130204567e-02
4.260000000000000142e+01,2.183751696799865125e-02
4.264000000000000057e+01,4.570140914093635126e-02
4.267999999999999972e+01,3.546379138811097537e-02
4.271999999999999886e+01,3.880487423905008143e-02
4.275999999999999801e+01,3.761824641644424816e-02
4.279999999999999716e+01,3.220567980911732270e-02
4.284000000000000341e+01,8.987365557661776763e-03
4.288000000000000256e+01,1.564351419160493056e-02
4.292000000000000171e+01,2.199677465256661552e-02
4.296000000000000085e+01,4.917128995171812789e-02
4.300000000000000000e+01,3.832122705063546048e-02
4.303999999999999915e+01,3.018600610473044440e-02
4.307999999999999829e+01,2.506739900282701008e-02
4.311999999999999744e+01,2.477604510638285046e-02
4.315999999999999659e+01,5.707510430615833630e-02
4.320000000000000284e+01,3.927863749611450184e-02
4.324000000000000199e+01,4.079454681170659874e-02
4.328000000000000114e+01,3.536853662340219695e-02
4.332000000000000028e+01,1.304208000611508864e-02
4.335999999999999943e+01,3.326455377591693019e-02
4.339999999999999858e+01,3.749189838891051063e-02
4.343999999999999773e+01,3.206135562445532050e-02
4.347999999999999687e+01,2.481903473454467185e-02
4.352000000000000313e+01,4.081213415919787008e-02
4.356000000000000227e+01,3.779236305896366277e-02
4.360000000000000142e+01,4.623884277534349302e-02
4.364000000000000057e+01,2.631747042510003756e-02
4.367999999999999972e+01,4.502196018747462586e-02
4.371999999999999886e+01,3.988519708972194933e-02
4.375999999999999801e+01,3.987743500070946995e-02
4.379999999999999716e+01,7.909907719625992872e-02
4.384000000000000341e+01,8.693512435140514361e-02
4.388000000000000256e+01,6.640330980571002017e-02
4.392000000000000171e+01,4.707743441709567878e-02
4.396000000000000085e+01,5.128873517484044964e-02
4.400000000000000000e+01,5.006695499867111487e-02
4.403999999999999915e+01,4.944756217342040350e-02
4.407999999999999829e+01,3.826493579589474586e-02
4.411999999999999744e+01,2.919356103051579110e-02
4.415999999999999659e+01,4.033984594318704847e-02
4.420000000000000284e+01,3.488742259593934775e-02
4.424000000000000199e+01,4.452250630838103240e-02
4.428000000000000114e+01,2.216843032863242621e-02
4.432000000000000028e+01,3.874196426478278277e-02
4.435999999999999943e+01,3.026712567145286095e-02
4.439999999999999858e+01,3.537092024236694610e-02
4.443999999999999773e+01,4.228418008527824040e-02
4.447999999999999687e+01,4.768739515468898432e-02
4.452000000000000313e+01,3.166351320612947190e-02
4.456000000000000227e+01,2.408810859204736296e-02
4.460000000000000142e+01,2.767714115748080503e-02
4.464000000000000057e+01,5.510509606685148193e-02
4.467999999999999972e+01,5.476870415037810025e-02
4.471999999999999886e+01,4.236018551774998336e-02
4.475999999999999801e+01,2.512210243190696884e-02
4.479999999999999716e+01,4.862225096068902019e-02
4.484000000000000341e+01,5.099706312040465372e-02
4.488000000000000256e+01,5.125826746053766675e-02
4.492000000000000171e+01,2.797994426398422996e-02
4.496000000000000085e+01,4.574161975377126488e-02
4.500000000000000000e+01,3.845489702283234196e-02
4.503999999999999915e+01,3.569357692908829705e-02
4.507999999999999829e+01,4.409667474642553486e-02
4.511999999999999744e+01,4.072940328510610275e-02
4.515999999999999659e+01,3.132545733543603411e-02
4.520000000000000284e+01,4.032848834838110436e-02
4.524000000000000199e+01,3.665582478198076144e-02
4.528000000000000114e+01,4.867417351604882980e-02
4.532000000000000028e+01,5.827712327327604774e-02
4.535999999999999943e+01,4.705648928182628449e-02
4.539999999999999858e+01,4.850912782846866778e-02
4.543999999999999773e+01,3.728606376725121518e-02
4.547999999999999687e+01,4.597883290136278722e-02
4.552000000000000313e+01,5.678279744802074147e-02
4.556000000000000227e+01,5.702346903139773188e-02
4.560000000000000142e+01,6.178952077212962468e-02
4.564000000000000057e+01,6.927031009735293288e-02
4.567999999999999972e+01,5.532395583922276872e-02
4.571999999999999886e+01,4.892071186660661153e-02
4.575999999999999801e+01,3.889495727631097494e-02
4.579999999999999716e+01,5.814000136605143587e-02
4.584000000000000341e+01,4.237808819592210618e-02
4.588000000000000256e+01,3.325395840491508076e-02
4.592000000000000171e+01,5.068466102609452822e-02
4.596000000000000085e+01,3.280662807576886081e-02
4.600000000000000000e+01,4.057810384264357029e-02
4.603999999999999915e+01,5.136607463150782982e-02
4.607999999999999829e+01,4.947831712126649767e-02
4.611999999999999744e+01,3.431128271716308437e-02
4.615999999999999659e+01,4.268133614576118812e-02
4.620000000000000284e+01,3.294373355666319059e-02
4.624000000000000199e+01,3.587936978589709169e-02
4.628000000000000114e+01,3.760666247952848540e-02
4.632000000000000028e+01,4.536817390049704274e-02
4.635999999999999943e+01,2.868477949589575554e-02
4.639999999999999858e+01,3.704733076241269185e-02
4.643999999999999773e+01,3.333768626755169440e-02
4.647999999999999687e+01,3.867998902248420690e-02
4.652000000000000313e+01,4.009797715685603503e-02
4.656000000000000227e+01,5.177500330772266679e-02
4.660000000000000142e+01,5.047450679081967595e-02
4.664000000000000057e+01,2.623796068106058754e-02
4.667999999999999972e+01,5.058568157558811229e-02
4.671999999999999886e+01,5.320444364396093029e-02
4.675999999999999801e+01,4.465631758891324549e-02
4.679999999999999716e+01,3.761578857486679028e-02
4.684000000000000341e+01,4.264492730455572700e-02
4.688000000000000256e+01,5.793309120511652005e-02
4.692000000000000171e+01,5.179406174553517067e-02
4.696000000000000085e+01,4.897326387130409436e-02
4.700000000000000000e+01,4.524586705334576742e-02
4.703999999999999915e+01,3.427462630089495033e-02
4.707999999999999829e+01,3.235530871269463177e-02
4.711999999999999744e+01,3.164180182534576807e-02
4.715999999999999659e+01,7.770190170668839214e-02
4.720000000000000284e+01,4.650670050051562004e-02
4.724000000000000199e+01,4.850529559792371437e-02
4.728000000000000114e+01,3.873343470872055855e-02
4.732000000000000028e+01,4.585959820724686692e-02
4.735999999999999943e+01,3.638692659532776624e-02
4.739999999999999858e+01,4.411404965425910762e-02
4.743999999999999773e+01,3.282814643512519531e-02
4.747999999999999687e+01,5.443425639082823814e-02
4.752000000000000313e+01,2.353047896458832985e-02
4.756000000000000227e+01,2.582048499630644131e-02
4.760000000000000142e+01,4.410318369225364743e-02
4.764000000000000057e+01,3.763915168561249996e-02
4.767999999999999972e+01,5.169441154969625640e-02
4.771999999999999886e+01,4.462421943410725678e-02
4.775999999999999801e+01,3.181902195400801436e-02
4.779999999999999716e+01,4.677567539616780956e-02
4.784000000000000341e+01,4.332283349228713276e-02
4.788000000000000256e+01,3.353143441773414474e-02
4.792000000000000171e+01,3.339547177672507611e-02
4.796000000000000085e+01,2.903336321532531614e-02
4.800000000000000000e+01,4.700117464618826929e-02
4.803999999999999915e+01,5.138785861492487644e-02
4.807999999999999829e+01,4.853065690089450324e-02
4.811999999999999744e+01,5.713952455905433464e-02
4.815999999999999659e+01,5.186548644345243680e-02
4.820000000000000284e+01,4.598657470756403742e-02
4.824000000000000199e+01,1.928396361239238799e-02
4.828000000000000114e+01,5.323649507446365919e-02
4.832000000000000028e+01,4.825891429423947304e-02
4.835999999999999943e+01,2.577713777741794457e-02
4.839999999999999858e+01,4.493876884554398599e-02
4.843999999999999773e+01,3.392171419554244893e-02
4.847999999999999687e+01,2.290332167438790048e-02
4.852000000000000313e+01,4.628576805242971826e-02
4.856000000000000227e+01,4.160193835692282266e-02
4.860000000000000142e+01,5.321253467760005129e-02
4.864000000000000057e+01,4.369764208743862066e-02
4.867999999999999972e+01,4.896830482942173685e-02
4.871999999999999886e+01,4.940924415360634092e-02
4.875999999999999801e+01,4.743464641050361419e-02
4.879999999999999716e+01,4.576047144515171111e-02
4.884000000000000341e+01,4.649913211353523534e-02
4.888000000000000256e+01,4.542579788657638562e-02
4.892000000000000171e+01,6.336283828091983372e-02
4.896000000000000085e+01,5.172471907205197783e-02
4.900000000000000000e+01,5.245795439349160844e-02
4.903999999999999915e+01,5.862175226542001849e-02
4.907999999999999829e+01,4.909196646526015062e-02
4.911999999999999744e+01,4.167323156438887399e-02
4.915999999999999659e+01,4.813471224364747336e-02
4.920000000000000284e+01,5.127531770930693344e-02
4.924000000000000199e+01,4.445602947607541627e-02
4.928000000000000114e+01,3.552295679594614369e-02
4.932000000000000028e+01,6.008537041737559842e-02
4.935999999999999943e+01,5.386551440045805189e-02
4.939999999999999858e+01,7.359680411052416105e-02
4.943999999999999773e+01,5.168197516787361584e-02
4.947999999999999687e+01,4.726863089405134583e-02
4.952000000000000313e+01,3.983617205553385138e-02
4.956000000000000227e+01,4.266263080579624223e-02
4.960000000000000142e+01,3.522740791131509508e-02
4.964000000000000057e+01,6.702135486877851267e-02
4.967999999999999972e+01,4.600355424181738068e-02
4.971999999999999886e+01,6.240427928823445713e-02
4.975999999999999801e+01,4.530675718853489214e-02
4.979999999999999716e+01,5.084085631899579183e-02
4.984000000000000341e+01,6.633208830378983789e-02
4.988000000000000256e+01,4.681620085272470561e-02
4.992000000000000171e+01,7.316848889327315364e-02
4.996000000000000085e+01,6.028882536318192625e-02
5.000000000000000000e+01,6.098757019893359665e-02
5.003999999999999915e+01,6.953102539881667044e-02
5.007999999999999829e+01,5.061169049749554560e-02
5.011999999999999744e+01,6.760199773989018779e-02
5.015999999999999659e+01,4.656743936123788896e-02
5.020000000000000284e+01,6.295138738752932561e-02
5.024000000000000199e+01,6.696121361614398859e-02
5.028000000000000114e+01,7.519445864035148586e-02
5.032000000000000028e+01,7.558018107337806379e-02
5.035999999999999943e+01,8.803542994828787716e-02
5.039999999999999858e+01,6.729417948036199582e-02
5.043999999999999773e+01,9.574059206970693403e-02
5.047999999999999687e+01,9.249936957744427091e-02
5.052000000000000313e+01,9.438687673013763935e-02
5.056000000000000227e+01,1.442549481448860693e-01
5.060000000000000142e+01,1.195835434381163909e-01
5.064000000000000057e+01,1.576796010138080684e-01
5.067999999999999972e+01,1.517153022037799615e-01
5.071999999999999886e+01,1.698914551653804839e-01
5.075999999999999801e+01,1.880661787307645605e-01
5.079999999999999716e+01,1.778727628087126977e-01
5.084000000000000341e+01,1.824648155108507253e-01
5.088000000000000256e+01,1.656295158882627738e-01
5.092000000000000171e+01,1.762541684485835203e-01
5.096000000000000085e+01,1.539840726807552296e-01
5.100000000000000000e+01,1.688306777092866418e-01
5.103999999999999915e+01,1.181909937893715901e-01
5.107999999999999829e+01,1.384666388414093341e-01
5.111999999999999744e+01,1.158890038231028680e-01
5.115999999999999659e+01,9.481879082418540050e-02
5.120000000000000284e+01,1.024156127463635296e-01
5.124000000000000199e+01,9.431876428849875205e-02
5.128000000000000114e+01,7.384775228468264119e-02
5.132000000000000028e+01,6.967105710925586282e-02
5.135999999999999943e+01,7.454611328787304203e-02
5.139999999999999858e+01,5.467428782783253366e-02
5.143999999999999773e+01,6.739254308351852463e-02
5.147999999999999687e+01,7.045258821547993600e-02
5.152000000000000313e+01,6.355264812348690451e-02
5.156000000000000227e+01,7.626652366546064765e-02
5.160000000000000142e+01,6.996720593627109297e-02
5.164000000000000057e+01,6.517529095803599459e-02
5.167999999999999972e+01,6.883156749916834183e-02
5.171999999999999886e+01,6.614913272215339202e-02
5.175999999999999801e+01,4.837655368001173017e-02
5.179999999999999716e+01,6.953128428733310051e-02
5.184000000000000341e+01,6.925862403305986514e-02
5.188000000000000256e+01,6.626852797214899393e-02
5.192000000000000171e+01,8.500464755556647045e-02
5.196000000000000085e+01,9.257367027419101391e-02
5.200000000000000000e+01,1.158334355352027001e-01
5.203999999999999915e+01,1.206835368513730633e-01
5.207999999999999829e+01,1.249286087940789797e-01
5.211999999999999744e+01,1.599530931884022011e-01
5.215999999999999659e+01,1.460887858735713252e-01
5.220000000000000284e+01,1.587790588755771115e-01
5.224000000000000199e+01,1.461188695301115226e-01
5.228000000000000114e+01,1.343625102553010209e-01
5.232000000000000028e+01,1.760185674931014632e-01
5.235999999999999943e+01,1.374013815624489931e-01
5.239999999999999858e+01,1.223210329748512237e-01
5.243999999999999773e+01,1.120675634639450441e-01
5.247999999999999687e+01,9.004342922505514935e-02
5.252000000000000313e+01,9.547918294095937564e-02
5.256000000000000227e+01,9.427441812442918789e-02
5.260000000000000142e+01,6.892627048720893768e-02
5.264000000000000057e+01,6.560608308619232665e-02
5.267999999999999972e+01,4.960990244509722036e-02
5.271999999999999886e+01,5.322749087258570738e-02
5.275999999999999801e+01,6.861273590525883426e-02
5.279999999999999716e+01,6.347587202304891263e-02
5.284000000000000341e+01,5.894104223712707397e-02
5.288000000000000256e+01,4.203198467713932518e-02
5.292000000000000171e+01,4.805619659701544644e-02
5.296000000000000085e+01,4.412036548763404592e-02
5.300000000000000000e+01,5.768587774522873635e-02
5.303999999999999915e+01,4.409025457413412452e-02
5.307999999999999829e+01,4.045163419544050426e-02
5.311999999999999744e+01,5.220193790492699826e-02
5.315999999999999659e+01,4.644785319347238817e-02
5.320000000000000284e+01,5.457382188615824553e-02
5.324000000000000199e+01,4.308298448480975956e-02
5.328000000000000114e+01,3.098706953891092186e-02
5.332000000000000028e+01,5.299002731333792710e-02
5.335999999999999943e+01,3.998572595575642513e-02
5.339999999999999858e+01,4.297388443548853104e-02
5.343999999999999773e+01,4.324454448617143232e-02
5.347999999999999687e+01,3.566755509514701189e-02
5.352000000000000313e+01,3.955641830642588758e-02
5.356000000000000227e+01,5.491113251430541214e-02
5.360000000000000142e+01,5.276144063851221505e-02
5.364000000000000057e+01,4.517828085441442237e-02
5.367999999999999972e+01,4.725032628264787954e-02
5.371999999999999886e+01,5.233855843792082491e-02
5.375999999999999801e+01,4.475075399913797103e-02
5.379999999999999716e+01,4.500750898841712755e-02
5.384000000000000341e+01,4.345206997519873021e-02
5.388000000000000256e+01,3.948088836472628260e-02
5.392000000000000171e+01,3.158509507866304883e-02
5.396000000000000085e+01,4.722607651324273875e-02
5.400000000000000000e+01,4.838037075238876827e-02
5.403999999999999915e+01,4.832600994957644142e-02
5.407999999999999829e+01,3.770801416877286177e-02
5.411999999999999744e+01,5.123033367485424483e-02
5.415999999999999659e+01,4.392871617762826586e-02
5.420000000000000284e+01,4.085036011711443843e-02
5.424000000000000199e+01,5.798925909752891683e-02
5.428000000000000114e+01,4.977761383962579778e-02
5.432000000000000028e+01,3.402005891478199900e-02
5.435999999999999943e+01,2.580526744363339023e-02
5.439999999999999858e+01,4.716270292093149852e-02
5.443999999999999773e+01,3.532347687940456948e-02
5.447999999999999687e+01,3.857134683763351057e-02
5.452000000000000313e+01,5.539744371728169692e-02
5.456000000000000227e+01,4.053574173363000410e-02
5.460000000000000142e+01,4.800369480126814858e-02
5.464000000000000057e+01,5.215055427971764662e-02
5.467999999999999972e+01,3.788764383693671994e-02
5.471999999999999886e+01,3.901359325422136537e-02
5.475999999999999801e+01,4.375923463932439306e-02
5.479999999999999716e+01,3.884653262736489920e-02
5.484000000000000341e+01,4.781381818572835729e-02
5.488000000000000256e+01,4.229438122319537086e-02
5.492000000000000171e+01,2.862546351912502451e-02
5.496000000000000085e+01,3.396667797522430476e-02
5.500000000000000000e+01,4.202225428134449825e-02
5.503999999999999915e+01,2.804676428058731907e-02
5.507999999999999829e+01,3.036544017215011063e-02
5.511999999999999744e+01,3.358783212946458291e-02
5.515999999999999659e+01,4.465472892094377727e-02
5.520000000000000284e+01,5.994484700656333570e-02
5.524000000000000199e+01,4.596132688814857231e-02
5.528000000000000114e+01,5.792871645839627742e-02
5.532000000000000028e+01,4.786502848184651798e-02
5.535999999999999943e+01,4.443874333283991812e-02
5.539999999999999858e+01,4.825340639472718018e-02
5.543999999999999773e+01,4.603098230262750445e-02
5.547999999999999687e+01,4.350516584684656352e-02
5.552000000000000313e+01,5.003093375201146664e-02
5.556000000000000227e+01,5.474443860945569368e-02
5.560000000000000142e+01,5.040311494483360605e-02
5.564000000000000057e+01,4.756903346087948403e-02
5.567999999999999972e+01,4.473332507925671664e-02
5.571999999999999886e+01,4.793145808479773451e-02
5.575999999999999801e+01,4.358362361809486191e-02
5.579999999999999716e+01,5.673702011916751525e-02
5.584000000000000341e+01,5.600720255152848159e-02
5.588000000000000256e+01,4.441190425474242365e-02
5.592000000000000171e+01,5.152492608673036462e-02
5.596000000000000085e+01,4.294408806573731668e-02
5.600000000000000000e+01,5.126092599495189056e-02
5.603999999999999915e+01,4.871227677220806712e-02
5.607999999999999829e+01,6.275952679373940357e-02
5.611999999999999744e+01,3.546216350470243750e-02
5.615999999999999659e+01,1.721635888536546602e-02
5.620000000000000284e+01,4.996862706924753983e-02
5.624000000000000199e+01,3.684967470755089181e-02
5.628000000000000114e+01,3.791242560540093037e-02
5.632000000000000028e+01,4.350012633223794556e-02
5.635999999999999943e+01,3.942942103960082878e-02
5.639999999999999858e+01,4.923864069487487310e-02
5.643999999999999773e+01,3.671496434914444523e-02
5.647999999999999687e+01,4.139071817971420181e-02
5.652000000000000313e+01,5.210028128339042053e-02
5.656000000000000227e+01,3.896807609631964403e-02
5.660000000000000142e+01,4.846721916992240142e-02
5.664000000000000057e+01,3.804764617022046713e-02
5.667999999999999972e+01,4.090443988945624554e-02
5.671999999999999886e+01,5.824469270003386490e-02
5.675999999999999801e+01,3.454208000332418399e-02
5.679999999999999716e+01,3.377258103330028904e-02
5.684000000000000341e+01,3.481204956738517819e-02
5.688000000000000256e+01,4.218708641777768609e-02
5.692000000000000171e+01,2.330615256988317896e-02
5.696000000000000085e+01,5.059488510442471804e-02
5.700000000000000000e+01,3.412478104672068968e-02
5.703999999999999915e+01,4.270019554317276700e-02
5.707999999999999829e+01,3.045155582000832681e-02
5.711999999999999744e+01,3.389345310926427518e-02
5.715999999999999659e+01,5.875958220124647552e-02
5.720000000000000284e+01,3.805622570530810961e-02
5.724000000000000199e+01,4.964094360365407105e-02
5.728000000000000114e+01,2.048454861510211333e-02
5.732000000000000028e+01,4.443859593177620221e-02
5.735999999999999943e+01,4.032601392027120035e-02
5.739999999999999858e+01,5.311105165937365924e-02
5.743999999999999773e+01,4.416670024395349253e-02
5.747999999999999687e+01,5.332705934584208024e-02
5.752000000000000313e+01,5.373428634645371904e-02
5.756000000000000227e+01,6.319301581716503524e-02
5.760000000000000142e+01,4.367978584189981250e-02
5.764000000000000057e+01,5.313510576409585795e-02
5.767999999999999972e+01,3.814506544681106615e-02
5.771999999999999886e+01,2.647282478080590848e-02
5.775999999999999801e+01,3.803543279914465419e-02
5.779999999999999716e+01,3.179169264048314902e-02
5.784000000000000341e+01,5.874132327414323396e-02
5.788000000000000256e+01,5.339947478211216209e-02
5.792000000000000171e+01,2.421580340543676504e-02
5.796000000000000085e+01,3.788224982883122566e-02
5.800000000000000000e+01,2.438736171638100289e-02
5.803999999999999915e+01,4.710357131300596523e-02
5.807999999999999829e+01,3.994248171163960331e-02
5.811999999999999744e+01,6.054282876119290724e-02
5.815999999999999659e+01,3.134882276258203759e-02
5.820000000000000284e+01,4.530669842435072758e-02
5.824000000000000199e+01,3.451741787227168706e-02
5.828000000000000114e+01,4.002217475628351562e-02
5.832000000000000028e+01,4.311101081002332441e-02
5.835999999999999943e+01,3.714490754819910201e-02
5.839999999999999858e+01,4.475687545461615180e-02
5.843999999999999773e+01,3.637311045994767733e-02
5.847999999999999687e+01,4.488692186190936656e-02
5.852000000000000313e+01,4.102627908570102150e-02
5.856000000000000227e+01,4.802773960418150329e-02
5.860000000000000142e+01,4.446538370024707976e-02
5.864000000000000057e+01,2.732147482292690555e-02
5.867999999999999972e+01,3.793898011668635217e-02
5.871999999999999886e+01,2.743059186248511874e-02
5.875999999999999801e+01,4.649425553511837839e-02
5.879999999999999716e+01,4.956217185534033537e-02
5.884000000000000341e+01,5.021414647115297891e-02
5.888000000000000256e+01,5.327855368928188784e-02
5.892000000000000171e+01,3.280287137472154280e-02
5.896000000000000085e+01,4.250277994753488137e-02
5.900000000000000000e+01,3.590515964489594813e-02
5.903999999999999915e+01,3.896252939040427410e-02
5.907999999999999829e+01,3.990572129181288452e-02
5.911999999999999744e+01,4.808971207374905521e-02
5.915999999999999659e+01,4.450276997532286172e-02
5.920000000000000284e+01,3.306794881967960176e-02
5.924000000000000199e+01,5.422289526770435880e-02
5.928000000000000114e+01,4.519872085212493090e-02
5.932000000000000028e+01,4.039760234329085875e-02
5.935999999999999943e+01,3.106810679422285920e-02
5.939999999999999858e+01,4.165388565588682562e-02
5.943999999999999773e+01,3.141551556146512936e-02
5.947999999999999687e+01,3.626404075394124016e-02
5.952000000000000313e+01,4.744802828633587488e-02
5.956000000000000227e+01,4.052382349627730446e-02
5.960000000000000142e+01,5.260956460485604474e-02
5.964000000000000057e+01,3.572326437661197535e-02
5.967999999999999972e+01,4.056286828634038388e-02
5.971999999999999886e+01,3.483861081397349180e-02
5.975999999999999801e+01,3.816576749804891089e-02
5.979999999999999716e+01,4.631950780948889540e-02
5.984000000000000341e+01,3.606327106402877625e-02
5.988000000000000256e+01,5.718968225288370566e-02
5.992000000000000171e+01,4.723162640330840628e-02
5.996000000000000085e+01,5.960301044083895355e-02
