2.003999999999999915e+01,5.121718156388794380e-02
2.007999999999999829e+01,4.658409554893296056e-02
2.012000000000000099e+01,4.244025167203221982e-02
2.016000000000000014e+01,4.188387867876292026e-02
2.019999999999999929e+01,3.268512267281734052e-02
2.023999999999999844e+01,3.979288339990592893e-02
2.028000000000000114e+01,3.662761257557332895e-02
2.032000000000000028e+01,4.292013925893109483e-02
2.035999999999999943e+01,3.926576235959765293e-02
2.039999999999999858e+01,4.278627559338506192e-02
2.044000000000000128e+01,4.695908987745297386e-02
2.048000000000000043e+01,4.884903972599830696e-02
2.051999999999999957e+01,3.720465949645034714e-02
2.055999999999999872e+01,4.985696094206163581e-02
2.060000000000000142e+01,4.946412498726566326e-02
2.064000000000000057e+01,3.129727434774097483e-02
2.067999999999999972e+01,3.759016791855790407e-02
2.071999999999999886e+01,4.372003392273533101e-02
2.076000000000000156e+01,3.794621259083428427e-02
2.080000000000000071e+01,4.619599192230280232e-02
2.083999999999999986e+01,4.417272955807238777e-02
2.087999999999999901e+01,3.252868360937681558e-02
2.092000000000000171e+01,3.295145964280224438e-02
2.096000000000000085e+01,4.038605095611450674e-02
2.100000000000000000e+01,5.189729206351045843e-02
2.103999999999999915e+01,4.840661129252085693e-02
2.107999999999999829e+01,4.605741410522041362e-02
2.112000000000000099e+01,4.142534088893713717e-02
2.116000000000000014e+01,4.038072044150371048e-02
2.119999999999999929e+01,4.977226981449041354e-02
2.123999999999999844e+01,5.166287029812140913e-02
2.128000000000000114e+01,4.099751519016241186e-02
2.132000000000000028e+01,4.125752185571852915e-02
2.135999999999999943e+01,5.227982486124187894e-02
2.139999999999999858e+01,3.574421687742923570e-02
2.144000000000000128e+01,3.013396849335773717e-02
2.148000000000000043e+01,2.126244930524477661e-02
2.151999999999999957e+01,3.000194133489533788e-02
2.155999999999999872e+01,4.836227311886365232e-02
2.160000000000000142e+01,5.074228462643137760e-02
2.164000000000000057e+01,2.507518667024668732e-02
2.167999999999999972e+01,2.337862068275342251e-02
2.171999999999999886e+01,4.255435646919186049e-02
2.176000000000000156e+01,1.753957443143840111e-02
2.180000000000000071e+01,3.997664027829832267e-02
2.183999999999999986e+01,4.382434615791051119e-02
2.187999999999999901e+01,3.495302086810785774e-02
2.192000000000000171e+01,3.928995240833825509e-02
2.196000000000000085e+01,4.574673984498726226e-02
2.200000000000000000e+01,3.296190558019878453e-02
2.203999999999999915e+01,2.865644941193909792e-02
2.207999999999999829e+01,4.114667077238431253e-02
2.212000000000000099e+01,2.982945640684413202e-02
2.216000000000000014e+01,5.079906547166718883e-02
2.219999999999999929e+01,2.708895461492574763e-02
2.223999999999999844e+01,3.860083050057722120e-02
2.228000000000000114e+01,3.935044447837586501e-02
2.232000000000000028e+01,3.308828412972339428e-02
2.235999999999999943e+01,3.530549608086970548e-02
2.239999999999999858e+01,3.996868537584340880e-02
2.244000000000000128e+01,5.408963377517061327e-02
2.248000000000000043e+01,3.510845151668613717e-02
2.251999999999999957e+01,3.846713892091438436e-02
2.255999999999999872e+01,3.758614770339969990e-02
2.260000000000000142e+01,3.964032433362468105e-02
2.264000000000000057e+01,2.995384428093804743e-02
2.267999999999999972e+01,4.358561924633642254e-02
2.271999999999999886e+01,2.656122984071881271e-02
2.276000000000000156e+01,2.225588792184927597e-02
2.280000000000000071e+01,4.453009302641522393e-02
2.283999999999999986e+01,3.777877867575368115e-02
2.287999999999999901e+01,4.146360371267924366e-02
2.292000000000000171e+01,4.955117318122037595e-02
2.296000000000000085e+01,3.268983874466580009e-02
2.300000000000000000e+01,3.947288294737855835e-02
2.303999999999999915e+01,3.321074554961731679e-02
2.307999999999999829e+01,5.515879719271506165e-02
2.312000000000000099e+01,2.280629442023207609e-02
2.316000000000000014e+01,4.279755616494639731e-02
2.319999999999999929e+01,3.832910378388611899e-02
2.323999999999999844e+01,4.136161950787962949e-02
2.328000000000000114e+01,4.129589653018102963e-02
2.332000000000000028e+01,3.291386343960024663e-02
2.335999999999999943e+01,3.969683760124174954e-02
2.339999999999999858e+01,3.392381776795645731e-02
2.344000000000000128e+01,2.505255633461433637e-02
2.348000000000000043e+01,2.074709389756624126e-02
2.351999999999999957e+01,2.655162983673258273e-02
2.355999999999999872e+01,4.328148697230328051e-02
2.360000000000000142e+01,4.174808167652326735e-02
2.364000000000000057e+01,3.597497819503622796e-02
2.367999999999999972e+01,3.835509368392402835e-02
2.371999999999999886e+01,4.187664493347768857e-02
2.376000000000000156e+01,2.273218371149761038e-02
2.380000000000000071e+01,2.853660430860938471e-02
2.383999999999999986e+01,2.732922304480211312e-02
2.387999999999999901e+01,2.057762157609059617e-02
2.392000000000000171e+01,3.257844081236076217e-02
2.396000000000000085e+01,1.751049681232276847e-02
2.400000000000000000e+01,2.168416619495256228e-02
2.403999999999999915e+01,3.189120681020490844e-02
2.407999999999999829e+01,2.937917640352282617e-02
2.412000000000000099e+01,3.355277461610568085e-02
2.416000000000000014e+01,2.892085337252100694e-02
2.419999999999999929e+01,2.608261803033198878e-02
2.423999999999999844e+01,2.846242675302817007e-02
2.428000000000000114e+01,3.883237886827383550e-02
2.432000000000000028e+01,2.555792011397079594e-02
2.435999999999999943e+01,2.858990345980216494e-02
2.439999999999999858e+01,3.520928088259125260e-02
2.444000000000000128e+01,2.878345134421229912e-02
2.448000000000000043e+01,1.730258485892886833e-02
2.451999999999999957e+01,2.082363990376498789e-02
2.455999999999999872e+01,2.352933898537593743e-02
2.460000000000000142e+01,3.129001090159439641e-02
2.464000000000000057e+01,2.307030747247637223e-02
2.467999999999999972e+01,3.963640521248623649e-02
2.471999999999999886e+01,2.864453182208546306e-02
2.476000000000000156e+01,2.971941085304469557e-02
2.480000000000000071e+01,3.536006496878641575e-02
2.483999999999999986e+01,3.105373434761567533e-02
2.487999999999999901e+01,3.082398323517631170e-02
2.492000000000000171e+01,3.776904037704523903e-02
2.496000000000000085e+01,3.069049288432226449e-02
2.500000000000000000e+01,3.567869346541185926e-02
2.503999999999999915e+01,2.566489970898974682e-02
2.507999999999999829e+01,1.108525226366284359e-02
2.512000000000000099e+01,3.172753939015827973e-02
2.516000000000000014e+01,2.709475334112616124e-02
2.519999999999999929e+01,1.724385259359067710e-02
2.523999999999999844e+01,2.467776625891920927e-02
2.528000000000000114e+01,2.624130494073683567e-02
2.532000000000000028e+01,1.084606770542940503e-02
2.535999999999999943e+01,1.844290752267996325e-02
2.539999999999999858e+01,3.093164097375649541e-02
2.544000000000000128e+01,2.385256099063457966e-02
2.548000000000000043e+01,2.280682615484978110e-02
2.551999999999999957e+01,3.904590065979016839e-02
2.555999999999999872e+01,3.327118892241492237e-02
2.560000000000000142e+01,1.966931989732409111e-02
2.564000000000000057e+01,4.031098777063180788e-02
2.567999999999999972e+01,1.953416686205973821e-02
2.571999999999999886e+01,3.316394611165970202e-02
2.576000000000000156e+01,4.614141236925291961e-02
2.580000000000000071e+01,3.416992327577089011e-02
2.583999999999999986e+01,3.410210233072870356e-02
2.587999999999999901e+01,2.734857198852566965e-02
2.592000000000000171e+01,2.271482580820649577e-02
2.596000000000000085e+01,2.672345142342889487e-02
2.600000000000000000e+01,2.225265366919822185e-02
2.603999999999999915e+01,2.039083202994633817e-02
2.607999999999999829e+01,4.005349202000377945e-02
2.612000000000000099e+01,1.291651986212228112e-02
2.616000000000000014e+01,2.605646941433289662e-02
2.619999999999999929e+01,2.354214478006046510e-02
2.623999999999999844e+01,2.967018686919077608e-02
2.628000000000000114e+01,3.041702998689741616e-02
2.632000000000000028e+01,2.529347928172037685e-02
2.635999999999999943e+01,2.392035185748568951e-02
2.639999999999999858e+01,3.347249418367580220e-02
2.644000000000000128e+01,3.470826987886520970e-02
2.648000000000000043e+01,3.936833726331057798e-02
2.651999999999999957e+01,2.364524810481231226e-02
2.655999999999999872e+01,2.325017294019179198e-02
2.660000000000000142e+01,2.464874020149137104e-02
2.664000000000000057e+01,3.795096111940539363e-02
2.667999999999999972e+01,3.869712862590937719e-02
2.671999999999999886e+01,3.324676564570474419e-02
2.676000000000000156e+01,5.945659394402919018e-03
2.680000000000000071e+01,1.924759267764558288e-02
2.683999999999999986e+01,2.504847562875610681e-02
2.687999999999999901e+01,2.856637820974234840e-02
2.692000000000000171e+01,2.963823498705671008e-02
2.696000000000000085e+01,9.837733124054906519e-03
2.700000000000000000e+01,2.623752003082345866e-02
2.703999999999999915e+01,2.372172335556779407e-02
2.707999999999999829e+01,2.805456638877996955e-02
2.712000000000000099e+01,2.700619523415203477e-02
2.716000000000000014e+01,3.166500937611578526e-02
2.719999999999999929e+01,3.029034904523211086e-02
2.723999999999999844e+01,2.924173716620208016e-02
2.728000000000000114e+01,3.226966132042793922e-02
2.732000000000000028e+01,1.882796745483416787e-02
2.735999999999999943e+01,7.995225792707580034e-03
2.739999999999999858e+01,1.885000655733498967e-02
2.744000000000000128e+01,1.877936723288053250e-02
2.748000000000000043e+01,2.718800746054358258e-02
2.751999999999999957e+01,2.940010270967262015e-02
2.755999999999999872e+01,3.340582299453156295e-02
2.760000000000000142e+01,3.561774399349208059e-02
2.764000000000000057e+01,3.342682963866337037e-02
2.767999999999999972e+01,2.243033206363622550e-02
2.771999999999999886e+01,2.888166868577117172e-02
2.776000000000000156e+01,3.859420910128560228e-02
2.780000000000000071e+01,3.183712280188537302e-02
2.783999999999999986e+01,3.290705069745620409e-02
2.787999999999999901e+01,3.837963317532633312e-02
2.792000000000000171e+01,4.075389289891823835e-02
2.796000000000000085e+01,3.627934083764754875e-02
2.800000000000000000e+01,4.957874731931245088e-02
2.803999999999999915e+01,5.700772882066961617e-02
2.807999999999999829e+01,3.753093716177506589e-02
2.812000000000000099e+01,4.691650208106546566e-02
2.816000000000000014e+01,5.418212815226750717e-02
2.819999999999999929e+01,5.998007348661461152e-02
2.823999999999999844e+01,5.061290180719291848e-02
2.828000000000000114e+01,6.211791306873636759e-02
2.832000000000000028e+01,7.443814734503827191e-02
2.835999999999999943e+01,5.838502100834363356e-02
2.839999999999999858e+01,6.043197538658447859e-02
2.844000000000000128e+01,5.220575039678697349e-02
2.848000000000000043e+01,6.077508700109266609e-02
2.851999999999999957e+01,5.988656633295852405e-02
2.855999999999999872e+01,6.649891739924042311e-02
2.860000000000000142e+01,6.022905085581933826e-02
2.864000000000000057e+01,6.015553692598193253e-02
2.867999999999999972e+01,3.839430965362306686e-02
2.871999999999999886e+01,5.495318121004109241e-02
2.876000000000000156e+01,4.900901442997398355e-02
2.880000000000000071e+01,3.279166176054718745e-02
2.883999999999999986e+01,4.869794680578710955e-02
2.887999999999999901e+01,4.454716197511143089e-02
2.892000000000000171e+01,4.822337177544284981e-02
2.896000000000000085e+01,2.743976310885814368e-02
2.900000000000000000e+01,2.638687137790225040e-02
2.903999999999999915e+01,2.647531903697468089e-02
2.907999999999999829e+01,2.688978181670294634e-02
2.912000000000000099e+01,2.208605888798420222e-02
2.916000000000000014e+01,2.885981454871810667e-02
2.919999999999999929e+01,1.932698284279948595e-02
2.923999999999999844e+01,3.115551081452435159e-02
2.928000000000000114e+01,2.015486161216518968e-02
2.932000000000000028e+01,7.360381966483474890e-03
2.935999999999999943e+01,1.054612442911610076e-02
2.939999999999999858e+01,2.188498224557321528e-02
2.944000000000000128e+01,2.115693078069192865e-02
2.948000000000000043e+01,2.091795189951012324e-02
2.951999999999999957e+01,9.427385832588470321e-03
2.955999999999999872e+01,1.489542650476230121e-02
2.960000000000000142e+01,2.395076705703006598e-02
2.964000000000000057e+01,8.709341533286438231e-03
2.967999999999999972e+01,2.233024432866867817e-02
2.971999999999999886e+01,1.100212076303210169e-02
2.976000000000000156e+01,0.000000000000000000e+00
2.980000000000000071e+01,2.373053490474397870e-02
2.983999999999999986e+01,1.973994122243961577e-02
2.987999999999999901e+01,1.998890118391524057e-02
2.992000000000000171e+01,1.648724332572465076e-02
2.996000000000000085e+01,1.885578475169379792e-02
3.000000000000000000e+01,1.453854214760226179e-02
3.003999999999999915e+01,2.473392695316765227e-02
3.007999999999999829e+01,3.150482045861426050e-02
3.012000000000000099e+01,2.131685109598440916e-02
3.016000000000000014e+01,6.073741894491048628e-03
3.019999999999999929e+01,2.099746926408691330e-02
3.023999999999999844e+01,1.635329624853296138e-02
3.028000000000000114e+01,1.333963428754684696e-02
3.032000000000000028e+01,1.260874149236212993e-02
3.035999999999999943e+01,1.432368184734383702e-02
3.039999999999999858e+01,1.848445462790071492e-02
3.044000000000000128e+01,1.726395307954283961e-02
3.048000000000000043e+01,1.620637658219041544e-02
3.051999999999999957e+01,2.542173636653803637e-02
3.055999999999999872e+01,1.409080171526845907e-02
3.060000000000000142e+01,1.335893131442883464e-02
3.064000000000000057e+01,1.637740666326653952e-02
3.067999999999999972e+01,1.825428576850368981e-02
3.071999999999999886e+01,1.442375605477476917e-02
3.076000000000000156e+01,1.695260526024901238e-02
3.080000000000000071e+01,2.372099144390422965e-02
3.083999999999999986e+01,1.989002536613291433e-02
3.087999999999999901e+01,2.567973021291541924e-02
3.092000000000000171e+01,1.190152235649671354e-02
3.096000000000000085e+01,1.230979582622344221e-02
3.100000000000000000e+01,2.592616164376712606e-02
3.103999999999999915e+01,3.089994808440264806e-02
3.107999999999999829e+01,2.772034855040744414e-02
3.112000000000000099e+01,3.253076850385629160e-02
3.116000000000000014e+01,2.184988913046180883e-02
3.119999999999999929e+01,2.046354546697868454e-02
3.123999999999999844e+01,3.244835451272103100e-02
3.128000000000000114e+01,4.394381528181885016e-02
3.132000000000000028e+01,2.005407933304921911e-02
3.135999999999999943e+01,1.801485878545489375e-02
3.139999999999999858e+01,2.510710561585938888e-02
3.144000000000000128e+01,2.241531286074952001e-02
3.148000000000000043e+01,2.885498603445589560e-02
3.151999999999999957e+01,2.844578293467744240e-02
3.155999999999999872e+01,2.836255003089669172e-02
3.160000000000000142e+01,3.675852204633346665e-02
3.164000000000000057e+01,3.455512730851856285e-02
3.167999999999999972e+01,2.648124165259108098e-02
3.171999999999999886e+01,2.688655874210740815e-02
3.176000000000000156e+01,4.441350742715598210e-02
3.180000000000000071e+01,4.710140402772605012e-02
3.183999999999999986e+01,3.250427718488297507e-02
3.187999999999999901e+01,5.035686240568328087e-02
3.192000000000000171e+01,4.130360490547081015e-02
3.196000000000000085e+01,3.485921628073055528e-02
3.200000000000000000e+01,3.770934887407636354e-02
3.203999999999999915e+01,5.132158434152293142e-02
3.207999999999999829e+01,4.161539778662860095e-02
3.211999999999999744e+01,4.218211852978387411e-02
3.215999999999999659e+01,3.769366320451256192e-02
3.220000000000000284e+01,2.863922521309218358e-02
3.224000000000000199e+01,2.447655695039226142e-02
3.228000000000000114e+01,3.042372837842065650e-02
3.232000000000000028e+01,2.658684427992700355e-02
3.235999999999999943e+01,1.948849228856893573e-02
3.239999999999999858e+01,3.701273691126923809e-02
3.243999999999999773e+01,2.648967643057678970e-02
3.247999999999999687e+01,2.787016381617487062e-02
3.252000000000000313e+01,3.789290416434766551e-02
3.256000000000000227e+01,2.247737257865355803e-02
3.260000000000000142e+01,2.972765747658681623e-02
3.264000000000000057e+01,2.556323396170570930e-02
3.267999999999999972e+01,2.172476035426699342e-02
3.271999999999999886e+01,1.951675360132918910e-02
3.275999999999999801e+01,2.660325429924348048e-02
3.279999999999999716e+01,2.113359072328486327e-02
3.284000000000000341e+01,3.572070394010647132e-02
3.288000000000000256e+01,2.274969820990013769e-02
3.292000000000000171e+01,2.086690883069931488e-02
3.296000000000000085e+01,1.197215238377209896e-02
3.300000000000000000e+01,1.123044607745581590e-02
3.303999999999999915e+01,1.815259506029056821e-02
3.307999999999999829e+01,1.496454533145688721e-02
3.311999999999999744e+01,2.791971430831533332e-02
3.315999999999999659e+01,3.484130084822831264e-02
3.320000000000000284e+01,2.007509216680737271e-02
3.324000000000000199e+01,2.797468837555358578e-02
3.328000000000000114e+01,1.532794087647680950e-02
3.332000000000000028e+01,2.436860856464742250e-02
3.335999999999999943e+01,2.297294305109824630e-02
3.339999999999999858e+01,3.070870868598481879e-02
3.343999999999999773e+01,2.344232781919498854e-02
3.347999999999999687e+01,3.036238262930116699e-02
3.352000000000000313e+01,1.999738356316128549e-02
3.356000000000000227e+01,1.419800089631784862e-02
3.360000000000000142e+01,2.405263411320264499e-02
3.364000000000000057e+01,1.221946413824964543e-02
3.367999999999999972e+01,1.506192034410500612e-02
3.371999999999999886e+01,2.116547237924205904e-02
3.375999999999999801e+01,2.661656650412007330e-02
3.379999999999999716e+01,2.701245485232984730e-02
3.384000000000000341e+01,2.414684849779859255e-02
3.388000000000000256e+01,2.764056454435215304e-02
3.392000000000000171e+01,3.553682575992450632e-02
3.396000000000000085e+01,3.299674290490833134e-02
3.400000000000000000e+01,3.241323313538511941e-02
3.403999999999999915e+01,2.498080144312762180e-02
3.407999999999999829e+01,3.972496529775219193e-02
3.411999999999999744e+01,3.914084091473644944e-02
3.415999999999999659e+01,3.268618068895002421e-02
3.420000000000000284e+01,4.384230198549762120e-02
3.424000000000000199e+01,3.282141509446980659e-02
3.428000000000000114e+01,4.218340832884922426e-02
3.432000000000000028e+01,3.817388621010669308e-02
3.435999999999999943e+01,2.747850108085610546e-02
3.439999999999999858e+01,4.385164697044409421e-02
3.443999999999999773e+01,4.391811057192433754e-02
3.447999999999999687e+01,3.354822068312963285e-02
3.452000000000000313e+01,4.013684768411388687e-02
3.456000000000000227e+01,3.612605503668448598e-02
3.460000000000000142e+01,2.771230095658647891e-02
3.464000000000000057e+01,5.125901481646619878e-02
3.467999999999999972e+01,4.284482998089329114e-02
3.471999999999999886e+01,3.279978159113378089e-02
3.475999999999999801e+01,2.373290426589600571e-02
3.479999999999999716e+01,5.624730981068805369e-02
3.484000000000000341e+01,3.755917810482815866e-02
3.488000000000000256e+01,4.479811576001823531e-02
3.492000000000000171e+01,3.279519767079341203e-02
3.496000000000000085e+01,2.291189998582759610e-02
3.500000000000000000e+01,2.998711049554565050e-02
3.503999999999999915e+01,2.678902207966731702e-02
3.507999999999999829e+01,4.332154046154618188e-02
3.511999999999999744e+01,3.115444635659294498e-02
3.515999999999999659e+01,2.974939860762218849e-02
3.520000000000000284e+01,2.377831384815776855e-02
3.524000000000000199e+01,3.329815055522361567e-02
3.528000000000000114e+01,2.031483081742886665e-02
3.532000000000000028e+01,3.456309014182995520e-02
3.535999999999999943e+01,4.310385659467876052e-02
3.539999999999999858e+01,2.897839971993684122e-02
3.543999999999999773e+01,3.181144306937504912e-02
3.547999999999999687e+01,3.007844433618067637e-02
3.552000000000000313e+01,4.285797374364054557e-02
3.556000000000000227e+01,3.117756512662624852e-02
3.560000000000000142e+01,3.661871854438324136e-02
3.564000000000000057e+01,3.928753877966107561e-02
3.567999999999999972e+01,3.657498976456894507e-02
3.571999999999999886e+01,5.082093590151810780e-02
3.575999999999999801e+01,4.598807578659212802e-02
3.579999999999999716e+01,4.947127979984506513e-02
3.584000000000000341e+01,3.501712907473392145e-02
3.588000000000000256e+01,4.714228843171609784e-02
3.592000000000000171e+01,4.899413292209408438e-02
3.596000000000000085e+01,3.796362647797708184e-02
3.600000000000000000e+01,4.323935127793761268e-02
3.603999999999999915e+01,6.645195368694663263e-02
3.607999999999999829e+01,8.134801483846110237e-02
3.611999999999999744e+01,6.069572761220065615e-02
3.615999999999999659e+01,6.433983947050760099e-02
3.620000000000000284e+01,7.956130239020532680e-02
3.624000000000000199e+01,8.141121517640052818e-02
3.628000000000000114e+01,7.119409477615178117e-02
3.632000000000000028e+01,7.190206442769514483e-02
3.635999999999999943e+01,7.929544097357757448e-02
3.639999999999999858e+01,7.625242924880452910e-02
3.643999999999999773e+01,8.935257608864888290e-02
3.647999999999999687e+01,8.777665077579342723e-02
3.652000000000000313e+01,7.918869390658928031e-02
3.656000000000000227e+01,9.277728765960910340e-02
3.660000000000000142e+01,7.880769507861370982e-02
3.664000000000000057e+01,7.902448093180479416e-02
3.667999999999999972e+01,7.956714423331215369e-02
3.671999999999999886e+01,9.397005510191105970e-02
3.675999999999999801e+01,7.624896488735553868e-02
3.679999999999999716e+01,7.434489729818365145e-02
3.684000000000000341e+01,6.771169828132016233e-02
3.688000000000000256e+01,6.760083203015314346e-02
3.692000000000000171e+01,6.765277417079863798e-02
3.696000000000000085e+01,8.107576540411939869e-02
3.700000000000000000e+01,6.677749834855614686e-02
3.703999999999999915e+01,6.780705544396033180e-02
3.707999999999999829e+01,7.014087099550556093e-02
3.711999999999999744e+01,6.741942062930790514e-02
3.715999999999999659e+01,7.138336266562408938e-02
3.720000000000000284e+01,6.605235490215313754e-02
3.724000000000000199e+01,7.572303824878080791e-02
3.728000000000000114e+01,6.843472902549635473e-02
3.732000000000000028e+01,7.533278591834693949e-02
3.735999999999999943e+01,7.831702550860061840e-02
3.739999999999999858e+01,5.602597019840100528e-02
3.743999999999999773e+01,7.107646750234622446e-02
3.747999999999999687e+01,7.748426877019032322e-02
3.752000000000000313e+01,9.628472073269471465e-02
3.756000000000000227e+01,8.475486891873790229e-02
3.760000000000000142e+01,7.779056032036017754e-02
3.764000000000000057e+01,8.452341791451875586e-02
3.767999999999999972e+01,1.002245644168918703e-01
3.771999999999999886e+01,1.116857576774342858e-01
3.775999999999999801e+01,1.193961910984235458e-01
3.779999999999999716e+01,1.068863283506897160e-01
3.784000000000000341e+01,1.261738108666765612e-01
3.788000000000000256e+01,1.309482605782257003e-01
3.792000000000000171e+01,1.427342183429670952e-01
3.796000000000000085e+01,1.646299129064778821e-01
3.800000000000000000e+01,1.769045137604637885e-01
3.803999999999999915e+01,1.966798146207369147e-01
3.807999999999999829e+01,2.032465967252658212e-01
3.811999999999999744e+01,2.337836129914778738e-01
3.815999999999999659e+01,2.842142449708762730e-01
3.820000000000000284e+01,3.441023505656713999e-01
3.824000000000000199e+01,3.935540345586131528e-01
3.828000000000000114e+01,4.783904794418085138e-01
3.832000000000000028e+01,5.886647372443367665e-01
3.835999999999999943e+01,6.948620949205303043e-01
3.839999999999999858e+01,7.710552630217585302e-01
3.843999999999999773e+01,8.513247649952809804e-01
3.847999999999999687e+01,9.363228589523306944e-01
3.852000000000000313e+01,9.738688373023258738e-01
3.856000000000000227e+01,1.000000000000000000e+00
3.860000000000000142e+01,9.408480331635934446e-01
3.864000000000000057e+01,8.484305782255495698e-01
3.867999999999999972e+01,7.550344468346091853e-01
3.871999999999999886e+01,6.412549379003905647e-01
3.875999999999999801e+01,5.315517570417358506e-01
3.879999999999999716e+01,4.308168448027403508e-01
3.884000000000000341e+01,3.891110661083730937e-01
3.888000000000000256e+01,3.310985246962682149e-01
3.892000000000000171e+01,2.889029675062100289e-01
3.896000000000000085e+01,2.419782404851235358e-01
3.900000000000000000e+01,2.436465027371019498e-01
3.903999999999999915e+01,1.884048868428783441e-01
3.907999999999999829e+01,1.788210940113252045e-01
3.911999999999999744e+01,1.785316934206136186e-01
3.915999999999999659e+01,1.603048779504632759e-01
3.920000000000000284e+01,1.552860062869214353e-01
3.924000000000000199e+01,1.377108536903136615e-01
3.928000000000000114e+01,1.367680023392124911e-01
3.932000000000000028e+01,1.226166097700379654e-01
3.935999999999999943e+01,1.345552701166483622e-01
3.939999999999999858e+01,1.283934465273162406e-01
3.943999999999999773e+01,1.086969501282246120e-01
3.947999999999999687e+01,1.167211515607063654e-01
3.952000000000000313e+01,1.147981023312828891e-01
3.956000000000000227e+01,1.097765194915243103e-01
3.960000000000000142e+01,1.213872321005421973e-01
3.964000000000000057e+01,1.193002035678880496e-01
3.967999999999999972e+01,1.116686686167816245e-01
3.971999999999999886e+01,1.185495857242470502e-01
3.975999999999999801e+01,1.278761657029326149e-01
3.979999999999999716e+01,1.292122664550488242e-01
3.984000000000000341e+01,1.248407931813914767e-01
3.988000000000000256e+01,1.398737103366275991e-01
3.992000000000000171e+01,1.397412988974468806e-01
3.996000000000000085e+01,1.658619942141383585e-01
4.000000000000000000e+01,1.807309125021797358e-01
4.003999999999999915e+01,1.910337061041848528e-01
4.007999999999999829e+01,2.184579805867400137e-01
4.011999999999999744e+01,2.227267521130671113e-01
4.015999999999999659e+01,2.331916675706948439e-01
4.020000000000000284e+01,2.658330677127416775e-01
4.024000000000000199e+01,2.953759219264019409e-01
4.028000000000000114e+01,3.077966645168492277e-01
4.032000000000000028e+01,2.991817417445431504e-01
4.035999999999999943e+01,3.044270006015237229e-01
4.039999999999999858e+01,2.829293278331005412e-01
4.043999999999999773e+01,2.873586237075420047e-01
4.047999999999999687e+01,2.821667809478005662e-01
4.052000000000000313e+01,2.512103926426187406e-01
4.056000000000000227e+01,2.365601529781106993e-01
4.060000000000000142e+01,2.157131313937266093e-01
4.064000000000000057e+01,1.932351390156493431e-01
4.067999999999999972e+01,1.797253812014420471e-01
4.071999999999999886e+01,1.567575451144604948e-01
4.075999999999999801e+01,1.507481128810212456e-01
4.079999999999999716e+01,1.378896362689246979e-01
4.084000000000000341e+01,1.305750324342524471e-01
4.088000000000000256e+01,1.216294534583394760e-01
4.092000000000000171e+01,1.108898339076382911e-01
4.096000000000000085e+01,1.017805319456382834e-01
4.100000000000000000e+01,9.479074097461689941e-02
4.103999999999999915e+01,9.367094857597596524e-02
4.107999999999999829e+01,8.863727148775087106e-02
4.111999999999999744e+01,1.012142505675717036e-01
4.115999999999999659e+01,8.248247240398057234e-02
4.120000000000000284e+01,9.489571980261926609e-02
4.124000000000000199e+01,8.529489691916805616e-02
4.128000000000000114e+01,8.074874471576873325e-02
4.132000000000000028e+01,7.718064474392428986e-02
4.135999999999999943e+01,8.078705521937998291e-02
4.139999999999999858e+01,6.906504558158590990e-02
4.143999999999999773e+01,7.935643345692568185e-02
4.147999999999999687e+01,7.187342913548977474e-02
4.152000000000000313e+01,7.238025590777014129e-02
4.156000000000000227e+01,8.479046606412471432e-02
4.160000000000000142e+01,7.730644063349906281e-02
4.164000000000000057e+01,7.112659105561067174e-02
4.167999999999999972e+01,5.793461644910102154e-02
4.171999999999999886e+01,6.512538719402412302e-02
4.175999999999999801e+01,5.193272532673327835e-02
4.179999999999999716e+01,6.499313688411664791e-02
4.184000000000000341e+01,5.522414374576015833e-02
4.188000000000000256e+01,6.127208120969723781e-02
4.192000000000000171e+01,4.514287136453677685e-02
4.196000000000000085e+01,4.858107897848039369e-02
4.200000000000000000e+01,3.424488497596202274e-02
4.203999999999999915e+01,3.963917169232146487e-02
4.207999999999999829e+01,5.449086173872545041e-02
4.211999999999999744e+01,5.450331275610562770e-02
4.215999999999999659e+01,4.277475349003896643e-02
4.220000000000000284e+01,3.919907770859328705e-02
4.224000000000000199e+01,5.127726129916358039e-02
4.228000000000000114e+01,4.704862058173900352e-02
4.232000000000000028e+01,5.358189651846122920e-02
4.235999999999999943e+01,3.337220532480780766e-02
4.239999999999999858e+01,4.202461203025934650e-02
4.243999999999999773e+01,5.948215670860920040e-02
4.247999999999999687e+01,4.905527912011610481e-02
4.252000000000000313e+01,4.140014382395861697e-02
4.256000000000000227e+01,4.010417369258229697e-02
4.260000000000000142e+01,3.701413255358480814e-02
4.264000000000000057e+01,3.946793158540492369e-02
4.267999999999999972e+01,5.415122313065642151e-02
4.271999999999999886e+01,5.220155297949681528e-02
4.275999999999999801e+01,3.965231463871492917e-02
4.279999999999999716e+01,4.879031975705162838e-02
4.284000000000000341e+01,4.602423756493383145e-02
4.288000000000000256e+01,4.749747352443623588e-02
4.292000000000000171e+01,4.146936786611959275e-02
4.296000000000000085e+01,4.783381435805180576e-02
4.300000000000000000e+01,5.012127667106314188e-02
4.303999999999999915e+01,4.979933646116830454e-02
4.307999999999999829e+01,4.719412242168852245e-02
4.311999999999999744e+01,3.741369255934583887e-02
4.315999999999999659e+01,3.969968180638322464e-02
4.320000000000000284e+01,4.720337166204810475e-02
4.324000000000000199e+01,3.888941394639654908e-02
4.328000000000000114e+01,3.840219073348950796e-02
4.332000000000000028e+01,4.476331304499837904e-02
4.335999999999999943e+01,3.269775026811744256e-02
4.339999999999999858e+01,4.606990838747925671e-02
4.343999999999999773e+01,3.612343870058212780e-02
4.347999999999999687e+01,4.982097666222667920e-02
4.352000000000000313e+01,5.145135028640913932e-02
4.356000000000000227e+01,4.378665890079393858e-02
4.360000000000000142e+01,5.943984357203425939e-02
4.364000000000000057e+01,5.242665564988418375e-02
4.367999999999999972e+01,5.845826567116516742e-02
4.371999999999999886e+01,5.698851958280187757e-02
4.375999999999999801e+01,5.258322851097732564e-02
4.379999999999999716e+01,5.845063315655420200e-02
4.384000000000000341e+01,5.942571486201261161e-02
4.388000000000000256e+01,6.561848485804704090e-02
4.392000000000000171e+01,6.854957755434275268e-02
4.396000000000000085e+01,7.979658656220021962e-02
4.400000000000000000e+01,7.098625179864551105e-02
4.403999999999999915e+01,7.293780253181329776e-02
4.407999999999999829e+01,6.657266708923441356e-02
4.411999999999999744e+01,7.847039230618182981e-02
4.415999999999999659e+01,7.569190624890730079e-02
4.420000000000000284e+01,8.595820871537739050e-02
4.424000000000000199e+01,8.692943385399841405e-02
4.428000000000000114e+01,9.686882834327603664e-02
4.432000000000000028e+01,9.930685585404044891e-02
4.435999999999999943e+01,1.064733688334171535e-01
4.439999999999999858e+01,1.384253257584301400e-01
4.443999999999999773e+01,1.278170011055684285e-01
4.447999999999999687e+01,1.398742777327296460e-01
4.452000000000000313e+01,1.468761543927647184e-01
4.456000000000000227e+01,1.791526662269397330e-01
4.460000000000000142e+01,1.820771350103289610e-01
4.464000000000000057e+01,2.047320374141641253e-01
4.467999999999999972e+01,1.980348953180309513e-01
4.471999999999999886e+01,2.118835089379423053e-01
4.475999999999999801e+01,2.307867301984656561e-01
4.479999999999999716e+01,2.319154991211388461e-01
4.484000000000000341e+01,2.351637094740295086e-01
4.488000000000000256e+01,2.385745840250718397e-01
4.492000000000000171e+01,2.372561807809878409e-01
4.496000000000000085e+01,2.387094756291725517e-01
4.500000000000000000e+01,2.236928321882004633e-01
4.503999999999999915e+01,1.946522203678235918e-01
4.507999999999999829e+01,1.804500929287021216e-01
4.511999999999999744e+01,1.727701489894773734e-01
4.515999999999999659e+01,1.557951110568045194e-01
4.520000000000000284e+01,1.388196668165969927e-01
4.524000000000000199e+01,1.185825213651391513e-01
4.528000000000000114e+01,1.203587038660540592e-01
4.532000000000000028e+01,9.001073022128477930e-02
4.535999999999999943e+01,8.868786556482331773e-02
4.539999999999999858e+01,8.883217335847687357e-02
4.543999999999999773e+01,7.919218795967485069e-02
4.547999999999999687e+01,7.428066774092982605e-02
4.552000000000000313e+01,5.876952933576553434e-02
4.556000000000000227e+01,5.141121354955636297e-02
4.560000000000000142e+01,5.726072563535392068e-02
4.564000000000000057e+01,5.251061736095850169e-02
4.567999999999999972e+01,4.025911747194702017e-02
4.571999999999999886e+01,3.876947264682520378e-02
4.575999999999999801e+01,4.217135263857771377e-02
4.579999999999999716e+01,3.578893291655330100e-02
4.584000000000000341e+01,4.163594846525073279e-02
4.588000000000000256e+01,3.150220391065224751e-02
4.592000000000000171e+01,4.240338746122907648e-02
4.596000000000000085e+01,4.025897422053952707e-02
4.600000000000000000e+01,4.023398139692095643e-02
4.603999999999999915e+01,3.564275519857702801e-02
4.607999999999999829e+01,3.594304802037737862e-02
4.611999999999999744e+01,3.379694723470073187e-02
4.615999999999999659e+01,3.001977566173686177e-02
4.620000000000000284e+01,2.575298553958819611e-02
4.624000000000000199e+01,2.654077624817496525e-02
4.628000000000000114e+01,2.129474685388280802e-02
4.632000000000000028e+01,3.806202657259066813e-02
4.635999999999999943e+01,4.276209050785681476e-02
4.639999999999999858e+01,3.131832021118455961e-02
4.643999999999999773e+01,2.949493897306556742e-02
4.647999999999999687e+01,2.897564591214140534e-02
4.652000000000000313e+01,2.992350501277691796e-02
4.656000000000000227e+01,3.184932142351227374e-02
4.660000000000000142e+01,1.632678230770299999e-02
4.664000000000000057e+01,2.412206417981346829e-02
4.667999999999999972e+01,1.691495971054020331e-02
4.671999999999999886e+01,2.161114515306854569e-02
4.675999999999999801e+01,2.924206079021504992e-02
4.679999999999999716e+01,2.741478801671562784e-02
4.684000000000000341e+01,2.623933806326465834e-02
4.688000000000000256e+01,2.538958078735852400e-02
4.692000000000000171e+01,2.405019191962487479e-02
4.696000000000000085e+01,1.651390592200462429e-02
4.700000000000000000e+01,2.577284603273381075e-02
4.703999999999999915e+01,2.850875814648152345e-02
4.707999999999999829e+01,2.749374159091215811e-02
4.711999999999999744e+01,1.995569558917870481e-02
4.715999999999999659e+01,3.280029639446657014e-02
4.720000000000000284e+01,2.297846011774187444e-02
4.724000000000000199e+01,3.109329856451263988e-02
4.728000000000000114e+01,3.235897524884184112e-02
4.732000000000000028e+01,2.938452478943777424e-02
4.735999999999999943e+01,3.048624661847653544e-02
4.739999999999999858e+01,3.729478710092905963e-02
4.743999999999999773e+01,2.078462731799651103e-02
4.747999999999999687e+01,3.248421457525382805e-02
4.752000000000000313e+01,1.401638234178231857e-02
4.756000000000000227e+01,3.191153114712928784e-02
4.760000000000000142e+01,1.849780604987127930e-02
4.764000000000000057e+01,3.084785446009477572e-02
4.767999999999999972e+01,2.950001608580278198e-02
4.771999999999999886e+01,3.418511998610691133e-02
4.775999999999999801e+01,3.446702406321767304e-02
4.779999999999999716e+01,2.773669224924427482e-02
4.784000000000000341e+01,2.279961810323145877e-02
4.788000000000000256e+01,3.253791290812948350e-02
4.792000000000000171e+01,2.140346938689068751e-02
4.796000000000000085e+01,2.298761685990548947e-02
4.800000000000000000e+01,2.799566619207808846e-02
4.803999999999999915e+01,3.284019306178027203e-02
4.807999999999999829e+01,2.056246701297368557e-02
4.811999999999999744e+01,2.230784673170550098e-02
4.815999999999999659e+01,3.334745493365398605e-02
4.820000000000000284e+01,1.748092550594662273e-02
4.824000000000000199e+01,2.085557035860296365e-02
4.828000000000000114e+01,1.950087655046713747e-02
4.832000000000000028e+01,2.417911414805850451e-02
4.835999999999999943e+01,2.510639988941245834e-02
4.839999999999999858e+01,2.798999786340559959e-02
4.843999999999999773e+01,2.369828364389817144e-02
4.847999999999999687e+01,2.853772740192108207e-02
4.852000000000000313e+01,3.093073407699140423e-02
4.856000000000000227e+01,1.538615559367669319e-02
4.860000000000000142e+01,2.544226851869701642e-02
4.864000000000000057e+01,3.696549520194022248e-02
4.867999999999999972e+01,3.250791106049934209e-02
4.871999999999999886e+01,1.875516843698818784e-02
4.875999999999999801e+01,2.734182014432259139e-02
4.879999999999999716e+01,2.402427657710458700e-02
4.884000000000000341e+01,1.891254896602877905e-02
4.888000000000000256e+01,3.222666049707538505e-02
4.892000000000000171e+01,2.499414500511611126e-02
4.896000000000000085e+01,2.428374345229252634e-02
4.900000000000000000e+01,2.080076670350871834e-02
4.903999999999999915e+01,2.253538477302833090e-02
4.907999999999999829e+01,2.002984381679917894e-02
4.911999999999999744e+01,2.893835517002739388e-02
4.915999999999999659e+01,2.724718239903165320e-02
4.920000000000000284e+01,1.870681308521383521e-02
4.924000000000000199e+01,1.473177613091823310e-02
4.928000000000000114e+01,2.885644165492002797e-02
4.932000000000000028e+01,2.194527878313461480e-02
4.935999999999999943e+01,1.862105784336032938e-02
4.939999999999999858e+01,1.660087218561874869e-02
4.943999999999999773e+01,2.827763896599153753e-02
4.947999999999999687e+01,2.429970984776741103e-02
4.952000000000000313e+01,2.178887854675847294e-02
4.956000000000000227e+01,2.123433846524208982e-02
4.960000000000000142e+01,3.046319490852567730e-02
4.964000000000000057e+01,3.072300562205245236e-02
4.967999999999999972e+01,3.489588188877265629e-02
4.971999999999999886e+01,3.433939340941532387e-02
4.975999999999999801e+01,3.443467485494443314e-02
4.979999999999999716e+01,2.066896640366501850e-02
4.984000000000000341e+01,3.103634451778558914e-02
4.988000000000000256e+01,4.221855509197504353e-02
4.992000000000000171e+01,4.280106777470665119e-02
4.996000000000000085e+01,4.436147617728088827e-02
5.000000000000000000e+01,4.804123253780005071e-02
5.003999999999999915e+01,2.628240031807131671e-02
5.007999999999999829e+01,2.963503856993231905e-02
5.011999999999999744e+01,3.478089318805205332e-02
5.015999999999999659e+01,3.079462794777229270e-02
5.020000000000000284e+01,2.794931878874384878e-02
5.024000000000000199e+01,2.640802969533165637e-02
5.028000000000000114e+01,3.122576592058732073e-02
5.032000000000000028e+01,2.919428531446563446e-02
5.035999999999999943e+01,1.917213418968173599e-02
5.039999999999999858e+01,1.893336509787258218e-02
5.043999999999999773e+01,2.162925953828562925e-02
5.047999999999999687e+01,2.840126974902313847e-02
5.052000000000000313e+01,2.832405950542696282e-02
5.056000000000000227e+01,2.547424580681137418e-02
5.060000000000000142e+01,2.555909274205292112e-02
5.064000000000000057e+01,1.993617001188056556e-02
5.067999999999999972e+01,1.724790646638281813e-02
5.071999999999999886e+01,1.651591312723107996e-02
5.075999999999999801e+01,2.230600112060828616e-02
5.079999999999999716e+01,2.206218713229412057e-02
5.084000000000000341e+01,2.817738831837020633e-02
5.088000000000000256e+01,1.553963877498700658e-02
5.092000000000000171e+01,2.491511501660882352e-02
5.096000000000000085e+01,1.504844495272025275e-02
5.100000000000000000e+01,1.887869906788684077e-02
5.103999999999999915e+01,2.923102944344353402e-02
5.107999999999999829e+01,1.985201721284741636e-02
5.111999999999999744e+01,2.205008577110175935e-02
5.115999999999999659e+01,1.397456339348160902e-02
5.120000000000000284e+01,2.628161463916541679e-02
5.124000000000000199e+01,1.836812625346264868e-02
5.128000000000000114e+01,2.431462168363245774e-02
5.132000000000000028e+01,2.716237047363646157e-02
5.135999999999999943e+01,2.283475417497791288e-02
5.139999999999999858e+01,3.481309015276143337e-02
5.143999999999999773e+01,1.662393562987252507e-02
5.147999999999999687e+01,1.963267320292990184e-02
5.152000000000000313e+01,1.725975458747805794e-02
5.156000000000000227e+01,2.303954990229219527e-02
5.160000000000000142e+01,2.376381699732707173e-02
5.164000000000000057e+01,2.530288467041534942e-02
5.167999999999999972e+01,2.912433457757184971e-02
5.171999999999999886e+01,1.647572446423978959e-02
5.175999999999999801e+01,1.866547772542245451e-02
5.179999999999999716e+01,1.971325215881891690e-02
5.184000000000000341e+01,2.271727651000605627e-02
5.188000000000000256e+01,1.381704979311374273e-02
5.192000000000000171e+01,2.154889535088961097e-02
5.196000000000000085e+01,2.650811209295199367e-02
5.200000000000000000e+01,2.641179336932248517e-02
5.203999999999999915e+01,2.778252681365867005e-02
5.207999999999999829e+01,2.540224101477028124e-02
5.211999999999999744e+01,1.894480583015353825e-02
5.215999999999999659e+01,1.346522651286007413e-02
5.220000000000000284e+01,2.478077910705217546e-02
5.224000000000000199e+01,2.093077993271911033e-02
5.228000000000000114e+01,1.805863445193550687e-02
5.232000000000000028e+01,2.236080088044659769e-02
5.235999999999999943e+01,2.177049003090066395e-02
5.239999999999999858e+01,2.656077784294849295e-02
5.243999999999999773e+01,2.971988110688120188e-02
5.247999999999999687e+01,2.293149894134021566e-02
5.252000000000000313e+01,1.891467792031963080e-02
5.256000000000000227e+01,1.995232324461529774e-02
5.260000000000000142e+01,1.723893990599991224e-02
5.264000000000000057e+01,3.164680992627871142e-02
5.267999999999999972e+01,3.023686137170351895e-02
5.271999999999999886e+01,2.556507610731218252e-02
5.275999999999999801e+01,2.219726525928765459e-02
5.279999999999999716e+01,1.817665159556409310e-02
5.284000000000000341e+01,3.095115824986586356e-02
5.288000000000000256e+01,2.154831905706471387e-02
5.292000000000000171e+01,2.241801037485755682e-02
5.296000000000000085e+01,1.774295470989957491e-02
5.300000000000000000e+01,1.844848683766639810e-02
5.303999999999999915e+01,1.719669413053683676e-02
5.307999999999999829e+01,1.969484067738727986e-02
5.311999999999999744e+01,2.154017861180855878e-02
5.315999999999999659e+01,2.925529556745827889e-02
5.320000000000000284e+01,1.854354918526802953e-02
5.324000000000000199e+01,2.544223941997174332e-02
5.328000000000000114e+01,2.761150041997565904e-02
5.332000000000000028e+01,3.238924336371852564e-02
5.335999999999999943e+01,2.281673779516192949e-02
5.339999999999999858e+01,2.058158928089225126e-02
5.343999999999999773e+01,3.318477370830440198e-02
5.347999999999999687e+01,2.458898967348200834e-02
5.352000000000000313e+01,3.425589601923956923e-02
5.356000000000000227e+01,2.435447954314233845e-02
5.360000000000000142e+01,2.782381072975587469e-02
5.364000000000000057e+01,1.873660013044960160e-02
5.367999999999999972e+01,2.774901230440203828e-02
5.371999999999999886e+01,3.219505198210707159e-02
5.375999999999999801e+01,2.832423013298029923e-02
5.379999999999999716e+01,2.314832851754796902e-02
5.384000000000000341e+01,2.726655249337337980e-02
5.388000000000000256e+01,2.241565393276824525e-02
5.392000000000000171e+01,2.685887951423828607e-02
5.396000000000000085e+01,2.592040470713222883e-02
5.400000000000000000e+01,2.759039952571365473e-02
5.403999999999999915e+01,2.387869250653645858e-02
5.407999999999999829e+01,1.837270652204625945e-02
5.411999999999999744e+01,2.525907052684316437e-02
5.415999999999999659e+01,2.350243634098317033e-02
5.420000000000000284e+01,3.593186249374617086e-02
5.424000000000000199e+01,2.797762996182183090e-02
5.428000000000000114e+01,2.736073854317658607e-02
5.432000000000000028e+01,2.837392269975144363e-02
5.435999999999999943e+01,2.857121107261183235e-02
5.439999999999999858e+01,3.186615595211576141e-02
5.443999999999999773e+01,2.863793878525489750e-02
5.447999999999999687e+01,2.345237069821217921e-02
5.452000000000000313e+01,2.169058636195176498e-02
5.456000000000000227e+01,3.525630880568650372e-02
5.460000000000000142e+01,3.202578964044940080e-02
5.464000000000000057e+01,2.797936961935902633e-02
5.467999999999999972e+01,2.719366574172958281e-02
5.471999999999999886e+01,2.999480670088230938e-02
5.475999999999999801e+01,3.312149759310149821e-02
5.479999999999999716e+01,2.238710801460450789e-02
5.484000000000000341e+01,1.947924353197768438e-02
5.488000000000000256e+01,2.162580336837400738e-02
5.492000000000000171e+01,2.833759267233345105e-02
5.496000000000000085e+01,2.966766347293531281e-02
5.500000000000000000e+01,2.773585626201915261e-02
5.503999999999999915e+01,2.352055856873107656e-02
5.507999999999999829e+01,2.941468754915269046e-02
5.511999999999999744e+01,3.367758343384473496e-02
5.515999999999999659e+01,3.728763375195332658e-02
5.520000000000000284e+01,2.883030815195159954e-02
5.524000000000000199e+01,3.667886526763095012e-02
5.528000000000000114e+01,2.707890962046215558e-02
5.532000000000000028e+01,3.378483523979192854e-02
5.535999999999999943e+01,3.347838802028923338e-02
5.539999999999999858e+01,2.925779670753105716e-02
5.543999999999999773e+01,2.992855486056213155e-02
5.547999999999999687e+01,2.554371450846161171e-02
5.552000000000000313e+01,2.882232222522358028e-02
5.556000000000000227e+01,2.655613586080281599e-02
5.560000000000000142e+01,2.706145484737533524e-02
5.564000000000000057e+01,2.805537253496279138e-02
5.567999999999999972e+01,2.937482349001776030e-02
5.571999999999999886e+01,3.477029529394196072e-02
5.575999999999999801e+01,3.087048108773400579e-02
5.579999999999999716e+01,4.066750410962992335e-02
5.584000000000000341e+01,3.350519835126873625e-02
5.588000000000000256e+01,3.221262234193023738e-02
5.592000000000000171e+01,3.124557525251162732e-02
5.596000000000000085e+01,2.995179752259675282e-02
5.600000000000000000e+01,2.849435313655056604e-02
5.603999999999999915e+01,2.768856491456296240e-02
5.607999999999999829e+01,4.106880297540908831e-02
5.611999999999999744e+01,4.042487194507120990e-02
5.615999999999999659e+01,3.505145950946279149e-02
5.620000000000000284e+01,3.179728272015392571e-02
5.624000000000000199e+01,2.805330550925371619e-02
5.628000000000000114e+01,3.947373921196824231e-02
5.632000000000000028e+01,4.159887676027292785e-02
5.635999999999999943e+01,3.915759398930703655e-02
5.639999999999999858e+01,3.720489615212206613e-02
5.643999999999999773e+01,3.720836490473283797e-02
5.647999999999999687e+01,4.030945248524165497e-02
5.652000000000000313e+01,3.982250510185207648e-02
5.656000000000000227e+01,3.998720446283467178e-02
5.660000000000000142e+01,3.998822629881707003e-02
5.664000000000000057e+01,4.488057586285086609e-02
5.667999999999999972e+01,3.852084624367883847e-02
5.671999999999999886e+01,4.781471369448636599e-02
5.675999999999999801e+01,3.754020035613820500e-02
5.679999999999999716e+01,4.259315322067463300e-02
5.684000000000000341e+01,4.079677114545815497e-02
5.688000000000000256e+01,4.682687721195757241e-02
5.692000000000000171e+01,3.573457022527953830e-02
5.696000000000000085e+01,4.094811479685841332e-02
5.700000000000000000e+01,3.490957438850136180e-02
5.703999999999999915e+01,4.142639578322556554e-02
5.707999999999999829e+01,3.636500133091884884e-02
5.711999999999999744e+01,3.586879649365597861e-02
5.715999999999999659e+01,4.156842763640797994e-02
5.720000000000000284e+01,3.862500551956723344e-02
5.724000000000000199e+01,4.464951798581456854e-02
5.728000000000000114e+01,3.648677563877517765e-02
5.732000000000000028e+01,3.957487235102839090e-02
5.735999999999999943e+01,3.434604232323633377e-02
5.739999999999999858e+01,3.368239683834933773e-02
5.743999999999999773e+01,3.807312929864471035e-02
5.747999999999999687e+01,2.892886215852195214e-02
5.752000000000000313e+01,3.739495410402821768e-02
5.756000000000000227e+01,3.509814505218952080e-02
5.760000000000000142e+01,3.394215803221890121e-02
5.764000000000000057e+01,4.191716305837998174e-02
5.767999999999999972e+01,3.994458845820346438e-02
5.771999999999999886e+01,3.307943948474096479e-02
5.775999999999999801e+01,3.436689212989903902e-02
5.779999999999999716e+01,4.315468683326154770e-02
5.784000000000000341e+01,4.509312848208961444e-02
5.788000000000000256e+01,4.898771063542802645e-02
5.792000000000000171e+01,4.016260876262554153e-02
5.796000000000000085e+01,3.851171663174993154e-02
5.800000000000000000e+01,3.653405690622377883e-02
5.803999999999999915e+01,3.781705245849270591e-02
5.807999999999999829e+01,3.779489071319121901e-02
5.811999999999999744e+01,4.250096517710829497e-02
5.815999999999999659e+01,4.427123380471018749e-02
5.820000000000000284e+01,4.245343703558079190e-02
5.824000000000000199e+01,3.721063885408502220e-02
5.828000000000000114e+01,3.963123874465475371e-02
5.832000000000000028e+01,4.090974169906277935e-02
5.835999999999999943e+01,4.381824704497350870e-02
5.839999999999999858e+01,3.906206564729108877e-02
5.843999999999999773e+01,4.832880307260179614e-02
5.847999999999999687e+01,5.156149939469906879e-02
5.852000000000000313e+01,4.908628330690403135e-02
5.856000000000000227e+01,4.155541292045031310e-02
5.860000000000000142e+01,3.842664063020764104e-02
5.864000000000000057e+01,4.687481290565841119e-02
5.867999999999999972e+01,4.423393447729652428e-02
5.871999999999999886e+01,3.816804594147317486e-02
5.875999999999999801e+01,4.009167620053260411e-02
5.879999999999999716e+01,4.315610675372227867e-02
5.884000000000000341e+01,4.132794264507071852e-02
5.888000000000000256e+01,4.863074812022175064e-02
5.892000000000000171e+01,3.930029843950096080e-02
5.896000000000000085e+01,3.486113446053852594e-02
5.900000000000000000e+01,4.314036148864174719e-02
5.903999999999999915e+01,3.592778414979298091e-02
5.907999999999999829e+01,3.980294927926513598e-02
5.911999999999999744e+01,3.519809107772041423e-02
5.915999999999999659e+01,4.461613865652602762e-02
5.920000000000000284e+01,3.413963182819663295e-02
5.924000000000000199e+01,3.377247631608582684e-02
5.928000000000000114e+01,3.585063007465984913e-02
5.932000000000000028e+01,3.662360407333439816e-02
5.935999999999999943e+01,2.777509743075084678e-02
5.939999999999999858e+01,3.490626872844485723e-02
5.943999999999999773e+01,3.306821677152313455e-02
5.947999999999999687e+01,3.563224696980463180e-02
5.952000000000000313e+01,3.297754077028101916e-02
5.956000000000000227e+01,3.097442697078497606e-02
5.960000000000000142e+01,4.152662860052953181e-02
5.964000000000000057e+01,3.446717377802228921e-02
5.967999999999999972e+01,3.572335050271129714e-02
5.971999999999999886e+01,3.078239895290150671e-02
5.975999999999999801e+01,3.660304813544880409e-02
5.979999999999999716e+01,2.709494389276638146e-02
5.984000000000000341e+01,3.454489787359495134e-02
5.988000000000000256e+01,2.764448523374858635e-02
5.992000000000000171e+01,3.346244693536897657e-02
5.996000000000000085e+01,2.900665829103738977e-02
