2.003999999999999915e+01,5.345578189970374289e-02
2.007999999999999829e+01,5.532651689543976320e-02
2.012000000000000099e+01,5.589755705499353106e-02
2.016000000000000014e+01,5.386860387350808632e-02
2.019999999999999929e+01,7.023015674561818023e-02
2.023999999999999844e+01,3.922435990712298121e-02
2.028000000000000114e+01,4.815683650362714840e-02
2.032000000000000028e+01,4.018604993072449200e-02
2.035999999999999943e+01,5.766451423672248888e-02
2.039999999999999858e+01,4.412220611553983179e-02
2.044000000000000128e+01,5.993003458423539626e-02
2.048000000000000043e+01,5.976337528647097941e-02
2.051999999999999957e+01,5.625367840457229374e-02
2.055999999999999872e+01,4.475702574876363332e-02
2.060000000000000142e+01,5.518023587347255926e-02
2.064000000000000057e+01,4.888592379220665224e-02
2.067999999999999972e+01,5.522363811190655891e-02
2.071999999999999886e+01,4.540109625168631952e-02
2.076000000000000156e+01,4.802482022183671151e-02
2.080000000000000071e+01,4.860578942697571514e-02
2.083999999999999986e+01,4.231432902816474606e-02
2.087999999999999901e+01,5.831423098318217618e-02
2.092000000000000171e+01,6.001143344632158677e-02
2.096000000000000085e+01,4.647715121105510522e-02
2.100000000000000000e+01,3.628704723290470530e-02
2.103999999999999915e+01,5.191767409980263537e-02
2.107999999999999829e+01,4.414351782300072330e-02
2.112000000000000099e+01,4.119958711446510685e-02
2.116000000000000014e+01,3.918499038106942889e-02
2.119999999999999929e+01,4.850209801519104330e-02
2.123999999999999844e+01,5.577642931642169677e-02
2.128000000000000114e+01,5.302044641006279507e-02
2.132000000000000028e+01,4.227747047618413134e-02
2.135999999999999943e+01,6.088458603570883615e-02
2.139999999999999858e+01,6.927562485633242950e-02
2.144000000000000128e+01,6.002031901084363408e-02
2.148000000000000043e+01,2.828899366030377879e-02
2.151999999999999957e+01,3.761042085753226599e-02
2.155999999999999872e+01,5.176205205514788216e-02
2.160000000000000142e+01,3.730768844320499211e-02
2.164000000000000057e+01,5.313218584546321177e-02
2.167999999999999972e+01,3.552101163850837628e-02
2.171999999999999886e+01,4.930323441929642531e-02
2.176000000000000156e+01,2.203375905378092761e-02
2.180000000000000071e+01,4.974877119819864218e-02
2.183999999999999986e+01,4.309932064472601215e-02
2.187999999999999901e+01,2.214712354218455539e-02
2.192000000000000171e+01,2.998772053553104555e-02
2.196000000000000085e+01,3.634277585058050958e-02
2.200000000000000000e+01,3.638261464839461640e-02
2.203999999999999915e+01,4.125263391800025603e-02
2.207999999999999829e+01,7.082879315905618589e-02
2.212000000000000099e+01,2.405947326650897597e-02
2.216000000000000014e+01,5.177907139949854826e-02
2.219999999999999929e+01,2.711579421939987189e-02
2.223999999999999844e+01,6.579603219366239597e-02
2.228000000000000114e+01,6.435332977812162347e-02
2.232000000000000028e+01,4.247788982327371093e-02
2.235999999999999943e+01,3.100531412935853687e-02
2.239999999999999858e+01,4.368159277367618387e-02
2.244000000000000128e+01,4.781355354293061188e-02
2.248000000000000043e+01,4.135787133561937695e-02
2.251999999999999957e+01,3.360237664914530326e-02
2.255999999999999872e+01,4.219394919321869247e-02
2.260000000000000142e+01,4.149816942271417758e-02
2.264000000000000057e+01,4.396073087079512692e-02
2.267999999999999972e+01,3.676442278454088164e-02
2.271999999999999886e+01,3.941369136528537209e-02
2.276000000000000156e+01,4.076313570256930724e-02
2.280000000000000071e+01,5.530177247034238214e-02
2.283999999999999986e+01,4.272040683965080271e-02
2.287999999999999901e+01,3.385464061073422543e-02
2.292000000000000171e+01,4.412227370335415622e-02
2.296000000000000085e+01,4.751737327406042877e-02
2.300000000000000000e+01,3.921026448391478486e-02
2.303999999999999915e+01,6.749767415442102514e-02
2.307999999999999829e+01,4.953213479843929928e-02
2.312000000000000099e+01,4.568455543302808036e-02
2.316000000000000014e+01,6.598579315224015196e-02
2.319999999999999929e+01,6.771181668801047604e-02
2.323999999999999844e+01,5.123413737794777628e-02
2.328000000000000114e+01,4.367322403904373013e-02
2.332000000000000028e+01,5.505993376535096157e-02
2.335999999999999943e+01,6.403224994247866397e-02
2.339999999999999858e+01,5.182874904431000740e-02
2.344000000000000128e+01,3.405298763976889048e-02
2.348000000000000043e+01,5.045688668888926448e-02
2.351999999999999957e+01,5.088614895711095903e-02
2.355999999999999872e+01,4.890100787257192771e-02
2.360000000000000142e+01,5.286051068686310750e-02
2.364000000000000057e+01,2.449878571181687489e-02
2.367999999999999972e+01,5.149296939136262241e-02
2.371999999999999886e+01,3.204841602379705084e-02
2.376000000000000156e+01,5.105591231561391885e-02
2.380000000000000071e+01,4.405789904674919238e-02
2.383999999999999986e+01,4.133270806995559266e-02
2.387999999999999901e+01,3.545007145802103049e-02
2.392000000000000171e+01,5.427348462458730927e-02
2.396000000000000085e+01,5.322134980996545695e-02
2.400000000000000000e+01,3.768060787914864068e-02
2.403999999999999915e+01,1.508152283791573504e-02
2.407999999999999829e+01,3.390657815693288307e-02
2.412000000000000099e+01,4.808812288321259731e-02
2.416000000000000014e+01,5.818342500352542690e-02
2.419999999999999929e+01,3.985836151688281620e-02
2.423999999999999844e+01,5.664170447610398368e-02
2.428000000000000114e+01,3.757441194044183058e-02
2.432000000000000028e+01,4.321314957611732677e-02
2.435999999999999943e+01,7.021429573749130015e-02
2.439999999999999858e+01,3.498735634077430878e-02
2.444000000000000128e+01,5.065812876514236285e-02
2.448000000000000043e+01,5.704145672126654382e-02
2.451999999999999957e+01,6.769757363728448607e-02
2.455999999999999872e+01,5.011906394906277123e-02
2.460000000000000142e+01,6.727742976193344659e-02
2.464000000000000057e+01,4.524152274855108152e-02
2.467999999999999972e+01,5.329857108576892960e-02
2.471999999999999886e+01,4.259457408316345145e-02
2.476000000000000156e+01,5.250993940244388924e-02
2.480000000000000071e+01,4.199244561800698911e-02
2.483999999999999986e+01,6.119638604298026363e-02
2.487999999999999901e+01,5.272295412547060162e-02
2.492000000000000171e+01,4.573594182325602803e-02
2.496000000000000085e+01,2.017362906608286682e-02
2.500000000000000000e+01,3.362057513357393640e-02
2.503999999999999915e+01,3.740853598446806927e-02
2.507999999999999829e+01,3.599566923794645518e-02
2.512000000000000099e+01,2.548108330088242821e-02
2.516000000000000014e+01,9.394152546645108751e-03
2.519999999999999929e+01,3.194495751516585741e-02
2.523999999999999844e+01,2.440353605564602596e-02
2.528000000000000114e+01,4.212536765775989206e-02
2.532000000000000028e+01,3.718523487689582435e-02
2.535999999999999943e+01,2.462942433449078275e-02
2.539999999999999858e+01,1.820392610784491924e-02
2.544000000000000128e+01,3.499834995918143371e-02
2.548000000000000043e+01,2.281507551315383256e-02
2.551999999999999957e+01,4.202501178682072763e-02
2.555999999999999872e+01,3.968751180818640145e-02
2.560000000000000142e+01,3.865064146350777330e-02
2.564000000000000057e+01,2.869778308813736648e-02
2.567999999999999972e+01,1.503012089790574553e-02
2.571999999999999886e+01,3.851411574782106356e-02
2.576000000000000156e+01,2.800496904797383432e-02
2.580000000000000071e+01,3.922967358636308272e-02
2.583999999999999986e+01,3.225054783235999784e-02
2.587999999999999901e+01,3.623138374374244852e-02
2.592000000000000171e+01,1.829325245805204364e-02
2.596000000000000085e+01,3.546344330742493001e-02
2.600000000000000000e+01,2.272712712430965259e-02
2.603999999999999915e+01,3.543978339838090713e-02
2.607999999999999829e+01,2.604770798335188237e-02
2.612000000000000099e+01,2.984466225935929196e-02
2.616000000000000014e+01,2.175349662876487067e-02
2.619999999999999929e+01,4.264067194657709253e-02
2.623999999999999844e+01,2.934892553686871408e-02
2.628000000000000114e+01,3.946281667926274106e-02
2.632000000000000028e+01,2.468561463082288160e-02
2.635999999999999943e+01,7.679628628643853962e-03
2.639999999999999858e+01,5.457422381381814985e-02
2.644000000000000128e+01,4.239849648013088029e-02
2.648000000000000043e+01,3.598151522453791468e-02
2.651999999999999957e+01,2.362060918909292609e-02
2.655999999999999872e+01,2.389144132931796810e-02
2.660000000000000142e+01,2.230499104983068442e-02
2.664000000000000057e+01,2.201911942567539443e-02
2.667999999999999972e+01,0.000000000000000000e+00
2.671999999999999886e+01,4.559657905919550086e-02
2.676000000000000156e+01,3.509492630039705297e-02
2.680000000000000071e+01,2.143568477416821216e-02
2.683999999999999986e+01,7.776715555553054965e-03
2.687999999999999901e+01,4.891622818673901918e-02
2.692000000000000171e+01,2.169756231234853602e-02
2.696000000000000085e+01,3.757470546909616460e-02
2.700000000000000000e+01,2.001591624136321232e-02
2.703999999999999915e+01,2.549121401379831828e-02
2.707999999999999829e+01,2.725163934630168289e-02
2.712000000000000099e+01,9.879388397679059186e-03
2.716000000000000014e+01,3.541718002745074950e-02
2.719999999999999929e+01,4.330834464796304295e-02
2.723999999999999844e+01,4.358373935326839005e-02
2.728000000000000114e+01,4.293060155249635301e-02
2.732000000000000028e+01,3.261836677429837822e-02
2.735999999999999943e+01,2.212062216523999827e-02
2.739999999999999858e+01,2.982727403168104058e-02
2.744000000000000128e+01,2.545998659943646963e-02
2.748000000000000043e+01,2.759442282402823493e-02
2.751999999999999957e+01,1.375402619609174606e-02
2.755999999999999872e+01,2.350496102649843322e-02
2.760000000000000142e+01,4.235820671986627317e-02
2.764000000000000057e+01,5.712503922494938796e-02
2.767999999999999972e+01,3.789863606588762812e-02
2.771999999999999886e+01,3.910569348654353156e-02
2.776000000000000156e+01,3.659784513509058146e-02
2.780000000000000071e+01,2.888903585751356751e-02
2.783999999999999986e+01,6.817688210772626656e-02
2.787999999999999901e+01,5.749641106224741977e-02
2.792000000000000171e+01,5.777580168562308771e-02
2.796000000000000085e+01,6.102751610315447495e-02
2.800000000000000000e+01,7.616787151391954391e-02
2.803999999999999915e+01,6.028708000069130102e-02
2.807999999999999829e+01,5.722370880507614277e-02
2.812000000000000099e+01,5.787568015740094524e-02
2.816000000000000014e+01,6.911598811595771885e-02
2.819999999999999929e+01,7.236896580379152677e-02
2.823999999999999844e+01,6.633431471604953056e-02
2.828000000000000114e+01,9.763695183177389936e-02
2.832000000000000028e+01,7.024068757329555990e-02
2.835999999999999943e+01,7.275144163035569822e-02
2.839999999999999858e+01,1.200297439752285866e-01
2.844000000000000128e+01,1.203118079609801633e-01
2.848000000000000043e+01,1.256094933923615764e-01
2.851999999999999957e+01,1.374088515019558920e-01
2.855999999999999872e+01,1.514374773983118427e-01
2.860000000000000142e+01,1.812556045095672086e-01
2.864000000000000057e+01,1.709504794771277425e-01
2.867999999999999972e+01,2.100568052365468508e-01
2.871999999999999886e+01,2.510208776415375764e-01
2.876000000000000156e+01,2.351435935960700663e-01
2.880000000000000071e+01,2.348700443127580972e-01
2.883999999999999986e+01,2.383118022844927797e-01
2.887999999999999901e+01,2.434255424097715448e-01
2.892000000000000171e+01,2.388801071289726463e-01
2.896000000000000085e+01,2.161306886199100552e-01
2.900000000000000000e+01,1.915238700481573797e-01
2.903999999999999915e+01,1.882792305982963210e-01
2.907999999999999829e+01,1.528988533508438830e-01
2.912000000000000099e+01,1.258776858624836292e-01
2.916000000000000014e+01,1.326643871077458348e-01
2.919999999999999929e+01,1.143740973414384132e-01
2.923999999999999844e+01,1.174459768934411896e-01
2.928000000000000114e+01,1.058432338655352217e-01
2.932000000000000028e+01,7.900859634951708232e-02
2.935999999999999943e+01,7.836579514788213907e-02
2.939999999999999858e+01,6.341987878251449662e-02
2.944000000000000128e+01,6.779279879108919549e-02
2.948000000000000043e+01,6.380681248769477787e-02
2.951999999999999957e+01,4.626073173506825564e-02
2.955999999999999872e+01,4.617591498261131716e-02
2.960000000000000142e+01,2.194287085723374900e-02
2.964000000000000057e+01,4.916455360730964674e-02
2.967999999999999972e+01,4.759408883397257123e-02
2.971999999999999886e+01,3.692167938771903635e-02
2.976000000000000156e+01,4.649687387548969569e-02
2.980000000000000071e+01,3.823955725827903745e-02
2.983999999999999986e+01,6.397583269167628206e-02
2.987999999999999901e+01,3.825763960026815763e-02
2.992000000000000171e+01,2.182740029943810306e-02
2.996000000000000085e+01,2.118659554915344745e-02
3.000000000000000000e+01,3.169130715963808936e-02
3.003999999999999915e+01,2.900741212990351134e-02
3.007999999999999829e+01,3.282511331044606073e-02
3.012000000000000099e+01,2.624055366677248424e-02
3.016000000000000014e+01,2.262820997785817273e-02
3.019999999999999929e+01,2.607472656455925644e-02
3.023999999999999844e+01,3.137891528961268134e-02
3.028000000000000114e+01,3.618524149773956824e-03
3.032000000000000028e+01,1.616742760346848509e-02
3.035999999999999943e+01,4.859239228211793132e-02
3.039999999999999858e+01,3.977947865058122784e-02
3.044000000000000128e+01,3.412452389795214008e-02
3.048000000000000043e+01,2.178242365790788310e-02
3.051999999999999957e+01,1.519887146361197788e-02
3.055999999999999872e+01,1.047297572193815578e-02
3.060000000000000142e+01,2.710918263422036276e-02
3.064000000000000057e+01,3.408612982962409138e-02
3.067999999999999972e+01,3.233259859324492252e-02
3.071999999999999886e+01,2.835006968505017835e-02
3.076000000000000156e+01,1.953794805605002516e-02
3.080000000000000071e+01,1.072590462375030279e-02
3.083999999999999986e+01,2.401897867775834583e-02
3.087999999999999901e+01,2.115129852990665915e-02
3.092000000000000171e+01,3.964570535028074522e-02
3.096000000000000085e+01,1.374434337467998583e-02
3.100000000000000000e+01,2.573740622132457759e-02
3.103999999999999915e+01,4.480095300304884169e-03
3.107999999999999829e+01,2.576112150915761331e-02
3.112000000000000099e+01,4.091224080662155677e-02
3.116000000000000014e+01,3.340110945652826485e-02
3.119999999999999929e+01,1.753098748366503992e-02
3.123999999999999844e+01,1.150602454522926463e-02
3.128000000000000114e+01,3.594520673752944068e-02
3.132000000000000028e+01,3.549305064945845745e-02
3.135999999999999943e+01,4.209969797623035193e-02
3.139999999999999858e+01,2.808740603193339222e-02
3.144000000000000128e+01,3.320809577660161632e-02
3.148000000000000043e+01,3.554248064835743154e-02
3.151999999999999957e+01,6.332556935916694441e-02
3.155999999999999872e+01,4.076864709006091519e-02
3.160000000000000142e+01,5.146220400339612810e-02
3.164000000000000057e+01,5.695461176184268837e-02
3.167999999999999972e+01,4.647198275326594463e-02
3.171999999999999886e+01,4.694902914549543838e-02
3.176000000000000156e+01,5.764272238116534275e-02
3.180000000000000071e+01,7.520944081463631914e-02
3.183999999999999986e+01,6.937084867172349512e-02
3.187999999999999901e+01,7.003376450685444565e-02
3.192000000000000171e+01,5.063498552909193734e-02
3.196000000000000085e+01,7.451752714209267103e-02
3.200000000000000000e+01,5.846240856039222611e-02
3.203999999999999915e+01,5.949691911612627754e-02
3.207999999999999829e+01,7.817832679606571966e-02
3.211999999999999744e+01,6.286628117235130986e-02
3.215999999999999659e+01,8.229074047434900563e-02
3.220000000000000284e+01,5.583331700486767607e-02
3.224000000000000199e+01,7.061387726034941414e-02
3.228000000000000114e+01,5.102946307098733814e-02
3.232000000000000028e+01,6.525276271866035926e-02
3.235999999999999943e+01,4.213897761345875015e-02
3.239999999999999858e+01,4.503112315903946145e-02
3.243999999999999773e+01,3.231970798231201952e-02
3.247999999999999687e+01,1.199226603654271993e-02
3.252000000000000313e+01,5.184997230528561041e-02
3.256000000000000227e+01,3.783824224212016529e-02
3.260000000000000142e+01,4.203065376133544029e-02
3.264000000000000057e+01,1.891682585743077738e-02
3.267999999999999972e+01,1.902256514185863071e-02
3.271999999999999886e+01,3.770395342484302720e-02
3.275999999999999801e+01,2.554972006847334304e-02
3.279999999999999716e+01,2.008270624283499048e-02
3.284000000000000341e+01,2.817590600621986893e-02
3.288000000000000256e+01,1.713614714533207364e-02
3.292000000000000171e+01,2.708686391853032741e-02
3.296000000000000085e+01,2.867850379744157560e-02
3.300000000000000000e+01,2.934133078784484372e-02
3.303999999999999915e+01,2.368840010331478216e-02
3.307999999999999829e+01,2.695175501445054925e-02
3.311999999999999744e+01,2.817175125995525012e-02
3.315999999999999659e+01,2.641960363330056460e-02
3.320000000000000284e+01,3.376949236932529075e-02
3.324000000000000199e+01,2.440124127374154392e-02
3.328000000000000114e+01,3.342285507752379425e-02
3.332000000000000028e+01,2.071089560088070283e-02
3.335999999999999943e+01,1.784399124070129225e-02
3.339999999999999858e+01,2.556516663291885996e-02
3.343999999999999773e+01,1.303881605586122011e-02
3.347999999999999687e+01,3.543466235004030102e-02
3.352000000000000313e+01,1.770701729313648234e-02
3.356000000000000227e+01,3.880204775918509943e-03
3.360000000000000142e+01,3.110555267014712341e-02
3.364000000000000057e+01,4.068395787979244005e-02
3.367999999999999972e+01,3.595903812906103142e-02
3.371999999999999886e+01,3.123405344274034212e-02
3.375999999999999801e+01,3.468229442325886092e-02
3.379999999999999716e+01,3.887349314340501905e-02
3.384000000000000341e+01,2.467471277873684032e-02
3.388000000000000256e+01,2.607941816525443865e-02
3.392000000000000171e+01,4.736001027297632310e-02
3.396000000000000085e+01,3.947673176231668302e-02
3.400000000000000000e+01,3.289367113519030272e-02
3.403999999999999915e+01,5.918945678848629849e-02
3.407999999999999829e+01,5.725014918706376049e-02
3.411999999999999744e+01,2.503242322942019621e-02
3.415999999999999659e+01,4.092558290136565774e-02
3.420000000000000284e+01,4.102933893032350426e-02
3.424000000000000199e+01,5.655080641485810827e-02
3.428000000000000114e+01,7.337247805791180522e-02
3.432000000000000028e+01,4.245459651989881567e-02
3.435999999999999943e+01,6.187667059784199980e-02
3.439999999999999858e+01,5.176333919119961019e-02
3.443999999999999773e+01,7.248551131703039052e-02
3.447999999999999687e+01,5.698503466699711417e-02
3.452000000000000313e+01,5.374439271176594674e-02
3.456000000000000227e+01,6.777901301800495770e-02
3.460000000000000142e+01,4.559097866623107453e-02
3.464000000000000057e+01,6.519808034392951535e-02
3.467999999999999972e+01,5.712732930365214956e-02
3.471999999999999886e+01,3.531047227186156351e-02
3.475999999999999801e+01,4.377183313932659497e-02
3.479999999999999716e+01,4.888945644693926118e-02
3.484000000000000341e+01,4.824850379487238827e-02
3.488000000000000256e+01,5.262285887382791433e-02
3.492000000000000171e+01,4.510866464931252706e-02
3.496000000000000085e+01,3.555102156621638143e-02
3.500000000000000000e+01,5.329947823147985347e-02
3.503999999999999915e+01,3.463950202168877140e-02
3.507999999999999829e+01,3.641262561981655627e-02
3.511999999999999744e+01,3.317018612990019905e-02
3.515999999999999659e+01,4.497389970076094701e-02
3.520000000000000284e+01,6.067836542193941890e-02
3.524000000000000199e+01,5.539219034495974914e-02
3.528000000000000114e+01,3.357353208900289154e-02
3.532000000000000028e+01,3.906095789567534671e-02
3.535999999999999943e+01,3.656070246340771546e-02
3.539999999999999858e+01,4.409115880023505019e-02
3.543999999999999773e+01,4.474846987166393453e-02
3.547999999999999687e+01,2.534391162644886869e-02
3.552000000000000313e+01,5.014928271405865584e-02
3.556000000000000227e+01,4.393313826301113723e-02
3.560000000000000142e+01,4.106045640763121563e-02
3.564000000000000057e+01,5.063331099615944741e-02
3.567999999999999972e+01,5.036090216839340244e-02
3.571999999999999886e+01,5.658981308990652936e-02
3.575999999999999801e+01,5.501677981447902072e-02
3.579999999999999716e+01,5.567265943616332008e-02
3.584000000000000341e+01,5.447080371267060128e-02
3.588000000000000256e+01,6.590022931795072592e-02
3.592000000000000171e+01,6.581256990017718411e-02
3.596000000000000085e+01,5.290752695449720683e-02
3.600000000000000000e+01,7.473880070576481571e-02
3.603999999999999915e+01,8.430995695518042621e-02
3.607999999999999829e+01,8.663642326941213556e-02
3.611999999999999744e+01,7.837457800282071618e-02
3.615999999999999659e+01,8.162946044501365184e-02
3.620000000000000284e+01,9.621531198611230074e-02
3.624000000000000199e+01,7.272086198820597314e-02
3.628000000000000114e+01,8.712057799799372004e-02
3.632000000000000028e+01,1.113652040312391872e-01
3.635999999999999943e+01,9.362863301092076707e-02
3.639999999999999858e+01,8.592272474178981601e-02
3.643999999999999773e+01,8.267477778825851886e-02
3.647999999999999687e+01,8.945748966448215100e-02
3.652000000000000313e+01,8.732368019518114977e-02
3.656000000000000227e+01,9.206266259844189670e-02
3.660000000000000142e+01,1.014453551235995066e-01
3.664000000000000057e+01,8.463615204898181088e-02
3.667999999999999972e+01,7.469973496477695651e-02
3.671999999999999886e+01,7.479396494602928713e-02
3.675999999999999801e+01,7.024406474819401558e-02
3.679999999999999716e+01,5.937822256809342086e-02
3.684000000000000341e+01,7.061720376685602651e-02
3.688000000000000256e+01,5.733608744400708196e-02
3.692000000000000171e+01,6.634554722775107272e-02
3.696000000000000085e+01,6.941057048468939061e-02
3.700000000000000000e+01,5.519999965520015067e-02
3.703999999999999915e+01,4.749068387135234326e-02
3.707999999999999829e+01,5.872831666630944081e-02
3.711999999999999744e+01,3.671527766472507115e-02
3.715999999999999659e+01,4.256550248030752104e-02
3.720000000000000284e+01,3.931341596902582919e-02
3.724000000000000199e+01,5.593705343949577358e-02
3.728000000000000114e+01,3.355155514652514298e-02
3.732000000000000028e+01,3.828628623120655661e-02
3.735999999999999943e+01,4.617863699087609158e-02
3.739999999999999858e+01,2.917935144129737285e-02
3.743999999999999773e+01,3.614242635146130977e-02
3.747999999999999687e+01,2.843047673487548652e-02
3.752000000000000313e+01,4.895328658733457544e-02
3.756000000000000227e+01,4.031204935694535085e-02
3.760000000000000142e+01,4.244444265290428508e-02
3.764000000000000057e+01,5.739378765528119208e-02
3.767999999999999972e+01,5.302418209826733481e-02
3.771999999999999886e+01,5.664185144801699157e-02
3.775999999999999801e+01,5.078566872254956788e-02
3.779999999999999716e+01,4.028530483937087237e-02
3.784000000000000341e+01,4.037280306908012928e-02
3.788000000000000256e+01,4.306062553697848766e-02
3.792000000000000171e+01,4.389061070245241919e-02
3.796000000000000085e+01,4.156246006064892584e-02
3.800000000000000000e+01,3.607617165085172384e-02
3.803999999999999915e+01,2.445963712574636059e-02
3.807999999999999829e+01,2.658881598499175658e-02
3.811999999999999744e+01,3.670525014383755474e-02
3.815999999999999659e+01,5.146531795664465586e-02
3.820000000000000284e+01,4.189098019336468665e-02
3.824000000000000199e+01,4.104691844418584257e-02
3.828000000000000114e+01,4.930464404671659751e-02
3.832000000000000028e+01,3.768611777090866838e-02
3.835999999999999943e+01,3.888450790862541667e-02
3.839999999999999858e+01,4.398349333935609035e-02
3.843999999999999773e+01,4.146615985431657825e-02
3.847999999999999687e+01,3.634793502017492212e-02
3.852000000000000313e+01,4.088875572093224331e-02
3.856000000000000227e+01,5.527437664503465770e-02
3.860000000000000142e+01,4.811192212332272844e-02
3.864000000000000057e+01,2.738892610906285691e-02
3.867999999999999972e+01,4.418846516119442902e-02
3.871999999999999886e+01,4.408383911442251973e-02
3.875999999999999801e+01,5.048038380249121604e-02
3.879999999999999716e+01,5.427602145572743564e-02
3.884000000000000341e+01,5.212713042849192319e-02
3.888000000000000256e+01,3.901827923268397919e-02
3.892000000000000171e+01,5.024322924844044913e-02
3.896000000000000085e+01,5.961029098314874625e-02
3.900000000000000000e+01,4.984409410399081447e-02
3.903999999999999915e+01,5.976777632518879418e-02
3.907999999999999829e+01,5.891724522339523290e-02
3.911999999999999744e+01,4.840703873286814757e-02
3.915999999999999659e+01,6.613151132201786075e-02
3.920000000000000284e+01,6.806633517864262017e-02
3.924000000000000199e+01,8.430408550633272657e-02
3.928000000000000114e+01,7.342102758115993943e-02
3.932000000000000028e+01,7.052516613409870461e-02
3.935999999999999943e+01,7.431620266029606570e-02
3.939999999999999858e+01,6.844755007274588854e-02
3.943999999999999773e+01,7.446697771356834694e-02
3.947999999999999687e+01,6.302493305439056670e-02
3.952000000000000313e+01,7.034396072116111398e-02
3.956000000000000227e+01,6.503118504472078787e-02
3.960000000000000142e+01,9.334000970578699985e-02
3.964000000000000057e+01,6.926510418145934156e-02
3.967999999999999972e+01,9.757321663860654692e-02
3.971999999999999886e+01,9.021569341354193639e-02
3.975999999999999801e+01,9.437472143279487802e-02
3.979999999999999716e+01,1.013197362250170680e-01
3.984000000000000341e+01,9.451839405403994476e-02
3.988000000000000256e+01,1.081499164050259976e-01
3.992000000000000171e+01,9.261727599090224805e-02
3.996000000000000085e+01,9.881779272144569637e-02
4.000000000000000000e+01,1.222933050560429391e-01
4.003999999999999915e+01,1.305363974305602526e-01
4.007999999999999829e+01,1.268906875692043246e-01
4.011999999999999744e+01,1.418202639738899706e-01
4.015999999999999659e+01,1.584212696101238715e-01
4.020000000000000284e+01,1.497589883886438211e-01
4.024000000000000199e+01,1.527989915320483172e-01
4.028000000000000114e+01,1.775721361343896021e-01
4.032000000000000028e+01,1.845122539633635983e-01
4.035999999999999943e+01,2.098418896449189552e-01
4.039999999999999858e+01,2.279266236339303198e-01
4.043999999999999773e+01,2.480542864278005577e-01
4.047999999999999687e+01,2.587079638177456342e-01
4.052000000000000313e+01,3.042834929928591170e-01
4.056000000000000227e+01,3.489298387040843941e-01
4.060000000000000142e+01,3.634832050722109353e-01
4.064000000000000057e+01,4.209459532573395779e-01
4.067999999999999972e+01,4.769222421489439645e-01
4.071999999999999886e+01,5.143224580633686260e-01
4.075999999999999801e+01,5.528368038511096705e-01
4.079999999999999716e+01,5.581002974564099883e-01
4.084000000000000341e+01,6.040440832851824426e-01
4.088000000000000256e+01,6.364272178212940778e-01
4.092000000000000171e+01,6.938870821298046554e-01
4.096000000000000085e+01,7.078794707090783067e-01
4.100000000000000000e+01,8.030470931863585848e-01
4.103999999999999915e+01,9.063875844801118076e-01
4.107999999999999829e+01,9.298522909266516701e-01
4.111999999999999744e+01,9.828518769219062312e-01
4.115999999999999659e+01,1.000000000000000000e+00
4.120000000000000284e+01,9.669933962147128081e-01
4.124000000000000199e+01,9.377014918624200224e-01
4.128000000000000114e+01,8.465521878280837242e-01
4.132000000000000028e+01,7.561454729187111479e-01
4.135999999999999943e+01,6.679673983668849013e-01
4.139999999999999858e+01,6.167544556052548810e-01
4.143999999999999773e+01,5.373060588171075791e-01
4.147999999999999687e+01,4.710459388049386686e-01
4.152000000000000313e+01,4.138874473264591569e-01
4.156000000000000227e+01,3.710317685974995894e-01
4.160000000000000142e+01,3.298474485143016999e-01
4.164000000000000057e+01,2.845760289921150377e-01
4.167999999999999972e+01,2.608519256546324439e-01
4.171999999999999886e+01,2.441861179064717391e-01
4.175999999999999801e+01,2.089441862025073482e-01
4.179999999999999716e+01,2.219985222804816416e-01
4.184000000000000341e+01,1.756102676654950068e-01
4.188000000000000256e+01,1.617289617322117956e-01
4.192000000000000171e+01,1.491474854606349432e-01
4.196000000000000085e+01,1.529121254722012879e-01
4.200000000000000000e+01,1.440448425368626439e-01
4.203999999999999915e+01,1.483658089274740022e-01
4.207999999999999829e+01,1.300239893949790004e-01
4.211999999999999744e+01,1.207837689854290991e-01
4.215999999999999659e+01,1.243602787213556049e-01
4.220000000000000284e+01,1.234781482699404825e-01
4.224000000000000199e+01,1.081065166156986307e-01
4.228000000000000114e+01,1.070376624180834624e-01
4.232000000000000028e+01,8.479206372636315103e-02
4.235999999999999943e+01,8.910917741455422203e-02
4.239999999999999858e+01,7.689345891626726825e-02
4.243999999999999773e+01,7.136448741608392154e-02
4.247999999999999687e+01,7.252226095328798139e-02
4.252000000000000313e+01,1.028433321158116615e-01
4.256000000000000227e+01,7.948023341651505591e-02
4.260000000000000142e+01,7.376351617303768260e-02
4.264000000000000057e+01,7.603383266821917008e-02
4.267999999999999972e+01,7.941818492233503057e-02
4.271999999999999886e+01,6.608393265507994663e-02
4.275999999999999801e+01,5.906489840187346269e-02
4.279999999999999716e+01,6.411953632603305253e-02
4.284000000000000341e+01,3.369414228127207839e-02
4.288000000000000256e+01,7.887119050598025150e-02
4.292000000000000171e+01,5.420322274529398160e-02
4.296000000000000085e+01,4.198043261743349130e-02
4.300000000000000000e+01,6.282180621870708803e-02
4.303999999999999915e+01,3.852379229103463504e-02
4.307999999999999829e+01,6.475106319232779017e-02
4.311999999999999744e+01,4.546742934491757038e-02
4.315999999999999659e+01,6.240581441953678421e-02
4.320000000000000284e+01,5.110865919612170988e-02
4.324000000000000199e+01,4.389761866821095815e-02
4.328000000000000114e+01,4.411631056001120293e-02
4.332000000000000028e+01,5.306502945494280532e-02
4.335999999999999943e+01,5.365416166935005338e-02
4.339999999999999858e+01,6.557391005372946446e-02
4.343999999999999773e+01,4.870083642828966497e-02
4.347999999999999687e+01,5.541831389610681752e-02
4.352000000000000313e+01,4.764622741817574336e-02
4.356000000000000227e+01,3.652997398352322844e-02
4.360000000000000142e+01,3.414373382698804998e-02
4.364000000000000057e+01,4.958958079681063946e-02
4.367999999999999972e+01,5.574704215456664780e-02
4.371999999999999886e+01,3.478347761995078530e-02
4.375999999999999801e+01,6.378789463463645226e-02
4.379999999999999716e+01,3.780778446115989205e-02
4.384000000000000341e+01,3.578972103281844591e-02
4.388000000000000256e+01,3.525714784024713139e-02
4.392000000000000171e+01,2.655071716628577480e-02
4.396000000000000085e+01,3.140395500221702940e-02
4.400000000000000000e+01,4.665899635156403602e-02
4.403999999999999915e+01,3.665056261443260660e-02
4.407999999999999829e+01,5.729140322798433743e-02
4.411999999999999744e+01,2.777737384586552102e-02
4.415999999999999659e+01,2.816958829634770914e-02
4.420000000000000284e+01,4.063540629912561902e-02
4.424000000000000199e+01,2.802349606100602505e-02
4.428000000000000114e+01,3.398666817443303512e-02
4.432000000000000028e+01,4.236409220156297367e-02
4.435999999999999943e+01,2.659256535145840955e-02
4.439999999999999858e+01,3.534032774394786636e-02
4.443999999999999773e+01,1.975337868860783941e-02
4.447999999999999687e+01,2.998601149856605641e-02
4.452000000000000313e+01,4.857709919184188124e-02
4.456000000000000227e+01,4.041863311602837683e-02
4.460000000000000142e+01,2.817292250822018770e-02
4.464000000000000057e+01,3.803165293959722554e-02
4.467999999999999972e+01,3.600135565272683663e-02
4.471999999999999886e+01,4.158647684894312135e-02
4.475999999999999801e+01,1.986476452500138962e-02
4.479999999999999716e+01,3.473650403204577020e-02
4.484000000000000341e+01,3.251802180143070764e-02
4.488000000000000256e+01,3.940100340433617260e-02
4.492000000000000171e+01,3.532372877050835025e-02
4.496000000000000085e+01,2.474435551912818748e-02
4.500000000000000000e+01,3.274002932640129870e-02
4.503999999999999915e+01,3.813449022709944347e-02
4.507999999999999829e+01,3.684108997893397602e-02
4.511999999999999744e+01,4.223430536088025600e-02
4.515999999999999659e+01,1.381918489482216253e-02
4.520000000000000284e+01,3.685802858557793438e-02
4.524000000000000199e+01,4.559298066894703488e-02
4.528000000000000114e+01,3.092196337525640951e-02
4.532000000000000028e+01,3.018206122542904310e-02
4.535999999999999943e+01,4.077267917047529971e-02
4.539999999999999858e+01,3.724515431443214258e-02
4.543999999999999773e+01,2.944458710218961564e-02
4.547999999999999687e+01,2.517275483785160264e-02
4.552000000000000313e+01,3.520354121212018045e-02
4.556000000000000227e+01,3.706038971563047763e-02
4.560000000000000142e+01,3.074329838766619305e-02
4.564000000000000057e+01,3.148431049882648852e-02
4.567999999999999972e+01,4.206977382583095004e-02
4.571999999999999886e+01,4.801066777329727336e-02
4.575999999999999801e+01,4.912123373134671955e-02
4.579999999999999716e+01,2.812610136716122908e-02
4.584000000000000341e+01,2.589173153574915107e-02
4.588000000000000256e+01,3.090121002832637437e-02
4.592000000000000171e+01,4.185423834003978300e-02
4.596000000000000085e+01,4.779117220959250983e-02
4.600000000000000000e+01,2.790726497008108944e-02
4.603999999999999915e+01,3.960131925196614527e-02
4.607999999999999829e+01,5.612437561514800610e-02
4.611999999999999744e+01,5.035596132120214591e-02
4.615999999999999659e+01,5.313167817036813789e-02
4.620000000000000284e+01,3.918861991584542126e-02
4.624000000000000199e+01,4.660689767520647536e-02
4.628000000000000114e+01,3.284823682954898100e-02
4.632000000000000028e+01,5.066752378027390702e-02
4.635999999999999943e+01,5.139651448612004431e-02
4.639999999999999858e+01,4.172244635621705916e-02
4.643999999999999773e+01,3.316222967791646742e-02
4.647999999999999687e+01,4.261971756427899993e-02
4.652000000000000313e+01,4.130262743441869000e-02
4.656000000000000227e+01,4.481451585725962361e-02
4.660000000000000142e+01,5.036903113464962639e-02
4.664000000000000057e+01,4.700652900529186246e-02
4.667999999999999972e+01,6.296201818115233773e-02
4.671999999999999886e+01,3.860761232038934648e-02
4.675999999999999801e+01,5.474745184792394886e-02
4.679999999999999716e+01,5.992694298505928802e-02
4.684000000000000341e+01,5.526062366605335313e-02
4.688000000000000256e+01,5.505175391569343268e-02
4.692000000000000171e+01,4.759766287603309221e-02
4.696000000000000085e+01,4.980220366013292377e-02
4.700000000000000000e+01,6.073659106146478415e-02
4.703999999999999915e+01,5.216581244662983619e-02
4.707999999999999829e+01,5.381092972089346338e-02
4.711999999999999744e+01,7.421674678500891909e-02
4.715999999999999659e+01,5.951383342116841474e-02
4.720000000000000284e+01,5.372651352014087139e-02
4.724000000000000199e+01,5.685478512120986649e-02
4.728000000000000114e+01,4.456452522338676808e-02
4.732000000000000028e+01,4.360468934533874574e-02
4.735999999999999943e+01,5.026014254310173790e-02
4.739999999999999858e+01,5.319972725705399835e-02
4.743999999999999773e+01,3.403353325940309398e-02
4.747999999999999687e+01,4.867430998731055170e-02
4.752000000000000313e+01,5.124016313695113622e-02
4.756000000000000227e+01,3.560112132524973633e-02
4.760000000000000142e+01,4.596726509213767270e-02
4.764000000000000057e+01,5.187450201426754143e-02
4.767999999999999972e+01,5.945279955328171967e-02
4.771999999999999886e+01,4.994073418306312767e-02
4.775999999999999801e+01,5.417390770385123455e-02
4.779999999999999716e+01,4.168822769229875436e-02
4.784000000000000341e+01,4.294778265032041242e-02
4.788000000000000256e+01,5.145108789651641618e-02
4.792000000000000171e+01,6.329725183776049868e-02
4.796000000000000085e+01,4.709339880489324393e-02
4.800000000000000000e+01,4.909293247863219523e-02
4.803999999999999915e+01,3.567389739986938368e-02
4.807999999999999829e+01,4.194429829957924821e-02
4.811999999999999744e+01,4.988573824829426601e-02
4.815999999999999659e+01,4.445192670314479511e-02
4.820000000000000284e+01,5.164879258614853141e-02
4.824000000000000199e+01,4.807099614212863303e-02
4.828000000000000114e+01,5.099390378247064398e-02
4.832000000000000028e+01,4.537122496430507496e-02
4.835999999999999943e+01,3.157447102524036514e-02
4.839999999999999858e+01,3.746713737891798485e-02
4.843999999999999773e+01,4.911747337744275937e-02
4.847999999999999687e+01,3.216049696505717675e-02
4.852000000000000313e+01,4.306622752640997670e-02
4.856000000000000227e+01,3.966790374092344501e-02
4.860000000000000142e+01,5.075780426805098777e-02
4.864000000000000057e+01,3.788430077046260613e-02
4.867999999999999972e+01,3.634115462829514559e-02
4.871999999999999886e+01,3.126783194784153036e-02
4.875999999999999801e+01,2.136403422424875548e-02
4.879999999999999716e+01,3.597931006445728025e-02
4.884000000000000341e+01,3.201811490207761429e-02
4.888000000000000256e+01,3.251427127252911470e-02
4.892000000000000171e+01,3.412415753017258163e-02
4.896000000000000085e+01,3.740504166177886086e-02
4.900000000000000000e+01,3.139727940605098466e-02
4.903999999999999915e+01,3.430502042018636344e-02
4.907999999999999829e+01,4.055556326859707794e-02
4.911999999999999744e+01,4.513347646318251888e-02
4.915999999999999659e+01,3.076338967112459202e-02
4.920000000000000284e+01,2.995271453512431473e-02
4.924000000000000199e+01,4.195842249781588096e-02
4.928000000000000114e+01,2.424223894029685356e-02
4.932000000000000028e+01,2.324332419244712344e-02
4.935999999999999943e+01,2.094328132479909843e-02
4.939999999999999858e+01,2.310056450067038414e-02
4.943999999999999773e+01,2.990092840850710684e-02
4.947999999999999687e+01,2.778413569873881134e-02
4.952000000000000313e+01,3.161071634364006483e-02
4.956000000000000227e+01,4.416701811993026250e-02
4.960000000000000142e+01,3.573197520091162677e-02
4.964000000000000057e+01,3.008243671865303351e-02
4.967999999999999972e+01,3.576320657390790608e-02
4.971999999999999886e+01,4.107161390872973022e-02
4.975999999999999801e+01,3.671982430428301358e-02
4.979999999999999716e+01,3.013810176634669838e-02
4.984000000000000341e+01,3.377213982808443399e-02
4.988000000000000256e+01,3.108959475332755476e-02
4.992000000000000171e+01,2.339076112549650852e-02
4.996000000000000085e+01,2.386435907440435239e-02
5.000000000000000000e+01,2.935252360357420293e-02
5.003999999999999915e+01,3.149620353998244804e-02
5.007999999999999829e+01,3.103842351956233661e-02
5.011999999999999744e+01,4.098214702296451573e-02
5.015999999999999659e+01,3.513568455757641595e-02
5.020000000000000284e+01,3.653285865881746031e-02
5.024000000000000199e+01,4.331610087434754203e-02
5.028000000000000114e+01,4.842665657527965573e-02
5.032000000000000028e+01,2.715888946230041179e-02
5.035999999999999943e+01,3.505403567424652395e-02
5.039999999999999858e+01,2.957382059221556198e-02
5.043999999999999773e+01,4.359716915723337027e-02
5.047999999999999687e+01,4.201607271689293543e-02
5.052000000000000313e+01,4.024833119095586748e-02
5.056000000000000227e+01,4.702450512933794430e-02
5.060000000000000142e+01,6.048702607969903833e-02
5.064000000000000057e+01,5.555874444440094678e-02
5.067999999999999972e+01,4.282778726498324279e-02
5.071999999999999886e+01,7.244844785457353609e-02
5.075999999999999801e+01,7.067533453498882345e-02
5.079999999999999716e+01,6.574345601819520102e-02
5.084000000000000341e+01,1.001910830016625314e-01
5.088000000000000256e+01,8.782712831332799286e-02
5.092000000000000171e+01,9.663852358590810376e-02
5.096000000000000085e+01,9.616117639605548106e-02
5.100000000000000000e+01,8.602357148472902781e-02
5.103999999999999915e+01,9.650404070468120155e-02
5.107999999999999829e+01,8.896519906941964539e-02
5.111999999999999744e+01,8.736965236017567304e-02
5.115999999999999659e+01,7.202719380502027591e-02
5.120000000000000284e+01,6.690042918518472603e-02
5.124000000000000199e+01,6.233001078350871443e-02
5.128000000000000114e+01,5.552958690184024021e-02
5.132000000000000028e+01,6.173120081077850679e-02
5.135999999999999943e+01,4.545533055959175700e-02
5.139999999999999858e+01,4.998327344239927861e-02
5.143999999999999773e+01,5.469603944146005786e-02
5.147999999999999687e+01,4.547612125971670777e-02
5.152000000000000313e+01,3.699829222028115649e-02
5.156000000000000227e+01,4.300854240045366705e-02
5.160000000000000142e+01,2.932764639363917222e-02
5.164000000000000057e+01,3.292117542243581246e-02
5.167999999999999972e+01,3.855708229481186189e-02
5.171999999999999886e+01,2.301578390475290600e-02
5.175999999999999801e+01,3.775187010952318900e-02
5.179999999999999716e+01,3.539739341199831663e-02
5.184000000000000341e+01,2.895531729282898800e-02
5.188000000000000256e+01,3.644403476005008552e-02
5.192000000000000171e+01,3.538698930429687306e-02
5.196000000000000085e+01,3.767260451124561371e-02
5.200000000000000000e+01,3.345577601457366823e-02
5.203999999999999915e+01,3.183857766252159993e-02
5.207999999999999829e+01,2.390468833457857351e-02
5.211999999999999744e+01,3.398822711030076438e-02
5.215999999999999659e+01,2.530937549481966642e-02
5.220000000000000284e+01,2.926100523586197197e-02
5.224000000000000199e+01,3.395468882631883650e-02
5.228000000000000114e+01,3.326045488311520776e-02
5.232000000000000028e+01,3.423705411370540908e-02
5.235999999999999943e+01,3.094027178417685375e-02
5.239999999999999858e+01,3.321520833941963430e-02
5.243999999999999773e+01,2.415800674494040373e-02
5.247999999999999687e+01,3.181791906354300425e-02
5.252000000000000313e+01,3.167506564507637651e-02
5.256000000000000227e+01,3.115971049531951476e-02
5.260000000000000142e+01,2.451339552952227011e-02
5.264000000000000057e+01,2.306727438587383161e-02
5.267999999999999972e+01,2.533529191035877037e-02
5.271999999999999886e+01,1.998629054335532285e-02
5.275999999999999801e+01,2.949682287279579637e-02
5.279999999999999716e+01,3.120457574015296498e-02
5.284000000000000341e+01,2.213744079811226159e-02
5.288000000000000256e+01,3.796069272513535875e-02
5.292000000000000171e+01,4.096572978054183883e-02
5.296000000000000085e+01,2.985225345947868300e-02
5.300000000000000000e+01,2.746832964820293890e-02
5.303999999999999915e+01,3.752908936924602423e-02
5.307999999999999829e+01,2.938468355009809727e-02
5.311999999999999744e+01,3.888614351838318162e-02
5.315999999999999659e+01,2.869638083174560345e-02
5.320000000000000284e+01,3.132280713288643215e-02
5.324000000000000199e+01,3.209064517726094301e-02
5.328000000000000114e+01,2.282660044100792013e-02
5.332000000000000028e+01,4.309683723499902613e-02
5.335999999999999943e+01,1.841293728440166616e-02
5.339999999999999858e+01,2.549239473256444469e-02
5.343999999999999773e+01,3.368536050697761713e-02
5.347999999999999687e+01,3.351824353964319436e-02
5.352000000000000313e+01,3.353584773131464830e-02
5.356000000000000227e+01,3.280938787546371083e-02
5.360000000000000142e+01,2.892402557226310747e-02
5.364000000000000057e+01,3.748331739063685136e-02
5.367999999999999972e+01,2.876619750388704003e-02
5.371999999999999886e+01,3.082191797481757464e-02
5.375999999999999801e+01,2.637510847061031241e-02
5.379999999999999716e+01,4.068867131663327086e-02
5.384000000000000341e+01,3.233887178895838294e-02
5.388000000000000256e+01,3.327585158279949828e-02
5.392000000000000171e+01,2.325213397874040938e-02
5.396000000000000085e+01,3.328907742618308213e-02
5.400000000000000000e+01,4.555404164482222684e-02
5.403999999999999915e+01,2.642507117554996829e-02
5.407999999999999829e+01,3.367248194715163900e-02
5.411999999999999744e+01,3.738945148376700972e-02
5.415999999999999659e+01,3.590416798221830741e-02
5.420000000000000284e+01,2.661603639351580591e-02
5.424000000000000199e+01,3.032979946313042394e-02
5.428000000000000114e+01,2.438314403253480714e-02
5.432000000000000028e+01,2.679446310976400097e-02
5.435999999999999943e+01,3.886405127823846367e-02
5.439999999999999858e+01,3.755808208110608670e-02
5.443999999999999773e+01,2.640592989173594710e-02
5.447999999999999687e+01,2.806990394722269286e-02
5.452000000000000313e+01,2.787522700302164785e-02
5.456000000000000227e+01,2.897976013417698921e-02
5.460000000000000142e+01,3.398409446824583735e-02
5.464000000000000057e+01,3.768704186796517641e-02
5.467999999999999972e+01,2.894320142287551065e-02
5.471999999999999886e+01,2.484218289520007811e-02
5.475999999999999801e+01,2.556974097338484547e-02
5.479999999999999716e+01,2.889679390676495527e-02
5.484000000000000341e+01,4.411117219274331841e-02
5.488000000000000256e+01,3.387578738896435127e-02
5.492000000000000171e+01,1.992416548671071402e-02
5.496000000000000085e+01,3.067707184711098919e-02
5.500000000000000000e+01,3.734222388927926906e-02
5.503999999999999915e+01,3.713326991506350067e-02
5.507999999999999829e+01,3.543715078945651464e-02
5.511999999999999744e+01,3.466870099085300749e-02
5.515999999999999659e+01,4.225818452503208450e-02
5.520000000000000284e+01,3.349996509268030054e-02
5.524000000000000199e+01,2.752697559680693240e-02
5.528000000000000114e+01,2.341043083088382645e-02
5.532000000000000028e+01,3.656813071467253373e-02
5.535999999999999943e+01,3.133479664827894945e-02
5.539999999999999858e+01,4.337570331016463859e-02
5.543999999999999773e+01,3.349619576635011475e-02
5.547999999999999687e+01,3.253187581707493725e-02
5.552000000000000313e+01,3.973971490497327924e-02
5.556000000000000227e+01,2.409835065921061767e-02
5.560000000000000142e+01,2.888908037390626460e-02
5.564000000000000057e+01,3.572199382126782508e-02
5.567999999999999972e+01,4.069619940816902176e-02
5.571999999999999886e+01,3.619567255823560870e-02
5.575999999999999801e+01,3.800972648955410621e-02
5.579999999999999716e+01,3.777931002910091263e-02
5.584000000000000341e+01,3.383261137369822369e-02
5.588000000000000256e+01,4.623134667216730748e-02
5.592000000000000171e+01,3.002240486649472920e-02
5.596000000000000085e+01,4.520518167541454774e-02
5.600000000000000000e+01,3.140876416043534430e-02
5.603999999999999915e+01,3.767290573971042444e-02
5.607999999999999829e+01,3.056140760329425360e-02
5.611999999999999744e+01,3.812352181399056988e-02
5.615999999999999659e+01,4.642749772390430268e-02
5.620000000000000284e+01,4.822882405498613023e-02
5.624000000000000199e+01,4.594233528563067964e-02
5.628000000000000114e+01,4.198286589423272375e-02
5.632000000000000028e+01,4.879610941395571416e-02
5.635999999999999943e+01,4.576307582705868571e-02
5.639999999999999858e+01,3.567011291026105785e-02
5.643999999999999773e+01,3.207745409170066619e-02
5.647999999999999687e+01,4.538746976375477443e-02
5.652000000000000313e+01,5.126603692543461877e-02
5.656000000000000227e+01,5.862947277581839756e-02
5.660000000000000142e+01,6.153356258099352410e-02
5.664000000000000057e+01,4.474625914892815803e-02
5.667999999999999972e+01,5.544974940615167436e-02
5.671999999999999886e+01,4.850516564548834619e-02
5.675999999999999801e+01,4.137363092748597149e-02
5.679999999999999716e+01,6.266166726243553586e-02
5.684000000000000341e+01,4.326779920121365253e-02
5.688000000000000256e+01,6.362465387041658926e-02
5.692000000000000171e+01,6.187526513825390012e-02
5.696000000000000085e+01,4.805049009877808419e-02
5.700000000000000000e+01,6.041619651872414537e-02
5.703999999999999915e+01,5.531956988421530413e-02
5.707999999999999829e+01,5.505140613402146471e-02
5.711999999999999744e+01,5.088114079679424695e-02
5.715999999999999659e+01,4.782420143920179667e-02
5.720000000000000284e+01,4.012212997649376722e-02
5.724000000000000199e+01,4.133515983680802197e-02
5.728000000000000114e+01,4.830542602366774685e-02
5.732000000000000028e+01,4.375755820425476783e-02
5.735999999999999943e+01,4.812478582571523555e-02
5.739999999999999858e+01,4.821838483680342125e-02
5.743999999999999773e+01,3.419325087119670648e-02
5.747999999999999687e+01,4.208617190568143124e-02
5.752000000000000313e+01,5.053513132586704565e-02
5.756000000000000227e+01,4.950926811626843449e-02
5.760000000000000142e+01,4.792489947596381000e-02
5.764000000000000057e+01,2.999270826543418839e-02
5.767999999999999972e+01,4.270912476204655889e-02
5.771999999999999886e+01,3.201896209883067779e-02
5.775999999999999801e+01,3.953170772744446504e-02
5.779999999999999716e+01,4.277080513852304228e-02
5.784000000000000341e+01,3.430598640485471584e-02
5.788000000000000256e+01,4.460134002835430822e-02
5.792000000000000171e+01,3.594826426834141220e-02
5.796000000000000085e+01,4.401203380327761011e-02
5.800000000000000000e+01,3.479917987573014071e-02
5.803999999999999915e+01,4.174589737421202651e-02
5.807999999999999829e+01,3.605990371783731469e-02
5.811999999999999744e+01,3.873169830123922991e-02
5.815999999999999659e+01,4.790371267207751971e-02
5.820000000000000284e+01,4.537179325172230326e-02
5.824000000000000199e+01,4.543920006496077191e-02
5.828000000000000114e+01,5.219257743264920507e-02
5.832000000000000028e+01,3.888296591468786562e-02
5.835999999999999943e+01,4.749136626105941034e-02
5.839999999999999858e+01,3.993766343275862579e-02
5.843999999999999773e+01,4.167051640431602283e-02
5.847999999999999687e+01,3.355698835128960444e-02
5.852000000000000313e+01,4.197452149402167848e-02
5.856000000000000227e+01,2.921451409183193140e-02
5.860000000000000142e+01,4.747458259863415048e-02
5.864000000000000057e+01,4.344256674410755525e-02
5.867999999999999972e+01,5.631311754079909582e-02
5.871999999999999886e+01,5.283579282792557480e-02
5.875999999999999801e+01,4.731385263027432925e-02
5.879999999999999716e+01,3.436035216141990895e-02
5.884000000000000341e+01,5.168388924061010498e-02
5.888000000000000256e+01,4.448625040422515137e-02
5.892000000000000171e+01,4.546060394412841654e-02
5.896000000000000085e+01,5.404967795211651493e-02
5.900000000000000000e+01,4.963448241044837728e-02
5.903999999999999915e+01,4.856160048469760487e-02
5.907999999999999829e+01,4.507257409011394128e-02
5.911999999999999744e+01,5.458520314645912141e-02
5.915999999999999659e+01,5.183658140693236244e-02
5.920000000000000284e+01,5.744569496784216606e-02
5.924000000000000199e+01,5.896684637459243677e-02
5.928000000000000114e+01,4.915552434913391527e-02
5.932000000000000028e+01,6.404851686825288604e-02
5.935999999999999943e+01,5.832119957561121559e-02
5.939999999999999858e+01,5.965131123568788440e-02
5.943999999999999773e+01,6.320917700954464813e-02
5.947999999999999687e+01,6.620844519902939485e-02
5.952000000000000313e+01,6.697730400096442438e-02
5.956000000000000227e+01,8.056204003678654746e-02
5.960000000000000142e+01,6.405286538926857620e-02
5.964000000000000057e+01,7.949249891793078171e-02
5.967999999999999972e+01,7.152545721166617132e-02
5.971999999999999886e+01,7.674579819474823539e-02
5.975999999999999801e+01,7.341999195446166637e-02
5.979999999999999716e+01,6.136227988092781555e-02
5.984000000000000341e+01,6.230618796542936738e-02
5.988000000000000256e+01,6.844993498242987751e-02
5.992000000000000171e+01,7.644989928629014608e-02
5.996000000000000085e+01,6.401528101680763194e-02
