2.003999999999999915e+01,9.409891945480468312e-03
2.007999999999999829e+01,1.846968194889697656e-02
2.012000000000000099e+01,1.410319734676199720e-02
2.016000000000000014e+01,1.941255185581227186e-02
2.019999999999999929e+01,1.954638640617733028e-02
2.023999999999999844e+01,1.757998223628505496e-02
2.028000000000000114e+01,1.718867549028042091e-02
2.032000000000000028e+01,1.642228757121065932e-02
2.035999999999999943e+01,1.865612717036223278e-02
2.039999999999999858e+01,2.231505000685561277e-02
2.044000000000000128e+01,2.289864413444025332e-02
2.048000000000000043e+01,1.268120248863647062e-02
2.051999999999999957e+01,1.483984564939476967e-02
2.055999999999999872e+01,2.127383223616222813e-02
2.060000000000000142e+01,1.158129530118527997e-02
2.064000000000000057e+01,1.118956132085379210e-02
2.067999999999999972e+01,1.394806735819521804e-02
2.071999999999999886e+01,2.158197111377402333e-02
2.076000000000000156e+01,8.138897761953626034e-03
2.080000000000000071e+01,1.847295135171468303e-02
2.083999999999999986e+01,7.204979484829682722e-03
2.087999999999999901e+01,1.738892149312799840e-02
2.092000000000000171e+01,1.549670936629467602e-02
2.096000000000000085e+01,1.652971559388496242e-02
2.100000000000000000e+01,1.403734978606779871e-02
2.103999999999999915e+01,1.439519516271519327e-02
2.107999999999999829e+01,2.045351237261104627e-02
2.112000000000000099e+01,1.796099725160217944e-02
2.116000000000000014e+01,2.079391934102427578e-02
2.119999999999999929e+01,1.170069994813853834e-02
2.123999999999999844e+01,1.850888517220308782e-02
2.128000000000000114e+01,1.796634726330826812e-02
2.132000000000000028e+01,1.697371748382852860e-02
2.135999999999999943e+01,1.185565938287437039e-02
2.139999999999999858e+01,1.641343563856677637e-02
2.144000000000000128e+01,1.932100975212342267e-02
2.148000000000000043e+01,2.327862864589898273e-02
2.151999999999999957e+01,1.913545485433556029e-02
2.155999999999999872e+01,1.011678334229036517e-02
2.160000000000000142e+01,1.767457683577727812e-02
2.164000000000000057e+01,9.030835956627829980e-03
2.167999999999999972e+01,1.486336760625626453e-02
2.171999999999999886e+01,1.131998912903586611e-02
2.176000000000000156e+01,2.165282796813179991e-02
2.180000000000000071e+01,1.915944066576115781e-02
2.183999999999999986e+01,1.081546534751298694e-02
2.187999999999999901e+01,1.409750098902547502e-02
2.192000000000000171e+01,1.257904439292094508e-02
2.196000000000000085e+01,1.683606311909091602e-02
2.200000000000000000e+01,1.659261675375796677e-02
2.203999999999999915e+01,2.212464540395520096e-02
2.207999999999999829e+01,1.715565959873409721e-02
2.212000000000000099e+01,1.901224458730362346e-02
2.216000000000000014e+01,2.139382370626214183e-02
2.219999999999999929e+01,1.514955949005159647e-02
2.223999999999999844e+01,1.310562539500276409e-02
2.228000000000000114e+01,1.781225461704116081e-02
2.232000000000000028e+01,1.486812926558411622e-02
2.235999999999999943e+01,1.319906590980138815e-02
2.239999999999999858e+01,1.348012616525237281e-02
2.244000000000000128e+01,1.458620693034541442e-02
2.248000000000000043e+01,2.011763748601082952e-02
2.251999999999999957e+01,1.882338819668085209e-02
2.255999999999999872e+01,1.265363735256380684e-02
2.260000000000000142e+01,1.038418779640012078e-02
2.264000000000000057e+01,1.111495701624182382e-02
2.267999999999999972e+01,1.229571150941911190e-02
2.271999999999999886e+01,2.067706881187707582e-02
2.276000000000000156e+01,2.305782084446740890e-02
2.280000000000000071e+01,1.703774783094949563e-02
2.283999999999999986e+01,1.641811244944442125e-02
2.287999999999999901e+01,1.632346843762849664e-02
2.292000000000000171e+01,1.622876759962702670e-02
2.296000000000000085e+01,1.125856367311642292e-02
2.300000000000000000e+01,2.038959289802768152e-02
2.303999999999999915e+01,1.879458339694374536e-02
2.307999999999999829e+01,9.173782092219287879e-03
2.312000000000000099e+01,1.132900071914628992e-02
2.316000000000000014e+01,8.533708627488461457e-03
2.319999999999999929e+01,1.923959401467433342e-02
2.323999999999999844e+01,7.818396700379119310e-03
2.328000000000000114e+01,1.379873344534427587e-02
2.332000000000000028e+01,1.632869612252860203e-02
2.335999999999999943e+01,8.732673752457086047e-03
2.339999999999999858e+01,1.051245061756322582e-02
2.344000000000000128e+01,1.724262163481113386e-02
2.348000000000000043e+01,1.032148457359870729e-02
2.351999999999999957e+01,1.022591293814957905e-02
2.355999999999999872e+01,1.215546732935478963e-02
2.360000000000000142e+01,1.265983188596889360e-02
2.364000000000000057e+01,1.226405449712206219e-02
2.367999999999999972e+01,1.351836835873977856e-02
2.371999999999999886e+01,1.499764291637170621e-02
2.376000000000000156e+01,2.180234471524100312e-02
2.380000000000000071e+01,1.458070289259900260e-02
2.383999999999999986e+01,1.103433701372798746e-02
2.387999999999999901e+01,1.018815770346532396e-02
2.392000000000000171e+01,1.526745992666828262e-02
2.396000000000000085e+01,1.449616600526663565e-02
2.400000000000000000e+01,1.695010623485922879e-02
2.403999999999999915e+01,1.610368336240040193e-02
2.407999999999999829e+01,1.173187664487411290e-02
2.412000000000000099e+01,1.141037911358643193e-02
2.416000000000000014e+01,9.513675874067378455e-03
2.419999999999999929e+01,1.931798156193554120e-02
2.423999999999999844e+01,1.329577722404689556e-02
2.428000000000000114e+01,8.773648109610374807e-03
2.432000000000000028e+01,7.101717603117204194e-03
2.435999999999999943e+01,1.615570618873213640e-02
2.439999999999999858e+01,1.463366456012599355e-02
2.444000000000000128e+01,1.513674558398560473e-02
2.448000000000000043e+01,7.238995120104257074e-03
2.451999999999999957e+01,1.434255433807643879e-02
2.455999999999999872e+01,1.417038470978273894e-02
2.460000000000000142e+01,1.707343320547088580e-02
2.464000000000000057e+01,1.180067018957312204e-02
2.467999999999999972e+01,1.680378385951793868e-02
2.471999999999999886e+01,1.423114061684948618e-02
2.476000000000000156e+01,1.360861193645447956e-02
2.480000000000000071e+01,8.710628018145843976e-03
2.483999999999999986e+01,1.521362312041051740e-02
2.487999999999999901e+01,1.084055871512908456e-02
2.492000000000000171e+01,1.816850047653502040e-02
2.496000000000000085e+01,1.372030006507485300e-02
2.500000000000000000e+01,1.099719270601095221e-02
2.503999999999999915e+01,9.174102750610143436e-03
2.507999999999999829e+01,1.522666832446136799e-02
2.512000000000000099e+01,1.070320092339180872e-02
2.516000000000000014e+01,1.345533383911286761e-02
2.519999999999999929e+01,3.231213850300270873e-03
2.523999999999999844e+01,1.153372335372940781e-02
2.528000000000000114e+01,1.016028162732453277e-02
2.532000000000000028e+01,9.461835641333377067e-03
2.535999999999999943e+01,4.562939133432283682e-03
2.539999999999999858e+01,1.331522539533265374e-02
2.544000000000000128e+01,8.041161747461273226e-03
2.548000000000000043e+01,3.367086363300077993e-03
2.551999999999999957e+01,1.444438545883360361e-02
2.555999999999999872e+01,1.134532045804944114e-02
2.560000000000000142e+01,1.319664132730781654e-02
2.564000000000000057e+01,9.272366473543430798e-03
2.567999999999999972e+01,8.873346781999049554e-03
2.571999999999999886e+01,1.169955464644396523e-02
2.576000000000000156e+01,1.205046830919346938e-02
2.580000000000000071e+01,8.725977805441211335e-03
2.583999999999999986e+01,8.851734987205555141e-03
2.587999999999999901e+01,1.625308972506070426e-02
2.592000000000000171e+01,1.457854568484361416e-02
2.596000000000000085e+01,9.153590001421258587e-03
2.600000000000000000e+01,6.653833347524166185e-03
2.603999999999999915e+01,1.112964618337055830e-02
2.607999999999999829e+01,1.654113518704437282e-03
2.612000000000000099e+01,1.160528933066707832e-02
2.616000000000000014e+01,1.015535268467046039e-02
2.619999999999999929e+01,8.255305456679382786e-03
2.623999999999999844e+01,1.153066223441940111e-02
2.628000000000000114e+01,7.080242391600789602e-03
2.632000000000000028e+01,6.005061530617600112e-03
2.635999999999999943e+01,1.423066169205390585e-02
2.639999999999999858e+01,9.179976894931777404e-03
2.644000000000000128e+01,2.404063920933107237e-03
2.648000000000000043e+01,1.205458351462784447e-02
2.651999999999999957e+01,5.953591203564522275e-03
2.655999999999999872e+01,6.303118345903472447e-03
2.660000000000000142e+01,4.177348065730654425e-03
2.664000000000000057e+01,7.376993983996124257e-03
2.667999999999999972e+01,1.365185005088859725e-02
2.671999999999999886e+01,1.130084545155246763e-02
2.676000000000000156e+01,9.024776165513406778e-03
2.680000000000000071e+01,1.424932149764825996e-02
2.683999999999999986e+01,1.954880183633576213e-02
2.687999999999999901e+01,1.824760620210106460e-02
2.692000000000000171e+01,6.520384417625443504e-03
2.696000000000000085e+01,7.319236473215554213e-03
2.700000000000000000e+01,9.318125870089103216e-03
2.703999999999999915e+01,9.216750473429735635e-03
2.707999999999999829e+01,1.406575527204118742e-02
2.712000000000000099e+01,7.438637068545717393e-03
2.716000000000000014e+01,1.266253016932328626e-02
2.719999999999999929e+01,1.136075293341557227e-02
2.723999999999999844e+01,6.308559146391942880e-03
2.728000000000000114e+01,7.031820283139083617e-03
2.732000000000000028e+01,5.129767510245453882e-03
2.735999999999999943e+01,4.052716382212146959e-03
2.739999999999999858e+01,1.317652464749658955e-02
2.744000000000000128e+01,6.623824343676722008e-03
2.748000000000000043e+01,8.021777229991124136e-03
2.751999999999999957e+01,1.219490959125755364e-02
2.755999999999999872e+01,1.441778889158164614e-02
2.760000000000000142e+01,5.314557075761654897e-03
2.764000000000000057e+01,1.061256807304575799e-02
2.767999999999999972e+01,1.321025691712459163e-02
2.771999999999999886e+01,1.108243814783078408e-02
2.776000000000000156e+01,6.329303781801814792e-03
2.780000000000000071e+01,1.380221258216373682e-02
2.783999999999999986e+01,9.123933850787233069e-03
2.787999999999999901e+01,1.097117637474475348e-02
2.792000000000000171e+01,3.667505588804975420e-03
2.796000000000000085e+01,8.964911671840360141e-03
2.800000000000000000e+01,8.411706119677987703e-03
2.803999999999999915e+01,1.738429573794631616e-02
2.807999999999999829e+01,6.855024309208579240e-03
2.812000000000000099e+01,1.200211052775730820e-02
2.816000000000000014e+01,7.848268789746188842e-03
2.819999999999999929e+01,9.094844131871818518e-03
2.823999999999999844e+01,9.516266753947188323e-03
2.828000000000000114e+01,1.061267376689277800e-02
2.832000000000000028e+01,1.283410619662423563e-02
2.835999999999999943e+01,9.354939337237322752e-03
2.839999999999999858e+01,1.352639468756531953e-02
2.844000000000000128e+01,1.244729162131836403e-02
2.848000000000000043e+01,1.421837121230509586e-02
2.851999999999999957e+01,9.913816584611439761e-03
2.855999999999999872e+01,1.423497277493409457e-02
2.860000000000000142e+01,1.000526795374899469e-02
2.864000000000000057e+01,9.300806945240434540e-03
2.867999999999999972e+01,7.396157213514111331e-03
2.871999999999999886e+01,1.231705296916390385e-02
2.876000000000000156e+01,5.911833160875608860e-03
2.880000000000000071e+01,7.832295797511715924e-03
2.883999999999999986e+01,1.065276126745109096e-02
2.887999999999999901e+01,1.242305097374089493e-02
2.892000000000000171e+01,1.224308240443332599e-02
2.896000000000000085e+01,8.612718141863413487e-03
2.900000000000000000e+01,8.582603174834831788e-03
2.903999999999999915e+01,1.027756576960939944e-02
2.907999999999999829e+01,7.322022399570787994e-03
2.912000000000000099e+01,1.089199553032774333e-02
2.916000000000000014e+01,1.123659279060521161e-02
2.919999999999999929e+01,1.353128758884094250e-02
2.923999999999999844e+01,8.175201280189173941e-03
2.928000000000000114e+01,8.069514184195278675e-03
2.932000000000000028e+01,1.051397907176016520e-02
2.935999999999999943e+01,9.433039869125948995e-03
2.939999999999999858e+01,6.551854276857062634e-03
2.944000000000000128e+01,6.970888840176664956e-03
2.948000000000000043e+01,4.764601211756245604e-03
2.951999999999999957e+01,9.233842276838486948e-03
2.955999999999999872e+01,1.340297360309007473e-02
2.960000000000000142e+01,6.170979281372388978e-03
2.964000000000000057e+01,1.048995930199224727e-02
2.967999999999999972e+01,7.758211434347376742e-03
2.971999999999999886e+01,6.676531657963543330e-03
2.976000000000000156e+01,5.219734512673263396e-03
2.980000000000000071e+01,3.312812981889781769e-03
2.983999999999999986e+01,6.131240474050717558e-03
2.987999999999999901e+01,4.738089100078787179e-04
2.992000000000000171e+01,9.667652596141060664e-03
2.996000000000000085e+01,6.635293758594197448e-03
3.000000000000000000e+01,2.521513678244538603e-06
3.003999999999999915e+01,7.695976016319298549e-03
3.007999999999999829e+01,5.038399115529511134e-03
3.012000000000000099e+01,6.431108395147031032e-03
3.016000000000000014e+01,4.148396790692059945e-03
3.019999999999999929e+01,9.291279904558599409e-03
3.023999999999999844e+01,7.078221568468179639e-04
3.028000000000000114e+01,0.000000000000000000e+00
3.032000000000000028e+01,6.117717195641034569e-03
3.035999999999999943e+01,4.509642126758061850e-03
3.039999999999999858e+01,9.277064924330650011e-03
3.044000000000000128e+01,6.468708877064169652e-03
3.048000000000000043e+01,4.860376827698883843e-03
3.051999999999999957e+01,5.052123528579661321e-03
3.055999999999999872e+01,3.668639981675719027e-03
3.060000000000000142e+01,6.935495680429610947e-03
3.064000000000000057e+01,9.152168867156763518e-03
3.067999999999999972e+01,8.893528987406890129e-03
3.071999999999999886e+01,7.959740604959016780e-03
3.076000000000000156e+01,8.901036915738659572e-03
3.080000000000000071e+01,1.501771974781757231e-02
3.083999999999999986e+01,5.982929016656985365e-03
3.087999999999999901e+01,4.073702943631810937e-03
3.092000000000000171e+01,8.314952153579581798e-03
3.096000000000000085e+01,1.098096958202050138e-02
3.100000000000000000e+01,4.046020711616171370e-03
3.103999999999999915e+01,1.121227416481969906e-02
3.107999999999999829e+01,9.227602191721379771e-03
3.112000000000000099e+01,8.217931172925043576e-03
3.116000000000000014e+01,9.458377629707253806e-03
3.119999999999999929e+01,1.032370119618356008e-02
3.123999999999999844e+01,1.283908702577689354e-02
3.128000000000000114e+01,4.403381945056094628e-03
3.132000000000000028e+01,5.568466321459444347e-03
3.135999999999999943e+01,6.883475236570503648e-03
3.139999999999999858e+01,3.472962428065629395e-03
3.144000000000000128e+01,1.637504252602138772e-03
3.148000000000000043e+01,1.090297218506669844e-02
3.151999999999999957e+01,5.016963946964209456e-03
3.155999999999999872e+01,1.323215603863081395e-02
3.160000000000000142e+01,9.746187360859219148e-03
3.164000000000000057e+01,5.660073516043509848e-03
3.167999999999999972e+01,1.327493991801189689e-02
3.171999999999999886e+01,1.616428336938668942e-02
3.176000000000000156e+01,2.197880376468868552e-02
3.180000000000000071e+01,1.729227243512562739e-02
3.183999999999999986e+01,1.763110991275512046e-02
3.187999999999999901e+01,7.543902221989815318e-03
3.192000000000000171e+01,1.590829154709269555e-02
3.196000000000000085e+01,1.422166971312950438e-02
3.200000000000000000e+01,6.834434633176990348e-03
3.203999999999999915e+01,1.287333627359534514e-02
3.207999999999999829e+01,1.088641160162620233e-02
3.211999999999999744e+01,1.167464876680510133e-02
3.215999999999999659e+01,8.637443652871740901e-03
3.220000000000000284e+01,1.625112070687887919e-02
3.224000000000000199e+01,4.287913899955564899e-03
3.228000000000000114e+01,1.107633018140914520e-02
3.232000000000000028e+01,1.366426925418845126e-02
3.235999999999999943e+01,1.782725943244831135e-02
3.239999999999999858e+01,7.138797518811052824e-03
3.243999999999999773e+01,1.167663550897388505e-02
3.247999999999999687e+01,1.073887900232478078e-02
3.252000000000000313e+01,1.152618671409669920e-02
3.256000000000000227e+01,2.637515282292588609e-03
3.260000000000000142e+01,9.500191183302230877e-03
3.264000000000000057e+01,8.337038624713404011e-03
3.267999999999999972e+01,1.407442323286670766e-02
3.271999999999999886e+01,1.538630850897978498e-02
3.275999999999999801e+01,1.227269429968035584e-02
3.279999999999999716e+01,5.708669673386536185e-03
3.284000000000000341e+01,6.645236506063103427e-03
3.288000000000000256e+01,9.831914219313273029e-03
3.292000000000000171e+01,9.718194781881678637e-03
3.296000000000000085e+01,1.005442120112797974e-02
3.300000000000000000e+01,1.106561391332388372e-02
3.303999999999999915e+01,9.676491373297022372e-03
3.307999999999999829e+01,1.386641634797013438e-03
3.311999999999999744e+01,6.222897022759707984e-03
3.315999999999999659e+01,9.633925920173296714e-03
3.320000000000000284e+01,1.011959090937287857e-02
3.324000000000000199e+01,9.930097733425338399e-03
3.328000000000000114e+01,5.915157983943694631e-03
3.332000000000000028e+01,6.775567640453616057e-03
3.335999999999999943e+01,1.110283340958130539e-03
3.339999999999999858e+01,5.345807976090478572e-03
3.343999999999999773e+01,4.555775612765708589e-03
3.347999999999999687e+01,5.490803786928941110e-03
3.352000000000000313e+01,1.085113942093489901e-02
3.356000000000000227e+01,9.310746016001193379e-03
3.360000000000000142e+01,2.894808725550784834e-03
3.364000000000000057e+01,5.854631406992533323e-03
3.367999999999999972e+01,9.789445226914848808e-03
3.371999999999999886e+01,1.207400981943326790e-02
3.375999999999999801e+01,6.032714205072859520e-03
3.379999999999999716e+01,1.311752110984760154e-02
3.384000000000000341e+01,7.826096887408699743e-03
3.388000000000000256e+01,1.273550721198972620e-02
3.392000000000000171e+01,9.319056716203069982e-03
3.396000000000000085e+01,1.100297376209657084e-02
3.400000000000000000e+01,1.231175718162952869e-02
3.403999999999999915e+01,1.309539309500044012e-02
3.407999999999999829e+01,1.410394998098351421e-02
3.411999999999999744e+01,1.121205020940143314e-02
3.415999999999999659e+01,1.537069565621904110e-02
3.420000000000000284e+01,5.802985057609663655e-03
3.424000000000000199e+01,1.296170472534372356e-02
3.428000000000000114e+01,1.411977495201401610e-02
3.432000000000000028e+01,1.557777209427779232e-02
3.435999999999999943e+01,9.159947908367466196e-03
3.439999999999999858e+01,1.309297000206754817e-02
3.443999999999999773e+01,1.170040381014676549e-02
3.447999999999999687e+01,1.270795609034047931e-02
3.452000000000000313e+01,1.026509135853484467e-02
3.456000000000000227e+01,1.292259186782620389e-02
3.460000000000000142e+01,1.317977114337869418e-02
3.464000000000000057e+01,1.381188297076166652e-02
3.467999999999999972e+01,1.121859776230030303e-02
3.471999999999999886e+01,1.980123310183275198e-02
3.475999999999999801e+01,1.518255829122974396e-02
3.479999999999999716e+01,1.236394582004649023e-02
3.484000000000000341e+01,1.472070437956944124e-02
3.488000000000000256e+01,1.925255928784090631e-02
3.492000000000000171e+01,5.557643597107400982e-03
3.496000000000000085e+01,7.089018147724814901e-03
3.500000000000000000e+01,1.372075625234496325e-02
3.503999999999999915e+01,1.255167728467808559e-02
3.507999999999999829e+01,1.468279684711820167e-02
3.511999999999999744e+01,1.133831179018062775e-02
3.515999999999999659e+01,1.151904554624956500e-02
3.520000000000000284e+01,2.047547838697739292e-02
3.524000000000000199e+01,2.230615515748884947e-02
3.528000000000000114e+01,1.221063645867499770e-02
3.532000000000000028e+01,1.651633112550117410e-02
3.535999999999999943e+01,1.804666732844333391e-02
3.539999999999999858e+01,1.162617135231930506e-02
3.543999999999999773e+01,1.450642158312334153e-02
3.547999999999999687e+01,1.318618248884863807e-02
3.552000000000000313e+01,1.696630495473792216e-02
3.556000000000000227e+01,2.224645939311644532e-02
3.560000000000000142e+01,1.897572597985064738e-02
3.564000000000000057e+01,1.773007227483210102e-02
3.567999999999999972e+01,1.648431281789342062e-02
3.571999999999999886e+01,1.996387983818452214e-02
3.575999999999999801e+01,2.651862219161117695e-02
3.579999999999999716e+01,2.287232493581044940e-02
3.584000000000000341e+01,2.312627820176187468e-02
3.588000000000000256e+01,1.880470629283925027e-02
3.592000000000000171e+01,2.738420818468078471e-02
3.596000000000000085e+01,2.628771789630856073e-02
3.600000000000000000e+01,2.526612749225317159e-02
3.603999999999999915e+01,2.319433387092282445e-02
3.607999999999999829e+01,2.862311928541396572e-02
3.611999999999999744e+01,3.030145410015882418e-02
3.615999999999999659e+01,2.905441365714618238e-02
3.620000000000000284e+01,3.905829495057022704e-02
3.624000000000000199e+01,3.481076433408220039e-02
3.628000000000000114e+01,3.693870903833505054e-02
3.632000000000000028e+01,4.116673770672222427e-02
3.635999999999999943e+01,3.894406777940294384e-02
3.639999999999999858e+01,3.799640601411262419e-02
3.643999999999999773e+01,3.877379343676682494e-02
3.647999999999999687e+01,4.315140147435928691e-02
3.652000000000000313e+01,4.385356424169797179e-02
3.656000000000000227e+01,4.500565906221580537e-02
3.660000000000000142e+01,4.473251420217454893e-02
3.664000000000000057e+01,4.325915009784598447e-02
3.667999999999999972e+01,4.598606074731169391e-02
3.671999999999999886e+01,4.023708611392586704e-02
3.675999999999999801e+01,4.723916833405856358e-02
3.679999999999999716e+01,4.629041300709772766e-02
3.684000000000000341e+01,4.391641707934464817e-02
3.688000000000000256e+01,4.656777063388578553e-02
3.692000000000000171e+01,3.916809401120697337e-02
3.696000000000000085e+01,4.601961073947836295e-02
3.700000000000000000e+01,4.146997344592189688e-02
3.703999999999999915e+01,4.509597327618563439e-02
3.707999999999999829e+01,4.737173844863844935e-02
3.711999999999999744e+01,4.672212468240075078e-02
3.715999999999999659e+01,5.192293482021288764e-02
3.720000000000000284e+01,4.137219210288715920e-02
3.724000000000000199e+01,4.912301227649657626e-02
3.728000000000000114e+01,5.027311660040949259e-02
3.732000000000000028e+01,5.532346577130277387e-02
3.735999999999999943e+01,5.594829781897956572e-02
3.739999999999999858e+01,6.459875188369740284e-02
3.743999999999999773e+01,5.487241196053185138e-02
3.747999999999999687e+01,6.232253105984862651e-02
3.752000000000000313e+01,6.774735204532847388e-02
3.756000000000000227e+01,7.834753363220428590e-02
3.760000000000000142e+01,7.289613337736165766e-02
3.764000000000000057e+01,8.229597877185873545e-02
3.767999999999999972e+01,8.667025091044458507e-02
3.771999999999999886e+01,8.826915553618608357e-02
3.775999999999999801e+01,9.286822096323801845e-02
3.779999999999999716e+01,9.866728232107696561e-02
3.784000000000000341e+01,1.076915247631258787e-01
3.788000000000000256e+01,1.146154608477733539e-01
3.792000000000000171e+01,1.346654836542184042e-01
3.796000000000000085e+01,1.393389850075268666e-01
3.800000000000000000e+01,1.611139365262643230e-01
3.803999999999999915e+01,1.768132173237356441e-01
3.807999999999999829e+01,1.909372390394470098e-01
3.811999999999999744e+01,2.417395017594909101e-01
3.815999999999999659e+01,2.739399471413077602e-01
3.820000000000000284e+01,3.137909771566482764e-01
3.824000000000000199e+01,3.853697947440387628e-01
3.828000000000000114e+01,4.330963141080609868e-01
3.832000000000000028e+01,5.279270276963892172e-01
3.835999999999999943e+01,6.487099999291238150e-01
3.839999999999999858e+01,7.543414696112713536e-01
3.843999999999999773e+01,8.595977886427432768e-01
3.847999999999999687e+01,9.422019184954198989e-01
3.852000000000000313e+01,9.794267794618942702e-01
3.856000000000000227e+01,1.000000000000000000e+00
3.860000000000000142e+01,9.042374587441125433e-01
3.864000000000000057e+01,8.400526898001233755e-01
3.867999999999999972e+01,7.274133699646432305e-01
3.871999999999999886e+01,6.107985689705790477e-01
3.875999999999999801e+01,5.173607711482575144e-01
3.879999999999999716e+01,4.426745714146430033e-01
3.884000000000000341e+01,3.561371694247910669e-01
3.888000000000000256e+01,3.077031359262778487e-01
3.892000000000000171e+01,2.588189430734078034e-01
3.896000000000000085e+01,2.322866771300582667e-01
3.900000000000000000e+01,2.022289701338073620e-01
3.903999999999999915e+01,1.726961925448732005e-01
3.907999999999999829e+01,1.616899913813965028e-01
3.911999999999999744e+01,1.465582937991846413e-01
3.915999999999999659e+01,1.222756398094847624e-01
3.920000000000000284e+01,1.196698500401404547e-01
3.924000000000000199e+01,1.099382888633588795e-01
3.928000000000000114e+01,1.090574179904855445e-01
3.932000000000000028e+01,1.019508577620061862e-01
3.935999999999999943e+01,1.011447541813930151e-01
3.939999999999999858e+01,8.428706185731195399e-02
3.943999999999999773e+01,8.340571122904076595e-02
3.947999999999999687e+01,8.672462461850928561e-02
3.952000000000000313e+01,7.804231941798371597e-02
3.956000000000000227e+01,7.911078580633652824e-02
3.960000000000000142e+01,7.462862353440957719e-02
3.964000000000000057e+01,6.984631287385528742e-02
3.967999999999999972e+01,6.581394975630634747e-02
3.971999999999999886e+01,6.328160266053689531e-02
3.975999999999999801e+01,6.419944987675529902e-02
3.979999999999999716e+01,6.894252556766254647e-02
3.984000000000000341e+01,6.648482068733477246e-02
3.988000000000000256e+01,6.950249496567342811e-02
3.992000000000000171e+01,6.059395598351052098e-02
3.996000000000000085e+01,6.443646158508940791e-02
4.000000000000000000e+01,6.257832326623721797e-02
4.003999999999999915e+01,5.846985658145499587e-02
4.007999999999999829e+01,5.458628786345354894e-02
4.011999999999999744e+01,6.217864644105626504e-02
4.015999999999999659e+01,5.769477711149486460e-02
4.020000000000000284e+01,6.176156710542235473e-02
4.024000000000000199e+01,6.125281520690504383e-02
4.028000000000000114e+01,5.841872715900980895e-02
4.032000000000000028e+01,5.580953615766214709e-02
4.035999999999999943e+01,5.064998811054823025e-02
4.039999999999999858e+01,5.501618784185240835e-02
4.043999999999999773e+01,4.700613113952850641e-02
4.047999999999999687e+01,5.129707584781987434e-02
4.052000000000000313e+01,5.041242268434386470e-02
4.056000000000000227e+01,4.697741170824056706e-02
4.060000000000000142e+01,4.826770849795757740e-02
4.064000000000000057e+01,4.738268148437608379e-02
4.067999999999999972e+01,4.514740600948487920e-02
4.071999999999999886e+01,3.781153875917989821e-02
4.075999999999999801e+01,4.562693264804090765e-02
4.079999999999999716e+01,5.119199525689992897e-02
4.084000000000000341e+01,4.933125287057482655e-02
4.088000000000000256e+01,4.319499359070811534e-02
4.092000000000000171e+01,4.335918497719139925e-02
4.096000000000000085e+01,5.049888864558420981e-02
4.100000000000000000e+01,4.443725823777701367e-02
4.103999999999999915e+01,4.505111235227636513e-02
4.107999999999999829e+01,4.221452430173408543e-02
4.111999999999999744e+01,3.600250079599259800e-02
4.115999999999999659e+01,3.849114665923625278e-02
4.120000000000000284e+01,4.735524897843904762e-02
4.124000000000000199e+01,4.429313297585743547e-02
4.128000000000000114e+01,4.610633585819781666e-02
4.132000000000000028e+01,3.816851914523380906e-02
4.135999999999999943e+01,3.998146711939880998e-02
4.139999999999999858e+01,3.969409523940795742e-02
4.143999999999999773e+01,3.655633471974268495e-02
4.147999999999999687e+01,3.739380995956276960e-02
4.152000000000000313e+01,3.875620509762266186e-02
4.156000000000000227e+01,4.011847193804771172e-02
4.160000000000000142e+01,3.915539756781193786e-02
4.164000000000000057e+01,3.714209850819201464e-02
4.167999999999999972e+01,2.890310104400575092e-02
4.171999999999999886e+01,3.544032672197927614e-02
4.175999999999999801e+01,3.500178505649568367e-02
4.179999999999999716e+01,3.583823084779282769e-02
4.184000000000000341e+01,3.622450608856182808e-02
4.188000000000000256e+01,3.908587829080133885e-02
4.192000000000000171e+01,3.174618741786552206e-02
4.196000000000000085e+01,3.408225206826091813e-02
4.200000000000000000e+01,3.319289161569778657e-02
4.203999999999999915e+01,3.035322258145272886e-02
4.207999999999999829e+01,2.931358797288541318e-02
4.211999999999999744e+01,2.812380919304306379e-02
4.215999999999999659e+01,3.405955182037323503e-02
4.220000000000000284e+01,3.249447737464954133e-02
4.224000000000000199e+01,2.755396317930476624e-02
4.228000000000000114e+01,3.063905228959157984e-02
4.232000000000000028e+01,3.304894841923982501e-02
4.235999999999999943e+01,2.638288273483796118e-02
4.239999999999999858e+01,2.774241989595103638e-02
4.243999999999999773e+01,3.360223717811888083e-02
4.247999999999999687e+01,2.986104414361755166e-02
4.252000000000000313e+01,2.731982894198257267e-02
4.256000000000000227e+01,2.860383163235400220e-02
4.260000000000000142e+01,2.823755104669114016e-02
4.264000000000000057e+01,2.832117920163161259e-02
4.267999999999999972e+01,3.012983261845204527e-02
4.271999999999999886e+01,2.991316798304837626e-02
4.275999999999999801e+01,2.932133613277041612e-02
4.279999999999999716e+01,3.187965948533389576e-02
4.284000000000000341e+01,2.783724566946377960e-02
4.288000000000000256e+01,2.694498674969070598e-02
4.292000000000000171e+01,2.792776589799358944e-02
4.296000000000000085e+01,2.943545942313677277e-02
4.300000000000000000e+01,2.546751811457711664e-02
4.303999999999999915e+01,2.704995071149399535e-02
4.307999999999999829e+01,2.833222172977356568e-02
4.311999999999999744e+01,3.208958495498515084e-02
4.315999999999999659e+01,2.654596270905858549e-02
4.320000000000000284e+01,2.640270002869044008e-02
4.324000000000000199e+01,3.488509187873793660e-02
4.328000000000000114e+01,2.776592128750112257e-02
4.332000000000000028e+01,3.204765885887708027e-02
4.335999999999999943e+01,3.452909651371750821e-02
4.339999999999999858e+01,3.416013801364530672e-02
4.343999999999999773e+01,3.169085183743458600e-02
4.347999999999999687e+01,3.379684865781584779e-02
4.352000000000000313e+01,3.237738709423610556e-02
4.356000000000000227e+01,3.283296114477699673e-02
4.360000000000000142e+01,3.193827553783692985e-02
4.364000000000000057e+01,3.861914684258547364e-02
4.367999999999999972e+01,4.147453169702562670e-02
4.371999999999999886e+01,3.990437504206807706e-02
4.375999999999999801e+01,3.810906106436029450e-02
4.379999999999999716e+01,4.403931711128156179e-02
4.384000000000000341e+01,4.089360566938100155e-02
4.388000000000000256e+01,4.097305215248688015e-02
4.392000000000000171e+01,4.562777994509045060e-02
4.396000000000000085e+01,5.260758299738040045e-02
4.400000000000000000e+01,5.066143167378894113e-02
4.403999999999999915e+01,5.606581513852012394e-02
4.407999999999999829e+01,5.771971748243546335e-02
4.411999999999999744e+01,6.064859838754339816e-02
4.415999999999999659e+01,6.380236161546684603e-02
4.420000000000000284e+01,7.625683746180463018e-02
4.424000000000000199e+01,8.076044723381808899e-02
4.428000000000000114e+01,8.068849962279360521e-02
4.432000000000000028e+01,8.826711317934486656e-02
4.435999999999999943e+01,9.569557397577735380e-02
4.439999999999999858e+01,1.047740465758701806e-01
4.443999999999999773e+01,1.151274965101779790e-01
4.447999999999999687e+01,1.212054157474453525e-01
4.452000000000000313e+01,1.287083257386125723e-01
4.456000000000000227e+01,1.424366655760441192e-01
4.460000000000000142e+01,1.524145222988210757e-01
4.464000000000000057e+01,1.690678497404058123e-01
4.467999999999999972e+01,1.797954947273671389e-01
4.471999999999999886e+01,1.953984454092404510e-01
4.475999999999999801e+01,1.995252054518627804e-01
4.479999999999999716e+01,1.966011796315255411e-01
4.484000000000000341e+01,1.923268893991687545e-01
4.488000000000000256e+01,2.015536935179185196e-01
4.492000000000000171e+01,1.935287779164013566e-01
4.496000000000000085e+01,1.780030346591479073e-01
4.500000000000000000e+01,1.704278774150011500e-01
4.503999999999999915e+01,1.603773520437543898e-01
4.507999999999999829e+01,1.518268221424111108e-01
4.511999999999999744e+01,1.298499217778864012e-01
4.515999999999999659e+01,1.179237989829893807e-01
4.520000000000000284e+01,1.071226368818061075e-01
4.524000000000000199e+01,9.684638041524719354e-02
4.528000000000000114e+01,8.649497452422340305e-02
4.532000000000000028e+01,7.719352200358199634e-02
4.535999999999999943e+01,7.456753744104864523e-02
4.539999999999999858e+01,5.694003721422099401e-02
4.543999999999999773e+01,5.813911647952810929e-02
4.547999999999999687e+01,5.318748963312366906e-02
4.552000000000000313e+01,4.396032810200142110e-02
4.556000000000000227e+01,4.238372298391640536e-02
4.560000000000000142e+01,4.710755058763294728e-02
4.564000000000000057e+01,4.290541752720752888e-02
4.567999999999999972e+01,3.990325018324396289e-02
4.571999999999999886e+01,3.757600035986755072e-02
4.575999999999999801e+01,3.502358554513046451e-02
4.579999999999999716e+01,2.812062810885543676e-02
4.584000000000000341e+01,2.654301325235843695e-02
4.588000000000000256e+01,2.721545943046717320e-02
4.592000000000000171e+01,2.736271255086780707e-02
4.596000000000000085e+01,2.660973814411498814e-02
4.600000000000000000e+01,1.970605563181189804e-02
4.603999999999999915e+01,2.817863460318715749e-02
4.607999999999999829e+01,2.434994237866752037e-02
4.611999999999999744e+01,1.992104946636411023e-02
4.615999999999999659e+01,2.141755281257815349e-02
4.620000000000000284e+01,1.848850514031755154e-02
4.624000000000000199e+01,1.338411219264918663e-02
4.628000000000000114e+01,1.705537584553787692e-02
4.632000000000000028e+01,1.705115665198164016e-02
4.635999999999999943e+01,1.487159172290101680e-02
4.639999999999999858e+01,1.741731232067041460e-02
4.643999999999999773e+01,1.823772805545882322e-02
4.647999999999999687e+01,1.553267405674278040e-02
4.652000000000000313e+01,1.642780217654054783e-02
4.656000000000000227e+01,1.447252202502116551e-02
4.660000000000000142e+01,8.766751090236748339e-03
4.664000000000000057e+01,9.136388299932594881e-03
4.667999999999999972e+01,1.438132368930223302e-02
4.671999999999999886e+01,1.580076097207561148e-02
4.675999999999999801e+01,1.331969313166585581e-02
4.679999999999999716e+01,1.053844944900335194e-02
4.684000000000000341e+01,1.128237979466236753e-02
4.688000000000000256e+01,1.240119576025597303e-02
4.692000000000000171e+01,1.344485601312408671e-02
4.696000000000000085e+01,9.837941743801646363e-03
4.700000000000000000e+01,1.133134501681929036e-02
4.703999999999999915e+01,1.072440681019962150e-02
4.707999999999999829e+01,1.101740149915594186e-02
4.711999999999999744e+01,1.063518480280864140e-02
4.715999999999999659e+01,1.227800364351245774e-02
4.720000000000000284e+01,9.345253905007126077e-03
4.724000000000000199e+01,7.987498217520669005e-03
4.728000000000000114e+01,1.285516194698835615e-02
4.732000000000000028e+01,6.246625221383666181e-03
4.735999999999999943e+01,5.488473289915533210e-03
4.739999999999999858e+01,9.980651093494634016e-03
4.743999999999999773e+01,8.322115270123964584e-03
4.747999999999999687e+01,1.026375788433411991e-02
4.752000000000000313e+01,7.554823829142800866e-03
4.756000000000000227e+01,1.017122575872456310e-02
4.760000000000000142e+01,1.278747623146790982e-02
4.764000000000000057e+01,1.217827997577127994e-02
4.767999999999999972e+01,6.018424078608717274e-03
4.771999999999999886e+01,5.858965321662095230e-03
4.775999999999999801e+01,7.049478032251719171e-03
4.779999999999999716e+01,6.889714981278444693e-03
4.784000000000000341e+01,5.904724057872537575e-03
4.788000000000000256e+01,6.194697278671608236e-03
4.792000000000000171e+01,9.859826660313276633e-03
4.796000000000000085e+01,9.174405138317741001e-03
4.800000000000000000e+01,5.038514917888431074e-03
4.803999999999999915e+01,7.728096106058414926e-03
4.807999999999999829e+01,5.917112204045276748e-03
4.811999999999999744e+01,9.806496455667449569e-03
4.815999999999999659e+01,6.345054508205890710e-03
4.820000000000000284e+01,7.308863732986410795e-03
4.824000000000000199e+01,7.297429825182908357e-03
4.828000000000000114e+01,7.510862442857366324e-03
4.832000000000000028e+01,7.274099663705892345e-03
4.835999999999999943e+01,5.612052112565944599e-03
4.839999999999999858e+01,8.450261830021654416e-03
4.843999999999999773e+01,5.437781539080912760e-03
4.847999999999999687e+01,8.050661158210946702e-03
4.852000000000000313e+01,7.138063221853872993e-03
4.856000000000000227e+01,4.500152293788753192e-03
4.860000000000000142e+01,7.637614542107053726e-03
4.864000000000000057e+01,5.824468373743522422e-03
4.867999999999999972e+01,1.158685979217025618e-02
4.871999999999999886e+01,7.673210104648645405e-03
4.875999999999999801e+01,7.359733946797133997e-03
4.879999999999999716e+01,5.095923287360423250e-03
4.884000000000000341e+01,8.832505473717802008e-03
4.888000000000000256e+01,5.893320469223437517e-03
4.892000000000000171e+01,5.054171116617608463e-03
4.896000000000000085e+01,6.615084715386696304e-03
4.900000000000000000e+01,3.900450286055769968e-03
4.903999999999999915e+01,9.436413832096994872e-03
4.907999999999999829e+01,5.296334891839952347e-03
4.911999999999999744e+01,1.248213501201076922e-02
4.915999999999999659e+01,5.491480546260668616e-03
4.920000000000000284e+01,8.326567569901258126e-03
4.924000000000000199e+01,1.221159293344784361e-02
4.928000000000000114e+01,8.820794666703457923e-03
4.932000000000000028e+01,7.154996202052374236e-03
4.935999999999999943e+01,5.639053258614980767e-03
4.939999999999999858e+01,7.423253938033838421e-03
4.943999999999999773e+01,9.957364737639053803e-03
4.947999999999999687e+01,7.540863899746036436e-03
4.952000000000000313e+01,1.014966407852929339e-02
4.956000000000000227e+01,7.657838586640615570e-03
4.960000000000000142e+01,1.011630694146913728e-02
4.964000000000000057e+01,3.798813021364107374e-03
4.967999999999999972e+01,4.981845990529532898e-03
4.971999999999999886e+01,7.364829185563686632e-03
4.975999999999999801e+01,7.047405565933248690e-03
4.979999999999999716e+01,6.954842643636837546e-03
4.984000000000000341e+01,7.837208897448637995e-03
4.988000000000000256e+01,4.894064928259645418e-03
4.992000000000000171e+01,8.101323390244408520e-03
4.996000000000000085e+01,1.108340075678654335e-02
5.000000000000000000e+01,8.814837039133169641e-03
5.003999999999999915e+01,1.044646939609778641e-02
5.007999999999999829e+01,3.977199559966282383e-03
5.011999999999999744e+01,6.133557874230481828e-03
5.015999999999999659e+01,8.064734326191020861e-03
5.020000000000000284e+01,3.995200294948631457e-03
5.024000000000000199e+01,5.551019425399866293e-03
5.028000000000000114e+01,8.606814087367447436e-03
5.032000000000000028e+01,9.187220377103408678e-03
5.035999999999999943e+01,6.542169509089206143e-03
5.039999999999999858e+01,7.347272156055281722e-03
5.043999999999999773e+01,4.551883022453562071e-03
5.047999999999999687e+01,1.068214811175623689e-02
5.052000000000000313e+01,7.586406372648928607e-03
5.056000000000000227e+01,6.440680270740334508e-03
5.060000000000000142e+01,7.469990242302148968e-03
5.064000000000000057e+01,7.524047878947447664e-03
5.067999999999999972e+01,1.035319618803583024e-02
5.071999999999999886e+01,7.931700652228951265e-03
5.075999999999999801e+01,6.035089585681642499e-03
5.079999999999999716e+01,6.538534415387628300e-03
5.084000000000000341e+01,6.891801638677031751e-03
5.088000000000000256e+01,7.469925418250835530e-03
5.092000000000000171e+01,9.548022275385660215e-03
5.096000000000000085e+01,6.075446914533405574e-03
5.100000000000000000e+01,9.578345339166264780e-03
5.103999999999999915e+01,6.330461427633432038e-03
5.107999999999999829e+01,7.582824508758286529e-03
5.111999999999999744e+01,4.259603980197504587e-03
5.115999999999999659e+01,4.386534052545055205e-03
5.120000000000000284e+01,3.163175326691941569e-03
5.124000000000000199e+01,1.146552281538833033e-02
5.128000000000000114e+01,7.091544853729478577e-03
5.132000000000000028e+01,8.942970818431681540e-03
5.135999999999999943e+01,5.693764210712570252e-03
5.139999999999999858e+01,9.345022991541801494e-03
5.143999999999999773e+01,7.670628303561380541e-03
5.147999999999999687e+01,6.221087871282236607e-03
5.152000000000000313e+01,6.421531942410239543e-03
5.156000000000000227e+01,9.022028995719565472e-03
5.160000000000000142e+01,6.371878829945044204e-03
5.164000000000000057e+01,8.221973509617230835e-03
5.167999999999999972e+01,1.119700403670529677e-02
5.171999999999999886e+01,8.771373158163613126e-03
5.175999999999999801e+01,7.320664093864083337e-03
5.179999999999999716e+01,6.169814921502813319e-03
5.184000000000000341e+01,2.993612728053804406e-03
5.188000000000000256e+01,2.892524058740164692e-03
5.192000000000000171e+01,5.716535033760426765e-03
5.196000000000000085e+01,6.740213117220247505e-03
5.200000000000000000e+01,8.513791505045083599e-03
5.203999999999999915e+01,9.462125916355342350e-03
5.207999999999999829e+01,9.210181881705617815e-03
5.211999999999999744e+01,1.315845339917759080e-02
5.215999999999999659e+01,6.530588262115559657e-03
5.220000000000000284e+01,9.803459974743177277e-03
5.224000000000000199e+01,9.025791825765809920e-03
5.228000000000000114e+01,9.898105266123630869e-03
5.232000000000000028e+01,6.944899127775924427e-03
5.235999999999999943e+01,9.992072338467919770e-03
5.239999999999999858e+01,8.538663894778282873e-03
5.243999999999999773e+01,9.260284469437423532e-03
5.247999999999999687e+01,7.656522116194969252e-03
5.252000000000000313e+01,7.627733568839817520e-03
5.256000000000000227e+01,7.448760820063100342e-03
5.260000000000000142e+01,5.319438999341318149e-03
5.264000000000000057e+01,6.115214062253692545e-03
5.267999999999999972e+01,8.185934864705974104e-03
5.271999999999999886e+01,8.606333587955108944e-03
5.275999999999999801e+01,7.826451257916727799e-03
5.279999999999999716e+01,5.546260268360094468e-03
5.284000000000000341e+01,1.024153600916693531e-02
5.288000000000000256e+01,7.585967452969376301e-03
5.292000000000000171e+01,9.655659423951809886e-03
5.296000000000000085e+01,8.799911720849016433e-03
5.300000000000000000e+01,7.418943813157163024e-03
5.303999999999999915e+01,6.337831042865096388e-03
5.307999999999999829e+01,8.556847785186038821e-03
5.311999999999999744e+01,1.100071249494767762e-02
5.315999999999999659e+01,1.134421225912407051e-02
5.320000000000000284e+01,9.062298881840544912e-03
5.324000000000000199e+01,1.000550754046656589e-02
5.328000000000000114e+01,1.207364591162008761e-02
5.332000000000000028e+01,7.240979477962775079e-03
5.335999999999999943e+01,1.028386013940586763e-02
5.339999999999999858e+01,8.076086680015699681e-03
5.343999999999999773e+01,7.518290362166672042e-03
5.347999999999999687e+01,8.160429853198741118e-03
5.352000000000000313e+01,1.105260108474461628e-02
5.356000000000000227e+01,5.918863643026839143e-03
5.360000000000000142e+01,1.076086454618605491e-02
5.364000000000000057e+01,1.140230649328367006e-02
5.367999999999999972e+01,1.061844326988905379e-02
5.371999999999999886e+01,6.909137458337257127e-03
5.375999999999999801e+01,6.349944825641659803e-03
5.379999999999999716e+01,7.215707364493399896e-03
5.384000000000000341e+01,8.156301383656817602e-03
5.388000000000000256e+01,9.996802225120686794e-03
5.392000000000000171e+01,1.003696265978587868e-02
5.396000000000000085e+01,8.651816850353388072e-03
5.400000000000000000e+01,7.566522497387622413e-03
5.403999999999999915e+01,1.435677263219472741e-02
5.407999999999999829e+01,1.507129054348001380e-02
5.411999999999999744e+01,1.233531629038359459e-02
5.415999999999999659e+01,1.154934387098706730e-02
5.420000000000000284e+01,8.137954475825395773e-03
5.424000000000000199e+01,5.851491112258239494e-03
5.428000000000000114e+01,9.640406599079404809e-03
5.432000000000000028e+01,1.252906250395544908e-02
5.435999999999999943e+01,1.001704688063593911e-02
5.439999999999999858e+01,1.110518316150511768e-02
5.443999999999999773e+01,9.717915272805159252e-03
5.447999999999999687e+01,1.215581957119337905e-02
5.452000000000000313e+01,9.568086043970417537e-03
5.456000000000000227e+01,1.035548321780336775e-02
5.460000000000000142e+01,1.031762659930038004e-02
5.464000000000000057e+01,1.027959153045026122e-02
5.467999999999999972e+01,1.354167983932479634e-02
5.471999999999999886e+01,8.627841300712344591e-03
5.475999999999999801e+01,7.314153285938691448e-03
5.479999999999999716e+01,1.102574604270973105e-02
5.484000000000000341e+01,1.556223507763357904e-02
5.488000000000000256e+01,9.897611344786418769e-03
5.492000000000000171e+01,1.030836400837221306e-02
5.496000000000000085e+01,9.593834046413651437e-03
5.500000000000000000e+01,1.120433701341180636e-02
5.503999999999999915e+01,1.146453645847727437e-02
5.507999999999999829e+01,8.199233195013326883e-03
5.511999999999999744e+01,1.288447714148727163e-02
5.515999999999999659e+01,5.343421939789528424e-03
5.520000000000000284e+01,1.542879899597339802e-02
5.524000000000000199e+01,1.088765697437276900e-02
5.528000000000000114e+01,1.347198605386017503e-02
5.532000000000000028e+01,1.230579091494101406e-02
5.535999999999999943e+01,9.114229258179760290e-03
5.539999999999999858e+01,1.454827550668263449e-02
5.543999999999999773e+01,1.375657059057933292e-02
5.547999999999999687e+01,8.539279073648898058e-03
5.552000000000000313e+01,1.052246460078787652e-02
5.556000000000000227e+01,1.550574267860439434e-02
5.560000000000000142e+01,1.381322779903804664e-02
5.564000000000000057e+01,9.495290422307024400e-03
5.567999999999999972e+01,1.200279516008342408e-02
5.571999999999999886e+01,1.368504181110200002e-02
5.575999999999999801e+01,1.139174196697583137e-02
5.579999999999999716e+01,1.314862983829885069e-02
5.584000000000000341e+01,1.138001208702051764e-02
5.588000000000000256e+01,1.126136212157857752e-02
5.592000000000000171e+01,1.129254252430808049e-02
5.596000000000000085e+01,1.222362177398319399e-02
5.600000000000000000e+01,1.450464089651951408e-02
5.603999999999999915e+01,1.221005754458851476e-02
5.607999999999999829e+01,1.059035198984259463e-02
5.611999999999999744e+01,1.302083292356819196e-02
5.615999999999999659e+01,1.462605408344169050e-02
5.620000000000000284e+01,1.600607022180801017e-02
5.624000000000000199e+01,1.431062038313868530e-02
5.628000000000000114e+01,1.464017111265684783e-02
5.632000000000000028e+01,1.541957812948291720e-02
5.635999999999999943e+01,1.462365597344948524e-02
5.639999999999999858e+01,1.735287118977964574e-02
5.643999999999999773e+01,1.393133827041303195e-02
5.647999999999999687e+01,1.696021008203645042e-02
5.652000000000000313e+01,1.886379328659933130e-02
5.656000000000000227e+01,1.469163475856344152e-02
5.660000000000000142e+01,1.809498344962053376e-02
5.664000000000000057e+01,1.572261755419296358e-02
5.667999999999999972e+01,1.395012029215269601e-02
5.671999999999999886e+01,1.862802684086919264e-02
5.675999999999999801e+01,1.678014971083806664e-02
5.679999999999999716e+01,1.493208584836050977e-02
5.684000000000000341e+01,1.555906158614733283e-02
5.688000000000000256e+01,1.431067870437738657e-02
5.692000000000000171e+01,1.366216353576148179e-02
5.696000000000000085e+01,1.548868750729333506e-02
5.700000000000000000e+01,1.363968768200051612e-02
5.703999999999999915e+01,1.576586395440375890e-02
5.707999999999999829e+01,1.594167397717456344e-02
5.711999999999999744e+01,1.079180875228204391e-02
5.715999999999999659e+01,1.546765449571066951e-02
5.720000000000000284e+01,1.031741289185332186e-02
5.724000000000000199e+01,1.694306039315325932e-02
5.728000000000000114e+01,1.389263396685209810e-02
5.732000000000000028e+01,1.601749237607573775e-02
5.735999999999999943e+01,1.289168148061744720e-02
5.739999999999999858e+01,1.389105902893461933e-02
5.743999999999999773e+01,1.211499345190846476e-02
5.747999999999999687e+01,1.881451407836229328e-02
5.752000000000000313e+01,1.546292554090859979e-02
5.756000000000000227e+01,1.398631893730242770e-02
5.760000000000000142e+01,1.648488628418141172e-02
5.764000000000000057e+01,1.433283815849009483e-02
5.767999999999999972e+01,1.263064110545159165e-02
5.771999999999999886e+01,1.377851459456203367e-02
5.775999999999999801e+01,1.260098491063929918e-02
5.779999999999999716e+01,1.224834015532592565e-02
5.784000000000000341e+01,1.497078607168879708e-02
5.788000000000000256e+01,1.551784208133112977e-02
5.792000000000000171e+01,1.531463843195884737e-02
5.796000000000000085e+01,1.391113379091186118e-02
5.800000000000000000e+01,1.423259567018883912e-02
5.803999999999999915e+01,1.402881801997845311e-02
5.807999999999999829e+01,1.487494481441589342e-02
5.811999999999999744e+01,1.714601021620209415e-02
5.815999999999999659e+01,1.341633461371582320e-02
5.820000000000000284e+01,1.703713950579023584e-02
5.824000000000000199e+01,1.308205895934035946e-02
5.828000000000000114e+01,1.452728015712619405e-02
5.832000000000000028e+01,1.244698622323372854e-02
5.835999999999999943e+01,1.591700745326181041e-02
5.839999999999999858e+01,1.766167796201846898e-02
5.843999999999999773e+01,1.903112113399494515e-02
5.847999999999999687e+01,1.582495247579939965e-02
5.852000000000000313e+01,1.284361107979632537e-02
5.856000000000000227e+01,1.308737132119903133e-02
5.860000000000000142e+01,1.738130854199631745e-02
5.864000000000000057e+01,1.334929015840085643e-02
5.867999999999999972e+01,1.554264748068001287e-02
5.871999999999999886e+01,1.211029596754895771e-02
5.875999999999999801e+01,1.617843652819692460e-02
5.879999999999999716e+01,1.792116992813426110e-02
5.884000000000000341e+01,1.718848228755951932e-02
5.888000000000000256e+01,1.833077151954942002e-02
5.892000000000000171e+01,1.707264626749742734e-02
5.896000000000000085e+01,1.416417501017770524e-02
5.900000000000000000e+01,1.665600273639396278e-02
5.903999999999999915e+01,1.652239492880777302e-02
5.907999999999999829e+01,1.271325534904204496e-02
5.911999999999999744e+01,1.497947606162738574e-02
5.915999999999999659e+01,2.137087846961098839e-02
5.920000000000000284e+01,1.621102800776154720e-02
5.924000000000000199e+01,1.795161287350753934e-02
5.928000000000000114e+01,1.556662402092511867e-02
5.932000000000000028e+01,1.333145249987637351e-02
5.935999999999999943e+01,1.739666094058935769e-02
5.939999999999999858e+01,1.561113734892065862e-02
5.943999999999999773e+01,1.397543062866899929e-02
5.947999999999999687e+01,1.398967789075493406e-02
5.952000000000000313e+01,1.347867994858179506e-02
5.956000000000000227e+01,1.296748469127980904e-02
5.960000000000000142e+01,1.163101647011576499e-02
5.964000000000000057e+01,1.606987909460552699e-02
5.967999999999999972e+01,1.600813215097158376e-02
5.971999999999999886e+01,1.437104315121258760e-02
5.975999999999999801e+01,1.550901000840529051e-02
5.979999999999999716e+01,1.619673745094808021e-02
5.984000000000000341e+01,1.433403315545889352e-02
5.988000000000000256e+01,1.532139112001942513e-02
5.992000000000000171e+01,1.623354352588659427e-02
5.996000000000000085e+01,1.392020196467342805e-02
