2.003999999999999915e+01,6.354403292009322413e-02
2.007999999999999829e+01,4.879978178664507588e-02
2.012000000000000099e+01,4.528133769811991394e-02
2.016000000000000014e+01,3.220863486540576082e-02
2.019999999999999929e+01,3.227254739995222277e-02
2.023999999999999844e+01,3.735212937379821935e-02
2.028000000000000114e+01,4.553656913049222016e-02
2.032000000000000028e+01,4.130052987988935137e-02
2.035999999999999943e+01,2.846563160077731497e-02
2.039999999999999858e+01,3.927680113000422968e-02
2.044000000000000128e+01,6.035836354063989911e-02
2.048000000000000043e+01,4.943363441142398229e-02
2.051999999999999957e+01,5.307861966730220704e-02
2.055999999999999872e+01,6.102271151709939834e-02
2.060000000000000142e+01,3.194463081209486521e-02
2.064000000000000057e+01,4.633727065239897497e-02
2.067999999999999972e+01,4.114388193900987006e-02
2.071999999999999886e+01,5.911884950671376232e-02
2.076000000000000156e+01,4.890913884512135268e-02
2.080000000000000071e+01,4.180427151854143597e-02
2.083999999999999986e+01,8.055863236175991871e-02
2.087999999999999901e+01,4.789622305913791844e-02
2.092000000000000171e+01,4.938932511495744415e-02
2.096000000000000085e+01,6.760179119399406522e-02
2.100000000000000000e+01,6.288430137447183210e-02
2.103999999999999915e+01,6.437671535748451523e-02
2.107999999999999829e+01,6.921281621404018480e-02
2.112000000000000099e+01,4.323686433946751645e-02
2.116000000000000014e+01,6.001506460796297848e-02
2.119999999999999929e+01,3.786026510599720812e-02
2.123999999999999844e+01,6.466974979586466443e-02
2.128000000000000114e+01,8.550771439515188199e-02
2.132000000000000028e+01,1.283197620142774997e-01
2.135999999999999943e+01,1.391254936433679312e-01
2.139999999999999858e+01,1.210299753068056761e-01
2.144000000000000128e+01,1.499879250601371117e-01
2.148000000000000043e+01,1.302199632198698387e-01
2.151999999999999957e+01,1.434132394767894669e-01
2.155999999999999872e+01,1.102691150987160640e-01
2.160000000000000142e+01,9.336663432563832576e-02
2.164000000000000057e+01,8.147978409384046272e-02
2.167999999999999972e+01,9.276126347020820229e-02
2.171999999999999886e+01,8.350128012467114558e-02
2.176000000000000156e+01,7.137483048784448725e-02
2.180000000000000071e+01,5.112718444938713774e-02
2.183999999999999986e+01,6.169110575392589696e-02
2.187999999999999901e+01,5.290781648174697899e-02
2.192000000000000171e+01,4.675163678989455174e-02
2.196000000000000085e+01,5.110465906545053061e-02
2.200000000000000000e+01,7.146046251414736594e-02
2.203999999999999915e+01,3.711905585666355062e-02
2.207999999999999829e+01,4.385981655374772414e-02
2.212000000000000099e+01,3.937430482247072233e-02
2.216000000000000014e+01,3.799359863955841660e-02
2.219999999999999929e+01,2.920823889570057716e-02
2.223999999999999844e+01,4.239693661012534920e-02
2.228000000000000114e+01,5.176374831288507034e-02
2.232000000000000028e+01,6.136914530090203240e-02
2.235999999999999943e+01,3.514657742442459099e-02
2.239999999999999858e+01,4.785650614832451938e-02
2.244000000000000128e+01,4.074150610002882922e-02
2.248000000000000043e+01,6.658771747599234736e-02
2.251999999999999957e+01,4.394683968082075537e-02
2.255999999999999872e+01,3.754757881771688538e-02
2.260000000000000142e+01,3.449196259602083092e-02
2.264000000000000057e+01,2.546478849709736883e-02
2.267999999999999972e+01,4.223328072152411627e-02
2.271999999999999886e+01,4.060994430296104712e-02
2.276000000000000156e+01,2.393869658392585448e-02
2.280000000000000071e+01,4.285601589765851427e-02
2.283999999999999986e+01,5.627947441357359498e-02
2.287999999999999901e+01,2.838137330005448961e-02
2.292000000000000171e+01,3.344447138570277867e-02
2.296000000000000085e+01,3.373025929382236082e-02
2.300000000000000000e+01,4.070359918351931089e-02
2.303999999999999915e+01,5.317023335274712048e-02
2.307999999999999829e+01,2.765922078957034833e-02
2.312000000000000099e+01,4.657426513917927585e-02
2.316000000000000014e+01,4.279814489427716945e-02
2.319999999999999929e+01,2.397410112381113609e-02
2.323999999999999844e+01,2.592983043665346085e-02
2.328000000000000114e+01,4.412715667686787496e-02
2.332000000000000028e+01,3.103466642422500824e-02
2.335999999999999943e+01,4.493208019228345229e-02
2.339999999999999858e+01,4.831973992248225769e-02
2.344000000000000128e+01,1.993987718943775189e-02
2.348000000000000043e+01,1.162322691706481510e-02
2.351999999999999957e+01,3.316269203752496980e-02
2.355999999999999872e+01,2.866706299586500861e-02
2.360000000000000142e+01,4.566775098957050194e-02
2.364000000000000057e+01,3.257287019011741863e-02
2.367999999999999972e+01,4.025775024888088999e-02
2.371999999999999886e+01,2.405719356325088445e-02
2.376000000000000156e+01,5.013301414524039962e-02
2.380000000000000071e+01,3.106562844608053153e-02
2.383999999999999986e+01,2.776212147881522430e-02
2.387999999999999901e+01,3.520661445123812044e-02
2.392000000000000171e+01,1.351093612343847242e-02
2.396000000000000085e+01,4.269027695925677046e-02
2.400000000000000000e+01,3.843012054567924302e-02
2.403999999999999915e+01,4.754532412578665879e-02
2.407999999999999829e+01,3.516359414050236609e-02
2.412000000000000099e+01,3.711262719869887899e-02
2.416000000000000014e+01,2.735762851229315423e-02
2.419999999999999929e+01,2.142393264868595187e-02
2.423999999999999844e+01,2.337201090479957763e-02
2.428000000000000114e+01,5.637044002835339684e-02
2.432000000000000028e+01,3.156652856176929423e-02
2.435999999999999943e+01,3.016972355956267643e-02
2.439999999999999858e+01,1.396381300876744710e-02
2.444000000000000128e+01,9.700143429127349587e-03
2.448000000000000043e+01,1.833411898181061539e-02
2.451999999999999957e+01,3.293905032953106660e-02
2.455999999999999872e+01,2.318081895777648546e-02
2.460000000000000142e+01,2.727563465676896906e-02
2.464000000000000057e+01,3.256437645398343322e-02
2.467999999999999972e+01,5.242271705360598139e-02
2.471999999999999886e+01,2.761552844679365792e-02
2.476000000000000156e+01,3.147016418960807416e-02
2.480000000000000071e+01,3.174169522245732372e-02
2.483999999999999986e+01,3.416255206920857518e-02
2.487999999999999901e+01,4.494286788999898169e-02
2.492000000000000171e+01,3.016575439829143751e-02
2.496000000000000085e+01,1.276093702367089681e-02
2.500000000000000000e+01,3.619935455532817536e-02
2.503999999999999915e+01,3.694655525799153684e-02
2.507999999999999829e+01,3.936537247005504614e-02
2.512000000000000099e+01,2.745276676510407035e-02
2.516000000000000014e+01,5.017325724943435400e-02
2.519999999999999929e+01,4.996367514114747471e-02
2.523999999999999844e+01,3.040678910089597564e-02
2.528000000000000114e+01,3.640664582668112770e-02
2.532000000000000028e+01,1.016122521846979897e-02
2.535999999999999943e+01,1.448842283438522317e-02
2.539999999999999858e+01,2.359229520447941528e-02
2.544000000000000128e+01,4.177216494380982248e-02
2.548000000000000043e+01,0.000000000000000000e+00
2.551999999999999957e+01,2.725551105455823603e-02
2.555999999999999872e+01,2.369884601569772695e-02
2.560000000000000142e+01,2.205263435653649282e-02
2.564000000000000057e+01,2.183917232943281481e-02
2.567999999999999972e+01,2.066994564166484832e-02
2.571999999999999886e+01,5.222298903889046467e-02
2.576000000000000156e+01,2.430169260964190614e-02
2.580000000000000071e+01,4.128408126752629997e-02
2.583999999999999986e+01,4.082995986794597104e-02
2.587999999999999901e+01,2.389473257206893575e-02
2.592000000000000171e+01,3.562129739603130119e-02
2.596000000000000085e+01,2.250695796622921921e-02
2.600000000000000000e+01,2.587299120863938151e-02
2.603999999999999915e+01,2.685014187922770898e-02
2.607999999999999829e+01,2.830462468424182337e-02
2.612000000000000099e+01,2.569826346774544551e-02
2.616000000000000014e+01,4.530470211321233759e-02
2.619999999999999929e+01,4.269759433616763383e-02
2.623999999999999844e+01,4.582254324702986215e-02
2.628000000000000114e+01,1.311941837894360814e-02
2.632000000000000028e+01,2.723077469523399810e-02
2.635999999999999943e+01,4.468567118396590820e-02
2.639999999999999858e+01,2.416282869641854167e-02
2.644000000000000128e+01,4.066156001559840388e-02
2.648000000000000043e+01,4.211227667671169073e-02
2.651999999999999957e+01,6.482037792490068229e-02
2.655999999999999872e+01,4.859533047878255435e-02
2.660000000000000142e+01,3.834118103635868885e-02
2.664000000000000057e+01,1.877144412561928058e-02
2.667999999999999972e+01,3.240165326321579886e-02
2.671999999999999886e+01,2.811762525689420061e-02
2.676000000000000156e+01,2.478861312794456567e-02
2.680000000000000071e+01,2.360887235566963213e-02
2.683999999999999986e+01,2.457840182869766923e-02
2.687999999999999901e+01,4.011746897867450590e-02
2.692000000000000171e+01,3.845884738227820648e-02
2.696000000000000085e+01,5.184746387635669890e-02
2.700000000000000000e+01,3.394616163135528997e-02
2.703999999999999915e+01,3.730222952559377608e-02
2.707999999999999829e+01,3.564202145285440271e-02
2.712000000000000099e+01,4.066925089037817798e-02
2.716000000000000014e+01,3.614202709361576810e-02
2.719999999999999929e+01,3.639142803929271142e-02
2.723999999999999844e+01,3.281880516317869229e-02
2.728000000000000114e+01,3.688902062437979940e-02
2.732000000000000028e+01,2.949396786072702378e-02
2.735999999999999943e+01,4.741674875363272035e-02
2.739999999999999858e+01,3.596041033881825638e-02
2.744000000000000128e+01,1.733812409146335415e-02
2.748000000000000043e+01,2.785528925671029721e-02
2.751999999999999957e+01,2.762373459464833106e-02
2.755999999999999872e+01,4.841068430585572513e-02
2.760000000000000142e+01,3.193641565402915300e-02
2.764000000000000057e+01,3.027051488121883932e-02
2.767999999999999972e+01,1.737818719934154307e-02
2.771999999999999886e+01,4.294050566909812794e-02
2.776000000000000156e+01,3.195815528473777006e-02
2.780000000000000071e+01,3.530646569763571524e-02
2.783999999999999986e+01,3.220537111867815411e-02
2.787999999999999901e+01,2.480453229970791540e-02
2.792000000000000171e+01,5.179786166721705304e-02
2.796000000000000085e+01,2.003334403719775336e-02
2.800000000000000000e+01,3.771062541341645147e-02
2.803999999999999915e+01,3.174120133520245968e-02
2.807999999999999829e+01,3.413114732126867196e-02
2.812000000000000099e+01,1.884566858353247179e-02
2.816000000000000014e+01,5.371853836095119572e-02
2.819999999999999929e+01,5.180787574102622972e-02
2.823999999999999844e+01,1.741300333881513548e-02
2.828000000000000114e+01,3.843120511661216043e-02
2.832000000000000028e+01,5.610505570184454172e-02
2.835999999999999943e+01,4.344435503388928421e-02
2.839999999999999858e+01,3.962071817550842645e-02
2.844000000000000128e+01,5.323279146818871849e-02
2.848000000000000043e+01,2.241808240360277510e-02
2.851999999999999957e+01,3.579042889844977204e-02
2.855999999999999872e+01,4.749037675944491055e-02
2.860000000000000142e+01,5.106893928557208751e-02
2.864000000000000057e+01,4.007712977581554675e-02
2.867999999999999972e+01,4.126629474991901775e-02
2.871999999999999886e+01,5.893575682293974993e-02
2.876000000000000156e+01,5.988518166274606203e-02
2.880000000000000071e+01,3.838213652272690068e-02
2.883999999999999986e+01,5.509485509779074586e-02
2.887999999999999901e+01,6.034226210449337990e-02
2.892000000000000171e+01,4.337604711538942115e-02
2.896000000000000085e+01,4.169586596629615977e-02
2.900000000000000000e+01,5.530171754584142785e-02
2.903999999999999915e+01,3.881185029701061939e-02
2.907999999999999829e+01,6.865868491161974951e-02
2.912000000000000099e+01,7.055946033832312392e-02
2.916000000000000014e+01,5.335167423674252313e-02
2.919999999999999929e+01,5.023565871626595181e-02
2.923999999999999844e+01,6.789924957330042976e-02
2.928000000000000114e+01,6.215495184150560126e-02
2.932000000000000028e+01,7.289093453804842970e-02
2.935999999999999943e+01,8.697037405413397815e-02
2.939999999999999858e+01,8.671827173640282715e-02
2.944000000000000128e+01,9.291469115122488742e-02
2.948000000000000043e+01,9.122855209913049990e-02
2.951999999999999957e+01,7.879363765112802620e-02
2.955999999999999872e+01,9.072109046168509716e-02
2.960000000000000142e+01,1.100524658318473015e-01
2.964000000000000057e+01,1.076479018377771435e-01
2.967999999999999972e+01,1.231567161785065423e-01
2.971999999999999886e+01,1.336491812017071013e-01
2.976000000000000156e+01,1.453354300675158417e-01
2.980000000000000071e+01,1.393462075318986915e-01
2.983999999999999986e+01,1.414774548420595912e-01
2.987999999999999901e+01,1.839740988348468609e-01
2.992000000000000171e+01,1.681905440091484016e-01
2.996000000000000085e+01,1.942054915521419234e-01
3.000000000000000000e+01,2.278632018591558173e-01
3.003999999999999915e+01,2.710744843638976387e-01
3.007999999999999829e+01,2.786964388274875692e-01
3.012000000000000099e+01,3.023209488557054292e-01
3.016000000000000014e+01,3.316774066573759949e-01
3.019999999999999929e+01,3.545843938962440212e-01
3.023999999999999844e+01,4.011371755459430810e-01
3.028000000000000114e+01,4.823229111293093063e-01
3.032000000000000028e+01,5.037953288716603417e-01
3.035999999999999943e+01,6.399158899001473610e-01
3.039999999999999858e+01,7.172785361374149904e-01
3.044000000000000128e+01,8.077775132307153383e-01
3.048000000000000043e+01,9.152344411588357875e-01
3.051999999999999957e+01,1.000000000000000000e+00
3.055999999999999872e+01,9.803870378406794872e-01
3.060000000000000142e+01,9.399935149167387705e-01
3.064000000000000057e+01,8.606667299385487579e-01
3.067999999999999972e+01,7.056235788019531441e-01
3.071999999999999886e+01,6.090985011874291422e-01
3.076000000000000156e+01,4.920317096809322943e-01
3.080000000000000071e+01,4.337218407918981833e-01
3.083999999999999986e+01,3.613192413777909784e-01
3.087999999999999901e+01,3.278489029532005161e-01
3.092000000000000171e+01,2.735979948730142830e-01
3.096000000000000085e+01,2.618621153316252337e-01
3.100000000000000000e+01,2.293456639118963414e-01
3.103999999999999915e+01,2.159368096309943197e-01
3.107999999999999829e+01,1.717156258873401287e-01
3.112000000000000099e+01,1.762196005085042427e-01
3.116000000000000014e+01,1.437011091726629608e-01
3.119999999999999929e+01,1.369780474379397039e-01
3.123999999999999844e+01,1.355092008333556586e-01
3.128000000000000114e+01,1.407276761563486245e-01
3.132000000000000028e+01,1.010415875783944734e-01
3.135999999999999943e+01,1.067367322431372889e-01
3.139999999999999858e+01,1.093262914578077422e-01
3.144000000000000128e+01,8.301432175245768152e-02
3.148000000000000043e+01,6.506162764476940141e-02
3.151999999999999957e+01,8.651887938091613883e-02
3.155999999999999872e+01,7.931345018106140954e-02
3.160000000000000142e+01,7.855648269967292763e-02
3.164000000000000057e+01,6.991689673728065935e-02
3.167999999999999972e+01,8.563961913073291077e-02
3.171999999999999886e+01,7.652127723285508110e-02
3.176000000000000156e+01,7.026862283593106329e-02
3.180000000000000071e+01,7.810766678093211679e-02
3.183999999999999986e+01,7.448131691604510662e-02
3.187999999999999901e+01,6.631626035581202061e-02
3.192000000000000171e+01,1.209685677029205958e-01
3.196000000000000085e+01,1.629612213153503741e-01
3.200000000000000000e+01,1.758134791304169775e-01
3.203999999999999915e+01,1.487770307206750242e-01
3.207999999999999829e+01,1.102751818328131517e-01
3.211999999999999744e+01,8.013259076066142628e-02
3.215999999999999659e+01,8.963877906852778243e-02
3.220000000000000284e+01,5.113531188950913575e-02
3.224000000000000199e+01,6.398433645637788270e-02
3.228000000000000114e+01,5.151457853643890555e-02
3.232000000000000028e+01,3.785002014995159092e-02
3.235999999999999943e+01,3.851599586431653927e-02
3.239999999999999858e+01,3.177703461787999284e-02
3.243999999999999773e+01,4.295137502157630321e-02
3.247999999999999687e+01,4.958699205934678778e-02
3.252000000000000313e+01,4.857881748406491645e-02
3.256000000000000227e+01,3.562752645792939543e-02
3.260000000000000142e+01,4.894932877116242587e-02
3.264000000000000057e+01,4.770064791131328752e-02
3.267999999999999972e+01,5.075073689967207757e-02
3.271999999999999886e+01,5.833844594300177655e-02
3.275999999999999801e+01,5.040026320659341669e-02
3.279999999999999716e+01,5.750915630035041692e-02
3.284000000000000341e+01,5.410803307245971860e-02
3.288000000000000256e+01,3.279250154936539513e-02
3.292000000000000171e+01,5.160343092649161828e-02
3.296000000000000085e+01,4.963373396805070142e-02
3.300000000000000000e+01,3.022732801656024051e-02
3.303999999999999915e+01,4.139332690577575413e-02
3.307999999999999829e+01,4.467666730459626118e-02
3.311999999999999744e+01,4.222700996486441344e-02
3.315999999999999659e+01,3.762712354723274366e-02
3.320000000000000284e+01,4.281957284707731820e-02
3.324000000000000199e+01,3.224726571258513391e-02
3.328000000000000114e+01,2.860107625520574154e-02
3.332000000000000028e+01,4.740633904233968604e-02
3.335999999999999943e+01,4.184819460816230352e-02
3.339999999999999858e+01,3.055704465582868845e-02
3.343999999999999773e+01,2.380349475377029414e-02
3.347999999999999687e+01,2.445375960823463132e-02
3.352000000000000313e+01,3.370209469852465667e-02
3.356000000000000227e+01,3.244039346247118427e-02
3.360000000000000142e+01,2.592338378767152646e-02
3.364000000000000057e+01,3.134835946847099736e-02
3.367999999999999972e+01,3.820586139555925270e-02
3.371999999999999886e+01,2.499926982541759990e-02
3.375999999999999801e+01,2.803398400318852721e-02
3.379999999999999716e+01,4.969851599884961280e-02
3.384000000000000341e+01,3.792327734760695540e-02
3.388000000000000256e+01,3.594035552051690063e-02
3.392000000000000171e+01,4.494400599688218312e-02
3.396000000000000085e+01,3.627206948913536122e-02
3.400000000000000000e+01,4.336372942479920639e-02
3.403999999999999915e+01,3.421290806241673865e-02
3.407999999999999829e+01,2.052331887922912573e-02
3.411999999999999744e+01,2.976286234938519890e-02
3.415999999999999659e+01,4.664505300087529172e-02
3.420000000000000284e+01,4.991212240831565533e-02
3.424000000000000199e+01,4.314683923235886065e-02
3.428000000000000114e+01,3.399244454195163995e-02
3.432000000000000028e+01,3.486920576874019684e-02
3.435999999999999943e+01,4.959874289151188637e-02
3.439999999999999858e+01,4.999659925896909884e-02
3.443999999999999773e+01,6.591918852661021733e-02
3.447999999999999687e+01,1.293725862131483162e-01
3.452000000000000313e+01,1.381284270454473384e-01
3.456000000000000227e+01,1.241927865422201432e-01
3.460000000000000142e+01,1.281703876750385218e-01
3.464000000000000057e+01,1.147112342485560738e-01
3.467999999999999972e+01,1.117609293731914172e-01
3.471999999999999886e+01,1.107208244847138479e-01
3.475999999999999801e+01,8.077909843234129528e-02
3.479999999999999716e+01,8.953067313689620776e-02
3.484000000000000341e+01,8.323400090663990447e-02
3.488000000000000256e+01,8.864042826131628139e-02
3.492000000000000171e+01,1.258134648128903244e-01
3.496000000000000085e+01,8.583690838044684412e-02
3.500000000000000000e+01,1.275468844123642254e-01
3.503999999999999915e+01,1.157535457328814632e-01
3.507999999999999829e+01,1.562680251644153195e-01
3.511999999999999744e+01,1.406518231623203885e-01
3.515999999999999659e+01,1.565633723707561820e-01
3.520000000000000284e+01,1.961205781798969483e-01
3.524000000000000199e+01,1.988940559902250549e-01
3.528000000000000114e+01,2.850260177122549976e-01
3.532000000000000028e+01,3.491830309370960728e-01
3.535999999999999943e+01,4.207438066839767066e-01
3.539999999999999858e+01,5.054407754767640260e-01
3.543999999999999773e+01,4.981793562247022189e-01
3.547999999999999687e+01,4.753919696196075018e-01
3.552000000000000313e+01,4.387505737770528991e-01
3.556000000000000227e+01,3.748794937701081520e-01
3.560000000000000142e+01,3.184121696169711635e-01
3.564000000000000057e+01,2.841573819306373871e-01
3.567999999999999972e+01,2.625610768743366075e-01
3.571999999999999886e+01,2.082415028910537813e-01
3.575999999999999801e+01,1.677746659057347545e-01
3.579999999999999716e+01,1.523865767593505505e-01
3.584000000000000341e+01,1.365201433000884923e-01
3.588000000000000256e+01,1.189811078259015303e-01
3.592000000000000171e+01,9.785865868033807868e-02
3.596000000000000085e+01,8.700617120385402414e-02
3.600000000000000000e+01,8.021351001356838428e-02
3.603999999999999915e+01,7.031513445406012419e-02
3.607999999999999829e+01,3.223165500978619064e-02
3.611999999999999744e+01,4.956103191661181961e-02
3.615999999999999659e+01,4.658739621438159201e-02
3.620000000000000284e+01,3.358135347152696459e-02
3.624000000000000199e+01,5.783546356739869415e-02
3.628000000000000114e+01,4.148419567862676044e-02
3.632000000000000028e+01,3.349206891150664084e-02
3.635999999999999943e+01,3.744185192669081952e-02
3.639999999999999858e+01,4.807881461383809590e-02
3.643999999999999773e+01,3.793505427605577129e-02
3.647999999999999687e+01,5.358657683828961515e-02
3.652000000000000313e+01,2.767730947510807851e-02
3.656000000000000227e+01,2.851872806173862476e-02
3.660000000000000142e+01,2.338820090231930396e-02
3.664000000000000057e+01,1.610734797563753706e-02
3.667999999999999972e+01,4.608663566259035144e-02
3.671999999999999886e+01,4.310377532012647783e-02
3.675999999999999801e+01,3.940369378509404885e-02
3.679999999999999716e+01,1.755024372226865470e-02
3.684000000000000341e+01,3.462888905453468530e-02
3.688000000000000256e+01,2.232815168392056002e-02
3.692000000000000171e+01,3.247876653434130650e-02
3.696000000000000085e+01,5.122735604259710807e-02
3.700000000000000000e+01,3.343101996980791385e-02
3.703999999999999915e+01,3.999684332901747019e-02
3.707999999999999829e+01,5.324982746686632296e-02
3.711999999999999744e+01,3.354065246157876545e-02
3.715999999999999659e+01,3.532741773655430351e-02
3.720000000000000284e+01,3.663580091200445421e-02
3.724000000000000199e+01,6.732221564342752429e-02
3.728000000000000114e+01,3.925052442765019495e-02
3.732000000000000028e+01,4.461733495339624544e-02
3.735999999999999943e+01,6.192602747714690686e-02
3.739999999999999858e+01,5.511005184915095806e-02
3.743999999999999773e+01,8.507649308245188169e-02
3.747999999999999687e+01,1.967293978750508376e-01
3.752000000000000313e+01,3.692887004378339610e-01
3.756000000000000227e+01,4.398578006913844707e-01
3.760000000000000142e+01,4.191850068404037177e-01
3.764000000000000057e+01,3.641169314896408604e-01
3.767999999999999972e+01,3.267231608811460575e-01
3.771999999999999886e+01,2.733256580465173169e-01
3.775999999999999801e+01,1.979531389210087144e-01
3.779999999999999716e+01,1.715444438793323201e-01
3.784000000000000341e+01,1.152786368255782207e-01
3.788000000000000256e+01,1.082155029510473709e-01
3.792000000000000171e+01,9.135876556503175205e-02
3.796000000000000085e+01,7.115740914580348520e-02
3.800000000000000000e+01,6.098710639754843787e-02
3.803999999999999915e+01,5.559312720992557605e-02
3.807999999999999829e+01,3.921128347465514807e-02
3.811999999999999744e+01,5.172974420890418673e-02
3.815999999999999659e+01,5.230493290022191627e-02
3.820000000000000284e+01,2.851657989421835931e-02
3.824000000000000199e+01,1.977515157179034200e-02
3.828000000000000114e+01,3.515699691069457816e-02
3.832000000000000028e+01,1.112766417565881280e-02
3.835999999999999943e+01,2.316416878595942141e-02
3.839999999999999858e+01,1.704726041358785651e-02
3.843999999999999773e+01,3.338166203011583982e-02
3.847999999999999687e+01,3.896703930341142985e-02
3.852000000000000313e+01,4.956757811901033040e-02
3.856000000000000227e+01,3.461030864426522385e-02
3.860000000000000142e+01,3.087833276058842349e-02
3.864000000000000057e+01,3.168381244882900738e-02
3.867999999999999972e+01,8.364588421419374281e-03
3.871999999999999886e+01,2.708247469037245933e-02
3.875999999999999801e+01,2.525842479295581020e-02
3.879999999999999716e+01,1.889547593284000154e-02
3.884000000000000341e+01,2.949024563079978914e-02
3.888000000000000256e+01,3.912888391534084798e-02
3.892000000000000171e+01,3.992929617663745767e-02
3.896000000000000085e+01,1.899351012402966665e-02
3.900000000000000000e+01,1.549314082027940763e-02
3.903999999999999915e+01,3.301095692603916304e-02
3.907999999999999829e+01,1.446149229568071716e-02
3.911999999999999744e+01,2.457345303240716927e-02
3.915999999999999659e+01,4.710494839166906589e-02
3.920000000000000284e+01,3.046409254494221799e-02
3.924000000000000199e+01,4.511202323066890174e-02
3.928000000000000114e+01,2.154300576020285601e-02
3.932000000000000028e+01,4.550466223262385201e-02
3.935999999999999943e+01,3.626524600694238515e-02
3.939999999999999858e+01,1.177885900838322591e-01
3.943999999999999773e+01,2.786098300814433548e-01
3.947999999999999687e+01,3.297975722436476964e-01
3.952000000000000313e+01,2.546322231896260835e-01
3.956000000000000227e+01,3.029522605771777788e-01
3.960000000000000142e+01,3.206985830978797969e-01
3.964000000000000057e+01,1.946556648443875104e-01
3.967999999999999972e+01,1.567481346143780596e-01
3.971999999999999886e+01,1.568172144881373464e-01
3.975999999999999801e+01,7.878116274070118275e-02
3.979999999999999716e+01,7.239975473131952943e-02
3.984000000000000341e+01,6.291252677237692270e-02
3.988000000000000256e+01,5.414109884266089801e-02
3.992000000000000171e+01,6.041654891889709084e-02
3.996000000000000085e+01,8.579934829800796303e-02
4.000000000000000000e+01,8.657970464992335857e-02
4.003999999999999915e+01,1.289194319866559801e-01
4.007999999999999829e+01,1.394911745294001859e-01
4.011999999999999744e+01,2.346155230985111084e-01
4.015999999999999659e+01,3.748820090903476898e-01
4.020000000000000284e+01,5.452429983510354017e-01
4.024000000000000199e+01,7.172751829111415622e-01
4.028000000000000114e+01,7.851674277255055179e-01
4.032000000000000028e+01,7.988396571729626805e-01
4.035999999999999943e+01,7.351232922830497341e-01
4.039999999999999858e+01,6.869314946988950288e-01
4.043999999999999773e+01,6.423216974023786552e-01
4.047999999999999687e+01,5.556732975183507062e-01
4.052000000000000313e+01,4.685464232909225535e-01
4.056000000000000227e+01,4.134248528750774088e-01
4.060000000000000142e+01,3.334619714433219584e-01
4.064000000000000057e+01,3.222874945931898938e-01
4.067999999999999972e+01,2.353963737416564783e-01
4.071999999999999886e+01,1.972301445256653685e-01
4.075999999999999801e+01,1.590631369343122603e-01
4.079999999999999716e+01,1.304494025816237690e-01
4.084000000000000341e+01,1.168825206733318800e-01
4.088000000000000256e+01,1.014040465104822930e-01
4.092000000000000171e+01,8.496938425424287178e-02
4.096000000000000085e+01,8.214846319947449738e-02
4.100000000000000000e+01,6.260716483166473001e-02
4.103999999999999915e+01,6.623365816798047756e-02
4.107999999999999829e+01,5.051240746902625756e-02
4.111999999999999744e+01,3.765658420998180961e-02
4.115999999999999659e+01,2.981584914268962591e-02
4.120000000000000284e+01,5.517465669570358749e-02
4.124000000000000199e+01,5.951375654101487972e-02
4.128000000000000114e+01,4.761017392995088582e-02
4.132000000000000028e+01,3.713890529312689065e-02
4.135999999999999943e+01,3.956481278964908699e-02
4.139999999999999858e+01,4.270647808326247935e-02
4.143999999999999773e+01,3.892065788227618700e-02
4.147999999999999687e+01,3.704484984631183087e-02
4.152000000000000313e+01,4.567770031685609161e-02
4.156000000000000227e+01,3.138002364364227137e-02
4.160000000000000142e+01,4.431059552364061127e-02
4.164000000000000057e+01,4.649205526201981992e-02
4.167999999999999972e+01,4.246257679197248253e-02
4.171999999999999886e+01,5.228566972546326574e-02
4.175999999999999801e+01,5.398701168270370748e-02
4.179999999999999716e+01,4.661119627978204533e-02
4.184000000000000341e+01,4.831092258358335445e-02
4.188000000000000256e+01,6.243010793662517183e-02
4.192000000000000171e+01,3.737686651038351487e-02
4.196000000000000085e+01,4.743395713345986003e-02
4.200000000000000000e+01,3.456050838768625483e-02
4.203999999999999915e+01,3.816698665395962253e-02
4.207999999999999829e+01,1.979832860117889184e-02
4.211999999999999744e+01,2.770249938123466385e-02
4.215999999999999659e+01,3.727781211485373808e-02
4.220000000000000284e+01,3.156582210308170322e-02
4.224000000000000199e+01,2.704726918585914977e-02
4.228000000000000114e+01,3.327620497721252291e-02
4.232000000000000028e+01,2.517323996159868613e-02
4.235999999999999943e+01,2.710120747741196628e-02
4.239999999999999858e+01,2.496787864331755438e-02
4.243999999999999773e+01,3.358203407231107052e-02
4.247999999999999687e+01,3.311901324781874739e-02
4.252000000000000313e+01,3.289401646573212462e-02
4.256000000000000227e+01,3.434015052348893954e-02
4.260000000000000142e+01,2.455944313042922669e-02
4.264000000000000057e+01,3.484141585086115989e-02
4.267999999999999972e+01,4.774992134956049239e-02
4.271999999999999886e+01,2.005286993272683074e-02
4.275999999999999801e+01,1.886748088491291275e-02
4.279999999999999716e+01,2.150287787192525085e-02
4.284000000000000341e+01,2.772020846425685484e-02
4.288000000000000256e+01,2.605460828005753265e-02
4.292000000000000171e+01,2.964289870537825319e-02
4.296000000000000085e+01,1.340569022467594067e-02
4.300000000000000000e+01,4.732641794012284325e-02
4.303999999999999915e+01,2.392198757961343583e-02
4.307999999999999829e+01,2.607380542460810066e-02
4.311999999999999744e+01,1.890957791603013055e-02
4.315999999999999659e+01,2.631443575600386428e-02
4.320000000000000284e+01,6.250545841403887248e-03
4.324000000000000199e+01,1.484796682257448312e-02
4.328000000000000114e+01,1.795095909484389560e-02
4.332000000000000028e+01,3.418992436136740476e-02
4.335999999999999943e+01,4.445675605997582991e-02
4.339999999999999858e+01,3.179300949171490892e-02
4.343999999999999773e+01,2.916016544783743211e-02
4.347999999999999687e+01,2.007748186565917053e-02
4.352000000000000313e+01,3.511792635508333149e-02
4.356000000000000227e+01,2.961630131349973077e-02
4.360000000000000142e+01,2.100875185338878931e-02
4.364000000000000057e+01,4.798919040124251939e-02
4.367999999999999972e+01,2.982587031607145459e-02
4.371999999999999886e+01,2.766472792905406985e-02
4.375999999999999801e+01,4.150576212881847138e-02
4.379999999999999716e+01,5.343512294387043476e-02
4.384000000000000341e+01,5.079368940168487584e-02
4.388000000000000256e+01,3.525341961783456934e-02
4.392000000000000171e+01,4.264201020119207097e-02
4.396000000000000085e+01,3.928142418335553443e-02
4.400000000000000000e+01,4.786253567577444107e-02
4.403999999999999915e+01,3.279649716496733924e-02
4.407999999999999829e+01,3.898735534893534027e-02
4.411999999999999744e+01,3.490673512249134469e-02
4.415999999999999659e+01,2.533166173696255186e-02
4.420000000000000284e+01,3.080334744058382812e-02
4.424000000000000199e+01,1.955456581003311989e-02
4.428000000000000114e+01,3.290659377128706681e-02
4.432000000000000028e+01,3.980875885542849157e-02
4.435999999999999943e+01,2.688538613552739209e-02
4.439999999999999858e+01,2.948646958418645395e-02
4.443999999999999773e+01,2.874275395737154945e-02
4.447999999999999687e+01,3.779106064113363361e-02
4.452000000000000313e+01,3.179085143806462815e-02
4.456000000000000227e+01,1.957962400778608114e-02
4.460000000000000142e+01,3.029723805139159301e-02
4.464000000000000057e+01,2.572748155591500843e-02
4.467999999999999972e+01,2.712812072399617414e-02
4.471999999999999886e+01,4.620286903287627173e-02
4.475999999999999801e+01,2.873247615454664269e-02
4.479999999999999716e+01,5.067166014455359163e-02
4.484000000000000341e+01,7.643157348941555240e-02
4.488000000000000256e+01,7.281188185700084026e-02
4.492000000000000171e+01,6.441426990383847251e-02
4.496000000000000085e+01,4.932792597347694652e-02
4.500000000000000000e+01,5.478189922192998329e-02
4.503999999999999915e+01,4.638159872639090187e-02
4.507999999999999829e+01,4.490708805322956437e-02
4.511999999999999744e+01,3.889350282059571284e-02
4.515999999999999659e+01,4.147766441454031616e-02
4.520000000000000284e+01,4.215011372575309945e-02
4.524000000000000199e+01,5.643618532163464929e-02
4.528000000000000114e+01,3.728216841822511174e-02
4.532000000000000028e+01,4.822251252805289518e-02
4.535999999999999943e+01,3.957614236767358074e-02
4.539999999999999858e+01,4.717075454595966166e-02
4.543999999999999773e+01,4.353844636601833518e-02
4.547999999999999687e+01,4.515995766779026810e-02
4.552000000000000313e+01,6.039508347462703430e-02
4.556000000000000227e+01,4.983335518288771471e-02
4.560000000000000142e+01,5.933422476311338289e-02
4.564000000000000057e+01,8.077674628734313189e-02
4.567999999999999972e+01,6.949572215296698219e-02
4.571999999999999886e+01,5.152594492532393960e-02
4.575999999999999801e+01,5.337990980602285579e-02
4.579999999999999716e+01,3.469174291888304368e-02
4.584000000000000341e+01,4.538136864273978333e-02
4.588000000000000256e+01,4.317210255633268517e-02
4.592000000000000171e+01,4.239502263638745411e-02
4.596000000000000085e+01,4.233357381712721940e-02
4.600000000000000000e+01,3.940498521515568148e-02
4.603999999999999915e+01,3.958053867247483121e-02
4.607999999999999829e+01,4.644300284973710419e-02
4.611999999999999744e+01,3.562954218580433735e-02
4.615999999999999659e+01,4.057934010819936460e-02
4.620000000000000284e+01,3.430219655629942327e-02
4.624000000000000199e+01,3.065148687056025792e-02
4.628000000000000114e+01,2.508903489504573162e-02
4.632000000000000028e+01,2.454152774429772810e-02
4.635999999999999943e+01,3.880186835047769872e-02
4.639999999999999858e+01,4.374607247058250048e-02
4.643999999999999773e+01,3.388055867613589539e-02
4.647999999999999687e+01,2.974653921537277410e-02
4.652000000000000313e+01,2.370077079660238076e-02
4.656000000000000227e+01,3.055203403282031466e-02
4.660000000000000142e+01,1.924965645510955461e-02
4.664000000000000057e+01,1.965005171896836572e-02
4.667999999999999972e+01,3.748565034826392695e-02
4.671999999999999886e+01,2.331422837768694356e-02
4.675999999999999801e+01,3.637091159333619150e-02
4.679999999999999716e+01,3.437901557395127428e-02
4.684000000000000341e+01,4.074596838538661198e-02
4.688000000000000256e+01,3.755792005614792817e-02
4.692000000000000171e+01,3.054730111010245039e-02
4.696000000000000085e+01,3.094012238822132707e-02
4.700000000000000000e+01,2.942118137186909566e-02
4.703999999999999915e+01,2.790128749475348849e-02
4.707999999999999829e+01,3.378483050768629758e-02
4.711999999999999744e+01,3.202417625679297025e-02
4.715999999999999659e+01,2.787405262967063493e-02
4.720000000000000284e+01,1.607972951597816391e-02
4.724000000000000199e+01,3.127464693391324851e-02
4.728000000000000114e+01,3.763110605185929908e-02
4.732000000000000028e+01,2.248998589729150552e-02
4.735999999999999943e+01,3.314384634956037828e-02
4.739999999999999858e+01,1.943390948895178799e-02
4.743999999999999773e+01,3.319091023938074841e-02
4.747999999999999687e+01,3.381012340653147957e-02
4.752000000000000313e+01,3.418951905832008642e-02
4.756000000000000227e+01,3.886727112793882805e-02
4.760000000000000142e+01,3.446770468845780644e-02
4.764000000000000057e+01,2.242392653731483526e-02
4.767999999999999972e+01,3.211464769373835459e-02
4.771999999999999886e+01,2.818987196238186346e-02
4.775999999999999801e+01,2.092020491167677007e-02
4.779999999999999716e+01,3.227996669866778356e-02
4.784000000000000341e+01,4.554956394253539126e-02
4.788000000000000256e+01,3.135028340130720237e-02
4.792000000000000171e+01,2.813718618334030280e-02
4.796000000000000085e+01,2.372885395237953401e-02
4.800000000000000000e+01,2.887359491312632698e-02
4.803999999999999915e+01,5.097579881639252575e-02
4.807999999999999829e+01,4.035439037873380513e-02
4.811999999999999744e+01,2.734348589191848075e-02
4.815999999999999659e+01,3.200659496791148639e-02
4.820000000000000284e+01,2.807007150049493222e-02
4.824000000000000199e+01,3.297006060214917322e-02
4.828000000000000114e+01,3.810791370864341499e-02
4.832000000000000028e+01,3.201876643812756607e-02
4.835999999999999943e+01,2.497322435903296528e-02
4.839999999999999858e+01,2.963040622114080855e-02
4.843999999999999773e+01,4.145213586851471260e-02
4.847999999999999687e+01,2.317760656072839417e-02
4.852000000000000313e+01,3.380309276574594568e-02
4.856000000000000227e+01,2.412522183639277326e-02
4.860000000000000142e+01,3.570412201678059561e-02
4.864000000000000057e+01,3.987763401934188434e-02
4.867999999999999972e+01,3.760116200524438873e-02
4.871999999999999886e+01,4.320578395121402182e-02
4.875999999999999801e+01,4.164386570337611643e-02
4.879999999999999716e+01,3.410966274103338636e-02
4.884000000000000341e+01,3.182918590515725760e-02
4.888000000000000256e+01,2.978655640354140391e-02
4.892000000000000171e+01,2.129393621703499356e-02
4.896000000000000085e+01,4.647834568093977409e-02
4.900000000000000000e+01,4.132763042371365853e-02
4.903999999999999915e+01,4.477455418998366188e-02
4.907999999999999829e+01,4.463769864349465682e-02
4.911999999999999744e+01,4.449983244489914141e-02
4.915999999999999659e+01,3.456805043929159910e-02
4.920000000000000284e+01,3.944403728320127617e-02
4.924000000000000199e+01,5.578387341136673006e-02
4.928000000000000114e+01,4.728215735590157037e-02
4.932000000000000028e+01,3.209158818369096250e-02
4.935999999999999943e+01,4.436790327666268602e-02
4.939999999999999858e+01,5.138847093895482221e-02
4.943999999999999773e+01,4.527119656074159865e-02
4.947999999999999687e+01,4.990121084414731595e-02
4.952000000000000313e+01,4.688696118140790736e-02
4.956000000000000227e+01,5.509770059381340068e-02
4.960000000000000142e+01,4.515471583939131145e-02
4.964000000000000057e+01,3.186678753113751650e-02
4.967999999999999972e+01,3.649168187169158500e-02
4.971999999999999886e+01,3.586081989059024949e-02
4.975999999999999801e+01,4.287217165574945532e-02
4.979999999999999716e+01,3.244634765162605905e-02
4.984000000000000341e+01,4.829313798554646375e-02
4.988000000000000256e+01,3.714869760204175114e-02
4.992000000000000171e+01,5.323227460637669495e-02
4.996000000000000085e+01,5.450603589542574873e-02
5.000000000000000000e+01,6.366085558063837302e-02
5.003999999999999915e+01,6.947072059829942359e-02
5.007999999999999829e+01,4.709509275100064868e-02
5.011999999999999744e+01,4.597619378130753109e-02
5.015999999999999659e+01,5.369375403482992692e-02
5.020000000000000284e+01,6.977006976392595428e-02
5.024000000000000199e+01,6.578183299916302851e-02
5.028000000000000114e+01,7.946755089449335230e-02
5.032000000000000028e+01,8.407587470742904079e-02
5.035999999999999943e+01,8.390612705302744057e-02
5.039999999999999858e+01,7.633094232043197147e-02
5.043999999999999773e+01,7.663680375890838392e-02
5.047999999999999687e+01,9.318350639180827955e-02
5.052000000000000313e+01,9.730889093156416814e-02
5.056000000000000227e+01,9.307342867509844908e-02
5.060000000000000142e+01,1.210818425939827470e-01
5.064000000000000057e+01,1.381020429944169459e-01
5.067999999999999972e+01,1.410289616292743353e-01
5.071999999999999886e+01,1.599578634721885717e-01
5.075999999999999801e+01,1.688539537350763897e-01
5.079999999999999716e+01,1.784655406226392793e-01
5.084000000000000341e+01,2.067064718836275350e-01
5.088000000000000256e+01,2.079561446428911109e-01
5.092000000000000171e+01,2.292682674616458860e-01
5.096000000000000085e+01,2.142739281486684411e-01
5.100000000000000000e+01,2.186254827180333093e-01
5.103999999999999915e+01,2.045844217930442577e-01
5.107999999999999829e+01,1.938862142126110133e-01
5.111999999999999744e+01,1.745882929586133336e-01
5.115999999999999659e+01,1.710534913694456982e-01
5.120000000000000284e+01,1.400497197513075331e-01
5.124000000000000199e+01,1.307803485286293532e-01
5.128000000000000114e+01,1.203156500490827618e-01
5.132000000000000028e+01,1.048340021111363735e-01
5.135999999999999943e+01,8.720161942103767105e-02
5.139999999999999858e+01,8.031647204670276652e-02
5.143999999999999773e+01,8.035693778660023268e-02
5.147999999999999687e+01,8.206828653038893140e-02
5.152000000000000313e+01,6.777551962470955427e-02
5.156000000000000227e+01,6.327457831676613909e-02
5.160000000000000142e+01,7.095397467653642709e-02
5.164000000000000057e+01,6.358465732526248637e-02
5.167999999999999972e+01,5.525885292153522726e-02
5.171999999999999886e+01,5.696372098819103835e-02
5.175999999999999801e+01,5.699554582524465896e-02
5.179999999999999716e+01,6.610263563739751658e-02
5.184000000000000341e+01,6.517688386248052246e-02
5.188000000000000256e+01,6.114497761503558809e-02
5.192000000000000171e+01,7.407042650702766462e-02
5.196000000000000085e+01,7.863498970477872385e-02
5.200000000000000000e+01,7.770488191453632509e-02
5.203999999999999915e+01,8.346151924981155823e-02
5.207999999999999829e+01,7.536368723962563743e-02
5.211999999999999744e+01,7.228063890526877089e-02
5.215999999999999659e+01,5.916474009286606939e-02
5.220000000000000284e+01,5.822916227759729335e-02
5.224000000000000199e+01,6.254721612217654936e-02
5.228000000000000114e+01,5.229424111002976133e-02
5.232000000000000028e+01,3.845739676399337337e-02
5.235999999999999943e+01,5.590897442039997889e-02
5.239999999999999858e+01,5.878951988596470279e-02
5.243999999999999773e+01,5.928044927419862109e-02
5.247999999999999687e+01,8.771587887687011531e-02
5.252000000000000313e+01,9.513128736493979554e-02
5.256000000000000227e+01,1.087557238944214105e-01
5.260000000000000142e+01,1.068537174036612719e-01
5.264000000000000057e+01,1.188039789118880696e-01
5.267999999999999972e+01,1.157054978133990608e-01
5.271999999999999886e+01,1.016187454051167283e-01
5.275999999999999801e+01,1.130879722503184137e-01
5.279999999999999716e+01,1.016263596562348021e-01
5.284000000000000341e+01,7.320518946486773149e-02
5.288000000000000256e+01,8.084945319080713566e-02
5.292000000000000171e+01,7.965510191330803236e-02
5.296000000000000085e+01,7.009983715726823827e-02
5.300000000000000000e+01,7.559108698854220820e-02
5.303999999999999915e+01,7.104946189158690972e-02
5.307999999999999829e+01,6.961178325245319376e-02
5.311999999999999744e+01,4.810947210067773039e-02
5.315999999999999659e+01,5.287968304307139739e-02
5.320000000000000284e+01,6.935248456202944278e-02
5.324000000000000199e+01,6.265558309847522878e-02
5.328000000000000114e+01,3.899911181254588771e-02
5.332000000000000028e+01,2.776178172346984926e-02
5.335999999999999943e+01,4.231926553543308156e-02
5.339999999999999858e+01,3.036312346550661123e-02
5.343999999999999773e+01,4.802341416403496654e-02
5.347999999999999687e+01,3.582615830404013019e-02
5.352000000000000313e+01,4.201932103741282121e-02
5.356000000000000227e+01,3.746304044031548153e-02
5.360000000000000142e+01,4.675900116927736438e-02
5.364000000000000057e+01,2.930247802998270021e-02
5.367999999999999972e+01,4.002927308210106616e-02
5.371999999999999886e+01,3.714040454064201219e-02
5.375999999999999801e+01,4.475985442586472712e-02
5.379999999999999716e+01,4.377951617560017772e-02
5.384000000000000341e+01,3.754330713236590095e-02
5.388000000000000256e+01,4.133771054542750845e-02
5.392000000000000171e+01,3.605461985261602942e-02
5.396000000000000085e+01,3.244234325863280116e-02
5.400000000000000000e+01,4.507081005833855902e-02
5.403999999999999915e+01,3.190218714860780513e-02
5.407999999999999829e+01,3.473545409168713599e-02
5.411999999999999744e+01,4.282230046013130176e-02
5.415999999999999659e+01,4.159279473633541169e-02
5.420000000000000284e+01,4.490031226075542198e-02
5.424000000000000199e+01,3.841377283392164582e-02
5.428000000000000114e+01,4.052472684085409171e-02
5.432000000000000028e+01,3.331932431005862200e-02
5.435999999999999943e+01,4.378776307941415619e-02
5.439999999999999858e+01,3.228072322714469616e-02
5.443999999999999773e+01,3.988063036109202458e-02
5.447999999999999687e+01,3.529796069420390592e-02
5.452000000000000313e+01,2.856446847677695036e-02
5.456000000000000227e+01,2.517373291454312600e-02
5.460000000000000142e+01,3.444095430339411124e-02
5.464000000000000057e+01,3.104789180965192644e-02
5.467999999999999972e+01,3.147528527325688802e-02
5.471999999999999886e+01,3.667853885537697423e-02
5.475999999999999801e+01,5.095697517106949348e-02
5.479999999999999716e+01,3.083965320839912594e-02
5.484000000000000341e+01,3.699480666227458053e-02
5.488000000000000256e+01,3.932716833631857284e-02
5.492000000000000171e+01,4.595768193574770177e-02
5.496000000000000085e+01,2.607452630977991417e-02
5.500000000000000000e+01,4.010708383518878095e-02
5.503999999999999915e+01,3.001448309380636004e-02
5.507999999999999829e+01,3.066901542196523098e-02
5.511999999999999744e+01,2.845615457460051387e-02
5.515999999999999659e+01,3.675157325589820806e-02
5.520000000000000284e+01,3.764142149436406487e-02
5.524000000000000199e+01,3.972434563148471293e-02
5.528000000000000114e+01,2.723615755898076141e-02
5.532000000000000028e+01,4.842482242874260323e-02
5.535999999999999943e+01,2.638021468994021165e-02
5.539999999999999858e+01,5.019387489554285459e-02
5.543999999999999773e+01,3.985061035896590720e-02
5.547999999999999687e+01,3.022271241654197332e-02
5.552000000000000313e+01,5.212199999630928032e-02
5.556000000000000227e+01,4.368598058994051930e-02
5.560000000000000142e+01,4.241431003325276533e-02
5.564000000000000057e+01,3.875293448947559477e-02
5.567999999999999972e+01,4.464441875398527521e-02
5.571999999999999886e+01,3.572592726564336602e-02
5.575999999999999801e+01,4.400353554316308730e-02
5.579999999999999716e+01,6.159514897671863193e-02
5.584000000000000341e+01,5.792779773366276558e-02
5.588000000000000256e+01,5.210958615342050487e-02
5.592000000000000171e+01,5.441111980442330659e-02
5.596000000000000085e+01,4.453003553382737373e-02
5.600000000000000000e+01,4.539605877121710015e-02
5.603999999999999915e+01,4.936594622490168838e-02
5.607999999999999829e+01,3.924240187779191869e-02
5.611999999999999744e+01,5.037541970249020951e-02
5.615999999999999659e+01,3.929405868706133814e-02
5.620000000000000284e+01,4.779729839375199130e-02
5.624000000000000199e+01,5.200000589769363663e-02
5.628000000000000114e+01,3.876535759009146903e-02
5.632000000000000028e+01,4.511530667049278714e-02
5.635999999999999943e+01,2.948972267204205341e-02
5.639999999999999858e+01,4.515244842746390930e-02
5.643999999999999773e+01,5.914200092276162418e-02
5.647999999999999687e+01,3.921345109834311476e-02
5.652000000000000313e+01,3.361476410609896825e-02
5.656000000000000227e+01,3.279188610925865000e-02
5.660000000000000142e+01,3.292319490629084383e-02
5.664000000000000057e+01,3.974112102106255873e-02
5.667999999999999972e+01,3.103249075565037152e-02
5.671999999999999886e+01,3.904223094690218582e-02
5.675999999999999801e+01,2.985345330828142671e-02
5.679999999999999716e+01,3.212831490461150186e-02
5.684000000000000341e+01,3.870127508047162962e-02
5.688000000000000256e+01,3.786861813587670544e-02
5.692000000000000171e+01,4.826074577398169196e-02
5.696000000000000085e+01,3.094489202741572409e-02
5.700000000000000000e+01,2.772003645842538791e-02
5.703999999999999915e+01,3.619766477428903312e-02
5.707999999999999829e+01,3.488115723148794978e-02
5.711999999999999744e+01,2.687557985440474848e-02
5.715999999999999659e+01,3.582721202702883467e-02
5.720000000000000284e+01,3.976173136957144444e-02
5.724000000000000199e+01,3.008048931780208518e-02
5.728000000000000114e+01,3.831185875416386749e-02
5.732000000000000028e+01,3.030010007398501251e-02
5.735999999999999943e+01,2.969149266125494652e-02
5.739999999999999858e+01,1.952759181701934840e-02
5.743999999999999773e+01,2.297697428899753841e-02
5.747999999999999687e+01,2.140923615129048177e-02
5.752000000000000313e+01,2.533383429046464838e-02
5.756000000000000227e+01,3.188455177752832354e-02
5.760000000000000142e+01,3.652321245654535642e-02
5.764000000000000057e+01,4.498224685138282886e-02
5.767999999999999972e+01,3.719814312733191186e-02
5.771999999999999886e+01,3.012934376060291686e-02
5.775999999999999801e+01,3.285219772895249524e-02
5.779999999999999716e+01,3.772346174068988423e-02
5.784000000000000341e+01,4.116036491241857609e-02
5.788000000000000256e+01,4.555141931411625655e-02
5.792000000000000171e+01,3.537128815563839873e-02
5.796000000000000085e+01,4.023753377434837603e-02
5.800000000000000000e+01,3.435421270029814789e-02
5.803999999999999915e+01,3.205240291021359961e-02
5.807999999999999829e+01,4.001994020050175793e-02
5.811999999999999744e+01,3.293858373748443508e-02
5.815999999999999659e+01,2.681137072483217448e-02
5.820000000000000284e+01,5.483863327193301551e-02
5.824000000000000199e+01,2.912308519374837146e-02
5.828000000000000114e+01,3.159072749919867446e-02
5.832000000000000028e+01,3.142973903750178460e-02
5.835999999999999943e+01,2.887897001542053324e-02
5.839999999999999858e+01,3.397017468325149586e-02
5.843999999999999773e+01,3.571619129541429849e-02
5.847999999999999687e+01,3.340046478613221959e-02
5.852000000000000313e+01,3.227772304300226963e-02
5.856000000000000227e+01,3.473647813600223844e-02
5.860000000000000142e+01,3.385004072784622564e-02
5.864000000000000057e+01,3.487313870613126254e-02
5.867999999999999972e+01,3.708921700508064495e-02
5.871999999999999886e+01,3.572124815062311526e-02
5.875999999999999801e+01,2.025977303344814878e-02
5.879999999999999716e+01,3.154836594326267118e-02
5.884000000000000341e+01,3.710324650233958604e-02
5.888000000000000256e+01,4.026833205319649278e-02
5.892000000000000171e+01,4.868686366478008898e-02
5.896000000000000085e+01,4.468384268373119111e-02
5.900000000000000000e+01,4.999473794895954726e-02
5.903999999999999915e+01,4.742225344337568788e-02
5.907999999999999829e+01,4.150456310017200390e-02
5.911999999999999744e+01,4.967781203182885380e-02
5.915999999999999659e+01,3.277038295284018937e-02
5.920000000000000284e+01,4.858429374049514499e-02
5.924000000000000199e+01,3.764556506781606415e-02
5.928000000000000114e+01,4.008121727010452440e-02
5.932000000000000028e+01,4.084361619348601813e-02
5.935999999999999943e+01,3.945505809031858019e-02
5.939999999999999858e+01,4.188682480260439572e-02
5.943999999999999773e+01,4.622810467389164985e-02
5.947999999999999687e+01,3.647585827776590739e-02
5.952000000000000313e+01,4.368075586040041924e-02
5.956000000000000227e+01,4.873469085962604808e-02
5.960000000000000142e+01,3.587347516716336143e-02
5.964000000000000057e+01,5.095656075355321779e-02
5.967999999999999972e+01,4.310861574467651780e-02
5.971999999999999886e+01,4.720193147686579938e-02
5.975999999999999801e+01,3.624630788949838311e-02
5.979999999999999716e+01,4.774140081839148980e-02
5.984000000000000341e+01,3.415579684331541271e-02
5.988000000000000256e+01,5.233610856901944192e-02
5.992000000000000171e+01,5.857254366543330343e-02
5.996000000000000085e+01,4.546071015900108453e-02
