2.003999999999999915e+01,3.966667530230478557e-03
2.007999999999999829e+01,3.340561835638444430e-03
2.012000000000000099e+01,5.530176357402568840e-03
2.016000000000000014e+01,4.416532472676714532e-03
2.019999999999999929e+01,4.439951049978786007e-03
2.023999999999999844e+01,4.788178339045328843e-03
2.028000000000000114e+01,4.703110843414750296e-03
2.032000000000000028e+01,2.722691767201141332e-03
2.035999999999999943e+01,3.882894770743163752e-03
2.039999999999999858e+01,2.389642754005199838e-03
2.044000000000000128e+01,2.087603793684718149e-03
2.048000000000000043e+01,5.413539367630575486e-03
2.051999999999999957e+01,2.349652579261152750e-03
2.055999999999999872e+01,3.671843991913492471e-03
2.060000000000000142e+01,2.394730921910790625e-03
2.064000000000000057e+01,4.041639313808570791e-03
2.067999999999999972e+01,5.146952981051645948e-03
2.071999999999999886e+01,5.006718680980331432e-03
2.076000000000000156e+01,2.646231901925537918e-03
2.080000000000000071e+01,2.722414527612844731e-03
2.083999999999999986e+01,3.610759000750715739e-03
2.087999999999999901e+01,4.174110048264470518e-03
2.092000000000000171e+01,2.571359097655085465e-03
2.096000000000000085e+01,4.542433108685572929e-03
2.100000000000000000e+01,3.372700666688472401e-03
2.103999999999999915e+01,2.365327310342561946e-03
2.107999999999999829e+01,3.415571979477975782e-03
2.112000000000000099e+01,4.140823563576969887e-03
2.116000000000000014e+01,5.732387703045329665e-03
2.119999999999999929e+01,3.858244150497975016e-03
2.123999999999999844e+01,3.933418342886651521e-03
2.128000000000000114e+01,3.791900184901119981e-03
2.132000000000000028e+01,2.621435926277934647e-03
2.135999999999999943e+01,5.403848973553892175e-03
2.139999999999999858e+01,6.236761719089594681e-03
2.144000000000000128e+01,5.228474727253427934e-03
2.148000000000000043e+01,3.191241861838057126e-03
2.151999999999999957e+01,2.236923077881109584e-03
2.155999999999999872e+01,2.419668685949056056e-03
2.160000000000000142e+01,3.901929504212157864e-03
2.164000000000000057e+01,2.189234523879654906e-03
2.167999999999999972e+01,3.671313750337029322e-03
2.171999999999999886e+01,2.608240337350522034e-03
2.176000000000000156e+01,1.869977793183919684e-03
2.180000000000000071e+01,2.322930235431791210e-03
2.183999999999999986e+01,3.804646959453150245e-03
2.187999999999999901e+01,3.445164570513414414e-03
2.192000000000000171e+01,5.522353175725061916e-03
2.196000000000000085e+01,2.184426030581311951e-03
2.200000000000000000e+01,4.586335475032345468e-03
2.203999999999999915e+01,2.981035881505882546e-03
2.207999999999999829e+01,5.436915123245412637e-03
2.212000000000000099e+01,5.564243308394711644e-03
2.216000000000000014e+01,4.337725062152078363e-03
2.219999999999999929e+01,4.627323892781313314e-03
2.223999999999999844e+01,3.671376913151599541e-03
2.228000000000000114e+01,4.393997885328613552e-03
2.232000000000000028e+01,5.549731028633933354e-03
2.235999999999999943e+01,1.344499243031896558e-03
2.239999999999999858e+01,1.579498523425896086e-03
2.244000000000000128e+01,2.247610145242045099e-03
2.248000000000000043e+01,4.648440256489872954e-03
2.251999999999999957e+01,3.042062010935627295e-03
2.255999999999999872e+01,3.168402368342294450e-03
2.260000000000000142e+01,7.464222806558718643e-03
2.264000000000000057e+01,2.283659424277878405e-03
2.267999999999999972e+01,3.709337657420250234e-03
2.271999999999999886e+01,4.810025076110889183e-03
2.276000000000000156e+01,5.314970468105053442e-03
2.280000000000000071e+01,5.440774905374847793e-03
2.283999999999999986e+01,3.617081084430612097e-03
2.287999999999999901e+01,4.717411904205406209e-03
2.292000000000000171e+01,4.084845594502897574e-03
2.296000000000000085e+01,2.423335511512021093e-03
2.300000000000000000e+01,4.985456330778943387e-03
2.303999999999999915e+01,4.677524861023111061e-03
2.307999999999999829e+01,5.452509686545752889e-03
2.312000000000000099e+01,2.382737768141185430e-03
2.316000000000000014e+01,2.345291395411716606e-03
2.319999999999999929e+01,3.174160473047087268e-03
2.323999999999999844e+01,3.353137951359516731e-03
2.328000000000000114e+01,1.041115257849994187e-03
2.332000000000000028e+01,2.952723920715200675e-03
2.335999999999999943e+01,1.452778210655878213e-03
2.339999999999999858e+01,5.855121838358526287e-03
2.344000000000000128e+01,5.546305115420966693e-03
2.348000000000000043e+01,3.071390027295758333e-03
2.351999999999999957e+01,2.383345158284154702e-03
2.355999999999999872e+01,4.402724879782572535e-03
2.360000000000000142e+01,2.631498792331079997e-03
2.364000000000000057e+01,2.268091317673912640e-03
2.367999999999999972e+01,2.662699466953258320e-03
2.371999999999999886e+01,2.299116190481329848e-03
2.376000000000000156e+01,4.480507026936898785e-03
2.380000000000000071e+01,1.679986754624450233e-03
2.383999999999999986e+01,1.965943246787454565e-03
2.387999999999999901e+01,2.955765392908173833e-03
2.392000000000000171e+01,3.512297919911933682e-03
2.396000000000000085e+01,4.339494183987675086e-03
2.400000000000000000e+01,2.838142059410179996e-03
2.403999999999999915e+01,2.961210130480696704e-03
2.407999999999999829e+01,2.109486271474005428e-03
2.412000000000000099e+01,2.936332975446426154e-03
2.416000000000000014e+01,2.192735071050273647e-03
2.419999999999999929e+01,4.589764695813005821e-03
2.423999999999999844e+01,2.817137643246574868e-03
2.428000000000000114e+01,3.860236710557026808e-03
2.432000000000000028e+01,5.174000025821001367e-03
2.435999999999999943e+01,4.754868255133904223e-03
2.439999999999999858e+01,4.281499323118347425e-03
2.444000000000000128e+01,3.483142017529582656e-03
2.448000000000000043e+01,4.634107054810846990e-03
2.451999999999999957e+01,3.998026979397610765e-03
2.455999999999999872e+01,4.390715045751820630e-03
2.460000000000000142e+01,4.837466742204398970e-03
2.464000000000000057e+01,4.146976541878792839e-03
2.467999999999999972e+01,2.860747039558329992e-03
2.471999999999999886e+01,4.227793520119916409e-03
2.476000000000000156e+01,3.428743451961622363e-03
2.480000000000000071e+01,3.279410089545362842e-03
2.483999999999999986e+01,3.617342728230146277e-03
2.487999999999999901e+01,6.771002338261067517e-03
2.492000000000000171e+01,3.372395068678978123e-03
2.496000000000000085e+01,1.760660061736700433e-03
2.500000000000000000e+01,3.343703973047507105e-03
2.503999999999999915e+01,3.302154271009468192e-03
2.507999999999999829e+01,3.477119641650798336e-03
2.512000000000000099e+01,4.139351410745508233e-03
2.516000000000000014e+01,2.635487198766490406e-03
2.519999999999999929e+01,5.842609295316051471e-03
2.523999999999999844e+01,4.284423341831288846e-03
2.528000000000000114e+01,4.079908074688300829e-03
2.532000000000000028e+01,3.821156951803056975e-03
2.535999999999999943e+01,2.425164953902723790e-03
2.539999999999999858e+01,2.870196096854867214e-03
2.544000000000000128e+01,1.528183432698708476e-03
2.548000000000000043e+01,2.568696560942976617e-03
2.551999999999999957e+01,2.959321325447473658e-03
2.555999999999999872e+01,3.999663874221740661e-03
2.560000000000000142e+01,2.278258274512479607e-03
2.564000000000000057e+01,2.506176663847140603e-03
2.567999999999999972e+01,3.817015038160394974e-03
2.571999999999999886e+01,4.098913555943863030e-03
2.576000000000000156e+01,3.785074304377139629e-03
2.580000000000000071e+01,2.496445563611740959e-03
2.583999999999999986e+01,4.835798963571369055e-03
2.587999999999999901e+01,3.601150805371707703e-03
2.592000000000000171e+01,4.803179317785131845e-03
2.596000000000000085e+01,1.564802324738573608e-03
2.600000000000000000e+01,1.954407699475509651e-03
2.603999999999999915e+01,2.993731539657608440e-03
2.607999999999999829e+01,2.841665272785870878e-03
2.612000000000000099e+01,3.664219107699765148e-03
2.616000000000000014e+01,4.215937263720867523e-03
2.619999999999999929e+01,5.254923350839992360e-03
2.623999999999999844e+01,3.261410928700114818e-03
2.628000000000000114e+01,2.350819343008080792e-03
2.632000000000000028e+01,1.873345604906053634e-03
2.635999999999999943e+01,3.561797892818547619e-03
2.639999999999999858e+01,5.629217888048399301e-03
2.644000000000000128e+01,3.635284835606768152e-03
2.648000000000000043e+01,3.807277979473514852e-03
2.651999999999999957e+01,5.332943569385152453e-03
2.655999999999999872e+01,5.125717195399642767e-03
2.660000000000000142e+01,3.727101452300311812e-03
2.664000000000000057e+01,3.898759340747227214e-03
2.667999999999999972e+01,1.850173151373990044e-03
2.671999999999999886e+01,4.025223143367941299e-03
2.676000000000000156e+01,3.519621663455948938e-04
2.680000000000000071e+01,3.393249159105746031e-03
2.683999999999999986e+01,2.048282149029354623e-03
2.687999999999999901e+01,2.165288603483180984e-03
2.692000000000000171e+01,9.826056353363795369e-04
2.696000000000000085e+01,3.373756143521985419e-03
2.700000000000000000e+01,3.003160489985688686e-03
2.703999999999999915e+01,2.794932436793135921e-03
2.707999999999999829e+01,3.398875086331414660e-03
2.712000000000000099e+01,4.977439256770756736e-03
2.716000000000000014e+01,4.173309269159753560e-03
2.719999999999999929e+01,2.340241525309782068e-03
2.723999999999999844e+01,2.781401563899648516e-03
2.728000000000000114e+01,3.005877766807878160e-03
2.732000000000000028e+01,2.688768667987845827e-03
2.735999999999999943e+01,2.534027623628512006e-03
2.739999999999999858e+01,2.812405959503838822e-03
2.744000000000000128e+01,2.007696625926051227e-03
2.748000000000000043e+01,2.285909831734617842e-03
2.751999999999999957e+01,2.022538019638013811e-03
2.755999999999999872e+01,3.004539621862618772e-03
2.760000000000000142e+01,3.824008096324387970e-03
2.764000000000000057e+01,4.535093753589810803e-03
2.767999999999999972e+01,3.784040305376714167e-03
2.771999999999999886e+01,2.870453899694645414e-03
2.776000000000000156e+01,3.581292968769959461e-03
2.780000000000000071e+01,2.017739295632543783e-03
2.783999999999999986e+01,1.428808165159292003e-03
2.787999999999999901e+01,3.059955471557867894e-03
2.792000000000000171e+01,3.066513251660017789e-03
2.796000000000000085e+01,4.372595267531417980e-03
2.800000000000000000e+01,4.054087870635620511e-03
2.803999999999999915e+01,3.843799239397133367e-03
2.807999999999999829e+01,1.846470547515079294e-03
2.812000000000000099e+01,2.827324186318750775e-03
2.816000000000000014e+01,2.941692192639901084e-03
2.819999999999999929e+01,5.113688328544200440e-03
2.823999999999999844e+01,2.195479148949234204e-03
2.828000000000000114e+01,1.822250496683495849e-03
2.832000000000000028e+01,4.102302936115350546e-03
2.835999999999999943e+01,3.349859874812911517e-03
2.839999999999999858e+01,2.326584313436228391e-03
2.844000000000000128e+01,3.685838745041631996e-03
2.848000000000000043e+01,4.503509521092667438e-03
2.851999999999999957e+01,2.234534769666012173e-03
2.855999999999999872e+01,1.969038404902187511e-03
2.860000000000000142e+01,4.844175813405113273e-03
2.864000000000000057e+01,1.708554159423127626e-03
2.867999999999999972e+01,4.745980605141929091e-03
2.871999999999999886e+01,3.343005462159335563e-03
2.876000000000000156e+01,1.994099852795286256e-03
2.880000000000000071e+01,8.617145952200075832e-04
2.883999999999999986e+01,0.000000000000000000e+00
2.887999999999999901e+01,2.116468813993453626e-03
2.892000000000000171e+01,4.287007388663920289e-03
2.896000000000000085e+01,3.154300045059984462e-03
2.900000000000000000e+01,3.483569174510956629e-03
2.903999999999999915e+01,2.621452397489746223e-03
2.907999999999999829e+01,1.813405608204022874e-03
2.912000000000000099e+01,2.846387238880159713e-03
2.916000000000000014e+01,2.742133387179836700e-03
2.919999999999999929e+01,2.421198424499487484e-03
2.923999999999999844e+01,2.858286976037430378e-03
2.928000000000000114e+01,4.053399098558269249e-03
2.932000000000000028e+01,2.540918605506834859e-03
2.935999999999999943e+01,4.277373471853636137e-03
2.939999999999999858e+01,2.981334313346174075e-03
2.944000000000000128e+01,2.605769714285691326e-03
2.948000000000000043e+01,1.634472624984401132e-03
2.951999999999999957e+01,2.558354777093018503e-03
2.955999999999999872e+01,2.886504552490068692e-03
2.960000000000000142e+01,2.835523023147647811e-03
2.964000000000000057e+01,2.784462022443475165e-03
2.967999999999999972e+01,2.137668815321585539e-03
2.971999999999999886e+01,1.761547519376535512e-03
2.976000000000000156e+01,3.064004790221609448e-03
2.980000000000000071e+01,2.416973679896028144e-03
2.983999999999999986e+01,1.453557679756262145e-04
2.987999999999999901e+01,2.530580552242142362e-03
2.992000000000000171e+01,1.937462303396287949e-03
2.996000000000000085e+01,2.752171636154278865e-03
3.000000000000000000e+01,3.025299470413360566e-03
3.003999999999999915e+01,2.919296624343765533e-03
3.007999999999999829e+01,4.329422037775609335e-03
3.012000000000000099e+01,3.248556986135012724e-03
3.016000000000000014e+01,2.221763454874562792e-03
3.019999999999999929e+01,3.035999876220638310e-03
3.023999999999999844e+01,3.254504885853629678e-03
3.028000000000000114e+01,1.902573972104477278e-03
3.032000000000000028e+01,2.608274196463176292e-03
3.035999999999999943e+01,2.880693940808262167e-03
3.039999999999999858e+01,2.828133769508096168e-03
3.044000000000000128e+01,2.775495262138518576e-03
3.048000000000000043e+01,3.101830252077253033e-03
3.051999999999999957e+01,2.453382451042121232e-03
3.055999999999999872e+01,2.021457499438926789e-03
3.060000000000000142e+01,2.618309261060349207e-03
3.064000000000000057e+01,2.132077894398018772e-03
3.067999999999999972e+01,3.378576653913869556e-03
3.071999999999999886e+01,3.812743667684559933e-03
3.076000000000000156e+01,8.895170637867427484e-04
3.080000000000000071e+01,2.677284715463894554e-03
3.083999999999999986e+01,3.977622314500966171e-03
3.087999999999999901e+01,1.108312659135308152e-03
3.092000000000000171e+01,2.462645145421631619e-03
3.096000000000000085e+01,3.600299018371078477e-03
3.100000000000000000e+01,1.867911898456563798e-03
3.103999999999999915e+01,3.059560999242958140e-03
3.107999999999999829e+01,1.543619982100245943e-03
3.112000000000000099e+01,1.868710223150245233e-03
3.116000000000000014e+01,2.193723149893945200e-03
3.119999999999999929e+01,1.273202981652922549e-03
3.123999999999999844e+01,3.005968048926523778e-03
3.128000000000000114e+01,2.843397089122183703e-03
3.132000000000000028e+01,3.005650564881241944e-03
3.135999999999999943e+01,2.030671680317770386e-03
3.139999999999999858e+01,2.246921405676888597e-03
3.144000000000000128e+01,3.004596752100730222e-03
3.148000000000000043e+01,4.590297564210484233e-04
3.151999999999999957e+01,2.407857022871955858e-03
3.155999999999999872e+01,1.486644091163546186e-03
3.160000000000000142e+01,1.864960560804536415e-03
3.164000000000000057e+01,2.676402427729598302e-03
3.167999999999999972e+01,1.213457058609787630e-03
3.171999999999999886e+01,2.836999636594984397e-03
3.176000000000000156e+01,6.157977318102604613e-04
3.180000000000000071e+01,2.401638202291600781e-03
3.183999999999999986e+01,3.104397247427705554e-03
3.187999999999999901e+01,2.940675939190666010e-03
3.192000000000000171e+01,4.726287532042433570e-03
3.196000000000000085e+01,2.775455433551097389e-03
3.200000000000000000e+01,3.477909649102127031e-03
3.203999999999999915e+01,3.043132469329128120e-03
3.207999999999999829e+01,2.391678265628541245e-03
3.211999999999999744e+01,3.256355216424856175e-03
3.215999999999999659e+01,3.092101449794742996e-03
3.220000000000000284e+01,1.628165753493461413e-03
3.224000000000000199e+01,2.438464935209140594e-03
3.228000000000000114e+01,7.036264633398384497e-04
3.232000000000000028e+01,2.001126536242933511e-03
3.235999999999999943e+01,2.919499221165132961e-03
3.239999999999999858e+01,2.159138483626153564e-03
3.243999999999999773e+01,3.564712400323470816e-03
3.247999999999999687e+01,2.316848439655155422e-03
3.252000000000000313e+01,2.693416708733666932e-03
3.256000000000000227e+01,2.745008127456239309e-03
3.260000000000000142e+01,2.742374021596853326e-03
3.264000000000000057e+01,3.010415970731362273e-03
3.267999999999999972e+01,3.224232508813141412e-03
3.271999999999999886e+01,2.192518108965644304e-03
3.275999999999999801e+01,7.275266349815564170e-04
3.279999999999999716e+01,2.186573879341532564e-03
3.284000000000000341e+01,2.508390863669821523e-03
3.288000000000000256e+01,4.454640588626484522e-03
3.292000000000000171e+01,2.393696715581511859e-03
3.296000000000000085e+01,3.868283364398776157e-04
3.300000000000000000e+01,3.834446448335698246e-04
3.303999999999999915e+01,2.166944682319731173e-03
3.307999999999999829e+01,3.571318353588109288e-03
3.311999999999999744e+01,2.917907847545302136e-03
3.315999999999999659e+01,3.564028956671964638e-03
3.320000000000000284e+01,3.127070570450370558e-03
3.324000000000000199e+01,4.097944420531217553e-03
3.328000000000000114e+01,1.873878990520050358e-03
3.332000000000000028e+01,1.220096671746178805e-03
3.335999999999999943e+01,3.869405642634111096e-03
3.339999999999999858e+01,2.457371442893934495e-03
3.343999999999999773e+01,2.886371793694262645e-03
3.347999999999999687e+01,1.257588478064959169e-03
3.352000000000000313e+01,1.036637796090421641e-03
3.356000000000000227e+01,2.602571581148374787e-03
3.360000000000000142e+01,2.760524915693005673e-03
3.364000000000000057e+01,5.950818668242395526e-03
3.367999999999999972e+01,4.159215332884184588e-03
3.371999999999999886e+01,3.775444915003825942e-03
3.375999999999999801e+01,1.875393766064869681e-03
3.379999999999999716e+01,2.032978693755464056e-03
3.384000000000000341e+01,3.544246455415882985e-03
3.388000000000000256e+01,1.373223504236699075e-03
3.392000000000000171e+01,3.967349490074495964e-03
3.396000000000000085e+01,3.095785891809397367e-03
3.400000000000000000e+01,2.873952055148279536e-03
3.403999999999999915e+01,2.868646006440768361e-03
3.407999999999999829e+01,1.888562218810318051e-03
3.411999999999999744e+01,3.291016484737578109e-03
3.415999999999999659e+01,2.473237287828080905e-03
3.420000000000000284e+01,2.088587121138162691e-03
3.424000000000000199e+01,1.433112742008092180e-03
3.428000000000000114e+01,3.322627404899820575e-03
3.432000000000000028e+01,3.100209339617002961e-03
3.435999999999999943e+01,1.686412917556079274e-03
3.439999999999999858e+01,3.304957992027643919e-03
3.443999999999999773e+01,4.706829391684018600e-03
3.447999999999999687e+01,4.592421082044915309e-03
3.452000000000000313e+01,1.824577790035628901e-03
3.456000000000000227e+01,1.818324952607946804e-03
3.460000000000000142e+01,1.432947906017928603e-03
3.464000000000000057e+01,1.968052798275115364e-03
3.467999999999999972e+01,2.827986894323536015e-03
3.471999999999999886e+01,1.630139083645452827e-03
3.475999999999999801e+01,4.385187595013227517e-03
3.479999999999999716e+01,1.779288831269572237e-03
3.484000000000000341e+01,3.830239802525345696e-03
3.488000000000000256e+01,2.902854779481265843e-03
3.492000000000000171e+01,2.787651585032960809e-03
3.496000000000000085e+01,1.751822154285163089e-03
3.500000000000000000e+01,2.232127965086710616e-03
3.503999999999999915e+01,3.253864505768525994e-03
3.507999999999999829e+01,1.730467366388552383e-03
3.511999999999999744e+01,1.452454369842417050e-03
3.515999999999999659e+01,3.015478364715318965e-03
3.520000000000000284e+01,2.737322149244613128e-03
3.524000000000000199e+01,3.325498470288489657e-03
3.528000000000000114e+01,3.372100785762910738e-03
3.532000000000000028e+01,2.552227629621257703e-03
3.535999999999999943e+01,2.544536926486175559e-03
3.539999999999999858e+01,1.995272388075486000e-03
3.543999999999999773e+01,3.287045238436152490e-03
3.547999999999999687e+01,3.549892082833607399e-03
3.552000000000000313e+01,2.892113485636201801e-03
3.556000000000000227e+01,3.317268894277807141e-03
3.560000000000000142e+01,3.634052781881866138e-03
3.564000000000000057e+01,2.109657083553101529e-03
3.567999999999999972e+01,2.588749875989010060e-03
3.571999999999999886e+01,4.096626647520528429e-03
3.575999999999999801e+01,4.304826541431791206e-03
3.579999999999999716e+01,3.321650122091160742e-03
3.584000000000000341e+01,4.287812166771802318e-03
3.588000000000000256e+01,2.762991920484864344e-03
3.592000000000000171e+01,2.321106190918490082e-03
3.596000000000000085e+01,2.799704273431682759e-03
3.600000000000000000e+01,3.657283686770340138e-03
3.603999999999999915e+01,3.648388650256032418e-03
3.607999999999999829e+01,4.126775565700169929e-03
3.611999999999999744e+01,4.117739921433681560e-03
3.615999999999999659e+01,3.079779236202467244e-03
3.620000000000000284e+01,3.720406256864721220e-03
3.624000000000000199e+01,3.657009872902710311e-03
3.628000000000000114e+01,4.297496739929715197e-03
3.632000000000000028e+01,4.613012092474797453e-03
3.635999999999999943e+01,4.549405733500691898e-03
3.639999999999999858e+01,4.485729496385123909e-03
3.643999999999999773e+01,4.855185468307682273e-03
3.647999999999999687e+01,4.249867107184323103e-03
3.652000000000000313e+01,5.756338936486343066e-03
3.656000000000000227e+01,3.472223348574355120e-03
3.660000000000000142e+01,3.462348826022595451e-03
3.664000000000000057e+01,5.239363141378836942e-03
3.667999999999999972e+01,3.767292747833639842e-03
3.671999999999999886e+01,4.731914351348134005e-03
3.675999999999999801e+01,4.830062526772775991e-03
3.679999999999999716e+01,4.224188092277791559e-03
3.684000000000000341e+01,7.029710393570040919e-03
3.688000000000000256e+01,4.474288371510947750e-03
3.692000000000000171e+01,4.788760660749603881e-03
3.696000000000000085e+01,5.265614627957050133e-03
3.700000000000000000e+01,5.417498045681059388e-03
3.703999999999999915e+01,6.056664777714322427e-03
3.707999999999999829e+01,7.778767672642039957e-03
3.711999999999999744e+01,6.901589528701568277e-03
3.715999999999999659e+01,7.161497914986659531e-03
3.720000000000000284e+01,7.367187304620757306e-03
3.724000000000000199e+01,9.089015114622747693e-03
3.728000000000000114e+01,8.644764143229998268e-03
3.732000000000000028e+01,8.308745106885714882e-03
3.735999999999999943e+01,9.543014915005049864e-03
3.739999999999999858e+01,1.121041829451332149e-02
3.743999999999999773e+01,1.260700200275081603e-02
3.747999999999999687e+01,1.194580772102039022e-02
3.752000000000000313e+01,1.204264870378398029e-02
3.756000000000000227e+01,1.333072703822117677e-02
3.760000000000000142e+01,1.521438998927600317e-02
3.764000000000000057e+01,1.525687619262886853e-02
3.767999999999999972e+01,1.627399890274169175e-02
3.771999999999999886e+01,1.767010538455852930e-02
3.775999999999999801e+01,2.182780686212633034e-02
3.779999999999999716e+01,2.636449222492736125e-02
3.784000000000000341e+01,2.922245188525512960e-02
3.788000000000000256e+01,3.505860772683518783e-02
3.792000000000000171e+01,4.176109990815918271e-02
3.796000000000000085e+01,5.821057010949867022e-02
3.800000000000000000e+01,7.016550163772601600e-02
3.803999999999999915e+01,9.571207931943097325e-02
3.807999999999999829e+01,1.433518930582719508e-01
3.811999999999999744e+01,2.300881226048012984e-01
3.815999999999999659e+01,3.982662664888469983e-01
3.820000000000000284e+01,6.493483816198244440e-01
3.824000000000000199e+01,8.897086792310620051e-01
3.828000000000000114e+01,1.000000000000000000e+00
3.832000000000000028e+01,9.695005937306321320e-01
3.835999999999999943e+01,7.987519630177416508e-01
3.839999999999999858e+01,5.944301079077802807e-01
3.843999999999999773e+01,4.010465370826509224e-01
3.847999999999999687e+01,2.427522637947528983e-01
3.852000000000000313e+01,1.505212332755214155e-01
3.856000000000000227e+01,1.025308932995668415e-01
3.860000000000000142e+01,7.376382666718914183e-02
3.864000000000000057e+01,5.745125170991898650e-02
3.867999999999999972e+01,4.655363549027768943e-02
3.871999999999999886e+01,3.533105116203148766e-02
3.875999999999999801e+01,3.168943583701824829e-02
3.879999999999999716e+01,2.853510632395741403e-02
3.884000000000000341e+01,2.446015608076494013e-02
3.888000000000000256e+01,2.460885927538324081e-02
3.892000000000000171e+01,2.053377637148497484e-02
3.896000000000000085e+01,1.905783940487057113e-02
3.900000000000000000e+01,1.779843726502229953e-02
3.903999999999999915e+01,1.659311924729916371e-02
3.907999999999999829e+01,1.587508743888075072e-02
3.911999999999999744e+01,1.347833174445681008e-02
3.915999999999999659e+01,1.064830805823502140e-02
3.920000000000000284e+01,1.252929054815777980e-02
3.924000000000000199e+01,1.034893815508653239e-02
3.928000000000000114e+01,1.022622961539735968e-02
3.932000000000000028e+01,9.670253310968797769e-03
3.935999999999999943e+01,8.626859044763592749e-03
3.939999999999999858e+01,8.341502710989405142e-03
3.943999999999999773e+01,8.272681828392138351e-03
3.947999999999999687e+01,7.987194423321436476e-03
3.952000000000000313e+01,7.430890298740043011e-03
3.956000000000000227e+01,7.632624333648137076e-03
3.960000000000000142e+01,5.722433133311144102e-03
3.964000000000000057e+01,4.678580713596613115e-03
3.967999999999999972e+01,7.262730075164614343e-03
3.971999999999999886e+01,5.244042696895286244e-03
3.975999999999999801e+01,6.582605944428363692e-03
3.979999999999999716e+01,5.430192463926338670e-03
3.984000000000000341e+01,4.765066271256758468e-03
3.988000000000000256e+01,5.724382753023549847e-03
3.992000000000000171e+01,5.329878006888390599e-03
3.996000000000000085e+01,5.422660718879529843e-03
4.000000000000000000e+01,6.327632468572819135e-03
4.003999999999999915e+01,6.149534429667362356e-03
4.007999999999999829e+01,3.101408283466023600e-03
4.011999999999999744e+01,4.006186065769225257e-03
4.015999999999999659e+01,3.394692199352571278e-03
4.020000000000000284e+01,5.111594760913549737e-03
4.024000000000000199e+01,3.741868427029625827e-03
4.028000000000000114e+01,5.891844218293746174e-03
4.032000000000000028e+01,5.171792242849681046e-03
4.035999999999999943e+01,5.155629308385574136e-03
4.039999999999999858e+01,4.381298619015508607e-03
4.043999999999999773e+01,4.202556576550892618e-03
4.047999999999999687e+01,3.807149430728263510e-03
4.052000000000000313e+01,2.816025461699146575e-03
4.056000000000000227e+01,2.528790817473070950e-03
4.060000000000000142e+01,4.840704437880155239e-03
4.064000000000000057e+01,3.470336938667926453e-03
4.067999999999999972e+01,4.265915787203116392e-03
4.071999999999999886e+01,4.574078603958643165e-03
4.075999999999999801e+01,5.261229506529070503e-03
4.079999999999999716e+01,4.161358399604150535e-03
4.084000000000000341e+01,3.494625745825233505e-03
4.088000000000000256e+01,4.831388962211211578e-03
4.092000000000000171e+01,4.868482623612538709e-03
4.096000000000000085e+01,3.551756532991962728e-03
4.100000000000000000e+01,4.617578259443227973e-03
4.103999999999999915e+01,4.925233139222412460e-03
4.107999999999999829e+01,3.391716153056700909e-03
4.111999999999999744e+01,3.428493347228611220e-03
4.115999999999999659e+01,4.656513001889659581e-03
4.120000000000000284e+01,3.611437023724036952e-04
4.124000000000000199e+01,5.650306316163606485e-03
4.128000000000000114e+01,4.008173490457075418e-03
4.132000000000000028e+01,4.369537159326223816e-03
4.135999999999999943e+01,3.918584181838356134e-03
4.139999999999999858e+01,3.575868929389899083e-03
4.143999999999999773e+01,2.854039174528629017e-03
4.147999999999999687e+01,4.623058425518354261e-03
4.152000000000000313e+01,2.709797805710339926e-03
4.156000000000000227e+01,3.720588335697524399e-03
4.160000000000000142e+01,3.052658499085448944e-03
4.164000000000000057e+01,4.334075357364120668e-03
4.167999999999999972e+01,4.532424754393350914e-03
4.171999999999999886e+01,2.239800148089095364e-03
4.175999999999999801e+01,3.412729513421842997e-03
4.179999999999999716e+01,3.773342856808360648e-03
4.184000000000000341e+01,5.271049371880637269e-03
4.188000000000000256e+01,2.815725258027366659e-03
4.192000000000000171e+01,1.497494429389091813e-03
4.196000000000000085e+01,3.536517348607164709e-03
4.200000000000000000e+01,3.734369707466526737e-03
4.203999999999999915e+01,4.527812983816022555e-03
4.207999999999999829e+01,4.996292919788447064e-03
4.211999999999999744e+01,3.082099927677302200e-03
4.215999999999999659e+01,4.687611728651204859e-03
4.220000000000000284e+01,4.451953253089484946e-03
4.224000000000000199e+01,4.107932679416650447e-03
4.228000000000000114e+01,2.789146003567373553e-03
4.232000000000000028e+01,3.582157749012950931e-03
4.235999999999999943e+01,3.833605536226295050e-03
4.239999999999999858e+01,3.381038660566405233e-03
4.243999999999999773e+01,3.361612508637199133e-03
4.247999999999999687e+01,4.533430690429501517e-03
4.252000000000000313e+01,2.293721689548841505e-03
4.256000000000000227e+01,3.736168810805014489e-03
4.260000000000000142e+01,3.337446223171741059e-03
4.264000000000000057e+01,2.559610836064162703e-03
4.267999999999999972e+01,3.027170320303046707e-03
4.271999999999999886e+01,4.198622194634296471e-03
4.275999999999999801e+01,3.691355348540177952e-03
4.279999999999999716e+01,3.075727199039583314e-03
4.284000000000000341e+01,5.113400746792582351e-03
4.288000000000000256e+01,4.985003460197219745e-03
4.292000000000000171e+01,3.123737426433084718e-03
4.296000000000000085e+01,4.457275798235110949e-03
4.300000000000000000e+01,4.491147566812570859e-03
4.303999999999999915e+01,5.066461418193718771e-03
4.307999999999999829e+01,4.721160556492636114e-03
4.311999999999999744e+01,3.401094784672068546e-03
4.315999999999999659e+01,4.409429641410801508e-03
4.320000000000000284e+01,6.229958077021046509e-03
4.324000000000000199e+01,5.884416189164486978e-03
4.328000000000000114e+01,4.293358349237553530e-03
4.332000000000000028e+01,4.651649588315284398e-03
4.335999999999999943e+01,5.659683871917383334e-03
4.339999999999999858e+01,5.692953642752315510e-03
4.343999999999999773e+01,5.942764541225877169e-03
4.347999999999999687e+01,6.625717639310167023e-03
4.352000000000000313e+01,6.388056648723016741e-03
4.356000000000000227e+01,6.204486194662735092e-03
4.360000000000000142e+01,8.295166739770662781e-03
4.364000000000000057e+01,6.595269915001808654e-03
4.367999999999999972e+01,8.415080040373449505e-03
4.371999999999999886e+01,8.285421538661175839e-03
4.375999999999999801e+01,8.372304618704468418e-03
4.379999999999999716e+01,1.008363593611659795e-02
4.384000000000000341e+01,1.000794955814427768e-02
4.388000000000000256e+01,1.101520899305132202e-02
4.392000000000000171e+01,1.153505693734806561e-02
4.396000000000000085e+01,1.308370055425153548e-02
4.400000000000000000e+01,1.371173076365896602e-02
4.403999999999999915e+01,1.526025625159860635e-02
4.407999999999999829e+01,1.594231869937332013e-02
4.411999999999999744e+01,2.008993846789744811e-02
4.415999999999999659e+01,2.255884150275779682e-02
4.420000000000000284e+01,2.562333852039760940e-02
4.424000000000000199e+01,3.101623769924137519e-02
4.428000000000000114e+01,4.160750254755290339e-02
4.432000000000000028e+01,5.019514936644790815e-02
4.435999999999999943e+01,6.744677821165968867e-02
4.439999999999999858e+01,8.264063888718230222e-02
4.443999999999999773e+01,1.160289263716803160e-01
4.447999999999999687e+01,1.483883006222539713e-01
4.452000000000000313e+01,1.890326053495897662e-01
4.456000000000000227e+01,2.111574649785259161e-01
4.460000000000000142e+01,2.174162420021187037e-01
4.464000000000000057e+01,1.971954867319660187e-01
4.467999999999999972e+01,1.736715078520334188e-01
4.471999999999999886e+01,1.392632698868235541e-01
4.475999999999999801e+01,1.099992480184549537e-01
4.479999999999999716e+01,8.008536514689201802e-02
4.484000000000000341e+01,5.829396244480257450e-02
4.488000000000000256e+01,4.365033540051751343e-02
4.492000000000000171e+01,3.404262417252848505e-02
4.496000000000000085e+01,2.708821765031774881e-02
4.500000000000000000e+01,2.257051487544244062e-02
4.503999999999999915e+01,1.978556260524284155e-02
4.507999999999999829e+01,1.488869287655069859e-02
4.511999999999999744e+01,1.475698797896830318e-02
4.515999999999999659e+01,1.126790989897954835e-02
4.520000000000000284e+01,1.238154600222416898e-02
4.524000000000000199e+01,9.812907513780440988e-03
4.528000000000000114e+01,7.460812764147716283e-03
4.532000000000000028e+01,8.141075007787944989e-03
4.535999999999999943e+01,7.629974504919762555e-03
4.539999999999999858e+01,7.118816895948956551e-03
4.543999999999999773e+01,7.690607313677572977e-03
4.547999999999999687e+01,5.392377287333612046e-03
4.552000000000000313e+01,6.722157329906277082e-03
4.556000000000000227e+01,6.319072371774890617e-03
4.560000000000000142e+01,7.107236175005150411e-03
4.564000000000000057e+01,5.079530015023162905e-03
4.567999999999999972e+01,4.080621968526437424e-03
4.571999999999999886e+01,4.868615645505780520e-03
4.575999999999999801e+01,4.411096889821016116e-03
4.579999999999999716e+01,4.819925656509741613e-03
4.584000000000000341e+01,4.416444134478559637e-03
4.588000000000000256e+01,4.446108217935137649e-03
4.592000000000000171e+01,3.013659080578580396e-03
4.596000000000000085e+01,5.046769875143813748e-03
4.600000000000000000e+01,3.289306648944680198e-03
4.603999999999999915e+01,3.643647123149784499e-03
4.607999999999999829e+01,3.564729425835787627e-03
4.611999999999999744e+01,3.269154628974790897e-03
4.615999999999999659e+01,4.598031418595036057e-03
4.620000000000000284e+01,3.111039039707684528e-03
4.624000000000000199e+01,3.248498360830811681e-03
4.628000000000000114e+01,4.902108931125303236e-03
4.632000000000000028e+01,3.739850503206040930e-03
4.635999999999999943e+01,2.794137346742446744e-03
4.639999999999999858e+01,2.714772564121609513e-03
4.643999999999999773e+01,3.339305450702521622e-03
4.647999999999999687e+01,3.963782763825473253e-03
4.652000000000000313e+01,3.775950753227007815e-03
4.656000000000000227e+01,1.801104907238050296e-03
4.660000000000000142e+01,1.721462541150494416e-03
4.664000000000000057e+01,3.482873457927073476e-03
4.667999999999999972e+01,2.320115379767711834e-03
4.671999999999999886e+01,2.727659428992367571e-03
4.675999999999999801e+01,2.485345256488925500e-03
4.679999999999999716e+01,1.918074441833232625e-03
4.684000000000000341e+01,2.271302879232937107e-03
4.688000000000000256e+01,2.949377833632089562e-03
4.692000000000000171e+01,2.057040478729792784e-03
4.696000000000000085e+01,2.518404576591725882e-03
4.700000000000000000e+01,2.979713838935719658e-03
4.703999999999999915e+01,3.224367307318910889e-03
4.707999999999999829e+01,2.873313261892803186e-03
4.711999999999999744e+01,1.709950744214539832e-03
4.715999999999999659e+01,2.712543770151662047e-03
4.720000000000000284e+01,2.848678183563988116e-03
4.724000000000000199e+01,2.389105310225488835e-03
4.728000000000000114e+01,3.120783582362544710e-03
4.732000000000000028e+01,2.390350620448070378e-03
4.735999999999999943e+01,4.529826785396397909e-03
4.739999999999999858e+01,1.795725840304522982e-03
4.743999999999999773e+01,2.093984897010301664e-03
4.747999999999999687e+01,3.204443606401609444e-03
4.752000000000000313e+01,3.773345680196292951e-03
4.756000000000000227e+01,3.150888129536500142e-03
4.760000000000000142e+01,2.961578625243002204e-03
4.764000000000000057e+01,1.743360371429874059e-03
4.767999999999999972e+01,1.553943069332859020e-03
4.771999999999999886e+01,3.151430328942770361e-03
4.775999999999999801e+01,2.474553171883859138e-03
4.779999999999999716e+01,2.014223329806844476e-03
4.784000000000000341e+01,1.120637813853869562e-03
4.788000000000000256e+01,1.689055563855068175e-03
4.792000000000000171e+01,2.907222829546975053e-03
4.796000000000000085e+01,2.284227992808120222e-03
4.800000000000000000e+01,2.852485323307926961e-03
4.803999999999999915e+01,2.229383710528670768e-03
4.807999999999999829e+01,3.880539454554729050e-03
4.811999999999999744e+01,3.636383069406628425e-03
4.815999999999999659e+01,1.280313596641496562e-03
4.820000000000000284e+01,2.498107742220457683e-03
4.824000000000000199e+01,2.037190944126590630e-03
4.828000000000000114e+01,1.901122649793761865e-03
4.832000000000000028e+01,2.685555707807172308e-03
4.835999999999999943e+01,2.657682053271548384e-03
4.839999999999999858e+01,2.738056057583330462e-03
4.843999999999999773e+01,3.414030061723972911e-03
4.847999999999999687e+01,1.761490417157028209e-03
4.852000000000000313e+01,3.357913322239888983e-03
4.856000000000000227e+01,3.059024722559375211e-03
4.860000000000000142e+01,2.435182035134372987e-03
4.864000000000000057e+01,2.190338616153830655e-03
4.867999999999999972e+01,2.162043760976753611e-03
4.871999999999999886e+01,2.891800064386477413e-03
4.875999999999999801e+01,2.755099969091465064e-03
4.879999999999999716e+01,1.806093785658206179e-03
4.884000000000000341e+01,2.210791722926186507e-03
4.888000000000000256e+01,3.048639523028200300e-03
4.892000000000000171e+01,2.749279882474591537e-03
4.896000000000000085e+01,2.016666157454308130e-03
4.900000000000000000e+01,2.854357795401215453e-03
4.903999999999999915e+01,2.175790386373250597e-03
4.907999999999999829e+01,2.796777184832349369e-03
4.911999999999999744e+01,1.143401496619610505e-03
4.915999999999999659e+01,1.926735459262475872e-03
4.920000000000000284e+01,2.655867454639466822e-03
4.924000000000000199e+01,1.489688910251575149e-03
4.928000000000000114e+01,1.677215110975701197e-03
4.932000000000000028e+01,1.972990276133421237e-03
4.935999999999999943e+01,3.784921061338017249e-03
4.939999999999999858e+01,2.401935442591274401e-03
4.943999999999999773e+01,2.156053780807537339e-03
4.947999999999999687e+01,1.855970549110247695e-03
4.952000000000000313e+01,1.555836058065894218e-03
4.956000000000000227e+01,3.259209755108345534e-03
4.960000000000000142e+01,4.041977991701140895e-03
4.964000000000000057e+01,1.846431180137802185e-03
4.967999999999999972e+01,1.816843488360718678e-03
4.971999999999999886e+01,2.870209897097096997e-03
4.975999999999999801e+01,1.649214727395504482e-03
4.979999999999999716e+01,3.352282401000232850e-03
4.984000000000000341e+01,2.889289117299972866e-03
4.988000000000000256e+01,1.397390262898643917e-03
4.992000000000000171e+01,1.909000107465664078e-03
4.996000000000000085e+01,1.933207032879574001e-03
5.000000000000000000e+01,1.470011095904972566e-03
5.003999999999999915e+01,2.089769713560766032e-03
5.007999999999999829e+01,1.951374313347927760e-03
5.011999999999999744e+01,2.354431043275999683e-03
5.015999999999999659e+01,1.999333868864684467e-03
5.020000000000000284e+01,2.564740714736608255e-03
5.024000000000000199e+01,3.238397830628320963e-03
5.028000000000000114e+01,2.449947913050157678e-03
5.032000000000000028e+01,1.878048886624766444e-03
5.035999999999999943e+01,2.172503853739211378e-03
5.039999999999999858e+01,2.412758556526295190e-03
5.043999999999999773e+01,3.898419142995556124e-03
5.047999999999999687e+01,2.568216634771239813e-03
5.052000000000000313e+01,2.050218093343365074e-03
5.056000000000000227e+01,1.640470276052213849e-03
5.060000000000000142e+01,1.718025016275498071e-03
5.064000000000000057e+01,2.661934147390945284e-03
5.067999999999999972e+01,8.441307214377712954e-04
5.071999999999999886e+01,3.087546774216419314e-03
5.075999999999999801e+01,3.219053429078140571e-03
5.079999999999999716e+01,3.025609118249310801e-03
5.084000000000000341e+01,1.640809837664614773e-03
5.088000000000000256e+01,2.313670872200947626e-03
5.092000000000000171e+01,2.715731365142459112e-03
5.096000000000000085e+01,2.305488835235049161e-03
5.100000000000000000e+01,3.194803237516320379e-03
5.103999999999999915e+01,2.892762953864808865e-03
5.107999999999999829e+01,3.023875655101273228e-03
5.111999999999999744e+01,3.263239875179094803e-03
5.115999999999999659e+01,3.177653640447924196e-03
5.120000000000000284e+01,1.521661170229333341e-03
5.124000000000000199e+01,2.898034094447022539e-03
5.128000000000000114e+01,2.270798866291552903e-03
5.132000000000000028e+01,3.051421532045441899e-03
5.135999999999999943e+01,3.344643265407815525e-03
5.139999999999999858e+01,1.309355493879647142e-03
5.143999999999999773e+01,2.577184669620197557e-03
5.147999999999999687e+01,2.545359276235010636e-03
5.152000000000000313e+01,1.701231654705537277e-03
5.156000000000000227e+01,2.427413029078743113e-03
5.160000000000000142e+01,2.232991781233163806e-03
5.164000000000000057e+01,3.554729389017624499e-03
5.167999999999999972e+01,1.519103067028306896e-03
5.171999999999999886e+01,3.869599165697464906e-03
5.175999999999999801e+01,2.375379163905233081e-03
5.179999999999999716e+01,3.155421798027715358e-03
5.184000000000000341e+01,3.502214434735955156e-03
5.188000000000000256e+01,3.307456623190819546e-03
5.192000000000000171e+01,2.300397151147572355e-03
5.196000000000000085e+01,2.430445212238205137e-03
5.200000000000000000e+01,1.748191726359964431e-03
5.203999999999999915e+01,3.177750455578521108e-03
5.207999999999999829e+01,2.928603690527489464e-03
5.211999999999999744e+01,3.816564685668810946e-03
5.215999999999999659e+01,1.942815224032342020e-03
5.220000000000000284e+01,1.260323889919327508e-03
5.224000000000000199e+01,2.202292770509364870e-03
5.228000000000000114e+01,1.194805171643536362e-03
5.232000000000000028e+01,1.649327139604368341e-03
5.235999999999999943e+01,2.699454670326537336e-03
5.239999999999999858e+01,1.854276145688570337e-03
5.243999999999999773e+01,1.875454566350529331e-03
5.247999999999999687e+01,3.900145318916334140e-03
5.252000000000000313e+01,2.675773841369067946e-03
5.256000000000000227e+01,2.534360494623063252e-03
5.260000000000000142e+01,3.205154066433579547e-03
5.264000000000000057e+01,3.875900806537173251e-03
5.267999999999999972e+01,2.218139858217968961e-03
5.271999999999999886e+01,3.592746404625874433e-03
5.275999999999999801e+01,2.530544868536479738e-03
5.279999999999999716e+01,3.959208402684719422e-03
5.284000000000000341e+01,3.275965490676116098e-03
5.288000000000000256e+01,1.726272026718338529e-03
5.292000000000000171e+01,2.180091519075201979e-03
5.296000000000000085e+01,3.825170217483237281e-03
5.300000000000000000e+01,3.250042189189161160e-03
5.303999999999999915e+01,2.837318658239946622e-03
5.307999999999999829e+01,3.290952980824523796e-03
5.311999999999999744e+01,2.769836584443890332e-03
5.315999999999999659e+01,2.248674094296349360e-03
5.320000000000000284e+01,2.323118358967098986e-03
5.324000000000000199e+01,2.884868927617017988e-03
5.328000000000000114e+01,2.363568496756447961e-03
5.332000000000000028e+01,3.033527782828613403e-03
5.335999999999999943e+01,3.703441258956950092e-03
5.339999999999999858e+01,2.640500860246191173e-03
5.343999999999999773e+01,3.256172632978863220e-03
5.347999999999999687e+01,3.546897243250327243e-03
5.352000000000000313e+01,3.187773225013978886e-03
5.356000000000000227e+01,1.908049366025078289e-03
5.360000000000000142e+01,2.090336890330584795e-03
5.364000000000000057e+01,2.272579002044585253e-03
5.367999999999999972e+01,2.454775757931697191e-03
5.371999999999999886e+01,2.853528229964031465e-03
5.375999999999999801e+01,2.873183683085608116e-03
5.379999999999999716e+01,2.784493443070401412e-03
5.384000000000000341e+01,1.991804774862450909e-03
5.388000000000000256e+01,3.256780679121812523e-03
5.392000000000000171e+01,2.084950147057769085e-03
5.396000000000000085e+01,2.645882778179051587e-03
5.400000000000000000e+01,1.636413147336104011e-03
5.403999999999999915e+01,1.764054001387124282e-03
5.407999999999999829e+01,2.866354635691112807e-03
5.411999999999999744e+01,2.993905970145322414e-03
5.415999999999999659e+01,3.500464406561142397e-03
5.420000000000000284e+01,2.490771118637695285e-03
5.424000000000000199e+01,2.997240376044408260e-03
5.428000000000000114e+01,3.720266144300971196e-03
5.432000000000000028e+01,4.064195688351413677e-03
5.435999999999999943e+01,2.025469674291120563e-03
5.439999999999999858e+01,3.019113539071846541e-03
5.443999999999999773e+01,2.550656273902877913e-03
5.447999999999999687e+01,3.219310118038663879e-03
5.452000000000000313e+01,2.804914722367096193e-03
5.456000000000000227e+01,3.635931057133257559e-03
5.460000000000000142e+01,2.409193697187604968e-03
5.464000000000000057e+01,3.619173764850099322e-03
5.467999999999999972e+01,3.204602281744981917e-03
5.471999999999999886e+01,3.493940218117350203e-03
5.475999999999999801e+01,2.267027224855092896e-03
5.479999999999999716e+01,2.718728333033239557e-03
5.484000000000000341e+01,3.332836492964007333e-03
5.488000000000000256e+01,2.809745670167103013e-03
5.492000000000000171e+01,2.394911758850178009e-03
5.496000000000000085e+01,3.008889130409669443e-03
5.500000000000000000e+01,2.593968197139077947e-03
5.503999999999999915e+01,2.666356122255430106e-03
5.507999999999999829e+01,3.009451947315843184e-03
5.511999999999999744e+01,2.756851668254995443e-03
5.515999999999999659e+01,2.450057879856228516e-03
5.520000000000000284e+01,3.226225968723447912e-03
5.524000000000000199e+01,2.973496093348284349e-03
5.528000000000000114e+01,3.912028716372095011e-03
5.532000000000000028e+01,2.359606636032222753e-03
5.535999999999999943e+01,3.243903005063597782e-03
5.539999999999999858e+01,2.287047829882988669e-03
5.543999999999999773e+01,3.875211725206608674e-03
5.547999999999999687e+01,3.297322667036244048e-03
5.552000000000000313e+01,3.477494417437576504e-03
5.556000000000000227e+01,3.278571703335931252e-03
5.560000000000000142e+01,4.162611434146442843e-03
5.564000000000000057e+01,5.100758844398173286e-03
5.567999999999999972e+01,2.356646478526613735e-03
5.571999999999999886e+01,3.023957641341534427e-03
5.575999999999999801e+01,2.878972593061585560e-03
5.579999999999999716e+01,2.517344182271966969e-03
5.584000000000000341e+01,3.346979064585959771e-03
5.588000000000000256e+01,3.418468159900799660e-03
5.592000000000000171e+01,4.193868377631635933e-03
5.596000000000000085e+01,2.965667084449515045e-03
5.600000000000000000e+01,3.253630834240696899e-03
5.603999999999999915e+01,4.245505876741729676e-03
5.607999999999999829e+01,2.475676025397453676e-03
5.611999999999999744e+01,2.763513925339044532e-03
5.615999999999999659e+01,2.672258212246908689e-03
5.620000000000000284e+01,2.743411480904379106e-03
5.624000000000000199e+01,3.139424549481673737e-03
5.628000000000000114e+01,2.885592906309740989e-03
5.632000000000000028e+01,3.173222191794354118e-03
5.635999999999999943e+01,2.702706371455234225e-03
5.639999999999999858e+01,2.773651593301892666e-03
5.643999999999999773e+01,4.848114766749490011e-03
5.647999999999999687e+01,2.482215746139934849e-03
5.652000000000000313e+01,2.607187074877388103e-03
5.656000000000000227e+01,3.273619672859096746e-03
5.660000000000000142e+01,3.723410043623485381e-03
5.664000000000000057e+01,2.981853675501473355e-03
5.667999999999999972e+01,4.189665345766228552e-03
5.671999999999999886e+01,2.202571000004572253e-03
5.675999999999999801e+01,3.302000135998223347e-03
5.679999999999999716e+01,3.426683775371427900e-03
5.684000000000000341e+01,3.443026035718747477e-03
5.688000000000000256e+01,2.322172151569251893e-03
5.692000000000000171e+01,2.338432839366150033e-03
5.696000000000000085e+01,3.816709678685285215e-03
5.700000000000000000e+01,3.562137751980872045e-03
5.703999999999999915e+01,3.415825745281138824e-03
5.707999999999999829e+01,3.756825491963819170e-03
5.711999999999999744e+01,3.231380703746732606e-03
5.715999999999999659e+01,3.463999051450651189e-03
5.720000000000000284e+01,3.155074500595264793e-03
5.724000000000000199e+01,3.550062945388236975e-03
5.728000000000000114e+01,3.132757336141792689e-03
5.732000000000000028e+01,2.986162805657960589e-03
5.735999999999999943e+01,2.677077380286405160e-03
5.739999999999999858e+01,3.234355939027297282e-03
5.743999999999999773e+01,3.304242193598455179e-03
5.747999999999999687e+01,3.319938231179480649e-03
5.752000000000000313e+01,4.039547661761188485e-03
5.756000000000000227e+01,3.676112166646430205e-03
5.760000000000000142e+01,3.799989162854101009e-03
5.764000000000000057e+01,2.624220331687058920e-03
5.767999999999999972e+01,3.776872734635316683e-03
5.771999999999999886e+01,3.304977900926862368e-03
5.775999999999999801e+01,3.536996800806789087e-03
5.779999999999999716e+01,3.065022892191060760e-03
5.784000000000000341e+01,3.026211561683591570e-03
5.788000000000000256e+01,3.041511089435894669e-03
5.792000000000000171e+01,2.406968232788271080e-03
5.796000000000000085e+01,3.451043961985794835e-03
5.800000000000000000e+01,4.170178943123845593e-03
5.803999999999999915e+01,3.643818918335229966e-03
5.807999999999999829e+01,2.954969020421989619e-03
5.811999999999999744e+01,2.970033366978685682e-03
5.815999999999999659e+01,3.743162268571806686e-03
5.820000000000000284e+01,2.945894868485500213e-03
5.824000000000000199e+01,3.014992644568590102e-03
5.828000000000000114e+01,3.842155145981956867e-03
5.832000000000000028e+01,3.423823038820980168e-03
5.835999999999999943e+01,3.276203486302661869e-03
5.839999999999999858e+01,3.940799083210345770e-03
5.843999999999999773e+01,3.576501257045015206e-03
5.847999999999999687e+01,3.482916155816205821e-03
5.852000000000000313e+01,3.660043836288527121e-03
5.856000000000000227e+01,3.133179786792916668e-03
5.860000000000000142e+01,3.689282439555756701e-03
5.864000000000000057e+01,3.866294998691116504e-03
5.867999999999999972e+01,3.068564729143037802e-03
5.871999999999999886e+01,4.599257169590299961e-03
5.875999999999999801e+01,3.638999788430949834e-03
5.879999999999999716e+01,4.086610916164356254e-03
5.884000000000000341e+01,3.884380965084021590e-03
5.888000000000000256e+01,2.761558722945203596e-03
5.892000000000000171e+01,3.750558459417323385e-03
5.896000000000000085e+01,5.010271602001365593e-03
5.900000000000000000e+01,3.075081964142177028e-03
5.903999999999999915e+01,3.793217013206485154e-03
5.907999999999999829e+01,2.616055486601708523e-03
5.911999999999999744e+01,3.550716222430963607e-03
5.915999999999999659e+01,3.727235825959661960e-03
5.920000000000000284e+01,3.578816384367398875e-03
5.924000000000000199e+01,3.430359477230027210e-03
5.928000000000000114e+01,3.823367699330867345e-03
5.932000000000000028e+01,3.891437046604597980e-03
5.935999999999999943e+01,4.392671129042039109e-03
5.939999999999999858e+01,3.215210105134820150e-03
5.943999999999999773e+01,3.391468244552356577e-03
5.947999999999999687e+01,3.730140020418098480e-03
5.952000000000000313e+01,5.043479296524731870e-03
5.956000000000000227e+01,4.353222170533939742e-03
5.960000000000000142e+01,3.825378851285202424e-03
5.964000000000000057e+01,4.001451933561855911e-03
5.967999999999999972e+01,3.094483098666746951e-03
5.971999999999999886e+01,3.866135347259940565e-03
5.975999999999999801e+01,3.879647315021847974e-03
5.979999999999999716e+01,4.163873880952636587e-03
5.984000000000000341e+01,4.827115609420669189e-03
5.988000000000000256e+01,4.732217227351261449e-03
5.992000000000000171e+01,3.879178791509027210e-03
5.996000000000000085e+01,3.459305942299753609e-03
