2.003999999999999915e+01,2.196082781962709896e-01
2.007999999999999829e+01,2.163589128794035643e-01
2.012000000000000099e+01,2.182167936924924723e-01
2.016000000000000014e+01,1.866033684648281676e-01
2.019999999999999929e+01,1.878964271010283571e-01
2.023999999999999844e+01,1.801134279576764585e-01
2.028000000000000114e+01,2.143142083121791219e-01
2.032000000000000028e+01,2.485162265211207366e-01
2.035999999999999943e+01,1.698204935928984971e-01
2.039999999999999858e+01,1.444551572983747978e-01
2.044000000000000128e+01,1.877381654514693465e-01
2.048000000000000043e+01,2.100311237907849515e-01
2.051999999999999957e+01,2.368639485483806373e-01
2.055999999999999872e+01,2.029935033506346520e-01
2.060000000000000142e+01,1.969235096747969926e-01
2.064000000000000057e+01,2.061726679742979518e-01
2.067999999999999972e+01,1.348619366210992709e-01
2.071999999999999886e+01,1.963079844252598738e-01
2.076000000000000156e+01,1.834347803167842017e-01
2.080000000000000071e+01,1.512734826245769881e-01
2.083999999999999986e+01,1.474799391533316018e-01
2.087999999999999901e+01,1.958820713987504680e-01
2.092000000000000171e+01,2.040048272055081657e-01
2.096000000000000085e+01,1.678768807088178716e-01
2.100000000000000000e+01,1.748672902283583963e-01
2.103999999999999915e+01,1.960421404327791772e-01
2.107999999999999829e+01,2.387767370330045325e-01
2.112000000000000099e+01,1.674788278860111779e-01
2.116000000000000014e+01,1.761758081231506734e-01
2.119999999999999929e+01,1.304100887589715874e-01
2.123999999999999844e+01,1.578312702069227524e-01
2.128000000000000114e+01,1.262510897966931667e-01
2.132000000000000028e+01,1.565111689963069319e-01
2.135999999999999943e+01,1.810990451170000903e-01
2.139999999999999858e+01,1.603015028304997369e-01
2.144000000000000128e+01,2.092868478169726265e-01
2.148000000000000043e+01,1.101997490094999282e-01
2.151999999999999957e+01,1.608892804571785407e-01
2.155999999999999872e+01,9.981557952660559396e-02
2.160000000000000142e+01,1.385933202914831908e-01
2.164000000000000057e+01,1.541115453420698334e-01
2.167999999999999972e+01,2.053727340587685746e-01
2.171999999999999886e+01,1.153694290472152828e-01
2.176000000000000156e+01,1.530167938384475734e-01
2.180000000000000071e+01,9.762283947161773390e-02
2.183999999999999986e+01,1.738508663324948855e-01
2.187999999999999901e+01,1.337769696785276186e-01
2.192000000000000171e+01,1.589472499077861645e-01
2.196000000000000085e+01,1.370300496074538521e-01
2.200000000000000000e+01,1.582310849911361950e-01
2.203999999999999915e+01,1.130553565399431970e-01
2.207999999999999829e+01,1.671636804459518677e-01
2.212000000000000099e+01,1.719151782540733753e-01
2.216000000000000014e+01,1.029145872632416525e-01
2.219999999999999929e+01,1.036967920929001835e-01
2.223999999999999844e+01,1.549725142510528508e-01
2.228000000000000114e+01,1.676706910550880558e-01
2.232000000000000028e+01,2.070344492520489188e-01
2.235999999999999943e+01,1.096722893384242392e-01
2.239999999999999858e+01,1.337200748483266255e-01
2.244000000000000128e+01,1.401815641660201783e-01
2.248000000000000043e+01,1.143061314297937059e-01
2.251999999999999957e+01,1.275775507533311037e-01
2.255999999999999872e+01,1.170220120781533396e-01
2.260000000000000142e+01,1.410746632058783034e-01
2.264000000000000057e+01,1.254150625023172927e-01
2.267999999999999972e+01,1.602489261810757792e-01
2.271999999999999886e+01,1.332445968293358707e-01
2.276000000000000156e+01,1.158858485607826699e-01
2.280000000000000071e+01,1.546938660225376239e-01
2.283999999999999986e+01,9.478712339287184707e-02
2.287999999999999901e+01,1.613962526363389161e-01
2.292000000000000171e+01,1.139726595345992993e-01
2.296000000000000085e+01,1.238504760675846611e-01
2.300000000000000000e+01,9.685265534361327255e-02
2.303999999999999915e+01,1.487148346216390360e-01
2.307999999999999829e+01,1.188821722920769125e-01
2.312000000000000099e+01,1.009643740412450863e-01
2.316000000000000014e+01,1.153853718921333954e-01
2.319999999999999929e+01,1.212972873588971240e-01
2.323999999999999844e+01,9.827617879196975936e-02
2.328000000000000114e+01,1.319891097746728192e-01
2.332000000000000028e+01,1.242877123638267550e-01
2.335999999999999943e+01,8.822060805820905460e-02
2.339999999999999858e+01,1.264748078047065460e-01
2.344000000000000128e+01,6.487951210288256387e-02
2.348000000000000043e+01,1.042700950295146201e-01
2.351999999999999957e+01,1.272089149627163851e-01
2.355999999999999872e+01,1.297246460377002308e-01
2.360000000000000142e+01,1.123846150199634963e-01
2.364000000000000057e+01,1.103633749809181663e-01
2.367999999999999972e+01,7.033175270143915414e-02
2.371999999999999886e+01,1.142660328071196524e-01
2.376000000000000156e+01,1.400465263032810992e-01
2.380000000000000071e+01,9.094007049808552900e-02
2.383999999999999986e+01,7.473966054748874821e-02
2.387999999999999901e+01,7.612733901099365263e-02
2.392000000000000171e+01,1.030457431783087657e-01
2.396000000000000085e+01,8.628041562431455758e-02
2.400000000000000000e+01,7.802585678398807345e-02
2.403999999999999915e+01,8.679203552582352710e-02
2.407999999999999829e+01,8.704902599118470585e-02
2.412000000000000099e+01,9.127811810006390691e-02
2.416000000000000014e+01,7.054539652111178893e-02
2.419999999999999929e+01,1.218645564133606085e-01
2.423999999999999844e+01,8.638275090358192576e-02
2.428000000000000114e+01,7.643162777801550123e-02
2.432000000000000028e+01,6.988525065073852849e-02
2.435999999999999943e+01,3.554037787525992503e-02
2.439999999999999858e+01,1.101239151255964804e-01
2.444000000000000128e+01,9.053115238325047665e-02
2.448000000000000043e+01,1.061136847980272691e-01
2.451999999999999957e+01,1.636794865020642642e-01
2.455999999999999872e+01,8.054778431314273124e-02
2.460000000000000142e+01,9.840182598059585284e-02
2.464000000000000057e+01,1.372478540823795778e-01
2.467999999999999972e+01,1.273040796145894216e-01
2.471999999999999886e+01,7.254181881543485255e-02
2.476000000000000156e+01,8.359072473480011478e-02
2.480000000000000071e+01,6.513908732343184904e-02
2.483999999999999986e+01,1.119312754252205638e-01
2.487999999999999901e+01,6.114312111543901418e-02
2.492000000000000171e+01,5.290551954081709751e-02
2.496000000000000085e+01,1.031037500940596985e-01
2.500000000000000000e+01,1.323113869319086644e-01
2.503999999999999915e+01,1.189698252472268930e-01
2.507999999999999829e+01,7.556035496000584883e-02
2.512000000000000099e+01,9.569268175656445163e-02
2.516000000000000014e+01,1.498655587267684330e-01
2.519999999999999929e+01,7.355282320953474007e-02
2.523999999999999844e+01,1.135437071632655059e-01
2.528000000000000114e+01,1.058793795056643811e-01
2.532000000000000028e+01,4.602118279315828286e-02
2.535999999999999943e+01,5.481073849376928708e-02
2.539999999999999858e+01,8.629418391258399101e-02
2.544000000000000128e+01,1.155089247697516364e-01
2.548000000000000043e+01,9.139511416128887067e-02
2.551999999999999957e+01,7.182056831002738007e-02
2.555999999999999872e+01,8.628652449952524395e-02
2.560000000000000142e+01,5.252989899259592060e-02
2.564000000000000057e+01,6.813171852705682263e-02
2.567999999999999972e+01,5.650221515357702062e-02
2.571999999999999886e+01,1.061451103494054499e-01
2.576000000000000156e+01,7.976615723516326806e-02
2.580000000000000071e+01,8.175436149409286146e-02
2.583999999999999986e+01,8.317580779484619324e-02
2.587999999999999901e+01,9.254046500591596447e-02
2.592000000000000171e+01,1.189256335745825788e-01
2.596000000000000085e+01,6.928892976673493853e-02
2.600000000000000000e+01,7.354928031096383267e-02
2.603999999999999915e+01,9.539745935170877711e-02
2.607999999999999829e+01,1.041975568212643866e-01
2.612000000000000099e+01,9.370892053970104885e-02
2.616000000000000014e+01,4.974825622409302650e-02
2.619999999999999929e+01,8.805120113339347243e-02
2.623999999999999844e+01,5.316889786708679788e-02
2.628000000000000114e+01,8.636690472947403108e-02
2.632000000000000028e+01,4.581232221089156370e-02
2.635999999999999943e+01,2.511485599765777080e-02
2.639999999999999858e+01,7.760366968232158824e-02
2.644000000000000128e+01,8.413912690663909177e-02
2.648000000000000043e+01,9.861772284194438021e-02
2.651999999999999957e+01,7.565292637210875581e-02
2.655999999999999872e+01,1.009118010804537224e-01
2.660000000000000142e+01,8.475595270558257399e-02
2.664000000000000057e+01,7.427389747340217008e-02
2.667999999999999972e+01,9.045689898568780307e-02
2.671999999999999886e+01,1.643464719933808091e-02
2.676000000000000156e+01,3.432057409120966435e-02
2.680000000000000071e+01,8.170820118160850021e-02
2.683999999999999986e+01,6.668980789399560349e-02
2.687999999999999901e+01,7.663445254804933382e-02
2.692000000000000171e+01,6.161695139735670623e-02
2.696000000000000085e+01,8.234177855867758078e-02
2.700000000000000000e+01,3.725657661611930099e-02
2.703999999999999915e+01,5.911693019219985828e-02
2.707999999999999829e+01,5.714978186795038190e-02
2.712000000000000099e+01,4.950973735121876051e-02
2.716000000000000014e+01,8.782396549819684872e-02
2.719999999999999929e+01,5.465482468699730395e-02
2.723999999999999844e+01,3.566937850094188678e-02
2.728000000000000114e+01,4.164692212366681578e-02
2.732000000000000028e+01,5.329817706317619558e-02
2.735999999999999943e+01,1.063650279696676526e-01
2.739999999999999858e+01,7.660185427582912043e-02
2.744000000000000128e+01,8.144628797696930322e-02
2.748000000000000043e+01,1.594198218448291543e-02
2.751999999999999957e+01,3.950910572380569863e-02
2.755999999999999872e+01,7.158656959410940324e-02
2.760000000000000142e+01,5.146989005205577367e-02
2.764000000000000057e+01,3.872887805683453144e-02
2.767999999999999972e+01,6.229743931321734401e-02
2.771999999999999886e+01,6.884640060207813939e-02
2.776000000000000156e+01,7.993435710397765737e-02
2.780000000000000071e+01,6.038674612092629485e-02
2.783999999999999986e+01,7.544669439996762317e-02
2.787999999999999901e+01,6.214039188262314439e-02
2.792000000000000171e+01,4.145910217066718639e-02
2.796000000000000085e+01,5.425069412336706171e-02
2.800000000000000000e+01,1.033518208213618783e-01
2.803999999999999915e+01,1.121727143153204292e-01
2.807999999999999829e+01,6.936673821624468605e-02
2.812000000000000099e+01,4.301367716510486744e-02
2.816000000000000014e+01,2.800754213954388672e-02
2.819999999999999929e+01,7.484083883818158645e-02
2.823999999999999844e+01,8.139387826634025824e-02
2.828000000000000114e+01,5.901328718644119342e-02
2.832000000000000028e+01,7.407685550309907330e-02
2.835999999999999943e+01,4.886015210941170583e-02
2.839999999999999858e+01,1.087434511036855234e-01
2.844000000000000128e+01,5.799735299163535224e-02
2.848000000000000043e+01,6.171534238655242144e-02
2.851999999999999957e+01,2.401837766039893046e-02
2.855999999999999872e+01,3.170818555406740985e-02
2.860000000000000142e+01,6.946680862706064441e-02
2.864000000000000057e+01,0.000000000000000000e+00
2.867999999999999972e+01,1.336383375273813429e-02
2.871999999999999886e+01,6.757576824185994313e-02
2.876000000000000156e+01,8.718069867560536423e-02
2.880000000000000071e+01,2.849408867420245850e-02
2.883999999999999986e+01,4.583012285401804470e-02
2.887999999999999901e+01,7.567870123527864999e-03
2.892000000000000171e+01,4.362625721132246115e-02
2.896000000000000085e+01,6.833821090750340221e-02
2.900000000000000000e+01,3.121121588687179524e-02
2.903999999999999915e+01,6.443352519316106197e-02
2.907999999999999829e+01,8.517472351039931389e-02
2.912000000000000099e+01,7.301086918901979195e-02
2.916000000000000014e+01,6.311651530043531355e-02
2.919999999999999929e+01,6.627095702828124379e-02
2.923999999999999844e+01,5.524227377756540935e-02
2.928000000000000114e+01,1.032162343983281383e-01
2.932000000000000028e+01,4.226268675677365139e-02
2.935999999999999943e+01,2.612848389048315692e-02
2.939999999999999858e+01,6.105426835280852033e-02
2.944000000000000128e+01,4.718967746421365295e-02
2.948000000000000043e+01,4.864317481417063105e-02
2.951999999999999957e+01,6.598208716817693942e-02
2.955999999999999872e+01,7.140716235245414545e-02
2.960000000000000142e+01,6.718772186885589581e-02
2.964000000000000057e+01,6.750705037373090633e-02
2.967999999999999972e+01,8.824006229814867347e-03
2.971999999999999886e+01,6.814603720489428862e-02
2.976000000000000156e+01,6.506169643189239904e-02
2.980000000000000071e+01,6.935276328813688718e-02
2.983999999999999986e+01,7.250925927855639275e-02
2.987999999999999901e+01,5.864589538386848905e-02
2.992000000000000171e+01,7.428385625119536539e-02
2.996000000000000085e+01,8.538324234011866742e-02
3.000000000000000000e+01,5.450016463750653045e-02
3.003999999999999915e+01,5.708971830854198820e-02
3.007999999999999829e+01,2.110078803417810012e-02
3.012000000000000099e+01,7.475030580664845936e-02
3.016000000000000014e+01,6.145475106786726233e-02
3.019999999999999929e+01,3.794727688309577907e-02
3.023999999999999844e+01,6.720168368423536098e-02
3.028000000000000114e+01,9.305214035823310137e-02
3.032000000000000028e+01,4.401486316482799976e-02
3.035999999999999943e+01,6.929805251131716803e-02
3.039999999999999858e+01,4.635808256674420202e-02
3.044000000000000128e+01,8.468994322342182635e-02
3.048000000000000043e+01,4.699938760197103910e-02
3.051999999999999957e+01,6.660933190369489054e-02
3.055999999999999872e+01,2.721679766427801545e-02
3.060000000000000142e+01,8.200130634251596995e-02
3.064000000000000057e+01,6.757135843489681104e-02
3.067999999999999972e+01,5.427606489753394187e-02
3.071999999999999886e+01,6.934733669884193819e-02
3.076000000000000156e+01,7.761061114083196710e-02
3.080000000000000071e+01,4.729531499822737378e-02
3.083999999999999986e+01,1.032143907905487962e-01
3.087999999999999901e+01,8.197633901428455494e-02
3.092000000000000171e+01,1.617232705947922733e-01
3.096000000000000085e+01,1.007719281561609143e-01
3.100000000000000000e+01,1.027943436690960388e-01
3.103999999999999915e+01,1.615498649536683540e-01
3.107999999999999829e+01,1.011656977730847062e-01
3.112000000000000099e+01,1.162365688374826372e-01
3.116000000000000014e+01,1.687512575549447169e-01
3.119999999999999929e+01,1.424067854611557049e-01
3.123999999999999844e+01,1.291108635060772836e-01
3.128000000000000114e+01,1.702786921277623933e-01
3.132000000000000028e+01,2.103117717919436580e-01
3.135999999999999943e+01,2.191415240097006611e-01
3.139999999999999858e+01,2.342118281675880098e-01
3.144000000000000128e+01,2.509840268220330795e-01
3.148000000000000043e+01,2.859107309445264034e-01
3.151999999999999957e+01,3.520405620338464825e-01
3.155999999999999872e+01,3.625717837225226337e-01
3.160000000000000142e+01,4.247300595877258056e-01
3.164000000000000057e+01,4.795129006224753132e-01
3.167999999999999972e+01,5.893267756798880042e-01
3.171999999999999886e+01,6.140407799866564043e-01
3.176000000000000156e+01,6.739292034320178981e-01
3.180000000000000071e+01,7.406254622634090845e-01
3.183999999999999986e+01,7.182505148527918992e-01
3.187999999999999901e+01,6.538928774260739374e-01
3.192000000000000171e+01,6.417295872483596009e-01
3.196000000000000085e+01,5.353890921797015423e-01
3.200000000000000000e+01,4.636556557911192256e-01
3.203999999999999915e+01,4.509245311571005166e-01
3.207999999999999829e+01,3.933740345466106292e-01
3.211999999999999744e+01,3.380926821855572695e-01
3.215999999999999659e+01,2.879171271545791222e-01
3.220000000000000284e+01,3.131964804097897570e-01
3.224000000000000199e+01,2.760691634930240168e-01
3.228000000000000114e+01,2.514229399906795503e-01
3.232000000000000028e+01,2.148625472016906235e-01
3.235999999999999943e+01,1.992932118823279308e-01
3.239999999999999858e+01,1.587610713376777782e-01
3.243999999999999773e+01,1.460279575815023878e-01
3.247999999999999687e+01,1.684691763247247731e-01
3.252000000000000313e+01,2.119014332844187942e-01
3.256000000000000227e+01,1.515117763144865626e-01
3.260000000000000142e+01,7.239993741946353090e-02
3.264000000000000057e+01,1.163988064824362928e-01
3.267999999999999972e+01,1.308961839968167118e-01
3.271999999999999886e+01,1.340466756704525308e-01
3.275999999999999801e+01,9.237771354171030180e-02
3.279999999999999716e+01,1.335388980240388712e-01
3.284000000000000341e+01,1.111586769774907113e-01
3.288000000000000256e+01,1.625312876548679619e-01
3.292000000000000171e+01,1.163225884496618123e-01
3.296000000000000085e+01,9.677819030260718935e-02
3.300000000000000000e+01,1.294280094457634089e-01
3.303999999999999915e+01,7.584313584217985960e-02
3.307999999999999829e+01,1.130310172596435264e-01
3.311999999999999744e+01,1.258233383914096615e-01
3.315999999999999659e+01,1.170567523181172687e-01
3.320000000000000284e+01,1.105591805354684404e-01
3.324000000000000199e+01,7.569471297575769420e-02
3.328000000000000114e+01,8.735111322538212375e-02
3.332000000000000028e+01,6.553462386229806647e-02
3.335999999999999943e+01,1.106629295182498668e-01
3.339999999999999858e+01,7.352782015936287774e-02
3.343999999999999773e+01,7.724024356880165865e-02
3.347999999999999687e+01,1.081842370424256627e-01
3.352000000000000313e+01,1.135979589398948969e-01
3.356000000000000227e+01,1.224153149659812645e-01
3.360000000000000142e+01,1.215876739953293956e-01
3.364000000000000057e+01,1.190576733176477303e-01
3.367999999999999972e+01,1.125559818045057808e-01
3.371999999999999886e+01,1.349878262121737837e-01
3.375999999999999801e+01,1.421013385820942831e-01
3.379999999999999716e+01,1.588591035675403773e-01
3.384000000000000341e+01,1.342012742645287415e-01
3.388000000000000256e+01,1.764881774078010945e-01
3.392000000000000171e+01,2.096973766268118156e-01
3.396000000000000085e+01,1.822016934387918619e-01
3.400000000000000000e+01,1.995247966845552778e-01
3.403999999999999915e+01,2.315981078751823685e-01
3.407999999999999829e+01,2.710463116731729460e-01
3.411999999999999744e+01,2.900701559047484945e-01
3.415999999999999659e+01,3.153342199595394746e-01
3.420000000000000284e+01,3.746377463847461176e-01
3.424000000000000199e+01,3.204745198828508057e-01
3.428000000000000114e+01,3.689978671578390546e-01
3.432000000000000028e+01,4.146841097423202838e-01
3.435999999999999943e+01,3.877514586323889678e-01
3.439999999999999858e+01,4.306001352899169188e-01
3.443999999999999773e+01,3.770019823174644569e-01
3.447999999999999687e+01,3.858098369616827505e-01
3.452000000000000313e+01,4.065311838973730829e-01
3.456000000000000227e+01,3.557682762297791346e-01
3.460000000000000142e+01,3.747866722632012815e-01
3.464000000000000057e+01,3.484180566908948173e-01
3.467999999999999972e+01,3.430402194174740349e-01
3.471999999999999886e+01,3.149686240631672796e-01
3.475999999999999801e+01,2.642032658146858948e-01
3.479999999999999716e+01,2.713052240462819342e-01
3.484000000000000341e+01,2.250775045027091359e-01
3.488000000000000256e+01,2.032445286642922400e-01
3.492000000000000171e+01,2.262302285540204461e-01
3.496000000000000085e+01,2.185794993801337960e-01
3.500000000000000000e+01,2.205728784231140993e-01
3.503999999999999915e+01,1.414373082639932000e-01
3.507999999999999829e+01,1.649882156159836188e-01
3.511999999999999744e+01,2.186071535812531830e-01
3.515999999999999659e+01,1.468452647592865534e-01
3.520000000000000284e+01,1.772025074297799430e-01
3.524000000000000199e+01,2.189058241737651123e-01
3.528000000000000114e+01,2.191933733509020543e-01
3.532000000000000028e+01,1.939504343538960007e-01
3.535999999999999943e+01,1.840248760420143126e-01
3.539999999999999858e+01,2.268605778018114305e-01
3.543999999999999773e+01,2.197705190598229497e-01
3.547999999999999687e+01,2.433157791903016176e-01
3.552000000000000313e+01,2.731010954921820888e-01
3.556000000000000227e+01,2.166514158101397469e-01
3.560000000000000142e+01,2.725327879058098701e-01
3.564000000000000057e+01,3.057202912149558083e-01
3.567999999999999972e+01,2.929533261940832634e-01
3.571999999999999886e+01,3.244376090567975268e-01
3.575999999999999801e+01,4.030097928837381160e-01
3.579999999999999716e+01,4.038569255288063653e-01
3.584000000000000341e+01,4.069727547874690821e-01
3.588000000000000256e+01,4.679557705674161627e-01
3.592000000000000171e+01,5.113508680768880099e-01
3.596000000000000085e+01,5.842465635417922742e-01
3.600000000000000000e+01,5.953024679643752481e-01
3.603999999999999915e+01,6.721681817580850149e-01
3.607999999999999829e+01,7.586778738098689523e-01
3.611999999999999744e+01,7.617891603856165039e-01
3.615999999999999659e+01,8.437588682046921473e-01
3.620000000000000284e+01,8.752353924907129157e-01
3.624000000000000199e+01,9.061439073635142449e-01
3.628000000000000114e+01,9.160604711735296224e-01
3.632000000000000028e+01,9.157643791043952319e-01
3.635999999999999943e+01,1.000000000000000000e+00
3.639999999999999858e+01,8.680815922907418880e-01
3.643999999999999773e+01,8.031076089772952731e-01
3.647999999999999687e+01,7.761441347283113412e-01
3.652000000000000313e+01,6.992547700187495829e-01
3.656000000000000227e+01,6.524332626440763061e-01
3.660000000000000142e+01,5.681671499155284133e-01
3.664000000000000057e+01,5.031895848983676256e-01
3.667999999999999972e+01,4.421826101520965335e-01
3.671999999999999886e+01,4.288307524299099782e-01
3.675999999999999801e+01,4.222861332459631467e-01
3.679999999999999716e+01,4.095001214749013352e-01
3.684000000000000341e+01,3.019689860128981773e-01
3.688000000000000256e+01,3.010954325155166811e-01
3.692000000000000171e+01,2.962497983062961082e-01
3.696000000000000085e+01,3.038846943567276027e-01
3.700000000000000000e+01,2.944988737566761050e-01
3.703999999999999915e+01,2.573130316959291175e-01
3.707999999999999829e+01,3.080628054334392241e-01
3.711999999999999744e+01,2.181135639053621567e-01
3.715999999999999659e+01,2.166672601277506438e-01
3.720000000000000284e+01,2.430194103572674014e-01
3.724000000000000199e+01,2.245515676960805618e-01
3.728000000000000114e+01,1.720430273278255873e-01
3.732000000000000028e+01,1.791034949388212172e-01
3.735999999999999943e+01,1.719798604736639536e-01
3.739999999999999858e+01,1.898179980552646695e-01
3.743999999999999773e+01,1.895007028826367623e-01
3.747999999999999687e+01,1.801052754030596503e-01
3.752000000000000313e+01,1.627663739608157523e-01
3.756000000000000227e+01,1.391859884789728163e-01
3.760000000000000142e+01,1.575872983410096795e-01
3.764000000000000057e+01,1.759877619035106200e-01
3.767999999999999972e+01,2.170806375046071546e-01
3.771999999999999886e+01,1.583222993133432122e-01
3.775999999999999801e+01,1.948748056186410393e-01
3.779999999999999716e+01,2.115698411137564017e-01
3.784000000000000341e+01,2.594672430760951998e-01
3.788000000000000256e+01,2.262353540928402351e-01
3.792000000000000171e+01,2.605150429925034983e-01
3.796000000000000085e+01,3.191891049740983588e-01
3.800000000000000000e+01,3.506303615548558850e-01
3.803999999999999915e+01,3.752627447577655539e-01
3.807999999999999829e+01,4.197508339724568271e-01
3.811999999999999744e+01,5.073552191158469116e-01
3.815999999999999659e+01,5.047529743600548402e-01
3.820000000000000284e+01,4.970438317096167458e-01
3.824000000000000199e+01,4.558612074119692825e-01
3.828000000000000114e+01,4.328322703233037361e-01
3.832000000000000028e+01,4.330629998394012192e-01
3.835999999999999943e+01,4.134361911592755456e-01
3.839999999999999858e+01,3.841638078877767093e-01
3.843999999999999773e+01,3.855263873053864088e-01
3.847999999999999687e+01,3.573867772475533555e-01
3.852000000000000313e+01,3.201689097372667492e-01
3.856000000000000227e+01,3.073453431095825583e-01
3.860000000000000142e+01,2.735295462483721129e-01
3.864000000000000057e+01,2.641080406431867700e-01
3.867999999999999972e+01,2.563875583293178106e-01
3.871999999999999886e+01,2.078182260845644336e-01
3.875999999999999801e+01,2.052017706498191207e-01
3.879999999999999716e+01,2.196042766937328639e-01
3.884000000000000341e+01,1.903212604729687119e-01
3.888000000000000256e+01,2.064237750435612695e-01
3.892000000000000171e+01,2.242272840257385214e-01
3.896000000000000085e+01,1.660073563125987750e-01
3.900000000000000000e+01,1.497689554782367927e-01
3.903999999999999915e+01,1.772140714457206556e-01
3.907999999999999829e+01,1.439536889052298319e-01
3.911999999999999744e+01,1.549441451187930363e-01
3.915999999999999659e+01,1.721742194944931859e-01
3.920000000000000284e+01,1.474207230222743248e-01
3.924000000000000199e+01,1.572734140248899515e-01
3.928000000000000114e+01,1.455664613892874437e-01
3.932000000000000028e+01,1.446377602929513617e-01
3.935999999999999943e+01,1.652666059195176396e-01
3.939999999999999858e+01,1.705764408346399919e-01
3.943999999999999773e+01,1.565959391735317896e-01
3.947999999999999687e+01,1.624709750591032953e-01
3.952000000000000313e+01,2.018175015689181451e-01
3.956000000000000227e+01,1.640058560265155729e-01
3.960000000000000142e+01,1.608003546393498295e-01
3.964000000000000057e+01,1.581610978670028034e-01
3.967999999999999972e+01,1.799160072051761983e-01
3.971999999999999886e+01,1.744379041711016376e-01
3.975999999999999801e+01,1.638527155241248090e-01
3.979999999999999716e+01,1.555357469751683097e-01
3.984000000000000341e+01,1.886328726471430128e-01
3.988000000000000256e+01,1.706690403847242743e-01
3.992000000000000171e+01,1.527040874653180225e-01
3.996000000000000085e+01,1.778552090633336857e-01
4.000000000000000000e+01,2.098131793232105302e-01
4.003999999999999915e+01,1.742575566107599505e-01
4.007999999999999829e+01,2.011072676545722915e-01
4.011999999999999744e+01,1.655493603085493592e-01
4.015999999999999659e+01,1.731075034135050872e-01
4.020000000000000284e+01,1.891744658502354237e-01
4.024000000000000199e+01,2.347415112205154253e-01
4.028000000000000114e+01,2.014483031630262266e-01
4.032000000000000028e+01,1.919818526246540313e-01
4.035999999999999943e+01,2.023708337406122659e-01
4.039999999999999858e+01,1.877960469735577287e-01
4.043999999999999773e+01,1.760567348706909563e-01
4.047999999999999687e+01,2.448773189123367999e-01
4.052000000000000313e+01,2.047690469708503269e-01
4.056000000000000227e+01,2.299027089200907925e-01
4.060000000000000142e+01,2.181586157653796765e-01
4.064000000000000057e+01,2.308085732022624459e-01
4.067999999999999972e+01,2.247353764297525536e-01
4.071999999999999886e+01,2.283055995738363098e-01
4.075999999999999801e+01,2.443558957151523714e-01
4.079999999999999716e+01,2.445196811011372817e-01
4.084000000000000341e+01,2.225563035518620114e-01
4.088000000000000256e+01,2.459782161295124003e-01
4.092000000000000171e+01,2.529462719331802001e-01
4.096000000000000085e+01,2.389218135192928694e-01
4.100000000000000000e+01,2.492913623774016818e-01
4.103999999999999915e+01,2.460436979155897486e-01
4.107999999999999829e+01,2.779693310961212083e-01
4.111999999999999744e+01,2.605358518666681666e-01
4.115999999999999659e+01,2.487744185561352184e-01
4.120000000000000284e+01,2.194244316210283985e-01
4.124000000000000199e+01,2.241130599175395754e-01
4.128000000000000114e+01,2.690809459990206043e-01
4.132000000000000028e+01,2.215724956163759307e-01
4.135999999999999943e+01,2.563258302222506391e-01
4.139999999999999858e+01,2.337773766221236393e-01
4.143999999999999773e+01,2.095256247236849390e-01
4.147999999999999687e+01,2.334957486467697796e-01
4.152000000000000313e+01,2.217226699178359295e-01
4.156000000000000227e+01,2.354781942324281618e-01
4.160000000000000142e+01,2.038458694290712914e-01
4.164000000000000057e+01,1.960401433063068966e-01
4.167999999999999972e+01,1.564625163298676847e-01
4.171999999999999886e+01,2.053872783889908182e-01
4.175999999999999801e+01,1.930388878710157796e-01
4.179999999999999716e+01,1.466492557443582201e-01
4.184000000000000341e+01,1.660687350619770297e-01
4.188000000000000256e+01,1.446389841989099423e-01
4.192000000000000171e+01,1.322851772749920884e-01
4.196000000000000085e+01,1.573738884162099727e-01
4.200000000000000000e+01,1.444500128308036091e-01
4.203999999999999915e+01,1.394674035871095452e-01
4.207999999999999829e+01,1.271081032446308989e-01
4.211999999999999744e+01,1.391426754020670398e-01
4.215999999999999659e+01,9.784668895251584508e-02
4.220000000000000284e+01,1.121478022095043908e-01
4.224000000000000199e+01,1.247455209024089101e-01
4.228000000000000114e+01,1.146485718028772000e-01
4.232000000000000028e+01,1.017135553551130611e-01
4.235999999999999943e+01,1.040950772669638896e-01
4.239999999999999858e+01,8.888790115558203864e-02
4.243999999999999773e+01,1.077191958771594044e-01
4.247999999999999687e+01,7.605655137936800925e-02
4.252000000000000313e+01,7.559571019403087122e-02
4.256000000000000227e+01,9.215337803822222507e-02
4.260000000000000142e+01,9.736297115937821156e-02
4.264000000000000057e+01,9.406114263813780685e-02
4.267999999999999972e+01,9.472918239449353017e-02
4.271999999999999886e+01,7.497182772738003598e-02
4.275999999999999801e+01,9.322422643841504764e-02
4.279999999999999716e+01,7.743526320855186051e-02
4.284000000000000341e+01,7.128946479098523248e-02
4.288000000000000256e+01,8.046014216028131438e-02
4.292000000000000171e+01,7.034006419723617953e-02
4.296000000000000085e+01,1.152496629094615088e-01
4.300000000000000000e+01,6.711539142065363339e-02
4.303999999999999915e+01,8.649208171381980725e-02
4.307999999999999829e+01,8.714532900027562035e-02
4.311999999999999744e+01,1.036823547726482692e-01
4.315999999999999659e+01,9.865927001780586125e-02
4.320000000000000284e+01,9.533666465266509016e-02
4.324000000000000199e+01,9.087787597001031892e-02
4.328000000000000114e+01,7.507093073841361597e-02
4.332000000000000028e+01,4.224250835673143412e-02
4.335999999999999943e+01,4.231778294479893870e-02
4.339999999999999858e+01,8.267206021353909473e-02
4.343999999999999773e+01,9.125422484390481592e-02
4.347999999999999687e+01,8.962287201645674495e-02
4.352000000000000313e+01,6.472937060583948410e-02
4.356000000000000227e+01,3.359366316232945127e-02
4.360000000000000142e+01,6.486286590568331178e-02
4.364000000000000057e+01,6.265793720786319576e-02
4.367999999999999972e+01,9.278933539469845504e-02
4.371999999999999886e+01,5.881068725936564046e-02
4.375999999999999801e+01,8.042895111231619654e-02
4.379999999999999716e+01,9.013166426478713689e-02
4.384000000000000341e+01,8.394750085199172152e-02
4.388000000000000256e+01,8.230039289691881699e-02
4.392000000000000171e+01,4.831378296522263055e-02
4.396000000000000085e+01,6.141408727358439040e-02
4.400000000000000000e+01,9.607137996336775898e-02
4.403999999999999915e+01,9.895648781544755246e-02
4.407999999999999829e+01,6.609808496503651043e-02
4.411999999999999744e+01,8.543256131059841219e-02
4.415999999999999659e+01,1.217853541541432522e-01
4.420000000000000284e+01,1.087786639644798131e-01
4.424000000000000199e+01,8.896235433723134745e-02
4.428000000000000114e+01,1.321182046497255680e-01
4.432000000000000028e+01,9.868264170744157904e-02
4.435999999999999943e+01,1.236805764480391062e-01
4.439999999999999858e+01,1.123676304010511467e-01
4.443999999999999773e+01,1.072936671621016747e-01
4.447999999999999687e+01,6.761080824534634881e-02
4.452000000000000313e+01,1.192666593278767923e-01
4.456000000000000227e+01,1.000043840637520748e-01
4.460000000000000142e+01,8.925039866965341073e-02
4.464000000000000057e+01,8.473537201714986811e-02
4.467999999999999972e+01,9.269994665959366276e-02
4.471999999999999886e+01,7.286357568992550549e-02
4.475999999999999801e+01,8.763272796126178599e-02
4.479999999999999716e+01,7.857224604540739843e-02
4.484000000000000341e+01,9.163598301069932062e-02
4.488000000000000256e+01,7.065810774408419481e-02
4.492000000000000171e+01,5.251516805333127785e-02
4.496000000000000085e+01,8.826700121584650505e-02
4.500000000000000000e+01,8.827521297023238622e-02
4.503999999999999915e+01,5.707845113348445493e-02
4.507999999999999829e+01,4.970787403450757647e-02
4.511999999999999744e+01,6.843280317515477995e-02
4.515999999999999659e+01,4.971209691816202980e-02
4.520000000000000284e+01,7.070284516506805672e-02
4.524000000000000199e+01,7.864320627553321452e-02
4.528000000000000114e+01,6.842719122719927161e-02
4.532000000000000028e+01,7.352735835512200224e-02
4.535999999999999943e+01,6.557712390673775538e-02
4.539999999999999858e+01,8.542435674131387824e-02
4.543999999999999773e+01,8.654786258515090314e-02
4.547999999999999687e+01,5.476434715532290526e-02
4.552000000000000313e+01,3.716232667773732012e-02
4.556000000000000227e+01,7.742632790558896805e-02
4.560000000000000142e+01,7.684065131691281136e-02
4.564000000000000057e+01,5.980054998619618173e-02
4.567999999999999972e+01,5.183594014549809670e-02
4.571999999999999886e+01,5.918746434817061253e-02
4.575999999999999801e+01,7.107581778400029471e-02
4.579999999999999716e+01,4.495112723078628636e-02
4.584000000000000341e+01,6.648045627185031337e-02
4.588000000000000256e+01,7.666131590021181552e-02
4.592000000000000171e+01,7.095504867229823764e-02
4.596000000000000085e+01,4.425566556575136895e-02
4.600000000000000000e+01,6.123896174882949295e-02
4.603999999999999915e+01,7.935506399933162092e-02
4.607999999999999829e+01,4.470746751934676771e-02
4.611999999999999744e+01,6.735849377997275844e-02
4.615999999999999659e+01,6.561239062280953271e-02
4.620000000000000284e+01,8.655767427376470646e-02
4.624000000000000199e+01,2.296867152909041684e-02
4.628000000000000114e+01,6.490145646864005358e-02
4.632000000000000028e+01,5.917649800704034152e-02
4.635999999999999943e+01,5.742096500048315261e-02
4.639999999999999858e+01,6.417350526596377058e-02
4.643999999999999773e+01,7.716478767505162428e-02
4.647999999999999687e+01,9.128882320538851680e-02
4.652000000000000313e+01,7.817902810441096362e-02
4.656000000000000227e+01,8.549125017681212524e-02
4.660000000000000142e+01,9.053222145788361597e-02
4.664000000000000057e+01,7.401266345562965143e-02
4.667999999999999972e+01,5.749117135061065920e-02
4.671999999999999886e+01,7.614229821423892930e-02
4.675999999999999801e+01,6.812689714560633825e-02
4.679999999999999716e+01,8.450480542211943891e-02
4.684000000000000341e+01,5.095558140958907772e-02
4.688000000000000256e+01,6.732957816097445702e-02
4.692000000000000171e+01,7.008565403901099999e-02
4.696000000000000085e+01,1.040429989544645467e-01
4.700000000000000000e+01,1.317577238942035933e-01
4.703999999999999915e+01,9.876599248153164479e-02
4.707999999999999829e+01,9.584085250883983553e-02
4.711999999999999744e+01,8.440375180542555866e-02
4.715999999999999659e+01,1.302651486971181383e-01
4.720000000000000284e+01,1.193913910347435964e-01
4.724000000000000199e+01,1.209969266168444413e-01
4.728000000000000114e+01,1.203311295817086762e-01
4.732000000000000028e+01,1.094513530130510615e-01
4.735999999999999943e+01,1.121855184065735922e-01
4.739999999999999858e+01,1.438515735761962955e-01
4.743999999999999773e+01,1.199171084695912631e-01
4.747999999999999687e+01,1.464731235063580772e-01
4.752000000000000313e+01,1.509011717886641624e-01
4.756000000000000227e+01,1.144793064032996743e-01
4.760000000000000142e+01,1.461351856637915503e-01
4.764000000000000057e+01,1.522590942572439321e-01
4.767999999999999972e+01,1.566789536793590787e-01
4.771999999999999886e+01,1.355668328078576401e-01
4.775999999999999801e+01,1.348765847110760807e-01
4.779999999999999716e+01,1.268089572152366062e-01
4.784000000000000341e+01,1.312205507645428093e-01
4.788000000000000256e+01,1.231487710791443618e-01
4.792000000000000171e+01,1.224502186032449952e-01
4.796000000000000085e+01,1.189129201054169860e-01
4.800000000000000000e+01,9.778624972394889259e-02
4.803999999999999915e+01,8.970610789996903700e-02
4.807999999999999829e+01,1.014804687656145621e-01
4.811999999999999744e+01,1.036080854107511301e-01
4.815999999999999659e+01,9.438695828573363811e-02
4.820000000000000284e+01,8.062506152269928450e-02
4.824000000000000199e+01,9.125630082641993102e-02
4.828000000000000114e+01,1.018854134958305652e-01
4.832000000000000028e+01,8.868446840865153169e-02
4.835999999999999943e+01,1.237045712573525136e-01
4.839999999999999858e+01,9.801805410182939937e-02
4.843999999999999773e+01,7.630071211034014644e-02
4.847999999999999687e+01,1.107470457178619666e-01
4.852000000000000313e+01,1.032086869812152974e-01
4.856000000000000227e+01,1.263040731716549847e-01
4.860000000000000142e+01,6.599955214000738368e-02
4.864000000000000057e+01,5.958936113907450927e-02
4.867999999999999972e+01,9.742885851621410631e-02
4.871999999999999886e+01,1.017936131645244269e-01
4.875999999999999801e+01,7.325095184950233818e-02
4.879999999999999716e+01,7.420734342426389685e-02
4.884000000000000341e+01,6.381490940296477565e-02
4.888000000000000256e+01,6.760356601766358275e-02
4.892000000000000171e+01,9.465061371563983361e-02
4.896000000000000085e+01,9.900218980197950103e-02
4.900000000000000000e+01,1.073228736663123378e-01
4.903999999999999915e+01,7.876478682279385024e-02
4.907999999999999829e+01,6.552242970640120845e-02
4.911999999999999744e+01,8.064442381591237219e-02
4.915999999999999659e+01,6.909960119584521165e-02
4.920000000000000284e+01,6.549518333882670129e-02
4.924000000000000199e+01,1.135156969980515157e-01
4.928000000000000114e+01,9.345417423649074462e-02
4.932000000000000028e+01,3.481185233770187071e-02
4.935999999999999943e+01,8.906625802412421189e-02
4.939999999999999858e+01,8.204659179532114432e-02
4.943999999999999773e+01,4.155209619849362795e-02
4.947999999999999687e+01,7.026978218052787328e-02
4.952000000000000313e+01,9.274454494966435925e-02
4.956000000000000227e+01,4.600257444742399116e-02
4.960000000000000142e+01,6.960743424175065697e-02
4.964000000000000057e+01,6.143943533796628054e-02
4.967999999999999972e+01,4.532649923177284323e-02
4.971999999999999886e+01,6.438582109757987060e-02
4.975999999999999801e+01,6.699022245261808395e-02
4.979999999999999716e+01,9.285290899858406055e-02
4.984000000000000341e+01,8.977937067392316450e-02
4.988000000000000256e+01,8.103019739555220036e-02
4.992000000000000171e+01,8.929864750160254605e-02
4.996000000000000085e+01,6.465953724566173011e-02
5.000000000000000000e+01,1.029918986291900873e-01
5.003999999999999915e+01,6.700148477280885861e-02
5.007999999999999829e+01,3.384538557805678166e-02
5.011999999999999744e+01,8.011335936768766708e-02
5.015999999999999659e+01,6.907849084110788407e-02
5.020000000000000284e+01,4.555996990908293964e-02
5.024000000000000199e+01,7.196426542472936227e-02
5.028000000000000114e+01,7.056694628114493217e-02
5.032000000000000028e+01,6.746526028917403106e-02
5.035999999999999943e+01,7.967914999909321561e-02
5.039999999999999858e+01,8.167868955226596783e-02
5.043999999999999773e+01,7.573320045054610095e-02
5.047999999999999687e+01,5.446736735643341321e-02
5.052000000000000313e+01,7.461434333518894568e-02
5.056000000000000227e+01,7.093099201319190417e-02
5.060000000000000142e+01,6.100458751950404990e-02
5.064000000000000057e+01,7.036504608618424084e-02
5.067999999999999972e+01,7.631909974852382761e-02
5.071999999999999886e+01,9.588669105679911708e-02
5.075999999999999801e+01,7.517131521309944331e-02
5.079999999999999716e+01,8.111809370082455339e-02
5.084000000000000341e+01,4.394523751606984469e-02
5.088000000000000256e+01,9.243701022985456595e-02
5.092000000000000171e+01,7.057722286287831936e-02
5.096000000000000085e+01,6.800426004996107388e-02
5.100000000000000000e+01,7.393881698088963783e-02
5.103999999999999915e+01,1.014295151544419848e-01
5.107999999999999829e+01,5.573197610015132031e-02
5.111999999999999744e+01,7.073644759810643334e-02
5.115999999999999659e+01,8.063246169590114476e-02
5.120000000000000284e+01,6.613073990153962856e-02
5.124000000000000199e+01,8.282977212271216971e-02
5.128000000000000114e+01,6.605375356458347003e-02
5.132000000000000028e+01,8.615179518326653019e-02
5.135999999999999943e+01,7.561143428999855809e-02
5.139999999999999858e+01,5.882792395926725315e-02
5.143999999999999773e+01,6.076384884434589406e-02
5.147999999999999687e+01,8.198653571073154234e-02
5.152000000000000313e+01,6.973414291808398280e-02
5.156000000000000227e+01,8.471114458316313101e-02
5.160000000000000142e+01,6.564572538384641498e-02
5.164000000000000057e+01,6.813637522782396705e-02
5.167999999999999972e+01,6.892249457160198878e-02
5.171999999999999886e+01,8.842801543816962428e-02
5.175999999999999801e+01,9.601702775982122462e-02
5.179999999999999716e+01,8.998753198691192279e-02
5.184000000000000341e+01,6.580087067586902483e-02
5.188000000000000256e+01,8.245952320709556971e-02
5.192000000000000171e+01,7.982633741604022726e-02
5.196000000000000085e+01,9.364319795290085291e-02
5.200000000000000000e+01,8.873554211968781580e-02
5.203999999999999915e+01,8.666196509696137695e-02
5.207999999999999829e+01,1.248663462712759353e-01
5.211999999999999744e+01,7.740107033896226341e-02
5.215999999999999659e+01,6.397309561047169468e-02
5.220000000000000284e+01,5.281184886052785188e-02
5.224000000000000199e+01,8.533253052718343945e-02
5.228000000000000114e+01,7.076208319147014869e-02
5.232000000000000028e+01,7.434363360043150237e-02
5.235999999999999943e+01,9.721184009835005801e-02
5.239999999999999858e+01,7.866221894188880903e-02
5.243999999999999773e+01,4.819600741460498133e-02
5.247999999999999687e+01,8.750894804832173857e-02
5.252000000000000313e+01,9.448135184836083111e-02
5.256000000000000227e+01,9.804712451949390561e-02
5.260000000000000142e+01,7.891698756972556628e-02
5.264000000000000057e+01,6.999616775532596646e-02
5.267999999999999972e+01,9.908390762349596204e-02
5.271999999999999886e+01,7.086849712498313747e-02
5.275999999999999801e+01,8.293096299760457923e-02
5.279999999999999716e+01,8.364412675859161928e-02
5.284000000000000341e+01,8.605660990672160671e-02
5.288000000000000256e+01,8.279309710449465898e-02
5.292000000000000171e+01,9.597951511125671353e-02
5.296000000000000085e+01,7.285402228666756907e-02
5.300000000000000000e+01,9.454502958376502508e-02
5.303999999999999915e+01,6.517349537451122554e-02
5.307999999999999829e+01,1.101196937572126028e-01
5.311999999999999744e+01,8.528139890706387671e-02
5.315999999999999659e+01,7.348901651345944586e-02
5.320000000000000284e+01,9.630114175695943246e-02
5.324000000000000199e+01,9.131129615787035581e-02
5.328000000000000114e+01,1.016366748906016720e-01
5.332000000000000028e+01,7.338077315724221561e-02
5.335999999999999943e+01,1.012879598016816485e-01
5.339999999999999858e+01,6.735326162324771493e-02
5.343999999999999773e+01,1.054669264020293568e-01
5.347999999999999687e+01,7.776737567986180544e-02
5.352000000000000313e+01,9.828825197934172586e-02
5.356000000000000227e+01,1.034884136632046731e-01
5.360000000000000142e+01,8.372321907880837799e-02
5.364000000000000057e+01,1.127457686549791088e-01
5.367999999999999972e+01,8.106106287282714706e-02
5.371999999999999886e+01,9.135611267923904322e-02
5.375999999999999801e+01,1.044850343247267221e-01
5.379999999999999716e+01,1.113705177354335357e-01
5.384000000000000341e+01,8.194398442243953917e-02
5.388000000000000256e+01,9.619918218121124853e-02
5.392000000000000171e+01,8.775831148055690534e-02
5.396000000000000085e+01,8.158395697374971889e-02
5.400000000000000000e+01,1.111486769958455606e-01
5.403999999999999915e+01,1.049686878065828194e-01
5.407999999999999829e+01,8.970856879559141461e-02
5.411999999999999744e+01,9.260023093128666449e-02
5.415999999999999659e+01,1.102396799276669087e-01
5.420000000000000284e+01,9.383639519589065392e-02
5.424000000000000199e+01,9.218088769822231632e-02
5.428000000000000114e+01,7.860856841845462184e-02
5.432000000000000028e+01,8.318800621893025771e-02
5.435999999999999943e+01,7.982194366222807036e-02
5.439999999999999858e+01,7.021237067141554433e-02
5.443999999999999773e+01,1.093904455753975380e-01
5.447999999999999687e+01,1.105544320067042424e-01
5.452000000000000313e+01,9.923424619739444619e-02
5.456000000000000227e+01,1.049311254310252850e-01
5.460000000000000142e+01,1.151637701610273568e-01
5.464000000000000057e+01,8.965163348034164981e-02
5.467999999999999972e+01,7.207924214216278325e-02
5.471999999999999886e+01,7.776454396041071471e-02
5.475999999999999801e+01,1.027362130702981768e-01
5.479999999999999716e+01,9.706906572541278144e-02
5.484000000000000341e+01,9.139900236688276725e-02
5.488000000000000256e+01,8.118736555113573172e-02
5.492000000000000171e+01,1.078493557162240740e-01
5.496000000000000085e+01,1.089784943824546187e-01
5.500000000000000000e+01,8.741143463046609219e-02
5.503999999999999915e+01,7.378407690138702457e-02
5.507999999999999829e+01,8.001037953642389788e-02
5.511999999999999744e+01,1.009843535132186748e-01
5.515999999999999659e+01,1.230900361276310861e-01
5.520000000000000284e+01,7.881496469089803447e-02
5.524000000000000199e+01,7.311547646504786002e-02
5.528000000000000114e+01,1.014529140065082574e-01
5.532000000000000028e+01,8.440085147202064375e-02
5.535999999999999943e+01,1.070590208661210685e-01
5.539999999999999858e+01,1.030496226576178426e-01
5.543999999999999773e+01,9.676790992099885969e-02
5.547999999999999687e+01,1.058011567853255341e-01
5.552000000000000313e+01,1.034847742343910498e-01
5.556000000000000227e+01,9.095342061247796428e-02
5.560000000000000142e+01,9.714100162435768127e-02
5.564000000000000057e+01,1.186435229840287070e-01
5.567999999999999972e+01,1.112091167329338631e-01
5.571999999999999886e+01,1.485908832998989182e-01
5.575999999999999801e+01,1.110818547478951285e-01
5.579999999999999716e+01,1.263316314903712434e-01
5.584000000000000341e+01,1.126444613689267099e-01
5.588000000000000256e+01,1.233495079761097457e-01
5.592000000000000171e+01,1.073869244079368873e-01
5.596000000000000085e+01,1.226245268872404315e-01
5.600000000000000000e+01,1.191371316676077957e-01
5.603999999999999915e+01,1.162140076144572293e-01
5.607999999999999829e+01,1.320097604356363641e-01
5.611999999999999744e+01,1.517737642694332312e-01
5.615999999999999659e+01,1.454374406269279274e-01
5.620000000000000284e+01,1.566853162613154604e-01
5.624000000000000199e+01,1.707667653108838890e-01
5.628000000000000114e+01,1.587478724442843159e-01
5.632000000000000028e+01,1.694191486237808797e-01
5.635999999999999943e+01,1.823566521998072343e-01
5.639999999999999858e+01,1.986950415166455208e-01
5.643999999999999773e+01,1.985777065035148337e-01
5.647999999999999687e+01,2.228525160196824506e-01
5.652000000000000313e+01,2.380469021035150623e-01
5.656000000000000227e+01,2.662867915143588005e-01
5.660000000000000142e+01,2.633203162936559871e-01
5.664000000000000057e+01,2.575140505673929603e-01
5.667999999999999972e+01,2.630512789919187133e-01
5.671999999999999886e+01,2.929806230660108590e-01
5.675999999999999801e+01,2.860302674675470613e-01
5.679999999999999716e+01,2.484408547498790365e-01
5.684000000000000341e+01,2.392148642934101843e-01
5.688000000000000256e+01,2.237450649789363699e-01
5.692000000000000171e+01,2.077047677810239523e-01
5.696000000000000085e+01,1.910939678863842750e-01
5.700000000000000000e+01,1.960385920543633032e-01
5.703999999999999915e+01,1.635361512779804349e-01
5.707999999999999829e+01,1.826576986132703306e-01
5.711999999999999744e+01,1.660341661139775327e-01
5.715999999999999659e+01,1.204735279122397112e-01
5.720000000000000284e+01,1.611440896882239682e-01
5.724000000000000199e+01,1.411069677231978625e-01
5.728000000000000114e+01,1.641838361216189646e-01
5.732000000000000028e+01,1.554869216705127011e-01
5.735999999999999943e+01,1.326034984989410970e-01
5.739999999999999858e+01,1.187941565238209846e-01
5.743999999999999773e+01,1.123568961955070666e-01
5.747999999999999687e+01,1.081857284916411532e-01
5.752000000000000313e+01,9.379935386565393940e-02
5.756000000000000227e+01,1.191229464373805419e-01
5.760000000000000142e+01,1.143747172029159348e-01
5.764000000000000057e+01,1.396918087002345099e-01
5.767999999999999972e+01,9.295453193465783026e-02
5.771999999999999886e+01,1.120244557377732819e-01
5.775999999999999801e+01,9.251256479976061042e-02
5.779999999999999716e+01,9.852732271009263798e-02
5.784000000000000341e+01,1.141834404494865285e-01
5.788000000000000256e+01,1.020370290048109724e-01
5.792000000000000171e+01,1.313025361746081587e-01
5.796000000000000085e+01,1.015622677005560970e-01
5.800000000000000000e+01,1.109645818992574390e-01
5.803999999999999915e+01,1.118536213394417250e-01
5.807999999999999829e+01,8.153611805640045840e-02
5.811999999999999744e+01,1.175930987879506839e-01
5.815999999999999659e+01,7.932632718199997268e-02
5.820000000000000284e+01,1.272906352215560644e-01
5.824000000000000199e+01,1.258937707635961467e-01
5.828000000000000114e+01,1.142816079310307736e-01
5.832000000000000028e+01,9.358880506814257205e-02
5.835999999999999943e+01,1.126058731371954863e-01
5.839999999999999858e+01,9.360838103128790721e-02
5.843999999999999773e+01,1.137534186519589124e-01
5.847999999999999687e+01,9.077790226202248069e-02
5.852000000000000313e+01,1.001369270266614930e-01
5.856000000000000227e+01,8.566466183282268887e-02
5.860000000000000142e+01,6.381371765199726764e-02
5.864000000000000057e+01,1.077698633342255297e-01
5.867999999999999972e+01,1.142787467272583513e-01
5.871999999999999886e+01,9.582165775108811290e-02
5.875999999999999801e+01,8.076517053170084726e-02
5.879999999999999716e+01,9.293720656479906306e-02
5.884000000000000341e+01,1.119138242008162337e-01
5.888000000000000256e+01,7.812520285398635855e-02
5.892000000000000171e+01,1.118456324135463781e-01
5.896000000000000085e+01,1.030127817818211194e-01
5.900000000000000000e+01,9.247451981807777721e-02
5.903999999999999915e+01,9.044281012716660906e-02
5.907999999999999829e+01,6.968573211409519186e-02
5.911999999999999744e+01,8.750377042291029861e-02
5.915999999999999659e+01,1.070203676192656855e-01
5.920000000000000284e+01,7.150236101132291522e-02
5.924000000000000199e+01,1.080320194337453105e-01
5.928000000000000114e+01,9.690237494950373898e-02
5.932000000000000028e+01,9.995256483292906668e-02
5.935999999999999943e+01,9.165266322538515031e-02
5.939999999999999858e+01,6.008870215908804907e-02
5.943999999999999773e+01,8.582176100828969867e-02
5.947999999999999687e+01,1.064453612932968474e-01
5.952000000000000313e+01,7.600564031919546104e-02
5.956000000000000227e+01,6.314971430574213562e-02
5.960000000000000142e+01,9.057084159106815191e-02
5.964000000000000057e+01,7.657327001677327605e-02
5.967999999999999972e+01,7.959214738447514814e-02
5.971999999999999886e+01,7.636687415067956730e-02
5.975999999999999801e+01,9.583135602015852017e-02
5.979999999999999716e+01,8.749307766771396988e-02
5.984000000000000341e+01,9.560389742532612867e-02
5.988000000000000256e+01,1.150578262706369176e-01
5.992000000000000171e+01,7.437108046338494760e-02
5.996000000000000085e+01,7.736533410802767796e-02
