2.003999999999999915e+01,1.178372542132185563e-01
2.007999999999999829e+01,1.459741619343004615e-01
2.012000000000000099e+01,1.434825412129765998e-01
2.016000000000000014e+01,1.768729361656765364e-01
2.019999999999999929e+01,1.431706804823592305e-01
2.023999999999999844e+01,1.368907592449399580e-01
2.028000000000000114e+01,1.527823365958214663e-01
2.032000000000000028e+01,1.572984227852053385e-01
2.035999999999999943e+01,1.731926229209719836e-01
2.039999999999999858e+01,1.357046640938841808e-01
2.044000000000000128e+01,1.352655504117260821e-01
2.048000000000000043e+01,1.529139384608851349e-01
2.051999999999999957e+01,1.495602928838125623e-01
2.055999999999999872e+01,1.491250704952830908e-01
2.060000000000000142e+01,1.478160000713184541e-01
2.064000000000000057e+01,1.269634511250296027e-01
2.067999999999999972e+01,1.382006085099454495e-01
2.071999999999999886e+01,1.331031232133577935e-01
2.076000000000000156e+01,1.277152030285009787e-01
2.080000000000000071e+01,1.243705481925948542e-01
2.083999999999999986e+01,1.367796630850836859e-01
2.087999999999999901e+01,1.421889362449469396e-01
2.092000000000000171e+01,1.388480869352722857e-01
2.096000000000000085e+01,1.570952563587562911e-01
2.100000000000000000e+01,1.420884111147690532e-01
2.103999999999999915e+01,1.311668026473765958e-01
2.107999999999999829e+01,1.345403802153392614e-01
2.112000000000000099e+01,1.221627091895429451e-01
2.116000000000000014e+01,1.404161417424895919e-01
2.119999999999999929e+01,1.344586444735489106e-01
2.123999999999999844e+01,1.287941000509432998e-01
2.128000000000000114e+01,1.275064862722348757e-01
2.132000000000000028e+01,1.200941345987991266e-01
2.135999999999999943e+01,1.433128706212550563e-01
2.139999999999999858e+01,1.213173302148640026e-01
2.144000000000000128e+01,1.153672248150379859e-01
2.148000000000000043e+01,1.429653268486298923e-01
2.151999999999999957e+01,1.285579851176252286e-01
2.155999999999999872e+01,1.027750537514447587e-01
2.160000000000000142e+01,1.303767993061845376e-01
2.164000000000000057e+01,1.410604032648573591e-01
2.167999999999999972e+01,1.467860924465650974e-01
2.171999999999999886e+01,1.326765044118281556e-01
2.176000000000000156e+01,1.104001530530248493e-01
2.180000000000000071e+01,1.356742041978160340e-01
2.183999999999999986e+01,1.370289876223191872e-01
2.187999999999999901e+01,1.290501464861506242e-01
2.192000000000000171e+01,1.271984627290970171e-01
2.196000000000000085e+01,1.040529180625582306e-01
2.200000000000000000e+01,1.205815109952223241e-01
2.203999999999999915e+01,1.076482747169962145e-01
2.207999999999999829e+01,1.165946811546853396e-01
2.212000000000000099e+01,7.857647642492057716e-02
2.216000000000000014e+01,1.324490104716236905e-01
2.219999999999999929e+01,1.259381323684412857e-01
2.223999999999999844e+01,9.988364868012426789e-02
2.228000000000000114e+01,9.862592109210810420e-02
2.232000000000000028e+01,9.445221838906886491e-02
2.235999999999999943e+01,1.322863281098897448e-01
2.239999999999999858e+01,1.167381200393430574e-01
2.244000000000000128e+01,1.073170280524978343e-01
2.248000000000000043e+01,6.814235898576614936e-02
2.251999999999999957e+01,9.372909792106372262e-02
2.255999999999999872e+01,1.006473446388355952e-01
2.260000000000000142e+01,1.349877383848598622e-01
2.264000000000000057e+01,1.165292211335425404e-01
2.267999999999999972e+01,9.457127432462208994e-02
2.271999999999999886e+01,1.280399059797205918e-01
2.276000000000000156e+01,8.887313809055319425e-02
2.280000000000000071e+01,1.173848852346607574e-01
2.283999999999999986e+01,1.184767301235388759e-01
2.287999999999999901e+01,9.389894714095997630e-02
2.292000000000000171e+01,1.019941184550982594e-01
2.296000000000000085e+01,1.191334938247618352e-01
2.300000000000000000e+01,1.149789256941132765e-01
2.303999999999999915e+01,9.186411430037216830e-02
2.307999999999999829e+01,9.471284718242159451e-02
2.312000000000000099e+01,9.172841215080543287e-02
2.316000000000000014e+01,9.020362919704651150e-02
2.319999999999999929e+01,9.538932782560133328e-02
2.323999999999999844e+01,1.104943470538609362e-01
2.328000000000000114e+01,1.177241951751077514e-01
2.332000000000000028e+01,1.156203043791528690e-01
2.335999999999999943e+01,8.726332173945032522e-02
2.339999999999999858e+01,7.028421162678992473e-02
2.344000000000000128e+01,1.046476418257514945e-01
2.348000000000000043e+01,9.992260187541056327e-02
2.351999999999999957e+01,1.013245922413740646e-01
2.355999999999999872e+01,1.018524995057023125e-01
2.360000000000000142e+01,9.713062659096931284e-02
2.364000000000000057e+01,8.103299885940622171e-02
2.367999999999999972e+01,7.310437922493268070e-02
2.371999999999999886e+01,9.259781767474389857e-02
2.376000000000000156e+01,8.204586446769623898e-02
2.380000000000000071e+01,1.073756378667808514e-01
2.383999999999999986e+01,8.369867301882392974e-02
2.387999999999999901e+01,7.110782965234230257e-02
2.392000000000000171e+01,8.506388970712318309e-02
2.396000000000000085e+01,7.743421709718156798e-02
2.400000000000000000e+01,5.055251205973714662e-02
2.403999999999999915e+01,7.063760578450491157e-02
2.407999999999999829e+01,9.334913023290875023e-02
2.412000000000000099e+01,6.705389419827918751e-02
2.416000000000000014e+01,9.093428959011179424e-02
2.419999999999999929e+01,9.322893325780064189e-02
2.423999999999999844e+01,8.443948738682942323e-02
2.428000000000000114e+01,5.027201539116529089e-02
2.432000000000000028e+01,9.399289015443608453e-02
2.435999999999999943e+01,9.629152147006872497e-02
2.439999999999999858e+01,9.071489273472120585e-02
2.444000000000000128e+01,7.638786199165197022e-02
2.448000000000000043e+01,6.293695264617367446e-02
2.451999999999999957e+01,7.836660248719350130e-02
2.455999999999999872e+01,7.162704616148966863e-02
2.460000000000000142e+01,9.143433925535339457e-02
2.464000000000000057e+01,9.198954909659021184e-02
2.467999999999999972e+01,7.854350518965672046e-02
2.471999999999999886e+01,1.030211053148054057e-01
2.476000000000000156e+01,8.753499486023190446e-02
2.480000000000000071e+01,6.096475039501453308e-02
2.483999999999999986e+01,6.969272409165495896e-02
2.487999999999999901e+01,9.038187863568511449e-02
2.492000000000000171e+01,1.107802679281383595e-01
2.496000000000000085e+01,8.304696880975388773e-02
2.500000000000000000e+01,8.623618124609037927e-02
2.503999999999999915e+01,9.059318353475777352e-02
2.507999999999999829e+01,6.782181860698464904e-02
2.512000000000000099e+01,7.568124277749789519e-02
2.516000000000000014e+01,8.558358605080250425e-02
2.519999999999999929e+01,8.060949550035201305e-02
2.523999999999999844e+01,8.030373404006581339e-02
2.528000000000000114e+01,1.033359258036918443e-01
2.532000000000000028e+01,7.123529032597841759e-02
2.535999999999999943e+01,6.422287927937908592e-02
2.539999999999999858e+01,5.108540632788510782e-02
2.544000000000000128e+01,7.353781681641871626e-02
2.548000000000000043e+01,6.915354124953287940e-02
2.551999999999999957e+01,6.010275888166021624e-02
2.555999999999999872e+01,5.951254823879816719e-02
2.560000000000000142e+01,6.329892517024407472e-02
2.564000000000000057e+01,6.446077625805848865e-02
2.567999999999999972e+01,4.812073906276130575e-02
2.571999999999999886e+01,7.437167331286909100e-02
2.576000000000000156e+01,6.474279854313025329e-02
2.580000000000000071e+01,5.919878253812439067e-02
2.583999999999999986e+01,8.982804406089089921e-02
2.587999999999999901e+01,7.786808971945409497e-02
2.592000000000000171e+01,7.582724314751410066e-02
2.596000000000000085e+01,6.007675410387903342e-02
2.600000000000000000e+01,6.153818964469312536e-02
2.603999999999999915e+01,4.812312465377670267e-02
2.607999999999999829e+01,4.666914521314195069e-02
2.612000000000000099e+01,6.301050668069313465e-02
2.616000000000000014e+01,7.760243978937055032e-02
2.619999999999999929e+01,5.689795478937553080e-02
2.623999999999999844e+01,5.894792092215907914e-02
2.628000000000000114e+01,7.675122476978124553e-02
2.632000000000000028e+01,5.604925878505948728e-02
2.635999999999999943e+01,5.168405001548344313e-02
2.639999999999999858e+01,6.248874357758787274e-02
2.644000000000000128e+01,8.437935532067038225e-02
2.648000000000000043e+01,4.471936331395372222e-02
2.651999999999999957e+01,6.019393507035682850e-02
2.655999999999999872e+01,4.037206012895536850e-02
2.660000000000000142e+01,7.480960381736180553e-02
2.664000000000000057e+01,3.748657861435775174e-02
2.667999999999999972e+01,5.413125276129748809e-02
2.671999999999999886e+01,8.944635894804033038e-02
2.676000000000000156e+01,6.904509768346660248e-02
2.680000000000000071e+01,3.026672041164243238e-02
2.683999999999999986e+01,6.587593465414164073e-02
2.687999999999999901e+01,7.610691629488074150e-02
2.692000000000000171e+01,3.587235045904903219e-02
2.696000000000000085e+01,5.602314612509122493e-02
2.700000000000000000e+01,6.567305892257248312e-02
2.703999999999999915e+01,4.498560665770903744e-02
2.707999999999999829e+01,6.309674978745290208e-02
2.712000000000000099e+01,5.174566028188297417e-02
2.716000000000000014e+01,8.181857615829367381e-02
2.719999999999999929e+01,3.779717525752016721e-02
2.723999999999999844e+01,7.049703751915721572e-02
2.728000000000000114e+01,6.060757273663161526e-02
2.732000000000000028e+01,5.101057796176048514e-02
2.735999999999999943e+01,6.737678756966113125e-02
2.739999999999999858e+01,7.674263766398278785e-02
2.744000000000000128e+01,8.377553189573457015e-02
2.748000000000000043e+01,6.951412685130427260e-02
2.751999999999999957e+01,2.083133765155406603e-02
2.755999999999999872e+01,6.695598765852288359e-02
2.760000000000000142e+01,7.545040496307037214e-02
2.764000000000000057e+01,3.843833736708576754e-02
2.767999999999999972e+01,5.976958360764407507e-02
2.771999999999999886e+01,3.238549640056875151e-02
2.776000000000000156e+01,5.721874521569763478e-02
2.780000000000000071e+01,5.288142032054157782e-02
2.783999999999999986e+01,7.188184534880079357e-02
2.787999999999999901e+01,5.441886714554174803e-02
2.792000000000000171e+01,3.141405276690861087e-02
2.796000000000000085e+01,4.574919926471845977e-02
2.800000000000000000e+01,4.141542153144629757e-02
2.803999999999999915e+01,4.991771247668382733e-02
2.807999999999999829e+01,4.208477625148851486e-02
2.812000000000000099e+01,3.950336625684574415e-02
2.816000000000000014e+01,3.721435956188164085e-02
2.819999999999999929e+01,5.855478712792412666e-02
2.823999999999999844e+01,5.743400335605439166e-02
2.828000000000000114e+01,2.218348800075357202e-02
2.832000000000000028e+01,4.673480029048986822e-02
2.835999999999999943e+01,5.524257610052542983e-02
2.839999999999999858e+01,3.399630469827469997e-02
2.844000000000000128e+01,6.117504726912509350e-02
2.848000000000000043e+01,6.268371724868096462e-02
2.851999999999999957e+01,5.456652243017660886e-02
2.855999999999999872e+01,4.790855085254347445e-02
2.860000000000000142e+01,4.941919665385663407e-02
2.864000000000000057e+01,5.676475324375622467e-02
2.867999999999999972e+01,7.023693037239560344e-02
2.871999999999999886e+01,2.449202927709069263e-02
2.876000000000000156e+01,4.059091137161618262e-02
2.880000000000000071e+01,4.823075813898447528e-02
2.883999999999999986e+01,4.974526981641528428e-02
2.887999999999999901e+01,3.492449079200785761e-02
2.892000000000000171e+01,4.227452421672345251e-02
2.896000000000000085e+01,5.691800765108180615e-02
2.900000000000000000e+01,3.743170232374409129e-02
2.903999999999999915e+01,4.069962576926616088e-02
2.907999999999999829e+01,4.309302774645591694e-02
2.912000000000000099e+01,2.827598118221479745e-02
2.916000000000000014e+01,5.313250361109838477e-02
2.919999999999999929e+01,4.210894383509226208e-02
2.923999999999999844e+01,6.084070719046377751e-02
2.928000000000000114e+01,4.106696564729155757e-02
2.932000000000000028e+01,5.892478990389685839e-02
2.935999999999999943e+01,4.294450973639751812e-02
2.939999999999999858e+01,2.171398878714780878e-02
2.944000000000000128e+01,3.490618191400413767e-02
2.948000000000000043e+01,4.372326668614088391e-02
2.951999999999999957e+01,3.241274188390678296e-02
2.955999999999999872e+01,5.640006040823897920e-02
2.960000000000000142e+01,5.296693983696673658e-02
2.964000000000000057e+01,4.690897576503609556e-02
2.967999999999999972e+01,3.034991599433634751e-02
2.971999999999999886e+01,3.596160514135442188e-02
2.976000000000000156e+01,5.149209710712333854e-02
2.980000000000000071e+01,4.718667018925339074e-02
2.983999999999999986e+01,0.000000000000000000e+00
2.987999999999999901e+01,2.982609624624310216e-02
2.992000000000000171e+01,3.077316335070093625e-02
2.996000000000000085e+01,5.301582153328374819e-02
3.000000000000000000e+01,4.317060202697981658e-02
3.003999999999999915e+01,5.899666114651600651e-02
3.007999999999999829e+01,4.769395597832823408e-02
3.012000000000000099e+01,6.264594893628767924e-02
3.016000000000000014e+01,4.200949637839454520e-02
3.019999999999999929e+01,4.791944852023183321e-02
3.023999999999999844e+01,3.836914073701280792e-02
3.028000000000000114e+01,3.436190057627570849e-02
3.032000000000000028e+01,6.302702704675598733e-02
3.035999999999999943e+01,4.210147163579392587e-02
3.039999999999999858e+01,4.830573089515824425e-02
3.044000000000000128e+01,4.867624092849790612e-02
3.048000000000000043e+01,5.488151562819176127e-02
3.051999999999999957e+01,4.562650816683758159e-02
3.055999999999999872e+01,3.928912975145975456e-02
3.060000000000000142e+01,4.870474598133175959e-02
3.064000000000000057e+01,1.465562955496749024e-02
3.067999999999999972e+01,7.074629773526194820e-02
3.071999999999999886e+01,4.982524033295158972e-02
3.076000000000000156e+01,4.144832267564903944e-02
3.080000000000000071e+01,4.619896744023148372e-02
3.083999999999999986e+01,6.261860681650999183e-02
3.087999999999999901e+01,5.424312178744894464e-02
3.092000000000000171e+01,4.820181136178446762e-02
3.096000000000000085e+01,6.783170650084395514e-02
3.100000000000000000e+01,7.666868818759184356e-02
3.103999999999999915e+01,6.333594910323259164e-02
3.107999999999999829e+01,8.763463604955931685e-02
3.112000000000000099e+01,8.392933733716384515e-02
3.116000000000000014e+01,9.014273026356010854e-02
3.119999999999999929e+01,1.001488401909794851e-01
3.123999999999999844e+01,1.110305346756145506e-01
3.128000000000000114e+01,1.076187383512615531e-01
3.132000000000000028e+01,1.115002046189055851e-01
3.135999999999999943e+01,1.188826622545678391e-01
3.139999999999999858e+01,1.510611517325101683e-01
3.144000000000000128e+01,1.686544247684594322e-01
3.148000000000000043e+01,1.987917803711518883e-01
3.151999999999999957e+01,2.029671090364854324e-01
3.155999999999999872e+01,2.406898446395296653e-01
3.160000000000000142e+01,2.518671210986271336e-01
3.164000000000000057e+01,2.948415205819522877e-01
3.167999999999999972e+01,3.509434126026165779e-01
3.171999999999999886e+01,3.784578454625572852e-01
3.176000000000000156e+01,3.601737533085045406e-01
3.180000000000000071e+01,3.719364939120560209e-01
3.183999999999999986e+01,3.484023685105276380e-01
3.187999999999999901e+01,3.085327141643908200e-01
3.192000000000000171e+01,2.940424762185679941e-01
3.196000000000000085e+01,2.856785983327230216e-01
3.200000000000000000e+01,2.487272390501626962e-01
3.203999999999999915e+01,2.021497354313586681e-01
3.207999999999999829e+01,1.972875594031159585e-01
3.211999999999999744e+01,1.795903904915279736e-01
3.215999999999999659e+01,1.481830867398534757e-01
3.220000000000000284e+01,1.584911010490293592e-01
3.224000000000000199e+01,1.609232326994525786e-01
3.228000000000000114e+01,1.426441097387090573e-01
3.232000000000000028e+01,1.383675672703515713e-01
3.235999999999999943e+01,1.323411040747287659e-01
3.239999999999999858e+01,1.356498081907719089e-01
3.243999999999999773e+01,1.170803932824721894e-01
3.247999999999999687e+01,1.174726659145807345e-01
3.252000000000000313e+01,1.099890336519447759e-01
3.256000000000000227e+01,8.792009600334825536e-02
3.260000000000000142e+01,1.055244541628335975e-01
3.264000000000000057e+01,8.403961473842516683e-02
3.267999999999999972e+01,8.209987282502111128e-02
3.271999999999999886e+01,9.970522524605104908e-02
3.275999999999999801e+01,9.251530396293890235e-02
3.279999999999999716e+01,9.961963798009325355e-02
3.284000000000000341e+01,8.367896950030738468e-02
3.288000000000000256e+01,6.248778387715797633e-02
3.292000000000000171e+01,8.009472986935699257e-02
3.296000000000000085e+01,8.807545846419621849e-02
3.300000000000000000e+01,4.150617576965203587e-02
3.303999999999999915e+01,6.640686295380239523e-02
3.307999999999999829e+01,8.809900759880393006e-02
3.311999999999999744e+01,7.157705532123978531e-02
3.315999999999999659e+01,8.364326316427216079e-02
3.320000000000000284e+01,1.030025843004990643e-01
3.324000000000000199e+01,9.348261263960853940e-02
3.328000000000000114e+01,8.017065670327040705e-02
3.332000000000000028e+01,8.173634062523284227e-02
3.335999999999999943e+01,6.609123928931585901e-02
3.339999999999999858e+01,7.640886267406037102e-02
3.343999999999999773e+01,5.493004811159882261e-02
3.347999999999999687e+01,7.895871800714765465e-02
3.352000000000000313e+01,8.052575725750908686e-02
3.356000000000000227e+01,1.065969438886322090e-01
3.360000000000000142e+01,9.912140230592590695e-02
3.364000000000000057e+01,9.777208736724622706e-02
3.367999999999999972e+01,1.034241346761941849e-01
3.371999999999999886e+01,1.309549003191092242e-01
3.375999999999999801e+01,1.106449916324514365e-01
3.379999999999999716e+01,1.253408766291877752e-01
3.384000000000000341e+01,1.327441777578081128e-01
3.388000000000000256e+01,1.518162320787842801e-01
3.392000000000000171e+01,1.282984320449334359e-01
3.396000000000000085e+01,1.418284034752617662e-01
3.400000000000000000e+01,1.614845729604842683e-01
3.403999999999999915e+01,1.595542092852772209e-01
3.407999999999999829e+01,1.923379041307485271e-01
3.411999999999999744e+01,1.650289531351182004e-01
3.415999999999999659e+01,2.112318735612812026e-01
3.420000000000000284e+01,2.084272330087033331e-01
3.424000000000000199e+01,2.216670109602047467e-01
3.428000000000000114e+01,2.220716244935663775e-01
3.432000000000000028e+01,2.119747738460079911e-01
3.435999999999999943e+01,2.383422370434786774e-01
3.439999999999999858e+01,2.282457792284773856e-01
3.443999999999999773e+01,2.269009008666107718e-01
3.447999999999999687e+01,2.322656082942426703e-01
3.452000000000000313e+01,2.326713812658539327e-01
3.456000000000000227e+01,2.202419675833336699e-01
3.460000000000000142e+01,2.247320825959312762e-01
3.464000000000000057e+01,1.901328411961218934e-01
3.467999999999999972e+01,1.943315916425691070e-01
3.471999999999999886e+01,1.880288461423935964e-01
3.475999999999999801e+01,1.534301129888778481e-01
3.479999999999999716e+01,1.882592194578989186e-01
3.484000000000000341e+01,1.977094611876764052e-01
3.488000000000000256e+01,1.706957437861389426e-01
3.492000000000000171e+01,1.503915772318268063e-01
3.496000000000000085e+01,1.312544127404192129e-01
3.500000000000000000e+01,1.564577602904569653e-01
3.503999999999999915e+01,1.513231074640965512e-01
3.507999999999999829e+01,1.450217437571400814e-01
3.511999999999999744e+01,1.442630633076629754e-01
3.515999999999999659e+01,1.432128044046203363e-01
3.520000000000000284e+01,1.479969353326402448e-01
3.524000000000000199e+01,1.606574434022183528e-01
3.528000000000000114e+01,1.683589566609407229e-01
3.532000000000000028e+01,1.687677685184472698e-01
3.535999999999999943e+01,1.610087370179964505e-01
3.539999999999999858e+01,1.474155623968079476e-01
3.543999999999999773e+01,1.659109219523952905e-01
3.547999999999999687e+01,1.817809742280653007e-01
3.552000000000000313e+01,1.734389594696923720e-01
3.556000000000000227e+01,1.977688952118318577e-01
3.560000000000000142e+01,2.174315236572771370e-01
3.564000000000000057e+01,2.254257313880885516e-01
3.567999999999999972e+01,2.395460037578429624e-01
3.571999999999999886e+01,2.536663661287720251e-01
3.575999999999999801e+01,2.835393133673863586e-01
3.579999999999999716e+01,2.912421618230318088e-01
3.584000000000000341e+01,3.316169385431977923e-01
3.588000000000000256e+01,3.442790645195037413e-01
3.592000000000000171e+01,4.059490363037182581e-01
3.596000000000000085e+01,3.964411249090974421e-01
3.600000000000000000e+01,4.099786024908333437e-01
3.603999999999999915e+01,4.407272073378811772e-01
3.607999999999999829e+01,4.913123526141844333e-01
3.611999999999999744e+01,5.413141302725120729e-01
3.615999999999999659e+01,5.440584688604982455e-01
3.620000000000000284e+01,5.345509164084194520e-01
3.624000000000000199e+01,5.556732699680924092e-01
3.628000000000000114e+01,5.152442415182507673e-01
3.632000000000000028e+01,5.497854775890265167e-01
3.635999999999999943e+01,5.233587511505942702e-01
3.639999999999999858e+01,5.001409029056030908e-01
3.643999999999999773e+01,4.427926750568460523e-01
3.647999999999999687e+01,4.283262770828157318e-01
3.652000000000000313e+01,3.814797707122213888e-01
3.656000000000000227e+01,3.658465707942642475e-01
3.660000000000000142e+01,3.542973719670678423e-01
3.664000000000000057e+01,3.620012432436955918e-01
3.667999999999999972e+01,3.002774517235655138e-01
3.671999999999999886e+01,3.225669936867854859e-01
3.675999999999999801e+01,2.710531725992509355e-01
3.679999999999999716e+01,2.878001805988451012e-01
3.684000000000000341e+01,2.567062696729556226e-01
3.688000000000000256e+01,2.434068451578501047e-01
3.692000000000000171e+01,2.423593582692073201e-01
3.696000000000000085e+01,2.281847812054934865e-01
3.700000000000000000e+01,2.344300973633660079e-01
3.703999999999999915e+01,2.164632257775254698e-01
3.707999999999999829e+01,2.241670737411578795e-01
3.711999999999999744e+01,2.009493302932906789e-01
3.715999999999999659e+01,1.987348932141767277e-01
3.720000000000000284e+01,2.081889456720861231e-01
3.724000000000000199e+01,2.135589864473678157e-01
3.728000000000000114e+01,2.195124191910311218e-01
3.732000000000000028e+01,2.315917863342563388e-01
3.735999999999999943e+01,2.168335239806927495e-01
3.739999999999999858e+01,2.248288264968027750e-01
3.743999999999999773e+01,2.240726946198542124e-01
3.747999999999999687e+01,2.414027144318591500e-01
3.752000000000000313e+01,2.613580976398902078e-01
3.756000000000000227e+01,2.614769457096502991e-01
3.760000000000000142e+01,2.875581849601936968e-01
3.764000000000000057e+01,2.958448732063915787e-01
3.767999999999999972e+01,3.233845489655867156e-01
3.771999999999999886e+01,3.272954088328214883e-01
3.775999999999999801e+01,3.650448961960989225e-01
3.779999999999999716e+01,4.340075915383353466e-01
3.784000000000000341e+01,4.959690982821527983e-01
3.788000000000000256e+01,5.494708486173625062e-01
3.792000000000000171e+01,5.959714040010125613e-01
3.796000000000000085e+01,7.092741317176348703e-01
3.800000000000000000e+01,8.179093615433467024e-01
3.803999999999999915e+01,9.542572251679112272e-01
3.807999999999999829e+01,9.925894479968336848e-01
3.811999999999999744e+01,1.000000000000000000e+00
3.815999999999999659e+01,9.172711538759242833e-01
3.820000000000000284e+01,8.838416854219753871e-01
3.824000000000000199e+01,8.069468807634397889e-01
3.828000000000000114e+01,6.892121530642602023e-01
3.832000000000000028e+01,6.164010996046409563e-01
3.835999999999999943e+01,5.532164530744415609e-01
3.839999999999999858e+01,5.072427463919084722e-01
3.843999999999999773e+01,4.729374307727207682e-01
3.847999999999999687e+01,4.234629137817254030e-01
3.852000000000000313e+01,3.769053936992231013e-01
3.856000000000000227e+01,3.469753749046585733e-01
3.860000000000000142e+01,3.316308637343954313e-01
3.864000000000000057e+01,2.923657506843320153e-01
3.867999999999999972e+01,2.927734506036696605e-01
3.871999999999999886e+01,2.602174415616311798e-01
3.875999999999999801e+01,2.539154445065618937e-01
3.879999999999999716e+01,2.362364887145312342e-01
3.884000000000000341e+01,2.273087629529061127e-01
3.888000000000000256e+01,2.131300435623772749e-01
3.892000000000000171e+01,2.184959261378910667e-01
3.896000000000000085e+01,1.926483582529492644e-01
3.900000000000000000e+01,1.904293669550416734e-01
3.903999999999999915e+01,2.144643654081115625e-01
3.907999999999999829e+01,2.122450236253183575e-01
3.911999999999999744e+01,2.190686025636624512e-01
3.915999999999999659e+01,1.850521885768168229e-01
3.920000000000000284e+01,1.726223448070877964e-01
3.924000000000000199e+01,1.817790680779054480e-01
3.928000000000000114e+01,1.859764788808404845e-01
3.932000000000000028e+01,1.761714733108872277e-01
3.935999999999999943e+01,1.794933503767817407e-01
3.939999999999999858e+01,1.787310442252540155e-01
3.943999999999999773e+01,1.896370497228148655e-01
3.947999999999999687e+01,1.885826166282724980e-01
3.952000000000000313e+01,1.714837607909244499e-01
3.956000000000000227e+01,1.966830643789450606e-01
3.960000000000000142e+01,1.693738230305542047e-01
3.964000000000000057e+01,1.712356530518239217e-01
3.967999999999999972e+01,2.063525322403160778e-01
3.971999999999999886e+01,1.802094691609742727e-01
3.975999999999999801e+01,1.844043196284770869e-01
3.979999999999999716e+01,1.996840273024885204e-01
3.984000000000000341e+01,1.919181765797629835e-01
3.988000000000000256e+01,1.911531957362735124e-01
3.992000000000000171e+01,2.023482013497530096e-01
3.996000000000000085e+01,1.913727778169558302e-01
4.000000000000000000e+01,1.757296975647349435e-01
4.003999999999999915e+01,1.886742310630245556e-01
4.007999999999999829e+01,2.147455900188970368e-01
4.011999999999999744e+01,2.046442866394730664e-01
4.015999999999999659e+01,1.907504526145153978e-01
4.020000000000000284e+01,2.060276454872347063e-01
4.024000000000000199e+01,2.003012386845801907e-01
4.028000000000000114e+01,2.173281680385401038e-01
4.032000000000000028e+01,1.967238545407335726e-01
4.035999999999999943e+01,2.122916654756921429e-01
4.039999999999999858e+01,2.278591947531039830e-01
4.043999999999999773e+01,2.139634335973026880e-01
4.047999999999999687e+01,2.207790022281984899e-01
4.052000000000000313e+01,2.459721940554312203e-01
4.056000000000000227e+01,2.417020859197401561e-01
4.060000000000000142e+01,2.257631631747019918e-01
4.064000000000000057e+01,2.375366677514491598e-01
4.067999999999999972e+01,2.253894084433124001e-01
4.071999999999999886e+01,2.263689237676342891e-01
4.075999999999999801e+01,2.477680337159375856e-01
4.079999999999999716e+01,2.376618341548293600e-01
4.084000000000000341e+01,2.211376336059794334e-01
4.088000000000000256e+01,2.457446359487845677e-01
4.092000000000000171e+01,2.292197926705845101e-01
4.096000000000000085e+01,2.246548532585265490e-01
4.100000000000000000e+01,2.282575464886320293e-01
4.103999999999999915e+01,2.266090745550394525e-01
4.107999999999999829e+01,2.211679989147972425e-01
4.111999999999999744e+01,2.101840388309925700e-01
4.115999999999999659e+01,1.994914496615298183e-01
4.120000000000000284e+01,2.200117984625532819e-01
4.124000000000000199e+01,2.107770803722346098e-01
4.128000000000000114e+01,1.971663168389674869e-01
4.132000000000000028e+01,2.159353334533707092e-01
4.135999999999999943e+01,2.002818668191413132e-01
4.139999999999999858e+01,1.831694744794898910e-01
4.143999999999999773e+01,1.818092159345457981e-01
4.147999999999999687e+01,1.638209531414054621e-01
4.152000000000000313e+01,1.761704641260181115e-01
4.156000000000000227e+01,1.538057630524231889e-01
4.160000000000000142e+01,1.559445708689661814e-01
4.164000000000000057e+01,1.715017931835752796e-01
4.167999999999999972e+01,1.721812729274792286e-01
4.171999999999999886e+01,1.396050925405131760e-01
4.175999999999999801e+01,1.411589349192868270e-01
4.179999999999999716e+01,1.199587761761039678e-01
4.184000000000000341e+01,1.480577060351538354e-01
4.188000000000000256e+01,1.332744364751697330e-01
4.192000000000000171e+01,1.269504394229567235e-01
4.196000000000000085e+01,1.427962192579594336e-01
4.200000000000000000e+01,1.320957140407458541e-01
4.203999999999999915e+01,1.301461847283162387e-01
4.207999999999999829e+01,1.308216566829021321e-01
4.211999999999999744e+01,1.212867579520894579e-01
4.215999999999999659e+01,1.400475916868393067e-01
4.220000000000000284e+01,1.135924971762033026e-01
4.224000000000000199e+01,1.165999804848841942e-01
4.228000000000000114e+01,1.099805062553329826e-01
4.232000000000000028e+01,1.167793925221532886e-01
4.235999999999999943e+01,1.037413624622706698e-01
4.239999999999999858e+01,1.125813614206070540e-01
4.243999999999999773e+01,9.691703087152024609e-02
4.247999999999999687e+01,1.171329434702506611e-01
4.252000000000000313e+01,7.842239485501815988e-02
4.256000000000000227e+01,1.006793947327025152e-01
4.260000000000000142e+01,1.071834401983943613e-01
4.264000000000000057e+01,9.735110222207593589e-02
4.267999999999999972e+01,1.096884839547083851e-01
4.271999999999999886e+01,9.839665272409703345e-02
4.275999999999999801e+01,1.118999511898094990e-01
4.279999999999999716e+01,8.018727376158214792e-02
4.284000000000000341e+01,9.252277284030387128e-02
4.288000000000000256e+01,1.019406640468850100e-01
4.292000000000000171e+01,9.706414006253002991e-02
4.296000000000000085e+01,9.539597331409212233e-02
4.300000000000000000e+01,7.214056185348458050e-02
4.303999999999999915e+01,7.893109053423598420e-02
4.307999999999999829e+01,1.011819098435900732e-01
4.311999999999999744e+01,8.492612516108775933e-02
4.315999999999999659e+01,9.988312279712859010e-02
4.320000000000000284e+01,7.633351008817233774e-02
4.324000000000000199e+01,8.778894139202723934e-02
4.328000000000000114e+01,9.020076159684059514e-02
4.332000000000000028e+01,8.444410630621339287e-02
4.335999999999999943e+01,8.802174794699882399e-02
4.339999999999999858e+01,1.053093772434822994e-01
4.343999999999999773e+01,9.459204249760129468e-02
4.347999999999999687e+01,1.042940863689234970e-01
4.352000000000000313e+01,8.365745643095090500e-02
4.356000000000000227e+01,1.018181131406355050e-01
4.360000000000000142e+01,1.191030952869807508e-01
4.364000000000000057e+01,1.092582362882813657e-01
4.367999999999999972e+01,1.090393617351561040e-01
4.371999999999999886e+01,1.050276738217434391e-01
4.375999999999999801e+01,1.024740020525001100e-01
4.379999999999999716e+01,1.311330617766756079e-01
4.384000000000000341e+01,1.364545325203635473e-01
4.388000000000000256e+01,1.251478084216391395e-01
4.392000000000000171e+01,1.260924660495808536e-01
4.396000000000000085e+01,1.445393349086452894e-01
4.400000000000000000e+01,1.635690620722863586e-01
4.403999999999999915e+01,1.478843802303632937e-01
4.407999999999999829e+01,1.701218049605126847e-01
4.411999999999999744e+01,1.655210633534979769e-01
4.415999999999999659e+01,1.749219619740700893e-01
4.420000000000000284e+01,1.924902391111842359e-01
4.424000000000000199e+01,1.992645513512281696e-01
4.428000000000000114e+01,2.121642452676073820e-01
4.432000000000000028e+01,1.915163596493256459e-01
4.435999999999999943e+01,1.991640317852416964e-01
4.439999999999999858e+01,2.056442528996893782e-01
4.443999999999999773e+01,1.855779951911344372e-01
4.447999999999999687e+01,1.704702515691687015e-01
4.452000000000000313e+01,1.492359276417204172e-01
4.456000000000000227e+01,1.227501590123905306e-01
4.460000000000000142e+01,1.368118720002332311e-01
4.464000000000000057e+01,1.184928317477475790e-01
4.467999999999999972e+01,1.226350653024231852e-01
4.471999999999999886e+01,1.013976495049992294e-01
4.475999999999999801e+01,1.201242767650193832e-01
4.479999999999999716e+01,1.041364346646401623e-01
4.484000000000000341e+01,9.398221684188905189e-02
4.488000000000000256e+01,8.528592621933975271e-02
4.492000000000000171e+01,7.979783718076442767e-02
4.496000000000000085e+01,8.597762142458070800e-02
4.500000000000000000e+01,7.407055724839864408e-02
4.503999999999999915e+01,7.178936951440155478e-02
4.507999999999999829e+01,8.000919382619045561e-02
4.511999999999999744e+01,5.730679141242634583e-02
4.515999999999999659e+01,6.815071590248183986e-02
4.520000000000000284e+01,6.703374755088570280e-02
4.524000000000000199e+01,7.612606561207074796e-02
4.528000000000000114e+01,7.238234569829249399e-02
4.532000000000000028e+01,6.338712072779759121e-02
4.535999999999999943e+01,5.876691410589858500e-02
4.539999999999999858e+01,7.923334045340946208e-02
4.543999999999999773e+01,5.885927515419864947e-02
4.547999999999999687e+01,6.794753037211317959e-02
4.552000000000000313e+01,6.186602514185297885e-02
4.556000000000000227e+01,7.270317822645751271e-02
4.560000000000000142e+01,6.370315768216719410e-02
4.564000000000000057e+01,5.528586520307256919e-02
4.567999999999999972e+01,7.778944199187044772e-02
4.571999999999999886e+01,7.053759611345625236e-02
4.575999999999999801e+01,5.015796121451185363e-02
4.579999999999999716e+01,5.953233434685430148e-02
4.584000000000000341e+01,6.657229039430377637e-02
4.588000000000000256e+01,6.223472545185457228e-02
4.592000000000000171e+01,5.527102414464821895e-02
4.596000000000000085e+01,6.230882011936657305e-02
4.600000000000000000e+01,6.059450191498895466e-02
4.603999999999999915e+01,5.829602830320947116e-02
4.607999999999999829e+01,4.987085049970701317e-02
4.611999999999999744e+01,4.523720483651782337e-02
4.615999999999999659e+01,5.956416032670537597e-02
4.620000000000000284e+01,6.572241160839309426e-02
4.624000000000000199e+01,6.692079769897164854e-02
4.628000000000000114e+01,7.453611956409604555e-02
4.632000000000000028e+01,5.239597111345428021e-02
4.635999999999999943e+01,5.913464744194441014e-02
4.639999999999999858e+01,6.412228806700533135e-02
4.643999999999999773e+01,5.073125298881450002e-02
4.647999999999999687e+01,6.096820047901772843e-02
4.652000000000000313e+01,4.786734615852546865e-02
4.656000000000000227e+01,6.597900414810352332e-02
4.660000000000000142e+01,5.812743763333200198e-02
4.664000000000000057e+01,6.806958244619905340e-02
4.667999999999999972e+01,8.355349248773807913e-02
4.671999999999999886e+01,7.074046508142681211e-02
4.675999999999999801e+01,6.317748362392333616e-02
4.679999999999999716e+01,6.553195176623678730e-02
4.684000000000000341e+01,6.730220096974291744e-02
4.688000000000000256e+01,6.557109879063427460e-02
4.692000000000000171e+01,7.959169521610631737e-02
4.696000000000000085e+01,5.802251196621336510e-02
4.700000000000000000e+01,7.845918437289564618e-02
4.703999999999999915e+01,6.418120953124366312e-02
4.707999999999999829e+01,6.973890156202351698e-02
4.711999999999999744e+01,7.675434290507010537e-02
4.715999999999999659e+01,6.889160648728483161e-02
4.720000000000000284e+01,8.261480497256280808e-02
4.724000000000000199e+01,8.321009690421073135e-02
4.728000000000000114e+01,8.380456080822583365e-02
4.732000000000000028e+01,8.468990643476152769e-02
4.735999999999999943e+01,7.944844621932575790e-02
4.739999999999999858e+01,8.879179478273245552e-02
4.743999999999999773e+01,7.771439774156474467e-02
4.747999999999999687e+01,8.588920995367857469e-02
4.752000000000000313e+01,8.881234239771093608e-02
4.756000000000000227e+01,9.115119872467124240e-02
4.760000000000000142e+01,7.773670356835549189e-02
4.764000000000000057e+01,9.174236690730451504e-02
4.767999999999999972e+01,8.970295948311329814e-02
4.771999999999999886e+01,7.832787543385719142e-02
4.775999999999999801e+01,1.002071988846294920e-01
4.779999999999999716e+01,6.870218742191418204e-02
4.784000000000000341e+01,8.737092685606266673e-02
4.788000000000000256e+01,7.424208160113848765e-02
4.792000000000000171e+01,8.532453041152622542e-02
4.796000000000000085e+01,8.327901549001916204e-02
4.800000000000000000e+01,7.277294048762643353e-02
4.803999999999999915e+01,7.364278124499107347e-02
4.807999999999999829e+01,6.284321337436851729e-02
4.811999999999999744e+01,8.296432100085222860e-02
4.815999999999999659e+01,6.049444341349367871e-02
4.820000000000000284e+01,7.215407716406174732e-02
4.824000000000000199e+01,7.535313177432269305e-02
4.828000000000000114e+01,7.213359455477214022e-02
4.832000000000000028e+01,7.883138622536846329e-02
4.835999999999999943e+01,6.452493337682664587e-02
4.839999999999999858e+01,6.567834867304185587e-02
4.843999999999999773e+01,6.362200162712558504e-02
4.847999999999999687e+01,4.727079784700598253e-02
4.852000000000000313e+01,5.163028536295965337e-02
4.856000000000000227e+01,6.474023100274363396e-02
4.860000000000000142e+01,6.297188452516605528e-02
4.864000000000000057e+01,5.624348226226334041e-02
4.867999999999999972e+01,6.701691639519180566e-02
4.871999999999999886e+01,8.391537960515596528e-02
4.875999999999999801e+01,8.068470531045054961e-02
4.879999999999999716e+01,5.674146448105786555e-02
4.884000000000000341e+01,3.950666905243749999e-02
4.888000000000000256e+01,7.215382900313024872e-02
4.892000000000000171e+01,6.746077606617274791e-02
4.896000000000000085e+01,5.634907729770922968e-02
4.900000000000000000e+01,4.494470098236769129e-02
4.903999999999999915e+01,5.454268759440964592e-02
4.907999999999999829e+01,6.268113859953809708e-02
4.911999999999999744e+01,5.594125619189155296e-02
4.915999999999999659e+01,5.299266450521801508e-02
4.920000000000000284e+01,5.908619304397422223e-02
4.924000000000000199e+01,5.234336912731076680e-02
4.928000000000000114e+01,5.755978835017368234e-02
4.932000000000000028e+01,7.006804070841325671e-02
4.935999999999999943e+01,4.611118401690066787e-02
4.939999999999999858e+01,5.278318824552208355e-02
4.943999999999999773e+01,5.566192486430778658e-02
4.947999999999999687e+01,5.970651045099083232e-02
4.952000000000000313e+01,5.820754451435541932e-02
4.956000000000000227e+01,5.349872729162092472e-02
4.960000000000000142e+01,5.958227608895585309e-02
4.964000000000000057e+01,4.932888554448370405e-02
4.967999999999999972e+01,6.503692685657404271e-02
4.971999999999999886e+01,5.244779247804411126e-02
4.975999999999999801e+01,5.327642775381605245e-02
4.979999999999999716e+01,5.760458999871297114e-02
4.984000000000000341e+01,5.988973042841388983e-02
4.988000000000000256e+01,5.342244855170286133e-02
4.992000000000000171e+01,5.132982289457729830e-02
4.996000000000000085e+01,5.069472101322958918e-02
5.000000000000000000e+01,7.252047045519749435e-02
5.003999999999999915e+01,5.992304733278483453e-02
5.007999999999999829e+01,3.798976016766151403e-02
5.011999999999999744e+01,5.631180332629010660e-02
5.015999999999999659e+01,3.904381268393244259e-02
5.020000000000000284e+01,6.436484942597596459e-02
5.024000000000000199e+01,4.592788406562847009e-02
5.028000000000000114e+01,5.461915462018428896e-02
5.032000000000000028e+01,6.243421694759578727e-02
5.035999999999999943e+01,5.099515348769819573e-02
5.039999999999999858e+01,5.093181836991204220e-02
5.043999999999999773e+01,5.728508866336385480e-02
5.047999999999999687e+01,5.342732436823121461e-02
5.052000000000000313e+01,3.644139304070648233e-02
5.056000000000000227e+01,8.421464293945350732e-02
5.060000000000000142e+01,4.155579387088140231e-02
5.064000000000000057e+01,4.790362163235942911e-02
5.067999999999999972e+01,6.329345208616732332e-02
5.071999999999999886e+01,5.651199889629651002e-02
5.075999999999999801e+01,6.402337472664190732e-02
5.079999999999999716e+01,6.424081982307792982e-02
5.084000000000000341e+01,6.766599637108827725e-02
5.088000000000000256e+01,4.716959900879646311e-02
5.092000000000000171e+01,6.430305209833765689e-02
5.096000000000000085e+01,6.305747053218693776e-02
5.100000000000000000e+01,4.955882259497218500e-02
5.103999999999999915e+01,4.889441680836321275e-02
5.107999999999999829e+01,5.347971390097305128e-02
5.111999999999999744e+01,4.785392557987405704e-02
5.115999999999999659e+01,6.002148963397344744e-02
5.120000000000000284e+01,5.322657411951171175e-02
5.124000000000000199e+01,6.801727267451618264e-02
5.128000000000000114e+01,7.172173432935967374e-02
5.132000000000000028e+01,5.237972591179916593e-02
5.135999999999999943e+01,7.008410715035139071e-02
5.139999999999999858e+01,6.649228952370142554e-02
5.143999999999999773e+01,7.077556252765135336e-02
5.147999999999999687e+01,6.601457323565497470e-02
5.152000000000000313e+01,6.504468724698575510e-02
5.156000000000000227e+01,7.165816943248189130e-02
5.160000000000000142e+01,6.572682467163631914e-02
5.164000000000000057e+01,4.258324296029902117e-02
5.167999999999999972e+01,6.057000646664442017e-02
5.171999999999999886e+01,5.492684228143575320e-02
5.175999999999999801e+01,5.978415965477829747e-02
5.179999999999999716e+01,6.609885468166647182e-02
5.184000000000000341e+01,4.907532541401347231e-02
5.188000000000000256e+01,5.392907231742605223e-02
5.192000000000000171e+01,6.082361319812083778e-02
5.196000000000000085e+01,7.005065780625129024e-02
5.200000000000000000e+01,6.498256614199492132e-02
5.203999999999999915e+01,5.787127795117784357e-02
5.207999999999999829e+01,6.446928810031078705e-02
5.211999999999999744e+01,6.610696610250532679e-02
5.215999999999999659e+01,7.036884487600784943e-02
5.220000000000000284e+01,5.829358100720610780e-02
5.224000000000000199e+01,6.926241642723257597e-02
5.228000000000000114e+01,6.535266748543290538e-02
5.232000000000000028e+01,5.239858953971118088e-02
5.235999999999999943e+01,5.402892647811888965e-02
5.239999999999999858e+01,7.957848877924485198e-02
5.243999999999999773e+01,6.982954914160290072e-02
5.247999999999999687e+01,7.758214412561673101e-02
5.252000000000000313e+01,6.170474788667116434e-02
5.256000000000000227e+01,8.199850722655906143e-02
5.260000000000000142e+01,6.699375192139812862e-02
5.264000000000000057e+01,6.015570487645274800e-02
5.267999999999999972e+01,6.352635340221873816e-02
5.271999999999999886e+01,8.002282358936302353e-02
5.275999999999999801e+01,7.318099642084996415e-02
5.279999999999999716e+01,6.371248651749374103e-02
5.284000000000000341e+01,6.766150167252871217e-02
5.288000000000000256e+01,8.911201968351674385e-02
5.292000000000000171e+01,6.942973910241936886e-02
5.296000000000000085e+01,6.870751965775309666e-02
5.300000000000000000e+01,6.594202744883968792e-02
5.303999999999999915e+01,7.484376685512386662e-02
5.307999999999999829e+01,7.090884885524262327e-02
5.311999999999999744e+01,6.813949075536432365e-02
5.315999999999999659e+01,6.741082815908999715e-02
5.320000000000000284e+01,7.514054227777119954e-02
5.324000000000000199e+01,7.353414140469055615e-02
5.328000000000000114e+01,7.776069455291143018e-02
5.332000000000000028e+01,7.819367196398070707e-02
5.335999999999999943e+01,7.162422826736709880e-02
5.339999999999999858e+01,6.826231272183068410e-02
5.343999999999999773e+01,7.948472629302641423e-02
5.347999999999999687e+01,6.795221118374741853e-02
5.352000000000000313e+01,7.479628688546841042e-02
5.356000000000000227e+01,8.105560998457717048e-02
5.360000000000000142e+01,6.485170780022413151e-02
5.364000000000000057e+01,6.935809031094999910e-02
5.367999999999999972e+01,9.019906043932880702e-02
5.371999999999999886e+01,7.982540795282334900e-02
5.375999999999999801e+01,7.732666185584222140e-02
5.379999999999999716e+01,7.891055092440674157e-02
5.384000000000000341e+01,7.086656442593174121e-02
5.388000000000000256e+01,6.427979039934837713e-02
5.392000000000000171e+01,6.906846517669290586e-02
5.396000000000000085e+01,7.677291070640726578e-02
5.400000000000000000e+01,6.959863528177390180e-02
5.403999999999999915e+01,7.379979913135768788e-02
5.407999999999999829e+01,6.895649420792776541e-02
5.411999999999999744e+01,7.986431610643029977e-02
5.415999999999999659e+01,7.414312678396180190e-02
5.420000000000000284e+01,8.183935451649541892e-02
5.424000000000000199e+01,8.136623954990546137e-02
5.428000000000000114e+01,6.922322358693687450e-02
5.432000000000000028e+01,8.012414173114254523e-02
5.435999999999999943e+01,7.818830081893414496e-02
5.439999999999999858e+01,6.487426230736011157e-02
5.443999999999999773e+01,7.022845447239367545e-02
5.447999999999999687e+01,8.724976389609510885e-02
5.452000000000000313e+01,8.239120082866610573e-02
5.456000000000000227e+01,7.169697306334110731e-02
5.460000000000000142e+01,8.229637960885607950e-02
5.464000000000000057e+01,7.685016266800427653e-02
5.467999999999999972e+01,5.915058711162377025e-02
5.471999999999999886e+01,7.207944999153155508e-02
5.475999999999999801e+01,8.150633570448186094e-02
5.479999999999999716e+01,7.430415937133674764e-02
5.484000000000000341e+01,7.847735878100343954e-02
5.488000000000000256e+01,8.235741368796278827e-02
5.492000000000000171e+01,7.427580384669553448e-02
5.496000000000000085e+01,8.952979021420189032e-02
5.500000000000000000e+01,6.890164548899591068e-02
5.503999999999999915e+01,8.473617232199057159e-02
5.507999999999999829e+01,8.685874414013521061e-02
5.511999999999999744e+01,7.351908020651722053e-02
5.515999999999999659e+01,8.818240342640119855e-02
5.520000000000000284e+01,8.417464234742107199e-02
5.524000000000000199e+01,7.695657890936387358e-02
5.528000000000000114e+01,8.169728212529302203e-02
5.532000000000000028e+01,7.185087248677941851e-02
5.535999999999999943e+01,7.250465851549292573e-02
5.539999999999999858e+01,8.307521118141583671e-02
5.543999999999999773e+01,7.614151219594800235e-02
5.547999999999999687e+01,9.429364568418269199e-02
5.552000000000000313e+01,7.831388434463376624e-02
5.556000000000000227e+01,9.617133692735857498e-02
5.560000000000000142e+01,1.000250802730961730e-01
5.564000000000000057e+01,8.316571389063065478e-02
5.567999999999999972e+01,1.007269777541755090e-01
5.571999999999999886e+01,8.036406285967701013e-02
5.575999999999999801e+01,1.020063079528650690e-01
5.579999999999999716e+01,9.768459793054198870e-02
5.584000000000000341e+01,8.752712156007437516e-02
5.588000000000000256e+01,8.641123492780179716e-02
5.592000000000000171e+01,9.375350900370654772e-02
5.596000000000000085e+01,1.060533854905337248e-01
5.600000000000000000e+01,1.177683156039622259e-01
5.603999999999999915e+01,8.980876398644305203e-02
5.607999999999999829e+01,1.137725864526548808e-01
5.611999999999999744e+01,1.120641413175171019e-01
5.615999999999999659e+01,1.173552731975163882e-01
5.620000000000000284e+01,1.074757964850797248e-01
5.624000000000000199e+01,1.156809816501410126e-01
5.628000000000000114e+01,1.238846240592592768e-01
5.632000000000000028e+01,1.387961178505098814e-01
5.635999999999999943e+01,1.502055074119922340e-01
5.639999999999999858e+01,1.549039473731750882e-01
5.643999999999999773e+01,1.391809270014732758e-01
5.647999999999999687e+01,1.616707413917847780e-01
5.652000000000000313e+01,1.695733476305454901e-01
5.656000000000000227e+01,2.037285522825064144e-01
5.660000000000000142e+01,1.912081204901664722e-01
5.664000000000000057e+01,1.894794956415287723e-01
5.667999999999999972e+01,1.775393438359150755e-01
5.671999999999999886e+01,1.699733082329413780e-01
5.675999999999999801e+01,1.521957393198510033e-01
5.679999999999999716e+01,1.615458885407103640e-01
5.684000000000000341e+01,1.603927851715889474e-01
5.688000000000000256e+01,1.539872587169434925e-01
5.692000000000000171e+01,1.426210189269273843e-01
5.696000000000000085e+01,1.268774884784178159e-01
5.700000000000000000e+01,1.277599949189526518e-01
5.703999999999999915e+01,1.289326111754330872e-01
5.707999999999999829e+01,1.280616306574990648e-01
5.711999999999999744e+01,1.114365426325653469e-01
5.715999999999999659e+01,1.201888665921067162e-01
5.720000000000000284e+01,1.219384644932194062e-01
5.724000000000000199e+01,9.334829902143546021e-02
5.728000000000000114e+01,1.137642830690372975e-01
5.732000000000000028e+01,1.009233681233647067e-01
5.735999999999999943e+01,1.114178587922496494e-01
5.739999999999999858e+01,1.064499326448668098e-01
5.743999999999999773e+01,1.046892138149640994e-01
5.747999999999999687e+01,1.075942637595899143e-01
5.752000000000000313e+01,1.055385527202910845e-01
5.756000000000000227e+01,1.028977714213531736e-01
5.760000000000000142e+01,1.192166827766954623e-01
5.764000000000000057e+01,1.005283921658588903e-01
5.767999999999999972e+01,1.072174722440837336e-01
5.771999999999999886e+01,9.698554545985998976e-02
5.775999999999999801e+01,8.675195838659335856e-02
5.779999999999999716e+01,9.489462223130799845e-02
5.784000000000000341e+01,9.399251870540377418e-02
5.788000000000000256e+01,9.396388414091698393e-02
5.792000000000000171e+01,9.364186365438251225e-02
5.796000000000000085e+01,8.981761187526905721e-02
5.800000000000000000e+01,8.861709708820453280e-02
5.803999999999999915e+01,9.412429709075083306e-02
5.807999999999999829e+01,8.766958139601944977e-02
5.811999999999999744e+01,9.346511974550907043e-02
5.815999999999999659e+01,7.854734824286874195e-02
5.820000000000000284e+01,7.792181491837497920e-02
5.824000000000000199e+01,8.954652610839139437e-02
5.828000000000000114e+01,8.570875059759409942e-02
5.832000000000000028e+01,8.186927032577011321e-02
5.835999999999999943e+01,1.016568291809707286e-01
5.839999999999999858e+01,9.256309717635556600e-02
5.843999999999999773e+01,8.696820600168755910e-02
5.847999999999999687e+01,9.479039198900314489e-02
5.852000000000000313e+01,9.181747904366287238e-02
5.856000000000000227e+01,8.213344496322869115e-02
5.860000000000000142e+01,1.010355507047008411e-01
5.864000000000000057e+01,8.843093018642206316e-02
5.867999999999999972e+01,8.778480631365681575e-02
5.871999999999999886e+01,7.663528055210820644e-02
5.875999999999999801e+01,8.590391995792058533e-02
5.879999999999999716e+01,9.137854843645458469e-02
5.884000000000000341e+01,9.480944037148245074e-02
5.888000000000000256e+01,8.598664015110350778e-02
5.892000000000000171e+01,7.191125484011681723e-02
5.896000000000000085e+01,9.604850734378693466e-02
5.900000000000000000e+01,8.371988524427034783e-02
5.903999999999999915e+01,8.685028632181962527e-02
5.907999999999999829e+01,8.531151545592756402e-02
5.911999999999999744e+01,8.873009605190682048e-02
5.915999999999999659e+01,6.764301933409098966e-02
5.920000000000000284e+01,9.235309746632706929e-02
5.924000000000000199e+01,8.672325339715315773e-02
5.928000000000000114e+01,7.671593442841027899e-02
5.932000000000000028e+01,8.508474566797855076e-02
5.935999999999999943e+01,7.536556809882236085e-02
5.939999999999999858e+01,9.248218925982479299e-02
5.943999999999999773e+01,8.188428867707937819e-02
5.947999999999999687e+01,7.857741438086256192e-02
5.952000000000000313e+01,8.139471148770922870e-02
5.956000000000000227e+01,8.829418633398301852e-02
5.960000000000000142e+01,7.885593087245310051e-02
5.964000000000000057e+01,8.195952167219773543e-02
5.967999999999999972e+01,8.885356775493502557e-02
5.971999999999999886e+01,6.540765351741900657e-02
5.975999999999999801e+01,9.125940477865586431e-02
5.979999999999999716e+01,8.560433765960405450e-02
5.984000000000000341e+01,7.732202872934189342e-02
5.988000000000000256e+01,7.720585310007681279e-02
5.992000000000000171e+01,7.504585515990835898e-02
5.996000000000000085e+01,9.359564001671658029e-02
