2.003999999999999915e+01,2.582583773815971470e-02
2.007999999999999829e+01,4.721938971933235113e-02
2.012000000000000099e+01,2.449863954707344124e-02
2.016000000000000014e+01,2.893513197127648567e-02
2.019999999999999929e+01,3.607535283237815749e-02
2.023999999999999844e+01,2.441495538265907317e-02
2.028000000000000114e+01,3.475075444961936433e-02
2.032000000000000028e+01,3.365885166266736200e-02
2.035999999999999943e+01,3.244438773085610295e-02
2.039999999999999858e+01,3.233618137276932092e-02
2.044000000000000128e+01,2.657572289991100983e-02
2.048000000000000043e+01,2.732832684978918000e-02
2.051999999999999957e+01,4.565336998046977401e-02
2.055999999999999872e+01,3.559299242102109684e-02
2.060000000000000142e+01,3.511772356259198341e-02
2.064000000000000057e+01,3.341394852540045118e-02
2.067999999999999972e+01,2.568926922884699413e-02
2.071999999999999886e+01,2.939292515666124331e-02
2.076000000000000156e+01,2.621550092395555365e-02
2.080000000000000071e+01,3.532658367136898986e-02
2.083999999999999986e+01,2.588279651367399875e-02
2.087999999999999901e+01,1.766813646897710810e-02
2.092000000000000171e+01,2.616573141311126505e-02
2.096000000000000085e+01,4.646030128998389352e-02
2.100000000000000000e+01,3.124228449823441070e-02
2.103999999999999915e+01,3.199922773329990505e-02
2.107999999999999829e+01,3.779463413990471338e-02
2.112000000000000099e+01,3.081061623513546219e-02
2.116000000000000014e+01,2.837353152722799782e-02
2.119999999999999929e+01,2.753421156798604649e-02
2.123999999999999844e+01,3.075029483092863239e-02
2.128000000000000114e+01,3.310650125996267984e-02
2.132000000000000028e+01,2.858161301955386424e-02
2.135999999999999943e+01,3.388757774047038845e-02
2.139999999999999858e+01,3.808789856743654417e-02
2.144000000000000128e+01,2.791132111079946271e-02
2.148000000000000043e+01,3.395545623209633712e-02
2.151999999999999957e+01,2.697439272751552680e-02
2.155999999999999872e+01,3.314199034082709189e-02
2.160000000000000142e+01,4.361074580014535212e-02
2.164000000000000057e+01,4.707551632371387296e-02
2.167999999999999972e+01,3.407438876217928903e-02
2.171999999999999886e+01,4.552705991853524953e-02
2.176000000000000156e+01,3.793330943172063680e-02
2.180000000000000071e+01,5.122977830078087602e-02
2.183999999999999986e+01,4.904340074327964705e-02
2.187999999999999901e+01,4.673442265955648350e-02
2.192000000000000171e+01,3.004853385601030658e-02
2.196000000000000085e+01,4.039695903760882195e-02
2.200000000000000000e+01,4.644479341715040260e-02
2.203999999999999915e+01,4.118776335515226400e-02
2.207999999999999829e+01,4.293528216379859791e-02
2.212000000000000099e+01,2.870841938944788604e-02
2.216000000000000014e+01,1.583353254033591229e-02
2.219999999999999929e+01,3.822604581632527143e-02
2.223999999999999844e+01,3.493649833627372053e-02
2.228000000000000114e+01,2.894381848111953273e-02
2.232000000000000028e+01,3.425655042077340590e-02
2.235999999999999943e+01,3.440850840275092026e-02
2.239999999999999858e+01,3.517514423889618602e-02
2.244000000000000128e+01,3.692510281933807786e-02
2.248000000000000043e+01,3.683209767137388124e-02
2.251999999999999957e+01,2.088758255238955600e-02
2.255999999999999872e+01,3.111719204482049292e-02
2.260000000000000142e+01,3.102497839073680916e-02
2.264000000000000057e+01,3.990341070627097253e-02
2.267999999999999972e+01,3.157862717494957366e-02
2.271999999999999886e+01,4.033469792311569768e-02
2.276000000000000156e+01,4.540456805601120888e-02
2.280000000000000071e+01,5.096622370406436037e-02
2.283999999999999986e+01,5.628237197796253505e-02
2.287999999999999901e+01,5.852672640500270612e-02
2.292000000000000171e+01,7.453411659144676404e-02
2.296000000000000085e+01,7.223234589713199705e-02
2.300000000000000000e+01,7.595204443342555567e-02
2.303999999999999915e+01,7.057872817827169631e-02
2.307999999999999829e+01,6.704889191424268091e-02
2.312000000000000099e+01,4.152343135924243395e-02
2.316000000000000014e+01,4.327801764982444621e-02
2.319999999999999929e+01,4.761337267543763047e-02
2.323999999999999844e+01,4.482181933574160698e-02
2.328000000000000114e+01,3.883557981017756594e-02
2.332000000000000028e+01,3.432416813114809451e-02
2.335999999999999943e+01,3.386810474766550894e-02
2.339999999999999858e+01,3.451822121153359096e-02
2.344000000000000128e+01,3.652028043738769075e-02
2.348000000000000043e+01,3.139542507982262531e-02
2.351999999999999957e+01,2.995726794591735409e-02
2.355999999999999872e+01,2.716764700408551281e-02
2.360000000000000142e+01,2.511555480136540633e-02
2.364000000000000057e+01,2.822474141917252766e-02
2.367999999999999972e+01,2.076631295798333013e-02
2.371999999999999886e+01,1.945221704856635314e-02
2.376000000000000156e+01,3.386724674306507837e-02
2.380000000000000071e+01,2.210864736183436666e-02
2.383999999999999986e+01,1.010451469765732101e-02
2.387999999999999901e+01,2.427447244529109052e-02
2.392000000000000171e+01,1.915218863577810432e-02
2.396000000000000085e+01,2.324628054726560547e-02
2.400000000000000000e+01,1.726427699091776999e-02
2.403999999999999915e+01,1.349437447973590894e-02
2.407999999999999829e+01,2.889428459547542863e-02
2.412000000000000099e+01,2.254430846243938788e-02
2.416000000000000014e+01,2.061830582439790407e-02
2.419999999999999929e+01,1.906117045371278837e-02
2.423999999999999844e+01,1.762713736304544893e-02
2.428000000000000114e+01,1.975690082986297433e-02
2.432000000000000028e+01,8.001219297732594174e-03
2.435999999999999943e+01,1.873315647638727766e-02
2.439999999999999858e+01,1.557964658339076186e-02
2.444000000000000128e+01,2.127385404869434546e-02
2.448000000000000043e+01,1.640042570796862789e-02
2.451999999999999957e+01,2.307811611369732854e-02
2.455999999999999872e+01,8.988964674730533927e-03
2.460000000000000142e+01,1.173485485573663722e-02
2.464000000000000057e+01,2.013352585045272147e-02
2.467999999999999972e+01,1.599844424948487082e-02
2.471999999999999886e+01,1.505850187965316993e-02
2.476000000000000156e+01,2.554679006267242258e-02
2.480000000000000071e+01,2.939965736464212123e-02
2.483999999999999986e+01,2.231623360693721358e-02
2.487999999999999901e+01,1.511013159663654806e-02
2.492000000000000171e+01,1.318815721910380177e-02
2.496000000000000085e+01,2.797833315888545794e-02
2.500000000000000000e+01,1.389144547153059288e-02
2.503999999999999915e+01,1.713111590625457717e-02
2.507999999999999829e+01,1.656164364181856793e-02
2.512000000000000099e+01,1.808136246556052429e-02
2.516000000000000014e+01,9.156309840788740342e-03
2.519999999999999929e+01,1.510017168281856635e-02
2.523999999999999844e+01,2.264169360199709546e-02
2.528000000000000114e+01,2.342490022841287739e-02
2.532000000000000028e+01,1.732690855022066267e-02
2.535999999999999943e+01,1.700456100690225791e-02
2.539999999999999858e+01,1.348747235107841322e-02
2.544000000000000128e+01,1.599178970841227607e-02
2.548000000000000043e+01,1.997087894929137908e-02
2.551999999999999957e+01,1.153907580659545989e-02
2.555999999999999872e+01,1.809905977902985172e-02
2.560000000000000142e+01,1.458290682956293709e-02
2.564000000000000057e+01,2.728735867745824689e-02
2.567999999999999972e+01,2.647497621693013087e-02
2.571999999999999886e+01,2.222208040209629545e-02
2.576000000000000156e+01,2.005835909381392668e-02
2.580000000000000071e+01,1.211936482414557523e-02
2.583999999999999986e+01,2.076961609656177710e-02
2.587999999999999901e+01,1.676320170725099923e-02
2.592000000000000171e+01,1.890106287037160090e-02
2.596000000000000085e+01,1.981028001996003665e-02
2.600000000000000000e+01,1.427201722116013807e-03
2.603999999999999915e+01,1.302749911339301341e-02
2.607999999999999829e+01,9.513486151314172815e-03
2.612000000000000099e+01,2.160565567291024280e-02
2.616000000000000014e+01,1.833774881746009014e-02
2.619999999999999929e+01,2.207428408843440867e-02
2.623999999999999844e+01,1.339990832150391060e-02
2.628000000000000114e+01,2.500122596159575980e-02
2.632000000000000028e+01,1.337801664764890971e-02
2.635999999999999943e+01,1.772962952574767825e-02
2.639999999999999858e+01,1.089914697547029673e-02
2.644000000000000128e+01,1.697143515719690479e-02
2.648000000000000043e+01,1.628537695561112567e-02
2.651999999999999957e+01,2.923937926628729714e-02
2.655999999999999872e+01,1.700273679691834475e-02
2.660000000000000142e+01,2.627059919869386903e-02
2.664000000000000057e+01,2.005549081170981268e-02
2.667999999999999972e+01,2.047616618844989161e-02
2.671999999999999886e+01,1.745630230209304842e-02
2.676000000000000156e+01,2.328409566564048835e-02
2.680000000000000071e+01,1.338315014403466431e-02
2.683999999999999986e+01,1.749090277035819999e-02
2.687999999999999901e+01,1.508606260083988383e-02
2.692000000000000171e+01,2.337210516822226664e-02
2.696000000000000085e+01,2.821760225439772646e-02
2.700000000000000000e+01,2.360133602383176696e-02
2.703999999999999915e+01,1.959962743064209284e-02
2.707999999999999829e+01,1.805570507088009174e-02
2.712000000000000099e+01,2.486790273188333594e-02
2.716000000000000014e+01,2.750225787696028781e-02
2.719999999999999929e+01,3.370033392585169291e-02
2.723999999999999844e+01,2.515271549366994777e-02
2.728000000000000114e+01,2.422392108388581045e-02
2.732000000000000028e+01,3.005377583169288602e-02
2.735999999999999943e+01,4.497703623511657006e-02
2.739999999999999858e+01,3.630709577652645181e-02
2.744000000000000128e+01,3.759073272930430615e-02
2.748000000000000043e+01,4.563301469426683105e-02
2.751999999999999957e+01,4.175588036004582865e-02
2.755999999999999872e+01,4.242551340642258806e-02
2.760000000000000142e+01,5.882417256695667701e-02
2.764000000000000057e+01,8.050688888834642287e-02
2.767999999999999972e+01,7.404976400000017056e-02
2.771999999999999886e+01,8.332166211675638701e-02
2.776000000000000156e+01,8.325465920158323097e-02
2.780000000000000071e+01,9.867091326782202743e-02
2.783999999999999986e+01,7.709981974338417365e-02
2.787999999999999901e+01,9.067309720661974326e-02
2.792000000000000171e+01,8.175909811471179789e-02
2.796000000000000085e+01,9.680720816786274330e-02
2.800000000000000000e+01,1.073088080152221208e-01
2.803999999999999915e+01,1.227258087334400782e-01
2.807999999999999829e+01,1.166385845550561573e-01
2.812000000000000099e+01,1.395516263715592675e-01
2.816000000000000014e+01,1.536172846945906834e-01
2.819999999999999929e+01,1.730898676450481621e-01
2.823999999999999844e+01,1.808887795929795539e-01
2.828000000000000114e+01,1.765224916000589506e-01
2.832000000000000028e+01,1.794063547579125006e-01
2.835999999999999943e+01,1.757775867749131471e-01
2.839999999999999858e+01,1.680938261245798759e-01
2.844000000000000128e+01,1.451728120006498535e-01
2.848000000000000043e+01,1.232349641319173128e-01
2.851999999999999957e+01,9.724212048679591047e-02
2.855999999999999872e+01,9.754612797583571415e-02
2.860000000000000142e+01,7.511707734076694676e-02
2.864000000000000057e+01,7.124331131106360904e-02
2.867999999999999972e+01,6.392895523703250038e-02
2.871999999999999886e+01,4.887313894004837594e-02
2.876000000000000156e+01,4.106746239397016107e-02
2.880000000000000071e+01,3.916022283201738702e-02
2.883999999999999986e+01,3.823614019809726261e-02
2.887999999999999901e+01,3.153670480371398299e-02
2.892000000000000171e+01,3.614251020611646686e-02
2.896000000000000085e+01,3.620178053028776793e-02
2.900000000000000000e+01,2.962552115648637782e-02
2.903999999999999915e+01,1.260438980806104052e-02
2.907999999999999829e+01,2.224874204770602854e-02
2.912000000000000099e+01,2.439738765186858643e-02
2.916000000000000014e+01,9.711295446688795324e-03
2.919999999999999929e+01,1.689828667627675529e-02
2.923999999999999844e+01,1.818703384274322765e-02
2.928000000000000114e+01,2.045892653737413011e-02
2.932000000000000028e+01,1.486646148828377548e-02
2.935999999999999943e+01,1.357495323297985834e-02
2.939999999999999858e+01,1.744457456356542091e-02
2.944000000000000128e+01,1.504730072279056655e-02
2.948000000000000043e+01,1.449334105687674970e-02
2.951999999999999957e+01,1.750304218638151776e-02
2.955999999999999872e+01,1.621195664336747347e-02
2.960000000000000142e+01,5.336158445261189598e-03
2.964000000000000057e+01,1.203256313978094509e-02
2.967999999999999972e+01,1.233918446933690224e-02
2.971999999999999886e+01,5.764493495603321277e-03
2.976000000000000156e+01,1.368995291810258357e-02
2.980000000000000071e+01,1.043322882233546633e-02
2.983999999999999986e+01,1.823595773627912503e-02
2.987999999999999901e+01,6.623408701186572246e-03
2.992000000000000171e+01,1.400795534347434607e-03
2.996000000000000085e+01,3.919818929838764406e-03
3.000000000000000000e+01,1.823558304259545113e-02
3.003999999999999915e+01,9.818251722584074234e-03
3.007999999999999829e+01,4.179335958076734327e-04
3.012000000000000099e+01,9.204215802905181543e-03
3.016000000000000014e+01,2.630317997791497501e-03
3.019999999999999929e+01,5.887044120288399164e-03
3.023999999999999844e+01,1.172435657992599092e-02
3.028000000000000114e+01,1.031169630087038110e-02
3.032000000000000028e+01,9.117703938086093186e-04
3.035999999999999943e+01,3.308575876847378791e-03
3.039999999999999858e+01,7.425789723165549493e-03
3.044000000000000128e+01,7.979485950189777257e-03
3.048000000000000043e+01,1.529174946302479764e-02
3.051999999999999957e+01,2.451426592236070120e-03
3.055999999999999872e+01,1.480196525858421680e-02
3.060000000000000142e+01,1.154654856186605565e-02
3.064000000000000057e+01,5.956428819030807308e-03
3.067999999999999972e+01,1.253167810196350977e-02
3.071999999999999886e+01,4.238260765735939704e-03
3.076000000000000156e+01,0.000000000000000000e+00
3.080000000000000071e+01,4.609291812651674855e-03
3.083999999999999986e+01,9.095750956311682289e-03
3.087999999999999901e+01,1.333649441913485958e-02
3.092000000000000171e+01,1.081877646361248391e-02
3.096000000000000085e+01,6.580757048627546013e-03
3.100000000000000000e+01,1.512250824606499802e-02
3.103999999999999915e+01,7.198118852113061412e-03
3.107999999999999829e+01,8.981448610541968927e-03
3.112000000000000099e+01,1.309957795538822627e-02
3.116000000000000014e+01,1.463722683055901017e-02
3.119999999999999929e+01,9.047761106442068352e-03
3.123999999999999844e+01,1.144566273238993570e-02
3.128000000000000114e+01,2.944961315264972915e-02
3.132000000000000028e+01,1.280088335401629793e-02
3.135999999999999943e+01,1.532177756630383365e-02
3.139999999999999858e+01,2.570715300775598330e-02
3.144000000000000128e+01,1.446533452357410057e-02
3.148000000000000043e+01,2.755417991198647054e-02
3.151999999999999957e+01,3.781677155257149453e-02
3.155999999999999872e+01,2.964709752129924755e-02
3.160000000000000142e+01,4.027839535635752838e-02
3.164000000000000057e+01,3.284607137333578342e-02
3.167999999999999972e+01,3.364686729149771183e-02
3.171999999999999886e+01,4.341807392745284516e-02
3.176000000000000156e+01,4.950284676901606229e-02
3.180000000000000071e+01,5.116389292687444773e-02
3.183999999999999986e+01,4.250287654098689610e-02
3.187999999999999901e+01,3.666816795280950642e-02
3.192000000000000171e+01,3.808351724375766412e-02
3.196000000000000085e+01,4.699468732846676794e-02
3.200000000000000000e+01,2.678284847351336539e-02
3.203999999999999915e+01,4.282121060510352129e-02
3.207999999999999829e+01,2.482128270458672584e-02
3.211999999999999744e+01,2.513078529585483986e-02
3.215999999999999659e+01,2.679200472444916506e-02
3.220000000000000284e+01,2.366084117934161291e-02
3.224000000000000199e+01,1.893222498701226456e-02
3.228000000000000114e+01,2.169942129763062152e-02
3.232000000000000028e+01,2.102593325592098591e-02
3.235999999999999943e+01,2.035245513935047754e-02
3.239999999999999858e+01,2.484002888229568454e-02
3.243999999999999773e+01,2.121740009510383190e-02
3.247999999999999687e+01,1.968377170738614887e-02
3.252000000000000313e+01,7.950945133438070550e-03
3.256000000000000227e+01,1.612500333282263290e-02
3.260000000000000142e+01,1.655750078314409401e-02
3.264000000000000057e+01,1.047725620298609224e-02
3.267999999999999972e+01,1.127840388479167157e-02
3.271999999999999886e+01,1.318548994401328583e-02
3.275999999999999801e+01,1.693580519726049088e-02
3.279999999999999716e+01,1.699965971097280176e-02
3.284000000000000341e+01,1.337705244879856988e-02
3.288000000000000256e+01,2.462316067390906901e-02
3.292000000000000171e+01,1.166151514301035953e-02
3.296000000000000085e+01,5.583998259646710816e-02
3.300000000000000000e+01,8.588701621168075284e-02
3.303999999999999915e+01,5.350999858334260645e-02
3.307999999999999829e+01,1.818380481396918852e-02
3.311999999999999744e+01,2.058236775556701592e-02
3.315999999999999659e+01,3.442685791799860069e-03
3.320000000000000284e+01,3.629350534374801290e-03
3.324000000000000199e+01,9.714337226041971571e-03
3.328000000000000114e+01,1.395608037435741230e-02
3.332000000000000028e+01,1.451134931056646642e-02
3.335999999999999943e+01,7.447919782524597097e-03
3.339999999999999858e+01,1.635913004863779815e-02
3.343999999999999773e+01,1.728299385131614949e-02
3.347999999999999687e+01,1.611784497789743587e-02
3.352000000000000313e+01,1.372385622048470817e-02
3.356000000000000227e+01,1.698241717036395523e-02
3.360000000000000142e+01,1.532567689874000764e-02
3.364000000000000057e+01,1.821554648226298562e-02
3.367999999999999972e+01,1.397823721269591396e-02
3.371999999999999886e+01,1.539347350501424870e-02
3.375999999999999801e+01,2.196972642089217026e-02
3.379999999999999716e+01,1.490605267346804992e-02
3.384000000000000341e+01,1.927037422707025827e-02
3.388000000000000256e+01,1.368122630947303173e-02
3.392000000000000171e+01,2.590993434586228231e-02
3.396000000000000085e+01,1.688002909294409812e-02
3.400000000000000000e+01,2.480780389285445336e-02
3.403999999999999915e+01,1.295154703667643001e-02
3.407999999999999829e+01,1.657838445470121574e-02
3.411999999999999744e+01,2.462893731615964713e-02
3.415999999999999659e+01,2.420059715787937701e-02
3.420000000000000284e+01,2.954767210075821132e-02
3.424000000000000199e+01,2.653873392668864087e-02
3.428000000000000114e+01,2.893656285459424854e-02
3.432000000000000028e+01,3.158011487739518369e-02
3.435999999999999943e+01,1.726591238964573019e-02
3.439999999999999858e+01,2.519330453743002379e-02
3.443999999999999773e+01,4.368850261251119166e-02
3.447999999999999687e+01,2.949705020481517906e-02
3.452000000000000313e+01,2.550475572523216994e-02
3.456000000000000227e+01,2.569040133822747540e-02
3.460000000000000142e+01,2.661329069363070621e-02
3.464000000000000057e+01,2.802765880410312826e-02
3.467999999999999972e+01,3.263690809415067950e-02
3.471999999999999886e+01,2.975030565948475619e-02
3.475999999999999801e+01,2.710941491984598592e-02
3.479999999999999716e+01,3.466767485385859049e-02
3.484000000000000341e+01,3.227244044423218522e-02
3.488000000000000256e+01,2.422457979688855123e-02
3.492000000000000171e+01,2.244364349834845548e-02
3.496000000000000085e+01,2.643810261028607667e-02
3.500000000000000000e+01,2.895791954223155343e-02
3.503999999999999915e+01,2.619375201753382926e-02
3.507999999999999829e+01,3.276855408357127325e-02
3.511999999999999744e+01,1.857624070807752104e-02
3.515999999999999659e+01,3.141789932168381067e-02
3.520000000000000284e+01,4.217050069607203994e-02
3.524000000000000199e+01,4.690182057909768332e-02
3.528000000000000114e+01,4.266269052256430050e-02
3.532000000000000028e+01,4.260148086792794886e-02
3.535999999999999943e+01,5.556569281437107738e-02
3.539999999999999858e+01,5.648740232486201135e-02
3.543999999999999773e+01,6.097261925072739591e-02
3.547999999999999687e+01,7.172474601647312042e-02
3.552000000000000313e+01,6.060380919772941771e-02
3.556000000000000227e+01,5.906759348448809011e-02
3.560000000000000142e+01,5.642536597246047142e-02
3.564000000000000057e+01,5.660934884108784204e-02
3.567999999999999972e+01,5.482714400977081737e-02
3.571999999999999886e+01,4.382871388803968177e-02
3.575999999999999801e+01,4.401246537146857180e-02
3.579999999999999716e+01,5.365804976679638266e-02
3.584000000000000341e+01,4.806618896347211733e-02
3.588000000000000256e+01,5.205904097483703835e-02
3.592000000000000171e+01,5.814080425943415897e-02
3.596000000000000085e+01,4.787918145688256633e-02
3.600000000000000000e+01,6.342268912511106471e-02
3.603999999999999915e+01,4.824561750074449207e-02
3.607999999999999829e+01,5.309822142625889030e-02
3.611999999999999744e+01,5.340410476659669670e-02
3.615999999999999659e+01,6.304892971617505337e-02
3.620000000000000284e+01,5.733341816444294942e-02
3.624000000000000199e+01,6.501195134053454339e-02
3.628000000000000114e+01,5.302927680033891339e-02
3.632000000000000028e+01,7.471617087169606097e-02
3.635999999999999943e+01,7.612744527659492944e-02
3.639999999999999858e+01,6.266990590039919762e-02
3.643999999999999773e+01,5.707671717306019715e-02
3.647999999999999687e+01,5.664447459736852292e-02
3.652000000000000313e+01,5.596637021525727868e-02
3.656000000000000227e+01,7.531792894680713890e-02
3.660000000000000142e+01,5.731326720018832532e-02
3.664000000000000057e+01,6.167302402890431634e-02
3.667999999999999972e+01,6.185469169000128165e-02
3.671999999999999886e+01,7.174393237789630784e-02
3.675999999999999801e+01,5.853125759946536943e-02
3.679999999999999716e+01,5.416597994667449179e-02
3.684000000000000341e+01,5.385570133892435274e-02
3.688000000000000256e+01,4.555798714149750933e-02
3.692000000000000171e+01,4.770513264207158766e-02
3.696000000000000085e+01,5.697932346596970565e-02
3.700000000000000000e+01,5.298215064491437060e-02
3.703999999999999915e+01,5.353149958911565531e-02
3.707999999999999829e+01,5.580108382587074117e-02
3.711999999999999744e+01,4.615100303904621365e-02
3.715999999999999659e+01,4.645424783013864245e-02
3.720000000000000284e+01,5.830828284421225166e-02
3.724000000000000199e+01,5.799688577466426131e-02
3.728000000000000114e+01,5.498196769814474999e-02
3.732000000000000028e+01,5.258134091662736154e-02
3.735999999999999943e+01,5.644757526646283774e-02
3.739999999999999858e+01,6.522896798087060577e-02
3.743999999999999773e+01,6.811190418006855818e-02
3.747999999999999687e+01,5.821499220006733782e-02
3.752000000000000313e+01,5.237306164712880047e-02
3.756000000000000227e+01,6.471753866665719279e-02
3.760000000000000142e+01,6.624827600582793019e-02
3.764000000000000057e+01,7.023652598159049742e-02
3.767999999999999972e+01,6.083051271892806616e-02
3.771999999999999886e+01,7.366600807461236300e-02
3.775999999999999801e+01,6.204786032475068103e-02
3.779999999999999716e+01,6.529830059092071870e-02
3.784000000000000341e+01,6.572232336570266176e-02
3.788000000000000256e+01,7.462506935814944287e-02
3.792000000000000171e+01,8.770566838963593514e-02
3.796000000000000085e+01,8.554876729583293926e-02
3.800000000000000000e+01,8.142561839368983589e-02
3.803999999999999915e+01,8.701000831874032559e-02
3.807999999999999829e+01,9.714089306390455425e-02
3.811999999999999744e+01,1.105894518378955499e-01
3.815999999999999659e+01,1.129784924716187161e-01
3.820000000000000284e+01,1.142614539436982990e-01
3.824000000000000199e+01,1.328706315418120287e-01
3.828000000000000114e+01,1.380855303562259495e-01
3.832000000000000028e+01,1.591520595180483666e-01
3.835999999999999943e+01,1.898032372407576218e-01
3.839999999999999858e+01,1.996872145411003607e-01
3.843999999999999773e+01,2.383254265066172273e-01
3.847999999999999687e+01,2.788067194678736649e-01
3.852000000000000313e+01,3.179361610256861703e-01
3.856000000000000227e+01,3.903664672328784890e-01
3.860000000000000142e+01,4.790170424594982768e-01
3.864000000000000057e+01,6.104303923757963268e-01
3.867999999999999972e+01,7.627335243075727966e-01
3.871999999999999886e+01,9.276933448604094412e-01
3.875999999999999801e+01,1.000000000000000000e+00
3.879999999999999716e+01,9.592550807580670913e-01
3.884000000000000341e+01,9.164210099689160671e-01
3.888000000000000256e+01,7.928533222803364477e-01
3.892000000000000171e+01,6.390565085838169068e-01
3.896000000000000085e+01,5.290055170901107884e-01
3.900000000000000000e+01,4.269416918942490202e-01
3.903999999999999915e+01,3.538778497692737224e-01
3.907999999999999829e+01,2.969113822520126900e-01
3.911999999999999744e+01,2.683304858554671490e-01
3.915999999999999659e+01,2.425757086406312990e-01
3.920000000000000284e+01,2.208758693260888806e-01
3.924000000000000199e+01,2.015106192185787126e-01
3.928000000000000114e+01,1.882892985220486759e-01
3.932000000000000028e+01,1.719957580381323570e-01
3.935999999999999943e+01,1.794182673880674872e-01
3.939999999999999858e+01,1.682854259657283469e-01
3.943999999999999773e+01,1.678431429022232135e-01
3.947999999999999687e+01,1.836211060584093946e-01
3.952000000000000313e+01,1.829327089166563336e-01
3.956000000000000227e+01,1.757313904555881934e-01
3.960000000000000142e+01,1.836443773257146750e-01
3.964000000000000057e+01,1.953665267452792675e-01
3.967999999999999972e+01,2.064740865601633613e-01
3.971999999999999886e+01,2.201619870968470061e-01
3.975999999999999801e+01,2.377819290494073701e-01
3.979999999999999716e+01,2.480287696360881367e-01
3.984000000000000341e+01,2.667542826592029237e-01
3.988000000000000256e+01,2.943271130088807030e-01
3.992000000000000171e+01,3.307472596487697203e-01
3.996000000000000085e+01,3.680273931354390848e-01
4.000000000000000000e+01,4.231252250506440937e-01
4.003999999999999915e+01,4.772398121075229760e-01
4.007999999999999829e+01,5.172227818919167275e-01
4.011999999999999744e+01,5.999684880209776860e-01
4.015999999999999659e+01,6.619469481281993195e-01
4.020000000000000284e+01,7.094251419274002490e-01
4.024000000000000199e+01,7.368733794850198526e-01
4.028000000000000114e+01,7.541222178041888657e-01
4.032000000000000028e+01,7.206206039356910509e-01
4.035999999999999943e+01,7.137841814040981614e-01
4.039999999999999858e+01,6.361675426066897288e-01
4.043999999999999773e+01,5.965212348188876357e-01
4.047999999999999687e+01,5.351246169144849851e-01
4.052000000000000313e+01,4.804863061716288519e-01
4.056000000000000227e+01,4.154028249848735199e-01
4.060000000000000142e+01,3.567090029604809143e-01
4.064000000000000057e+01,3.168159185869456329e-01
4.067999999999999972e+01,2.715158216556910475e-01
4.071999999999999886e+01,2.285502755864577129e-01
4.075999999999999801e+01,2.029108803531045613e-01
4.079999999999999716e+01,1.754280467422892897e-01
4.084000000000000341e+01,1.630594863357673618e-01
4.088000000000000256e+01,1.356991141012724444e-01
4.092000000000000171e+01,1.369700303026558375e-01
4.096000000000000085e+01,1.163677419757252890e-01
4.100000000000000000e+01,1.133373622175520568e-01
4.103999999999999915e+01,1.064974262559104379e-01
4.107999999999999829e+01,1.096107143097240361e-01
4.111999999999999744e+01,1.027703453126893873e-01
4.115999999999999659e+01,9.371788268454732396e-02
4.120000000000000284e+01,8.810589626164842814e-02
4.124000000000000199e+01,8.531997513017343382e-02
4.128000000000000114e+01,7.516091428780781458e-02
4.132000000000000028e+01,7.901017643407393098e-02
4.135999999999999943e+01,7.044813580151136623e-02
4.139999999999999858e+01,6.901302545723965454e-02
4.143999999999999773e+01,7.224720485503653700e-02
4.147999999999999687e+01,7.400657418387392161e-02
4.152000000000000313e+01,6.507498424538542270e-02
4.156000000000000227e+01,5.737198562609176211e-02
4.160000000000000142e+01,5.667303013783715759e-02
4.164000000000000057e+01,5.437637845972285999e-02
4.167999999999999972e+01,5.343119696724200895e-02
4.171999999999999886e+01,5.998158339871938888e-02
4.175999999999999801e+01,4.318416086892747086e-02
4.179999999999999716e+01,5.415783014682279406e-02
4.184000000000000341e+01,5.419476791559200285e-02
4.188000000000000256e+01,5.349417710484633687e-02
4.192000000000000171e+01,4.738654160948008870e-02
4.196000000000000085e+01,5.160075325631331700e-02
4.200000000000000000e+01,4.782739666045853627e-02
4.203999999999999915e+01,4.429956314363052428e-02
4.207999999999999829e+01,4.716135044415412786e-02
4.211999999999999744e+01,4.535337973126002398e-02
4.215999999999999659e+01,3.998158774803840104e-02
4.220000000000000284e+01,3.092309148264398011e-02
4.224000000000000199e+01,2.911438571764924516e-02
4.228000000000000114e+01,3.000883632344202370e-02
4.232000000000000028e+01,4.048783289130822999e-02
4.235999999999999943e+01,2.995376248700747090e-02
4.239999999999999858e+01,2.580930460924513517e-02
4.243999999999999773e+01,2.571970068729241901e-02
4.247999999999999687e+01,3.386293685157777678e-02
4.252000000000000313e+01,3.598470290850013659e-02
4.256000000000000227e+01,3.233076177269486595e-02
4.260000000000000142e+01,3.101132279038329095e-02
4.264000000000000057e+01,2.760263380744667344e-02
4.267999999999999972e+01,2.763438268474220638e-02
4.271999999999999886e+01,2.606840739068353938e-02
4.275999999999999801e+01,2.437929059484135810e-02
4.279999999999999716e+01,2.797383818257927202e-02
4.284000000000000341e+01,3.242829799977863664e-02
4.288000000000000256e+01,3.135280628442423806e-02
4.292000000000000171e+01,3.052281484836032871e-02
4.296000000000000085e+01,3.079849648368995080e-02
4.300000000000000000e+01,2.652727928135912780e-02
4.303999999999999915e+01,3.245499926423965620e-02
4.307999999999999829e+01,3.789092352804290104e-02
4.311999999999999744e+01,2.919515175663545820e-02
4.315999999999999659e+01,2.430845133572092157e-02
4.320000000000000284e+01,2.740880839572766917e-02
4.324000000000000199e+01,2.485632262052224137e-02
4.328000000000000114e+01,2.426967545435189735e-02
4.332000000000000028e+01,3.400484019442488043e-02
4.335999999999999943e+01,3.845580491671142520e-02
4.339999999999999858e+01,2.951235820228683901e-02
4.343999999999999773e+01,2.769578892221891825e-02
4.347999999999999687e+01,3.239168616268838646e-02
4.352000000000000313e+01,3.278643504391297314e-02
4.356000000000000227e+01,3.821906466704926009e-02
4.360000000000000142e+01,3.554120261793797947e-02
4.364000000000000057e+01,3.630375355661923792e-02
4.367999999999999972e+01,3.890925076532549681e-02
4.371999999999999886e+01,4.372633913418566554e-02
4.375999999999999801e+01,4.694567638654874309e-02
4.379999999999999716e+01,4.500368419675067344e-02
4.384000000000000341e+01,4.453598820509042933e-02
4.388000000000000256e+01,4.492817749774870306e-02
4.392000000000000171e+01,5.478198932292086681e-02
4.396000000000000085e+01,5.713971002614827432e-02
4.400000000000000000e+01,5.888272919871689881e-02
4.403999999999999915e+01,5.546441271101443249e-02
4.407999999999999829e+01,5.634667163969108578e-02
4.411999999999999744e+01,6.116085902191460005e-02
4.415999999999999659e+01,5.970776985537035869e-02
4.420000000000000284e+01,5.948320360881201307e-02
4.424000000000000199e+01,5.815240171151080800e-02
4.428000000000000114e+01,7.058408216183223449e-02
4.432000000000000028e+01,7.085014709428991142e-02
4.435999999999999943e+01,7.934900340445805167e-02
4.439999999999999858e+01,8.256363275169679994e-02
4.443999999999999773e+01,9.044747411463030518e-02
4.447999999999999687e+01,8.161906272103293392e-02
4.452000000000000313e+01,8.176073041270055797e-02
4.456000000000000227e+01,8.325379367268276321e-02
4.460000000000000142e+01,8.572960553814729101e-02
4.464000000000000057e+01,7.124739655068726418e-02
4.467999999999999972e+01,7.101918744930740823e-02
4.471999999999999886e+01,6.722709075109434274e-02
4.475999999999999801e+01,5.851940368926760588e-02
4.479999999999999716e+01,6.185383784558255715e-02
4.484000000000000341e+01,6.039556154107408870e-02
4.488000000000000256e+01,6.274631202393758656e-02
4.492000000000000171e+01,5.588059885550726580e-02
4.496000000000000085e+01,5.933665510290264677e-02
4.500000000000000000e+01,5.492794735672973383e-02
4.503999999999999915e+01,6.305288251256278842e-02
4.507999999999999829e+01,7.326649161710011016e-02
4.511999999999999744e+01,7.082293657476654292e-02
4.515999999999999659e+01,7.870114576650044658e-02
4.520000000000000284e+01,8.547309443505192450e-02
4.524000000000000199e+01,9.285912920097874612e-02
4.528000000000000114e+01,1.033168885377998281e-01
4.532000000000000028e+01,1.048039378107976372e-01
4.535999999999999943e+01,1.152610444056758471e-01
4.539999999999999858e+01,1.292814003643674992e-01
4.543999999999999773e+01,1.279411804245174644e-01
4.547999999999999687e+01,1.226684072706722139e-01
4.552000000000000313e+01,1.257512774158330848e-01
4.556000000000000227e+01,1.432110066228314271e-01
4.560000000000000142e+01,1.298270268736967381e-01
4.564000000000000057e+01,1.202520542212526383e-01
4.567999999999999972e+01,1.293548066638644800e-01
4.571999999999999886e+01,1.093341946981978285e-01
4.575999999999999801e+01,1.035675546371167960e-01
4.579999999999999716e+01,9.067342170839563786e-02
4.584000000000000341e+01,9.313919639099857428e-02
4.588000000000000256e+01,7.065958968669634743e-02
4.592000000000000171e+01,6.906957741822371266e-02
4.596000000000000085e+01,6.158088789163968652e-02
4.600000000000000000e+01,5.212574328638549387e-02
4.603999999999999915e+01,4.598806751233130291e-02
4.607999999999999829e+01,4.157039385170952644e-02
4.611999999999999744e+01,3.825831139070091924e-02
4.615999999999999659e+01,3.297976970561555116e-02
4.620000000000000284e+01,3.802296530945471764e-02
4.624000000000000199e+01,3.778188627818857004e-02
4.628000000000000114e+01,3.434552515885543056e-02
4.632000000000000028e+01,3.041728437596130999e-02
4.635999999999999943e+01,3.238702561881806608e-02
4.639999999999999858e+01,2.944113400764346994e-02
4.643999999999999773e+01,2.538894974638528784e-02
4.647999999999999687e+01,2.109064562714659322e-02
4.652000000000000313e+01,2.772848038348683930e-02
4.656000000000000227e+01,2.134046775781622482e-02
4.660000000000000142e+01,2.392248032712483707e-02
4.664000000000000057e+01,2.023715209386335936e-02
4.667999999999999972e+01,2.306420747300722343e-02
4.671999999999999886e+01,2.441631702112536176e-02
4.675999999999999801e+01,2.257313204495668343e-02
4.679999999999999716e+01,2.097534682196839154e-02
4.684000000000000341e+01,1.900855043834119920e-02
4.688000000000000256e+01,1.581256802926871499e-02
4.692000000000000171e+01,2.465865191170051735e-02
4.696000000000000085e+01,2.871197040667133188e-02
4.700000000000000000e+01,1.826484641384081356e-02
4.703999999999999915e+01,1.297839497582190839e-02
4.707999999999999829e+01,3.275949508621477796e-02
4.711999999999999744e+01,1.960785327572190512e-02
4.715999999999999659e+01,1.837538956312982641e-02
4.720000000000000284e+01,1.468491177934399400e-02
4.724000000000000199e+01,1.984156063341743423e-02
4.728000000000000114e+01,1.221810740213732926e-02
4.732000000000000028e+01,2.007740541266378465e-02
4.735999999999999943e+01,1.945746840740693664e-02
4.739999999999999858e+01,1.625663017370454835e-02
4.743999999999999773e+01,1.821645413129727858e-02
4.747999999999999687e+01,1.698096491027353827e-02
4.752000000000000313e+01,1.181286962132045357e-02
4.756000000000000227e+01,1.328001712052993659e-02
4.760000000000000142e+01,8.971326846703854552e-03
4.764000000000000057e+01,2.051402545035170208e-02
4.767999999999999972e+01,1.939949358062302565e-02
4.771999999999999886e+01,1.459811441219386469e-02
4.775999999999999801e+01,1.753791062961073191e-02
4.779999999999999716e+01,1.298151623532440603e-02
4.784000000000000341e+01,1.112813415894609199e-02
4.788000000000000256e+01,6.325192491421858382e-03
4.792000000000000171e+01,1.528463886352001214e-02
4.796000000000000085e+01,1.785382825795008357e-02
4.800000000000000000e+01,1.304970383441221571e-02
4.803999999999999915e+01,1.500369173831062573e-02
4.807999999999999829e+01,1.892339388904600711e-02
4.811999999999999744e+01,7.973978607653194745e-03
4.815999999999999659e+01,1.557934219202049275e-02
4.820000000000000284e+01,1.667156060511632357e-02
4.824000000000000199e+01,1.284809849200488525e-02
4.828000000000000114e+01,1.185051927242684704e-02
4.832000000000000028e+01,5.445729551964189480e-03
4.835999999999999943e+01,1.354060832421687122e-02
4.839999999999999858e+01,1.254181525807569753e-02
4.843999999999999773e+01,1.178837945469725368e-02
4.847999999999999687e+01,1.484387716704220136e-02
4.852000000000000313e+01,1.691591031451131211e-02
4.856000000000000227e+01,1.886465168920754831e-02
4.860000000000000142e+01,1.393159160263520054e-02
4.864000000000000057e+01,1.551086434723732144e-02
4.867999999999999972e+01,1.020833355786754382e-02
4.871999999999999886e+01,8.223202164137159362e-03
4.875999999999999801e+01,1.385633827196804634e-02
4.879999999999999716e+01,1.580259909960382569e-02
4.884000000000000341e+01,1.111281619884816815e-02
4.888000000000000256e+01,6.791261136480631309e-03
4.892000000000000171e+01,1.500324845000888807e-02
4.896000000000000085e+01,1.584189707312961409e-02
4.900000000000000000e+01,1.422248498923230943e-02
4.903999999999999915e+01,2.071286105440880640e-02
4.907999999999999829e+01,1.344003259445928668e-02
4.911999999999999744e+01,1.255664255397084469e-02
4.915999999999999659e+01,1.535928643573428523e-02
4.920000000000000284e+01,1.336910689434432122e-02
4.924000000000000199e+01,1.764548068786701493e-02
4.928000000000000114e+01,1.688326503454601682e-02
4.932000000000000028e+01,2.177319076596669067e-02
4.935999999999999943e+01,1.400584249724152325e-02
4.939999999999999858e+01,1.742032243776358083e-02
4.943999999999999773e+01,2.415218311959531697e-02
4.947999999999999687e+01,2.080728817759039742e-02
4.952000000000000313e+01,1.611025683543774317e-02
4.956000000000000227e+01,2.320945943459333874e-02
4.960000000000000142e+01,2.993957936484613336e-02
4.964000000000000057e+01,3.924978300168921463e-02
4.967999999999999972e+01,3.393659273967672418e-02
4.971999999999999886e+01,3.587299918030534968e-02
4.975999999999999801e+01,4.272424375284633591e-02
4.979999999999999716e+01,4.060466219017920542e-02
4.984000000000000341e+01,3.959057544642173576e-02
4.988000000000000256e+01,3.673281507337752133e-02
4.992000000000000171e+01,3.743818695641026872e-02
4.996000000000000085e+01,3.814311276985597743e-02
5.000000000000000000e+01,2.901703343788057665e-02
5.003999999999999915e+01,2.443713905687543153e-02
5.007999999999999829e+01,2.268308093357943381e-02
5.011999999999999744e+01,2.436926790910856969e-02
5.015999999999999659e+01,2.568635770681182429e-02
5.020000000000000284e+01,2.073601446664810263e-02
5.024000000000000199e+01,1.934879519174812629e-02
5.028000000000000114e+01,1.660941982601904163e-02
5.032000000000000028e+01,2.111962561765626939e-02
5.035999999999999943e+01,1.444711520627876659e-02
5.039999999999999858e+01,1.440977400209661821e-02
5.043999999999999773e+01,1.621520392451052811e-02
5.047999999999999687e+01,1.310489528502475909e-02
5.052000000000000313e+01,2.572301893020055574e-02
5.056000000000000227e+01,1.290411203335398334e-02
5.060000000000000142e+01,2.122044227018097390e-02
5.064000000000000057e+01,2.351509202025988191e-02
5.067999999999999972e+01,2.163128987964204122e-02
5.071999999999999886e+01,2.122160568467812772e-02
5.075999999999999801e+01,1.626482159983354964e-02
5.079999999999999716e+01,2.408729513334427821e-02
5.084000000000000341e+01,2.330756151298460366e-02
5.088000000000000256e+01,1.712055106523458978e-02
5.092000000000000171e+01,1.965768993549848673e-02
5.096000000000000085e+01,2.108841904794231392e-02
5.100000000000000000e+01,2.018391761127907164e-02
5.103999999999999915e+01,1.645265668718303223e-02
5.107999999999999829e+01,2.500911822500666640e-02
5.111999999999999744e+01,1.992520435926360689e-02
5.115999999999999659e+01,2.159932198552809435e-02
5.120000000000000284e+01,2.290431548882373991e-02
5.124000000000000199e+01,2.482323963674715542e-02
5.128000000000000114e+01,2.354675215264727742e-02
5.132000000000000028e+01,2.607912460330363488e-02
5.135999999999999943e+01,2.873389668755868195e-02
5.139999999999999858e+01,1.811693204026608092e-02
5.143999999999999773e+01,2.470295954746944481e-02
5.147999999999999687e+01,2.416134702509833976e-02
5.152000000000000313e+01,1.661497541229461569e-02
5.156000000000000227e+01,2.172495975167132790e-02
5.160000000000000142e+01,2.228782243778273595e-02
5.164000000000000057e+01,2.739682862079832054e-02
5.167999999999999972e+01,3.053923256320940222e-02
5.171999999999999886e+01,2.397346877257199374e-02
5.175999999999999801e+01,2.908099994840853200e-02
5.179999999999999716e+01,2.607782699990915387e-02
5.184000000000000341e+01,2.504027088119160221e-02
5.188000000000000256e+01,2.670562240886540165e-02
5.192000000000000171e+01,2.198061436005772223e-02
5.196000000000000085e+01,1.565764274266458547e-02
5.200000000000000000e+01,1.830455641277786705e-02
5.203999999999999915e+01,1.431534344636765932e-02
5.207999999999999829e+01,1.610108233192875452e-02
5.211999999999999744e+01,1.653461745448489562e-02
5.215999999999999659e+01,1.635323963064551009e-02
5.220000000000000284e+01,1.678576757899427618e-02
5.224000000000000199e+01,1.684914445923133344e-02
5.228000000000000114e+01,1.125944428878326679e-02
5.232000000000000028e+01,1.746590655137953557e-02
5.235999999999999943e+01,1.703623388663912455e-02
5.239999999999999858e+01,1.980098329769274662e-02
5.243999999999999773e+01,1.691265151265463479e-02
5.247999999999999687e+01,1.611280195126545481e-02
5.252000000000000313e+01,1.150309875348418630e-02
5.256000000000000227e+01,2.630823425123617748e-02
5.260000000000000142e+01,1.297288289217397861e-02
5.264000000000000057e+01,1.266250543027824110e-02
5.267999999999999972e+01,2.046182180945611481e-02
5.271999999999999886e+01,1.560377713494955076e-02
5.275999999999999801e+01,1.357149928259153600e-02
5.279999999999999716e+01,1.264463955912109236e-02
5.284000000000000341e+01,1.663253816848585601e-02
5.288000000000000256e+01,1.582751801034543854e-02
5.292000000000000171e+01,1.883131633289525028e-02
5.296000000000000085e+01,1.151250491802773696e-02
5.300000000000000000e+01,1.721865807316182856e-02
5.303999999999999915e+01,9.653032006330615478e-03
5.307999999999999829e+01,2.076493930950001898e-02
5.311999999999999744e+01,1.786777346503966302e-02
5.315999999999999659e+01,1.718195420174372517e-02
5.320000000000000284e+01,1.723289677733818789e-02
5.324000000000000199e+01,1.408837693967850656e-02
5.328000000000000114e+01,1.573572205949240813e-02
5.332000000000000028e+01,1.799694393364826422e-02
5.335999999999999943e+01,1.091860151081851422e-02
5.339999999999999858e+01,2.153472836322796458e-02
5.343999999999999773e+01,1.703583599775269561e-02
5.347999999999999687e+01,1.327369821670624887e-02
5.352000000000000313e+01,1.356612732206233761e-02
5.356000000000000227e+01,1.680718449802752479e-02
5.360000000000000142e+01,1.537818622765133210e-02
5.364000000000000057e+01,1.444017444531033728e-02
5.367999999999999972e+01,1.239568243323702079e-02
5.371999999999999886e+01,1.403710619932739198e-02
5.375999999999999801e+01,1.444916568748861284e-02
5.379999999999999716e+01,2.223359814591606767e-02
5.384000000000000341e+01,2.289032943002166157e-02
5.388000000000000256e+01,1.568206665049254669e-02
5.392000000000000171e+01,2.137586262938357545e-02
5.396000000000000085e+01,2.067924617785896202e-02
5.400000000000000000e+01,1.875325923029528066e-02
5.403999999999999915e+01,2.309370125544617930e-02
5.407999999999999829e+01,1.883185218224296339e-02
5.411999999999999744e+01,1.420080333240044540e-02
5.415999999999999659e+01,1.853958380707519671e-02
5.420000000000000284e+01,1.820829329013382361e-02
5.424000000000000199e+01,2.205443298075880632e-02
5.428000000000000114e+01,2.577713270032490692e-02
5.432000000000000028e+01,1.635090201016642375e-02
5.435999999999999943e+01,2.265300411491107807e-02
5.439999999999999858e+01,1.728075744315014581e-02
5.443999999999999773e+01,1.657746369917142623e-02
5.447999999999999687e+01,2.005159394464913619e-02
5.452000000000000313e+01,1.455477576542398704e-02
5.456000000000000227e+01,1.864218642466726125e-02
5.460000000000000142e+01,2.174597499358377553e-02
5.464000000000000057e+01,1.956527129354836136e-02
5.467999999999999972e+01,1.369753996962522376e-02
5.471999999999999886e+01,1.372757407395804909e-02
5.475999999999999801e+01,1.854943479075339685e-02
5.479999999999999716e+01,1.624356946078725147e-02
5.484000000000000341e+01,2.659397510216620839e-02
5.488000000000000256e+01,2.539290150631334439e-02
5.492000000000000171e+01,2.197937777438520313e-02
5.496000000000000085e+01,1.254406162973076624e-02
5.500000000000000000e+01,1.748535996792421887e-02
5.503999999999999915e+01,1.099805689897281023e-02
5.507999999999999829e+01,1.815007438720477734e-02
5.511999999999999744e+01,1.792859358687503082e-02
5.515999999999999659e+01,2.139299125604954624e-02
5.520000000000000284e+01,2.436527919159666572e-02
5.524000000000000199e+01,2.389628894532003223e-02
5.528000000000000114e+01,2.330383281919329655e-02
5.532000000000000028e+01,2.492266731124184731e-02
5.535999999999999943e+01,2.740108965468521229e-02
5.539999999999999858e+01,2.361194423454706856e-02
5.543999999999999773e+01,3.149599843653101694e-02
5.547999999999999687e+01,3.040907934137249830e-02
5.552000000000000313e+01,3.288514741305985367e-02
5.556000000000000227e+01,2.356395467855027306e-02
5.560000000000000142e+01,2.702189520019794913e-02
5.564000000000000057e+01,3.305976397568827913e-02
5.567999999999999972e+01,2.484272932605620376e-02
5.571999999999999886e+01,3.087940852944872153e-02
5.575999999999999801e+01,3.077139261758838826e-02
5.579999999999999716e+01,2.513309043159123179e-02
5.584000000000000341e+01,2.821881009235498172e-02
5.588000000000000256e+01,2.737170708769442323e-02
5.592000000000000171e+01,2.468077396464794793e-02
5.596000000000000085e+01,2.506128870660508101e-02
5.600000000000000000e+01,2.396661718395355634e-02
5.603999999999999915e+01,1.992217465441940491e-02
5.607999999999999829e+01,3.123737443018683585e-02
5.611999999999999744e+01,2.461120011615772901e-02
5.615999999999999659e+01,2.154799638734808745e-02
5.620000000000000284e+01,2.597998542319921583e-02
5.624000000000000199e+01,3.041136568225413436e-02
5.628000000000000114e+01,2.513446006417238351e-02
5.632000000000000028e+01,2.821291793015115110e-02
5.635999999999999943e+01,2.281190760122525987e-02
5.639999999999999858e+01,3.252476733580067503e-02
5.643999999999999773e+01,2.478777259174047218e-02
5.647999999999999687e+01,2.896971447564654009e-02
5.652000000000000313e+01,2.712982352911190095e-02
5.656000000000000227e+01,2.209438415213613519e-02
5.660000000000000142e+01,2.307954347038224455e-02
5.664000000000000057e+01,2.234373599140624875e-02
5.667999999999999972e+01,3.254380415469004806e-02
5.671999999999999886e+01,3.401863084491721367e-02
5.675999999999999801e+01,2.787415280517798258e-02
5.679999999999999716e+01,2.897908803383764109e-02
5.684000000000000341e+01,3.512155993566103834e-02
5.688000000000000256e+01,3.106420251309896172e-02
5.692000000000000171e+01,3.511642907833552318e-02
5.696000000000000085e+01,2.970611609944443648e-02
5.700000000000000000e+01,2.835027984436227361e-02
5.703999999999999915e+01,3.018874544828267087e-02
5.707999999999999829e+01,3.042911483060634081e-02
5.711999999999999744e+01,2.808833115103337441e-02
5.715999999999999659e+01,2.709861658900513184e-02
5.720000000000000284e+01,3.667611827018455589e-02
5.724000000000000199e+01,3.359614178994303063e-02
5.728000000000000114e+01,3.076129353874945682e-02
5.732000000000000028e+01,3.198091372055160420e-02
5.735999999999999943e+01,2.902190894093133883e-02
5.739999999999999858e+01,2.962584261962937504e-02
5.743999999999999773e+01,3.600458927917756652e-02
5.747999999999999687e+01,2.714533007383079094e-02
5.752000000000000313e+01,3.106515437976206315e-02
5.756000000000000227e+01,3.043770261603207308e-02
5.760000000000000142e+01,3.841134512409682955e-02
5.764000000000000057e+01,3.323597120525002835e-02
5.767999999999999972e+01,3.064047268631171078e-02
5.771999999999999886e+01,3.713759323208727647e-02
5.775999999999999801e+01,3.626114709009221893e-02
5.779999999999999716e+01,2.985436285637777312e-02
5.784000000000000341e+01,3.499783408819286817e-02
5.788000000000000256e+01,3.559402095953349832e-02
5.792000000000000171e+01,3.877007701267275869e-02
5.796000000000000085e+01,3.776749255911485137e-02
5.800000000000000000e+01,3.959053916563931574e-02
5.803999999999999915e+01,3.821799899671153578e-02
5.807999999999999829e+01,3.807362213374697324e-02
5.811999999999999744e+01,3.780570580996509000e-02
5.815999999999999659e+01,4.564734134708074709e-02
5.820000000000000284e+01,3.960265409540051490e-02
5.824000000000000199e+01,4.142175268092745249e-02
5.828000000000000114e+01,3.906220246894401976e-02
5.832000000000000028e+01,4.014268490369740650e-02
5.835999999999999943e+01,3.864198214965298972e-02
5.839999999999999858e+01,4.156436577359032269e-02
5.843999999999999773e+01,4.424031967040363555e-02
5.847999999999999687e+01,4.679272477923480944e-02
5.852000000000000313e+01,4.356900919102982273e-02
5.856000000000000227e+01,4.218785435003585133e-02
5.860000000000000142e+01,4.006873773453718812e-02
5.864000000000000057e+01,3.487690077380503628e-02
5.867999999999999972e+01,3.558272664251540401e-02
5.871999999999999886e+01,4.243197825530374556e-02
5.875999999999999801e+01,4.559409653633600401e-02
5.879999999999999716e+01,4.039956538050647888e-02
5.884000000000000341e+01,3.864505339884230506e-02
5.888000000000000256e+01,4.622889437868121093e-02
5.892000000000000171e+01,4.361285318020043794e-02
5.896000000000000085e+01,4.861481521361003810e-02
5.900000000000000000e+01,4.034484360865840669e-02
5.903999999999999915e+01,3.834117143246505710e-02
5.907999999999999829e+01,3.400205936413126795e-02
5.911999999999999744e+01,3.445466094593011702e-02
5.915999999999999659e+01,3.797862748460052035e-02
5.920000000000000284e+01,3.597221965924373571e-02
5.924000000000000199e+01,3.543970903663937883e-02
5.928000000000000114e+01,3.601244865395513556e-02
5.932000000000000028e+01,3.093192882269526003e-02
5.935999999999999943e+01,2.867700481556163458e-02
5.939999999999999858e+01,3.158243313057967905e-02
5.943999999999999773e+01,2.809730703500595145e-02
5.947999999999999687e+01,2.719200970351647734e-02
5.952000000000000313e+01,2.837501219778545275e-02
5.956000000000000227e+01,3.115478557948713964e-02
5.960000000000000142e+01,2.361177718939756753e-02
5.964000000000000057e+01,2.221217070729795268e-02
5.967999999999999972e+01,2.929072263121370451e-02
5.971999999999999886e+01,2.924142103711499865e-02
5.975999999999999801e+01,2.796259971233955310e-02
5.979999999999999716e+01,2.385679193911988127e-02
5.984000000000000341e+01,2.380538730874192169e-02
5.988000000000000256e+01,3.063467022120521660e-02
5.992000000000000171e+01,2.333182183076463329e-02
5.996000000000000085e+01,2.475288854286490300e-02
