2.003999999999999915e+01,3.052083475359885015e-02
2.007999999999999829e+01,3.434395426516568400e-02
2.012000000000000099e+01,3.916132362192736860e-02
2.016000000000000014e+01,4.508334799992824715e-02
2.019999999999999929e+01,3.775713865138927844e-02
2.023999999999999844e+01,3.363331068157106307e-02
2.028000000000000114e+01,3.867383093036198816e-02
2.032000000000000028e+01,3.123896027614335782e-02
2.035999999999999943e+01,3.915121668031698587e-02
2.039999999999999858e+01,3.834191089665170415e-02
2.044000000000000128e+01,3.510423023657372604e-02
2.048000000000000043e+01,4.224536461842528373e-02
2.051999999999999957e+01,3.922964315904785976e-02
2.055999999999999872e+01,4.283890143524050204e-02
2.060000000000000142e+01,2.436736359923877965e-02
2.064000000000000057e+01,3.173158955242179335e-02
2.067999999999999972e+01,3.633621027087082650e-02
2.071999999999999886e+01,3.873325822601898782e-02
2.076000000000000156e+01,2.733001526623611566e-02
2.080000000000000071e+01,3.933357937983654462e-02
2.083999999999999986e+01,2.914593067061331186e-02
2.087999999999999901e+01,3.452620124611092967e-02
2.092000000000000171e+01,3.560116116624711252e-02
2.096000000000000085e+01,2.795453582938372053e-02
2.100000000000000000e+01,3.223239964693049714e-02
2.103999999999999915e+01,2.204752007188973822e-02
2.107999999999999829e+01,3.041153578642663904e-02
2.112000000000000099e+01,2.972273918123692280e-02
2.116000000000000014e+01,2.848245404466762457e-02
2.119999999999999929e+01,2.216399895123438019e-02
2.123999999999999844e+01,2.699717535850600786e-02
2.128000000000000114e+01,2.443363521255272064e-02
2.132000000000000028e+01,2.761178890325474006e-02
2.135999999999999943e+01,3.167373453358947322e-02
2.139999999999999858e+01,2.524756759961892597e-02
2.144000000000000128e+01,2.401105543968170414e-02
2.148000000000000043e+01,3.337413077443633636e-02
2.151999999999999957e+01,4.638116205378558371e-02
2.155999999999999872e+01,3.951549415072838634e-02
2.160000000000000142e+01,2.392821462591630810e-02
2.164000000000000057e+01,3.285177580920676382e-02
2.167999999999999972e+01,2.985192418361308497e-02
2.171999999999999886e+01,3.204171579747257248e-02
2.176000000000000156e+01,3.533609652068491619e-02
2.180000000000000071e+01,3.774774187622447624e-02
2.183999999999999986e+01,2.547579723554052600e-02
2.187999999999999901e+01,2.932376480387773737e-02
2.192000000000000171e+01,3.659485819114555172e-02
2.196000000000000085e+01,3.669002066032824722e-02
2.200000000000000000e+01,1.625002487825921368e-02
2.203999999999999915e+01,2.893258558631080918e-02
2.207999999999999829e+01,2.472340993443510049e-02
2.212000000000000099e+01,2.813281116865326906e-02
2.216000000000000014e+01,2.237895041657177522e-02
2.219999999999999929e+01,2.082105171576278599e-02
2.223999999999999844e+01,3.085637061611302620e-02
2.228000000000000114e+01,2.952028610985142285e-02
2.232000000000000028e+01,1.670238972533484231e-02
2.235999999999999943e+01,2.596635426395850141e-02
2.239999999999999858e+01,2.507338551488517281e-02
2.244000000000000128e+01,2.616823245338065207e-02
2.248000000000000043e+01,3.344635273779680840e-02
2.251999999999999957e+01,3.376933268265906035e-02
2.255999999999999872e+01,3.376158007093198188e-02
2.260000000000000142e+01,2.171996992713938826e-02
2.264000000000000057e+01,2.679190209883552248e-02
2.267999999999999972e+01,2.424624639671282486e-02
2.271999999999999886e+01,2.070741060373580689e-02
2.276000000000000156e+01,1.772108860595166327e-02
2.280000000000000071e+01,2.577592702093595145e-02
2.283999999999999986e+01,2.201771166476357636e-02
2.287999999999999901e+01,2.587804188653825693e-02
2.292000000000000171e+01,2.223118117155708368e-02
2.296000000000000085e+01,1.295404387740525104e-02
2.300000000000000000e+01,3.227274374855421818e-02
2.303999999999999915e+01,2.807525828188165568e-02
2.307999999999999829e+01,2.045562776956737910e-02
2.312000000000000099e+01,2.663731508379469509e-02
2.316000000000000014e+01,2.840319264217161174e-02
2.319999999999999929e+01,2.487000420613287924e-02
2.323999999999999844e+01,2.729924416017601857e-02
2.328000000000000114e+01,1.935070092729174879e-02
2.332000000000000028e+01,2.133922844735211197e-02
2.335999999999999943e+01,2.001600621103642036e-02
2.339999999999999858e+01,2.244706929669335049e-02
2.344000000000000128e+01,1.527319037115628698e-02
2.348000000000000043e+01,2.477119186198272274e-02
2.351999999999999957e+01,9.980140474499001046e-03
2.355999999999999872e+01,2.621385330776810837e-02
2.360000000000000142e+01,2.323722386404997869e-02
2.364000000000000057e+01,1.959859690168016047e-02
2.367999999999999972e+01,2.247441432285329430e-02
2.371999999999999886e+01,1.618690549363624442e-02
2.376000000000000156e+01,2.171336529697694834e-02
2.380000000000000071e+01,2.690904146201542058e-02
2.383999999999999986e+01,2.879294809711147041e-02
2.387999999999999901e+01,1.820131717524772416e-02
2.392000000000000171e+01,2.074853018090543413e-02
2.396000000000000085e+01,2.219210519014976069e-02
2.400000000000000000e+01,2.275285420287561505e-02
2.403999999999999915e+01,1.569595931667802646e-02
2.407999999999999829e+01,1.968017211373870173e-02
2.412000000000000099e+01,2.907474293011278257e-02
2.416000000000000014e+01,2.246074629187385860e-02
2.419999999999999929e+01,1.750327236658901289e-02
2.423999999999999844e+01,2.071632211337689003e-02
2.428000000000000114e+01,2.315694115291190222e-02
2.432000000000000028e+01,1.875275252586542166e-02
2.435999999999999943e+01,1.523223225366206884e-02
2.439999999999999858e+01,2.617541802156623382e-02
2.444000000000000128e+01,1.912270197104841765e-02
2.448000000000000043e+01,2.344229759735488861e-02
2.451999999999999957e+01,1.970260225578748456e-02
2.455999999999999872e+01,1.894429668315193716e-02
2.460000000000000142e+01,1.354930838627495596e-02
2.464000000000000057e+01,1.025245197196716397e-02
2.467999999999999972e+01,9.274539440123420395e-03
2.471999999999999886e+01,1.083638279063853585e-02
2.476000000000000156e+01,2.873883335646878687e-02
2.480000000000000071e+01,1.451329382141085256e-02
2.483999999999999986e+01,1.475144220069114602e-02
2.487999999999999901e+01,1.112574408807195415e-02
2.492000000000000171e+01,1.710583034497145313e-02
2.496000000000000085e+01,1.259765738361538941e-02
2.500000000000000000e+01,2.420926810309929206e-02
2.503999999999999915e+01,2.345570030335077105e-02
2.507999999999999829e+01,1.707176859118025164e-02
2.512000000000000099e+01,2.327459725338523744e-02
2.516000000000000014e+01,1.667061515758211376e-02
2.519999999999999929e+01,2.033484683979342594e-02
2.523999999999999844e+01,1.317958729763076507e-02
2.528000000000000114e+01,1.220748575558516444e-02
2.532000000000000028e+01,1.653528597509127535e-02
2.535999999999999943e+01,2.296118841681702230e-02
2.539999999999999858e+01,1.735311798067364075e-02
2.544000000000000128e+01,7.218737040393915887e-03
2.548000000000000043e+01,1.386656095046393498e-02
2.551999999999999957e+01,2.206044637233472300e-02
2.555999999999999872e+01,2.175337068822054062e-02
2.560000000000000142e+01,1.250370495494000297e-02
2.564000000000000057e+01,1.252857345929060846e-02
2.567999999999999972e+01,1.398909006040722700e-02
2.571999999999999886e+01,1.843094864433686073e-02
2.576000000000000156e+01,2.375641791020793175e-02
2.580000000000000071e+01,2.024969571177285058e-02
2.583999999999999986e+01,1.751617407583870578e-02
2.587999999999999901e+01,1.478300358768615611e-02
2.592000000000000171e+01,1.602482825797504895e-02
2.596000000000000085e+01,1.759822125198923920e-02
2.600000000000000000e+01,1.961358774577757688e-02
2.603999999999999915e+01,2.107726467692859831e-02
2.607999999999999829e+01,1.282548401842473554e-02
2.612000000000000099e+01,1.164008134706518566e-02
2.616000000000000014e+01,8.909322755062461241e-03
2.619999999999999929e+01,1.755080498460466140e-02
2.623999999999999844e+01,9.742006778695589883e-03
2.628000000000000114e+01,1.926741458642253907e-02
2.632000000000000028e+01,1.786287985540519971e-02
2.635999999999999943e+01,1.137996260168582657e-02
2.639999999999999858e+01,1.350910733437477723e-02
2.644000000000000128e+01,2.480234652490490715e-02
2.648000000000000043e+01,4.850780997832790202e-03
2.651999999999999957e+01,6.870498199146815414e-03
2.655999999999999872e+01,1.120908183645663928e-02
2.660000000000000142e+01,2.007466673888574915e-02
2.664000000000000057e+01,1.127547966558533829e-02
2.667999999999999972e+01,1.682949788410625577e-02
2.671999999999999886e+01,1.675308463052025895e-02
2.676000000000000156e+01,1.457925662010312214e-02
2.680000000000000071e+01,1.417225103966847193e-02
2.683999999999999986e+01,1.785060954218591067e-02
2.687999999999999901e+01,1.402161397602517609e-02
2.692000000000000171e+01,1.869425215106311142e-02
2.696000000000000085e+01,1.563871931413645180e-02
2.700000000000000000e+01,7.173557118214650419e-03
2.703999999999999915e+01,1.538012868470600356e-02
2.707999999999999829e+01,1.320876052353651964e-02
2.712000000000000099e+01,1.412908349612442688e-02
2.716000000000000014e+01,1.714743454005821302e-02
2.719999999999999929e+01,2.458235530830733470e-02
2.723999999999999844e+01,1.998322740001639772e-02
2.728000000000000114e+01,2.609385487966998929e-02
2.732000000000000028e+01,2.392426239795415049e-02
2.735999999999999943e+01,2.418391022013628017e-02
2.739999999999999858e+01,1.958594632458146925e-02
2.744000000000000128e+01,1.874210132348251914e-02
2.748000000000000043e+01,2.087952580212028980e-02
2.751999999999999957e+01,2.875838870884815657e-02
2.755999999999999872e+01,3.200044695434222514e-02
2.760000000000000142e+01,2.641023958465633578e-02
2.764000000000000057e+01,2.623024522813092313e-02
2.767999999999999972e+01,3.488307377619560140e-02
2.771999999999999886e+01,2.918329057338732088e-02
2.776000000000000156e+01,3.551812487110953681e-02
2.780000000000000071e+01,5.178984536849053077e-02
2.783999999999999986e+01,4.553884420700100161e-02
2.787999999999999901e+01,5.938215374341038189e-02
2.792000000000000171e+01,6.936149155533352650e-02
2.796000000000000085e+01,7.083976939344005519e-02
2.800000000000000000e+01,8.711282544144459405e-02
2.803999999999999915e+01,9.830742975926494431e-02
2.807999999999999829e+01,1.090606673006371680e-01
2.812000000000000099e+01,1.344982712846697348e-01
2.816000000000000014e+01,1.599361324920439975e-01
2.819999999999999929e+01,1.698068871126725554e-01
2.823999999999999844e+01,1.969013601810286895e-01
2.828000000000000114e+01,2.118513349062716433e-01
2.832000000000000028e+01,2.196251167136755167e-01
2.835999999999999943e+01,2.183457879500607379e-01
2.839999999999999858e+01,2.228078613629977112e-01
2.844000000000000128e+01,2.024286450993396103e-01
2.848000000000000043e+01,1.869075731258707795e-01
2.851999999999999957e+01,1.627750112855784748e-01
2.855999999999999872e+01,1.391947243098859144e-01
2.860000000000000142e+01,1.093214874725421809e-01
2.864000000000000057e+01,8.066296314727992856e-02
2.867999999999999972e+01,6.978017326320622160e-02
2.871999999999999886e+01,6.839260438407181175e-02
2.876000000000000156e+01,6.479713153440037898e-02
2.880000000000000071e+01,4.386801819948896175e-02
2.883999999999999986e+01,4.027300541919328486e-02
2.887999999999999901e+01,3.601577925881339209e-02
2.892000000000000171e+01,3.716871338208375258e-02
2.896000000000000085e+01,2.639793479738070797e-02
2.900000000000000000e+01,2.733050215995706800e-02
2.903999999999999915e+01,2.660718813664632657e-02
2.907999999999999829e+01,2.301351601734493574e-02
2.912000000000000099e+01,2.085535028425078430e-02
2.916000000000000014e+01,1.737251869341590801e-02
2.919999999999999929e+01,2.305366786241596841e-02
2.923999999999999844e+01,1.526539725501779333e-02
2.928000000000000114e+01,2.127819071339326351e-02
2.932000000000000028e+01,1.382156109977625801e-02
2.935999999999999943e+01,1.365198964942273066e-02
2.939999999999999858e+01,1.646360858454055248e-02
2.944000000000000128e+01,6.137019975812328144e-03
2.948000000000000043e+01,9.611487193871736529e-03
2.951999999999999957e+01,1.882731045016151558e-02
2.955999999999999872e+01,0.000000000000000000e+00
2.960000000000000142e+01,2.732679778438235432e-04
2.964000000000000057e+01,9.931312237445366620e-03
2.967999999999999972e+01,1.605653274102218295e-02
2.971999999999999886e+01,9.043534166172619709e-03
2.976000000000000156e+01,1.218815469661141751e-02
2.980000000000000071e+01,1.058547146532757589e-02
2.983999999999999986e+01,2.079650640142810883e-02
2.987999999999999901e+01,3.847649039467943097e-03
2.992000000000000171e+01,4.343254565445202331e-03
2.996000000000000085e+01,1.046979118003769742e-02
3.000000000000000000e+01,1.074494755546130838e-02
3.003999999999999915e+01,9.143367702375827105e-03
3.007999999999999829e+01,7.210745506828495147e-03
3.012000000000000099e+01,7.044808974096638914e-03
3.016000000000000014e+01,1.689926554083328279e-03
3.019999999999999929e+01,1.046729077204617067e-02
3.023999999999999844e+01,1.339326486405699457e-02
3.028000000000000114e+01,9.694999415396369363e-03
3.032000000000000028e+01,8.977886452871602224e-03
3.035999999999999943e+01,1.179395844791555209e-02
3.039999999999999858e+01,2.023817471210968052e-03
3.044000000000000128e+01,5.613065478777242226e-03
3.048000000000000043e+01,6.883931836681188993e-03
3.051999999999999957e+01,2.965837477128904342e-03
3.055999999999999872e+01,1.130305891999565382e-02
3.060000000000000142e+01,1.334724811135144795e-02
3.064000000000000057e+01,5.675791864172328657e-03
3.067999999999999972e+01,1.224696930524908460e-02
3.071999999999999886e+01,1.484365285218991817e-02
3.076000000000000156e+01,9.159974727202624054e-03
3.080000000000000071e+01,1.330265239323851281e-02
3.083999999999999986e+01,3.092589780220298280e-03
3.087999999999999901e+01,3.150506958015008869e-03
3.092000000000000171e+01,1.402843639805559893e-02
3.096000000000000085e+01,1.265135026872501664e-02
3.100000000000000000e+01,8.845454244522597473e-03
3.103999999999999915e+01,1.464509047686814516e-02
3.107999999999999829e+01,1.094987679260166560e-02
3.112000000000000099e+01,1.067740993391120934e-02
3.116000000000000014e+01,1.404850190069163729e-02
3.119999999999999929e+01,1.366589384746190634e-02
3.123999999999999844e+01,1.140650013180728381e-02
3.128000000000000114e+01,2.118157891053008834e-02
3.132000000000000028e+01,2.146179788585770437e-02
3.135999999999999943e+01,1.456569871075948618e-02
3.139999999999999858e+01,2.279545815433594094e-02
3.144000000000000128e+01,3.124615334957601270e-02
3.148000000000000043e+01,2.964994803100198112e-02
3.151999999999999957e+01,2.805386152080521431e-02
3.155999999999999872e+01,2.977009688656923753e-02
3.160000000000000142e+01,2.872627716896546460e-02
3.164000000000000057e+01,3.552145580941529907e-02
3.167999999999999972e+01,3.282175981629514849e-02
3.171999999999999886e+01,4.359180690178172946e-02
3.176000000000000156e+01,4.729592618271648979e-02
3.180000000000000071e+01,5.596845981051944141e-02
3.183999999999999986e+01,6.177052164432530329e-02
3.187999999999999901e+01,6.227315991172432258e-02
3.192000000000000171e+01,6.156142544722231769e-02
3.196000000000000085e+01,6.272670767071088227e-02
3.200000000000000000e+01,6.466493669593249838e-02
3.203999999999999915e+01,5.777071720048558567e-02
3.207999999999999829e+01,5.330554356886784556e-02
3.211999999999999744e+01,3.614367928637612221e-02
3.215999999999999659e+01,3.741984702979326421e-02
3.220000000000000284e+01,3.439023943904020303e-02
3.224000000000000199e+01,3.224397558708311240e-02
3.228000000000000114e+01,2.667518769612964996e-02
3.232000000000000028e+01,2.607479273068080694e-02
3.235999999999999943e+01,3.728801212139310622e-02
3.239999999999999858e+01,3.337557920203854112e-02
3.243999999999999773e+01,2.416369964711638507e-02
3.247999999999999687e+01,1.804329042112756687e-02
3.252000000000000313e+01,1.987225012550012521e-02
3.256000000000000227e+01,1.805786060860395739e-02
3.260000000000000142e+01,2.198470024955421001e-02
3.264000000000000057e+01,2.447632385056189991e-02
3.267999999999999972e+01,2.211011822460292459e-02
3.271999999999999886e+01,1.775665914387688366e-02
3.275999999999999801e+01,1.218879272750872204e-02
3.279999999999999716e+01,1.766167477461034335e-02
3.284000000000000341e+01,1.154190474894890503e-02
3.288000000000000256e+01,2.308728932192449096e-02
3.292000000000000171e+01,1.332421802809215412e-02
3.296000000000000085e+01,1.460188860654080927e-02
3.300000000000000000e+01,4.800800276406468753e-02
3.303999999999999915e+01,1.054828607121065381e-01
3.307999999999999829e+01,7.827573931453150891e-02
3.311999999999999744e+01,1.618011447810109235e-02
3.315999999999999659e+01,1.767887142567509465e-02
3.320000000000000284e+01,1.586547325876330738e-02
3.324000000000000199e+01,1.581863222648587086e-02
3.328000000000000114e+01,1.433654878951071653e-02
3.332000000000000028e+01,1.495223966311361521e-02
3.335999999999999943e+01,1.280780295027206077e-02
3.339999999999999858e+01,8.676084770111140362e-03
3.343999999999999773e+01,2.154705717635038709e-02
3.347999999999999687e+01,1.862989183892237513e-02
3.352000000000000313e+01,1.891456081154668789e-02
3.356000000000000227e+01,2.063455326488967609e-02
3.360000000000000142e+01,1.738627176808456645e-02
3.364000000000000057e+01,2.087283800101303460e-02
3.367999999999999972e+01,1.574770180128012148e-02
3.371999999999999886e+01,1.294113708184529456e-02
3.375999999999999801e+01,1.653819467721446071e-02
3.379999999999999716e+01,3.040311177420136624e-02
3.384000000000000341e+01,2.340116240042896742e-02
3.388000000000000256e+01,2.015306662576427099e-02
3.392000000000000171e+01,1.789865220625941333e-02
3.396000000000000085e+01,2.248947915795664401e-02
3.400000000000000000e+01,3.204862982767633234e-02
3.403999999999999915e+01,2.802775616148855953e-02
3.407999999999999829e+01,2.555259137850198620e-02
3.411999999999999744e+01,3.709910492552057765e-02
3.415999999999999659e+01,3.539680966477819213e-02
3.420000000000000284e+01,3.236964092384873176e-02
3.424000000000000199e+01,3.773339755338537410e-02
3.428000000000000114e+01,3.713519080560735014e-02
3.432000000000000028e+01,3.565373292963474466e-02
3.435999999999999943e+01,3.891977029381774034e-02
3.439999999999999858e+01,4.417313065420849783e-02
3.443999999999999773e+01,4.070435044994510226e-02
3.447999999999999687e+01,4.397038337167426952e-02
3.452000000000000313e+01,5.065902305621797913e-02
3.456000000000000227e+01,4.752144899425561619e-02
3.460000000000000142e+01,3.698660966260267774e-02
3.464000000000000057e+01,3.959017264882314091e-02
3.467999999999999972e+01,4.153128332436629988e-02
3.471999999999999886e+01,3.806244661605585194e-02
3.475999999999999801e+01,3.735376584070052020e-02
3.479999999999999716e+01,4.139256217973171642e-02
3.484000000000000341e+01,3.405943770383215718e-02
3.488000000000000256e+01,2.937605739365014082e-02
3.492000000000000171e+01,3.716862692368502058e-02
3.496000000000000085e+01,3.071869327540083239e-02
3.500000000000000000e+01,2.769134661636484321e-02
3.503999999999999915e+01,2.179339633955624383e-02
3.507999999999999829e+01,2.958586437408205344e-02
3.511999999999999744e+01,2.136931345756357473e-02
3.515999999999999659e+01,2.872009356216755072e-02
3.520000000000000284e+01,2.536137896474222053e-02
3.524000000000000199e+01,3.006232807131508852e-02
3.528000000000000114e+01,2.416418600411019552e-02
3.532000000000000028e+01,3.162523188991850365e-02
3.535999999999999943e+01,2.815596283481663215e-02
3.539999999999999858e+01,2.866129841022114003e-02
3.543999999999999773e+01,2.419828423680654705e-02
3.547999999999999687e+01,2.768451705676102520e-02
3.552000000000000313e+01,3.304761991075574890e-02
3.556000000000000227e+01,3.476724995869218127e-02
3.560000000000000142e+01,3.847415356892052579e-02
3.564000000000000057e+01,4.328507450287539388e-02
3.567999999999999972e+01,3.815932872815671478e-02
3.571999999999999886e+01,2.464261013081176996e-02
3.575999999999999801e+01,3.398004821146929227e-02
3.579999999999999716e+01,3.757627394621077671e-02
3.584000000000000341e+01,3.741860851646754832e-02
3.588000000000000256e+01,5.227621032826719472e-02
3.592000000000000171e+01,4.174018020616625940e-02
3.596000000000000085e+01,5.538318040923414370e-02
3.600000000000000000e+01,5.301712540971945109e-02
3.603999999999999915e+01,5.164466443211323393e-02
3.607999999999999829e+01,6.042956220783873844e-02
3.611999999999999744e+01,6.744788011372766789e-02
3.615999999999999659e+01,7.137473461583049295e-02
3.620000000000000284e+01,7.563273560557691455e-02
3.624000000000000199e+01,7.370787882825409476e-02
3.628000000000000114e+01,8.392769539450542493e-02
3.632000000000000028e+01,9.525150127193100780e-02
3.635999999999999943e+01,9.255355994582772916e-02
3.639999999999999858e+01,8.797862039146157886e-02
3.643999999999999773e+01,8.748864944872071503e-02
3.647999999999999687e+01,8.191987909058774664e-02
3.652000000000000313e+01,7.911119216233343521e-02
3.656000000000000227e+01,7.387346629539719156e-02
3.660000000000000142e+01,6.432978383659952726e-02
3.664000000000000057e+01,6.704116671504725677e-02
3.667999999999999972e+01,6.555699652988512816e-02
3.671999999999999886e+01,6.418313776331099896e-02
3.675999999999999801e+01,5.463907697907556538e-02
3.679999999999999716e+01,5.845414317935716114e-02
3.684000000000000341e+01,4.096059202870570848e-02
3.688000000000000256e+01,5.029579707619227791e-02
3.692000000000000171e+01,4.306987490253063461e-02
3.696000000000000085e+01,3.827279756144042616e-02
3.700000000000000000e+01,3.833351352973708021e-02
3.703999999999999915e+01,4.424568257423763806e-02
3.707999999999999829e+01,3.271346321563300269e-02
3.711999999999999744e+01,3.796296919839470263e-02
3.715999999999999659e+01,4.089381834936260673e-02
3.720000000000000284e+01,3.830421112920476268e-02
3.724000000000000199e+01,3.957872591703635867e-02
3.728000000000000114e+01,3.478074691891765852e-02
3.732000000000000028e+01,3.914641417780340138e-02
3.735999999999999943e+01,3.379615916822548832e-02
3.739999999999999858e+01,2.921862850775951495e-02
3.743999999999999773e+01,2.994050032629533981e-02
3.747999999999999687e+01,3.331200920373109109e-02
3.752000000000000313e+01,4.076844220226800292e-02
3.756000000000000227e+01,3.497592633028245857e-02
3.760000000000000142e+01,2.620229455765787571e-02
3.764000000000000057e+01,3.122938246119328146e-02
3.767999999999999972e+01,3.305453752080320107e-02
3.771999999999999886e+01,2.383887359562243680e-02
3.775999999999999801e+01,3.107368817551478882e-02
3.779999999999999716e+01,3.455453084885991288e-02
3.784000000000000341e+01,3.428139996786060822e-02
3.788000000000000256e+01,3.798277155394169657e-02
3.792000000000000171e+01,3.229941827393654347e-02
3.796000000000000085e+01,3.853985548233138797e-02
3.800000000000000000e+01,3.539556452904556866e-02
3.803999999999999915e+01,3.997960146241633095e-02
3.807999999999999829e+01,4.522592790850062799e-02
3.811999999999999744e+01,4.903681256642672404e-02
3.815999999999999659e+01,4.732720130609440606e-02
3.820000000000000284e+01,4.948167250661889005e-02
3.824000000000000199e+01,5.781876782096952855e-02
3.828000000000000114e+01,6.096658274520826148e-02
3.832000000000000028e+01,6.323098176153295336e-02
3.835999999999999943e+01,6.450155639830042198e-02
3.839999999999999858e+01,7.339003726770365610e-02
3.843999999999999773e+01,7.841411304195852749e-02
3.847999999999999687e+01,9.171853269633092887e-02
3.852000000000000313e+01,1.074517329191842091e-01
3.856000000000000227e+01,1.199829640465737285e-01
3.860000000000000142e+01,1.208108989945581163e-01
3.864000000000000057e+01,1.020966516222721887e-01
3.867999999999999972e+01,9.464372413496061065e-02
3.871999999999999886e+01,9.547113064098336488e-02
3.875999999999999801e+01,8.150384330872348371e-02
3.879999999999999716e+01,7.548566620266547456e-02
3.884000000000000341e+01,7.222747695424884540e-02
3.888000000000000256e+01,6.068859153107361570e-02
3.892000000000000171e+01,5.555311585686431575e-02
3.896000000000000085e+01,5.660023463613168826e-02
3.900000000000000000e+01,5.676390949493272109e-02
3.903999999999999915e+01,5.217989995085930283e-02
3.907999999999999829e+01,4.980383425841394124e-02
3.911999999999999744e+01,6.056598633055623737e-02
3.915999999999999659e+01,5.355244384260116758e-02
3.920000000000000284e+01,5.835223393748703580e-02
3.924000000000000199e+01,6.193734975358534262e-02
3.928000000000000114e+01,6.408697599540681689e-02
3.932000000000000028e+01,5.950158347054495395e-02
3.935999999999999943e+01,7.357474001578899470e-02
3.939999999999999858e+01,6.424144409800505717e-02
3.943999999999999773e+01,6.782553911473915287e-02
3.947999999999999687e+01,7.968993681666095008e-02
3.952000000000000313e+01,7.366821830446455832e-02
3.956000000000000227e+01,8.188876766954703013e-02
3.960000000000000142e+01,9.275886676027809974e-02
3.964000000000000057e+01,9.899166355502286851e-02
3.967999999999999972e+01,1.153816708013517683e-01
3.971999999999999886e+01,1.277968133991760902e-01
3.975999999999999801e+01,1.292814597983988623e-01
3.979999999999999716e+01,1.550553851581057963e-01
3.984000000000000341e+01,1.780689159882228867e-01
3.988000000000000256e+01,1.939057776871118133e-01
3.992000000000000171e+01,2.404355091861629656e-01
3.996000000000000085e+01,2.722809042368615762e-01
4.000000000000000000e+01,3.373585227405867526e-01
4.003999999999999915e+01,3.832251217226778084e-01
4.007999999999999829e+01,4.721501481844975756e-01
4.011999999999999744e+01,5.391039812329381231e-01
4.015999999999999659e+01,6.573967502539651564e-01
4.020000000000000284e+01,7.607843592921643694e-01
4.024000000000000199e+01,8.433048382120530428e-01
4.028000000000000114e+01,9.387426734627187797e-01
4.032000000000000028e+01,9.901279422918141115e-01
4.035999999999999943e+01,1.000000000000000000e+00
4.039999999999999858e+01,9.705669814163999654e-01
4.043999999999999773e+01,9.092261420909009129e-01
4.047999999999999687e+01,8.495411548248978928e-01
4.052000000000000313e+01,7.532008500960220010e-01
4.056000000000000227e+01,6.669073127433462478e-01
4.060000000000000142e+01,5.765284676667815633e-01
4.064000000000000057e+01,4.780896675600736501e-01
4.067999999999999972e+01,3.938930891923230759e-01
4.071999999999999886e+01,3.232762899726566719e-01
4.075999999999999801e+01,2.663496750771229271e-01
4.079999999999999716e+01,2.178137153133155590e-01
4.084000000000000341e+01,1.834095638734307421e-01
4.088000000000000256e+01,1.662286101773601255e-01
4.092000000000000171e+01,1.290637529411950146e-01
4.096000000000000085e+01,1.105573788632480126e-01
4.100000000000000000e+01,1.012144994449635099e-01
4.103999999999999915e+01,9.672924690854928231e-02
4.107999999999999829e+01,9.080843064698448930e-02
4.111999999999999744e+01,7.329462121863737634e-02
4.115999999999999659e+01,6.902935234106703788e-02
4.120000000000000284e+01,6.310770114726249602e-02
4.124000000000000199e+01,6.381017777787870160e-02
4.128000000000000114e+01,5.236762053129363770e-02
4.132000000000000028e+01,5.417359724429660073e-02
4.135999999999999943e+01,5.410237140218453200e-02
4.139999999999999858e+01,5.414126418638873228e-02
4.143999999999999773e+01,4.545772804142979295e-02
4.147999999999999687e+01,4.527522583949086799e-02
4.152000000000000313e+01,3.946168248048321364e-02
4.156000000000000227e+01,3.475191257121734018e-02
4.160000000000000142e+01,3.666625565619739680e-02
4.164000000000000057e+01,3.294955264071710438e-02
4.167999999999999972e+01,3.938997768696132773e-02
4.171999999999999886e+01,4.472603311483795002e-02
4.175999999999999801e+01,3.129262546118535826e-02
4.179999999999999716e+01,3.011407057894012820e-02
4.184000000000000341e+01,3.423473691800538871e-02
4.188000000000000256e+01,2.576871736752740782e-02
4.192000000000000171e+01,2.845347740660497324e-02
4.196000000000000085e+01,2.550717816284463896e-02
4.200000000000000000e+01,2.907456861151232197e-02
4.203999999999999915e+01,2.546520094790329439e-02
4.207999999999999829e+01,3.267538581112301721e-02
4.211999999999999744e+01,2.012243134802446307e-02
4.215999999999999659e+01,2.214285812692517660e-02
4.220000000000000284e+01,1.720733385005251623e-02
4.224000000000000199e+01,2.132484632728329915e-02
4.228000000000000114e+01,2.875423907082691466e-02
4.232000000000000028e+01,2.481140286136444481e-02
4.235999999999999943e+01,1.832888195878093832e-02
4.239999999999999858e+01,2.112020486680419445e-02
4.243999999999999773e+01,2.214468755303417372e-02
4.247999999999999687e+01,1.886297142121510367e-02
4.252000000000000313e+01,1.955556661200184843e-02
4.256000000000000227e+01,2.079985993837038180e-02
4.260000000000000142e+01,1.806916997483629453e-02
4.264000000000000057e+01,2.626841629281626359e-02
4.267999999999999972e+01,2.519314848068991697e-02
4.271999999999999886e+01,1.108953287989507437e-02
4.275999999999999801e+01,1.619636040567479229e-02
4.279999999999999716e+01,2.052999429410077778e-02
4.284000000000000341e+01,1.271853004123492739e-02
4.288000000000000256e+01,2.025326513694107253e-02
4.292000000000000171e+01,1.807184892037360865e-02
4.296000000000000085e+01,2.141042143448722984e-02
4.300000000000000000e+01,1.613690757919315419e-02
4.303999999999999915e+01,2.102046576051897278e-02
4.307999999999999829e+01,2.358512323606628755e-02
4.311999999999999744e+01,2.062908046650309413e-02
4.315999999999999659e+01,1.601657463864321340e-02
4.320000000000000284e+01,2.122991378467634777e-02
4.324000000000000199e+01,1.496057925452188957e-02
4.328000000000000114e+01,1.630894992574549035e-02
4.332000000000000028e+01,1.865061471978828739e-02
4.335999999999999943e+01,1.370506020040097167e-02
4.339999999999999858e+01,1.582517181976999046e-02
4.343999999999999773e+01,1.628880884626194431e-02
4.347999999999999687e+01,2.403892236360792231e-02
4.352000000000000313e+01,2.019594384633988451e-02
4.356000000000000227e+01,2.651001594432825584e-02
4.360000000000000142e+01,2.233506095056847496e-02
4.364000000000000057e+01,1.010002734187608747e-02
4.367999999999999972e+01,1.729621260811477559e-02
4.371999999999999886e+01,1.466580678228998451e-02
4.375999999999999801e+01,1.534722025428182646e-02
4.379999999999999716e+01,2.033411279090736531e-02
4.384000000000000341e+01,2.355410743283789868e-02
4.388000000000000256e+01,1.893482722074462180e-02
4.392000000000000171e+01,1.420474817605237722e-02
4.396000000000000085e+01,1.510502349095737933e-02
4.400000000000000000e+01,1.953792186458788369e-02
4.403999999999999915e+01,1.977496397992477631e-02
4.407999999999999829e+01,1.427045265532649217e-02
4.411999999999999744e+01,2.068947805836023057e-02
4.415999999999999659e+01,1.805474201048357791e-02
4.420000000000000284e+01,1.597163653850369389e-02
4.424000000000000199e+01,2.316229907845963887e-02
4.428000000000000114e+01,2.383855217257221243e-02
4.432000000000000028e+01,2.440398995611384181e-02
4.435999999999999943e+01,2.309210159975088814e-02
4.439999999999999858e+01,2.056532639876231319e-02
4.443999999999999773e+01,2.731231097072358074e-02
4.447999999999999687e+01,2.986342115862209226e-02
4.452000000000000313e+01,1.960692305467045746e-02
4.456000000000000227e+01,2.215719814334999802e-02
4.460000000000000142e+01,2.857129204533524758e-02
4.464000000000000057e+01,2.648363884207386929e-02
4.467999999999999972e+01,2.384352820268268586e-02
4.471999999999999886e+01,2.584007920012778431e-02
4.475999999999999801e+01,2.584888075585035569e-02
4.479999999999999716e+01,3.281288395358143706e-02
4.484000000000000341e+01,3.646425252784323695e-02
4.488000000000000256e+01,3.382200058699578321e-02
4.492000000000000171e+01,3.272501097630990674e-02
4.496000000000000085e+01,3.229002745722017037e-02
4.500000000000000000e+01,3.185460743885322465e-02
4.503999999999999915e+01,3.285403798341020309e-02
4.507999999999999829e+01,2.513088964925935115e-02
4.511999999999999744e+01,1.994665682089838063e-02
4.515999999999999659e+01,3.143341130282162332e-02
4.520000000000000284e+01,1.774696520958728846e-02
4.524000000000000199e+01,2.691428526642036800e-02
4.528000000000000114e+01,2.084501559864398307e-02
4.532000000000000028e+01,2.382865580458716492e-02
4.535999999999999943e+01,2.659103103338630869e-02
4.539999999999999858e+01,1.742901630956526088e-02
4.543999999999999773e+01,2.504838418529408209e-02
4.547999999999999687e+01,1.080674466666584066e-02
4.552000000000000313e+01,2.096455529736902454e-02
4.556000000000000227e+01,1.632739196426652092e-02
4.560000000000000142e+01,2.195760203260950158e-02
4.564000000000000057e+01,1.367608943232060358e-02
4.567999999999999972e+01,1.643479470480500165e-02
4.571999999999999886e+01,1.577042227843580835e-02
4.575999999999999801e+01,9.364427204649259165e-03
4.579999999999999716e+01,1.123847446409370100e-02
4.584000000000000341e+01,2.061971464204973709e-02
4.588000000000000256e+01,1.785573144612723553e-02
4.592000000000000171e+01,1.652656256159039036e-02
4.596000000000000085e+01,1.530732445448967742e-02
4.600000000000000000e+01,2.424503644701648392e-02
4.603999999999999915e+01,1.364026127679205530e-02
4.607999999999999829e+01,1.286121243906266504e-02
4.611999999999999744e+01,2.168707463833904545e-02
4.615999999999999659e+01,1.770526098608030466e-02
4.620000000000000284e+01,1.018994303755565642e-02
4.624000000000000199e+01,1.515010860264189713e-02
4.628000000000000114e+01,1.591432563279165935e-02
4.632000000000000028e+01,2.087351109250586839e-02
4.635999999999999943e+01,1.423948752400530822e-02
4.639999999999999858e+01,2.129541594023319495e-02
4.643999999999999773e+01,1.841423439034233639e-02
4.647999999999999687e+01,2.248818527497785380e-02
4.652000000000000313e+01,2.402228009558412744e-02
4.656000000000000227e+01,1.517763271129596997e-02
4.660000000000000142e+01,1.858764036275196638e-02
4.664000000000000057e+01,1.691843005832844443e-02
4.667999999999999972e+01,1.293017074637897376e-02
4.671999999999999886e+01,1.788435681140120720e-02
4.675999999999999801e+01,1.632403126715400651e-02
4.679999999999999716e+01,1.520482236813995407e-02
4.684000000000000341e+01,1.739730588655863039e-02
4.688000000000000256e+01,1.208161143770202818e-02
4.692000000000000171e+01,1.626038824606128308e-02
4.696000000000000085e+01,2.043864781308079789e-02
4.700000000000000000e+01,1.755035176481761078e-02
4.703999999999999915e+01,2.051309684345979309e-02
4.707999999999999829e+01,2.347531973737062780e-02
4.711999999999999744e+01,1.385064088030577879e-02
4.715999999999999659e+01,2.277378294904790906e-02
4.720000000000000284e+01,2.098693597660241175e-02
4.724000000000000199e+01,2.416786730130810606e-02
4.728000000000000114e+01,2.734826820229649402e-02
4.732000000000000028e+01,2.544942313485313440e-02
4.735999999999999943e+01,2.443329893886630674e-02
4.739999999999999858e+01,1.712345041654699321e-02
4.743999999999999773e+01,2.295147691699896131e-02
4.747999999999999687e+01,2.182333485244791413e-02
4.752000000000000313e+01,2.025302518201228807e-02
4.756000000000000227e+01,1.879258037712504964e-02
4.760000000000000142e+01,2.682657881690135235e-02
4.764000000000000057e+01,2.271528137972256625e-02
4.767999999999999972e+01,2.622150788623045167e-02
4.771999999999999886e+01,2.674620159940917577e-02
4.775999999999999801e+01,2.616627687684400239e-02
4.779999999999999716e+01,2.514417301381390371e-02
4.784000000000000341e+01,2.423192248175182542e-02
4.788000000000000256e+01,2.983311941593018435e-02
4.792000000000000171e+01,1.898314280857798034e-02
4.796000000000000085e+01,2.259590168878584243e-02
4.800000000000000000e+01,2.245426847416197649e-02
4.803999999999999915e+01,2.120800528921385625e-02
4.807999999999999829e+01,2.327338343998538658e-02
4.811999999999999744e+01,1.904500760407497675e-02
4.815999999999999659e+01,2.662959524443396855e-02
4.820000000000000284e+01,2.560188230175004798e-02
4.824000000000000199e+01,2.015732643437505647e-02
4.828000000000000114e+01,2.012213331680828832e-02
4.832000000000000028e+01,1.611172127434015375e-02
4.835999999999999943e+01,2.093328022531274271e-02
4.839999999999999858e+01,1.725293717810244890e-02
4.843999999999999773e+01,1.920276393720366306e-02
4.847999999999999687e+01,1.817102659482899146e-02
4.852000000000000313e+01,1.482016444625743751e-02
4.856000000000000227e+01,1.908678998983431158e-02
4.860000000000000142e+01,2.379445802777057500e-02
4.864000000000000057e+01,1.768167087997424280e-02
4.867999999999999972e+01,1.907595965708870286e-02
4.871999999999999886e+01,1.550135161671562130e-02
4.875999999999999801e+01,2.362927551180804206e-02
4.879999999999999716e+01,1.663087149998394507e-02
4.884000000000000341e+01,1.669790952649779017e-02
4.888000000000000256e+01,1.731638533663670820e-02
4.892000000000000171e+01,2.124646787875421675e-02
4.896000000000000085e+01,1.678503217737415190e-02
4.900000000000000000e+01,2.181798204775586142e-02
4.903999999999999915e+01,2.066754685596616445e-02
4.907999999999999829e+01,1.808121837958706277e-02
4.911999999999999744e+01,1.461102909005153327e-02
4.915999999999999659e+01,2.140806654801118147e-02
4.920000000000000284e+01,2.069683046645831234e-02
4.924000000000000199e+01,1.943294909989550998e-02
4.928000000000000114e+01,2.280554152128887180e-02
4.932000000000000028e+01,2.286531476592720130e-02
4.935999999999999943e+01,1.950186036216727467e-02
4.939999999999999858e+01,2.982823435834622630e-02
4.943999999999999773e+01,2.867167926977250147e-02
4.947999999999999687e+01,2.530636665171524802e-02
4.952000000000000313e+01,2.746077252559923562e-02
4.956000000000000227e+01,3.392042018132092329e-02
4.960000000000000142e+01,3.353421876263436296e-02
4.964000000000000057e+01,4.440888573249090338e-02
4.967999999999999972e+01,4.910014127542091517e-02
4.971999999999999886e+01,5.125140893054615926e-02
4.975999999999999801e+01,5.759750330467714591e-02
4.979999999999999716e+01,6.858005004540076999e-02
4.984000000000000341e+01,6.046158037802384921e-02
4.988000000000000256e+01,7.331976971085731043e-02
4.992000000000000171e+01,6.575205745384349321e-02
4.996000000000000085e+01,6.226875685300342633e-02
5.000000000000000000e+01,6.010969566438918027e-02
5.003999999999999915e+01,5.993731318327976537e-02
5.007999999999999829e+01,5.457516421188613603e-02
5.011999999999999744e+01,4.578975628394757469e-02
5.015999999999999659e+01,4.539461790319184592e-02
5.020000000000000284e+01,4.080336950337461188e-02
5.024000000000000199e+01,3.786757110053813602e-02
5.028000000000000114e+01,2.731304784381886896e-02
5.032000000000000028e+01,2.912343320155068652e-02
5.035999999999999943e+01,2.828339748287658426e-02
5.039999999999999858e+01,2.424090492076922884e-02
5.043999999999999773e+01,2.339954965050106833e-02
5.047999999999999687e+01,2.211590483735596108e-02
5.052000000000000313e+01,2.182525754353509609e-02
5.056000000000000227e+01,2.307964024047140517e-02
5.060000000000000142e+01,2.576864445652167490e-02
5.064000000000000057e+01,2.061809534082233511e-02
5.067999999999999972e+01,2.363698070325028627e-02
5.071999999999999886e+01,2.290136192063730106e-02
5.075999999999999801e+01,1.918408511210836082e-02
5.079999999999999716e+01,1.910955806062795623e-02
5.084000000000000341e+01,2.543794971454962917e-02
5.088000000000000256e+01,1.575667318533246694e-02
5.092000000000000171e+01,1.855068737745447366e-02
5.096000000000000085e+01,2.145442637236339919e-02
5.100000000000000000e+01,2.115568380688113287e-02
5.103999999999999915e+01,1.897933991936284065e-02
5.107999999999999829e+01,1.923125919200645295e-02
5.111999999999999744e+01,1.583906466548320319e-02
5.115999999999999659e+01,2.017465754813677764e-02
5.120000000000000284e+01,1.943084462603074727e-02
5.124000000000000199e+01,1.769267673367093743e-02
5.128000000000000114e+01,2.037008659171555061e-02
5.132000000000000028e+01,1.708483111084075495e-02
5.135999999999999943e+01,2.196898209554091694e-02
5.139999999999999858e+01,1.238913900958312463e-02
5.143999999999999773e+01,1.517415839975499135e-02
5.147999999999999687e+01,2.171230635826911295e-02
5.152000000000000313e+01,2.107330567657154236e-02
5.156000000000000227e+01,1.557569800763166680e-02
5.160000000000000142e+01,2.034521657055815211e-02
5.164000000000000057e+01,1.407334271527036634e-02
5.167999999999999972e+01,1.718533720548631044e-02
5.171999999999999886e+01,2.217353437187888701e-02
5.175999999999999801e+01,2.141986172127495827e-02
5.179999999999999716e+01,1.713245408279791965e-02
5.184000000000000341e+01,1.814385571633279209e-02
5.188000000000000256e+01,1.838168966255084719e-02
5.192000000000000171e+01,1.839798839288500285e-02
5.196000000000000085e+01,1.786152978800002733e-02
5.200000000000000000e+01,1.721393949548280858e-02
5.203999999999999915e+01,1.689684316292027616e-02
5.207999999999999829e+01,1.514372996097878427e-02
5.211999999999999744e+01,9.194427645710455399e-03
5.215999999999999659e+01,1.572036497006831096e-02
5.220000000000000284e+01,1.363383693166377378e-02
5.224000000000000199e+01,1.530040615345485723e-02
5.228000000000000114e+01,1.928478227764597250e-02
5.232000000000000028e+01,2.106028387875271898e-02
5.235999999999999943e+01,2.018528201359387833e-02
5.239999999999999858e+01,1.500367267668179308e-02
5.243999999999999773e+01,1.258149094636504955e-02
5.247999999999999687e+01,2.053680602022240134e-02
5.252000000000000313e+01,1.932760842970972920e-02
5.256000000000000227e+01,1.723440831548187988e-02
5.260000000000000142e+01,1.392598355820361122e-02
5.264000000000000057e+01,1.757243747468378858e-02
5.267999999999999972e+01,2.000366345251917630e-02
5.271999999999999886e+01,1.658257324237934552e-02
5.275999999999999801e+01,1.415438827492089199e-02
5.279999999999999716e+01,1.735619350387979792e-02
5.284000000000000341e+01,1.901154373146700036e-02
5.288000000000000256e+01,2.088694649142178866e-02
5.292000000000000171e+01,1.801409306287569262e-02
5.296000000000000085e+01,1.867349358648363183e-02
5.300000000000000000e+01,1.690317792676289052e-02
5.303999999999999915e+01,1.435924679360670898e-02
5.307999999999999829e+01,2.064709221382231633e-02
5.311999999999999744e+01,1.600389107117349344e-02
5.315999999999999659e+01,1.566578340861495000e-02
5.320000000000000284e+01,1.775585157296697900e-02
5.324000000000000199e+01,1.520805719028660470e-02
5.328000000000000114e+01,1.376355345277009527e-02
5.332000000000000028e+01,1.507844107031067367e-02
5.335999999999999943e+01,1.661336144665249634e-02
5.339999999999999858e+01,2.035563576322688140e-02
5.343999999999999773e+01,1.946003929378290268e-02
5.347999999999999687e+01,1.282250215206305090e-02
5.352000000000000313e+01,1.854974180101876327e-02
5.356000000000000227e+01,2.195764902133111665e-02
5.360000000000000142e+01,1.995483109751411757e-02
5.364000000000000057e+01,1.971772993176239969e-02
5.367999999999999972e+01,1.925902104705024681e-02
5.371999999999999886e+01,1.327917525097116296e-02
5.375999999999999801e+01,1.844962129647817820e-02
5.379999999999999716e+01,1.754689301579366589e-02
5.384000000000000341e+01,2.094923020264713096e-02
5.388000000000000256e+01,1.518699870002592107e-02
5.392000000000000171e+01,1.814610232318940655e-02
5.396000000000000085e+01,1.271348172820605665e-02
5.400000000000000000e+01,1.876236355956368423e-02
5.403999999999999915e+01,1.509463599102772030e-02
5.407999999999999829e+01,1.882335507093536170e-02
5.411999999999999744e+01,2.233044830611345677e-02
5.415999999999999659e+01,1.821865685108089300e-02
5.420000000000000284e+01,1.576215226110687720e-02
5.424000000000000199e+01,1.429849194531806165e-02
5.428000000000000114e+01,1.437970837514733480e-02
5.432000000000000028e+01,2.130532744740687781e-02
5.435999999999999943e+01,1.255235544970979313e-02
5.439999999999999858e+01,1.914510823499273109e-02
5.443999999999999773e+01,1.591082831856411792e-02
5.447999999999999687e+01,1.665036703338027349e-02
5.452000000000000313e+01,2.003884084549167888e-02
5.456000000000000227e+01,1.856858408557119852e-02
5.460000000000000142e+01,1.301244287274386409e-02
5.464000000000000057e+01,1.695045489227390081e-02
5.467999999999999972e+01,1.702339281099475576e-02
5.471999999999999886e+01,1.499776416264566280e-02
5.475999999999999801e+01,1.981652003095771622e-02
5.479999999999999716e+01,1.558107613430565787e-02
5.484000000000000341e+01,1.476740191949346866e-02
5.488000000000000256e+01,1.715468209103191907e-02
5.492000000000000171e+01,1.755379428036047545e-02
5.496000000000000085e+01,1.695839825429620862e-02
5.500000000000000000e+01,1.868069708042273749e-02
5.503999999999999915e+01,1.940848439556208671e-02
5.507999999999999829e+01,1.914175855191699305e-02
5.511999999999999744e+01,2.240719767937745383e-02
5.515999999999999659e+01,2.467812035245912569e-02
5.520000000000000284e+01,1.281611288568748619e-02
5.524000000000000199e+01,1.663101606969285759e-02
5.528000000000000114e+01,1.801610914592948268e-02
5.532000000000000028e+01,1.995237471044294247e-02
5.535999999999999943e+01,1.780272451390282895e-02
5.539999999999999858e+01,2.161417787850052757e-02
5.543999999999999773e+01,1.824832111876149854e-02
5.547999999999999687e+01,1.708973261380091618e-02
5.552000000000000313e+01,1.946329260197396382e-02
5.556000000000000227e+01,2.073191283395022302e-02
5.560000000000000142e+01,2.597430555884981326e-02
5.564000000000000057e+01,2.050636155735380273e-02
5.567999999999999972e+01,1.779771169088044391e-02
5.571999999999999886e+01,2.248544091316567392e-02
5.575999999999999801e+01,1.778771035181605717e-02
5.579999999999999716e+01,1.717415086824982881e-02
5.584000000000000341e+01,2.506103376851092149e-02
5.588000000000000256e+01,2.466652018020586146e-02
5.592000000000000171e+01,1.985484729014842797e-02
5.596000000000000085e+01,2.387483231206482745e-02
5.600000000000000000e+01,2.281521379355831713e-02
5.603999999999999915e+01,1.954656750682840644e-02
5.607999999999999829e+01,2.168696264945387323e-02
5.611999999999999744e+01,2.073507213749333639e-02
5.615999999999999659e+01,2.563384705467788155e-02
5.620000000000000284e+01,2.125755088630451248e-02
5.624000000000000199e+01,2.251110320378973961e-02
5.628000000000000114e+01,1.879544727011771624e-02
5.632000000000000028e+01,2.269695935593846539e-02
5.635999999999999943e+01,2.648716014423281584e-02
5.639999999999999858e+01,2.100228160798324126e-02
5.643999999999999773e+01,2.721961863013786995e-02
5.647999999999999687e+01,2.968221422445560878e-02
5.652000000000000313e+01,3.446244205467075689e-02
5.656000000000000227e+01,3.085083855992144103e-02
5.660000000000000142e+01,2.878401623855301669e-02
5.664000000000000057e+01,3.687370570275838588e-02
5.667999999999999972e+01,3.513627018860936840e-02
5.671999999999999886e+01,3.107937206983863235e-02
5.675999999999999801e+01,3.684776032171208082e-02
5.679999999999999716e+01,3.521796877645214097e-02
5.684000000000000341e+01,3.723067817086442299e-02
5.688000000000000256e+01,3.813839343177251318e-02
5.692000000000000171e+01,3.440809454830634495e-02
5.696000000000000085e+01,3.420988483727478713e-02
5.700000000000000000e+01,3.367952381626967279e-02
5.703999999999999915e+01,2.806951641211459861e-02
5.707999999999999829e+01,2.819972971392309055e-02
5.711999999999999744e+01,2.877063452928863008e-02
5.715999999999999659e+01,2.459310848965073210e-02
5.720000000000000284e+01,3.002003704719581612e-02
5.724000000000000199e+01,3.257544745952549448e-02
5.728000000000000114e+01,3.071364254499825766e-02
5.732000000000000028e+01,2.796763901888973947e-02
5.735999999999999943e+01,3.063062419262637184e-02
5.739999999999999858e+01,3.042208462995884752e-02
5.743999999999999773e+01,3.087503704616286967e-02
5.747999999999999687e+01,2.547547718652561077e-02
5.752000000000000313e+01,2.879710415092555029e-02
5.756000000000000227e+01,2.979923390696270075e-02
5.760000000000000142e+01,2.958593304530015428e-02
5.764000000000000057e+01,2.263685872583933584e-02
5.767999999999999972e+01,2.860442394537599659e-02
5.771999999999999886e+01,3.181085806997695220e-02
5.775999999999999801e+01,3.589958463876399136e-02
5.779999999999999716e+01,2.938829232395297544e-02
5.784000000000000341e+01,3.336468283233804538e-02
5.788000000000000256e+01,3.281342647306222798e-02
5.792000000000000171e+01,2.994265807524888398e-02
5.796000000000000085e+01,3.965729721031459321e-02
5.800000000000000000e+01,3.744702733664391492e-02
5.803999999999999915e+01,4.097693862180418201e-02
5.807999999999999829e+01,4.417465410646664176e-02
5.811999999999999744e+01,4.637773119975792391e-02
5.815999999999999659e+01,4.869023649234114487e-02
5.820000000000000284e+01,4.592304761565575016e-02
5.824000000000000199e+01,5.364352508419452381e-02
5.828000000000000114e+01,5.584267779248619501e-02
5.832000000000000028e+01,5.505986104119222485e-02
5.835999999999999943e+01,6.211494191942616705e-02
5.839999999999999858e+01,5.790753825402795985e-02
5.843999999999999773e+01,5.811541738333640683e-02
5.847999999999999687e+01,5.357481128033401985e-02
5.852000000000000313e+01,5.654087574413262096e-02
5.856000000000000227e+01,5.685618133310053196e-02
5.860000000000000142e+01,6.313245865943070689e-02
5.864000000000000057e+01,5.925030979380585539e-02
5.867999999999999972e+01,5.426309264380306530e-02
5.871999999999999886e+01,5.634091052623128870e-02
5.875999999999999801e+01,6.007382742483786953e-02
5.879999999999999716e+01,5.232342965414829572e-02
5.884000000000000341e+01,5.196928244403621611e-02
5.888000000000000256e+01,4.642500622825721651e-02
5.892000000000000171e+01,4.330867020439004011e-02
5.896000000000000085e+01,4.659491838309447187e-02
5.900000000000000000e+01,4.899689874273548823e-02
5.903999999999999915e+01,4.256531831860189269e-02
5.907999999999999829e+01,3.271010983135183570e-02
5.911999999999999744e+01,3.014073354625289650e-02
5.915999999999999659e+01,3.585084923012205049e-02
5.920000000000000284e+01,2.775909046595653740e-02
5.924000000000000199e+01,2.297851330209353671e-02
5.928000000000000114e+01,2.758149140226736143e-02
5.932000000000000028e+01,2.379252447947029919e-02
5.935999999999999943e+01,2.452920927589045258e-02
5.939999999999999858e+01,2.681055989988787025e-02
5.943999999999999773e+01,2.191443561982911806e-02
5.947999999999999687e+01,1.845256704790722638e-02
5.952000000000000313e+01,1.797064807016938645e-02
5.956000000000000227e+01,1.649403138036138056e-02
5.960000000000000142e+01,2.153037935221593924e-02
5.964000000000000057e+01,1.276483475026668306e-02
5.967999999999999972e+01,1.702625412130122709e-02
5.971999999999999886e+01,1.554547576369764983e-02
5.975999999999999801e+01,1.340121192657600831e-02
5.979999999999999716e+01,1.556176803521041804e-02
5.984000000000000341e+01,1.109686688104683829e-02
5.988000000000000256e+01,1.811322592703669410e-02
5.992000000000000171e+01,1.430866510848520685e-02
5.996000000000000085e+01,1.348403575834859758e-02
