2.003999999999999915e+01,5.456252135201391726e-03
2.007999999999999829e+01,5.427212713360878883e-03
2.012000000000000099e+01,6.269896514572241217e-03
2.016000000000000014e+01,5.641285825668515552e-03
2.019999999999999929e+01,4.794622771895326423e-03
2.023999999999999844e+01,2.803598061278169198e-03
2.028000000000000114e+01,4.245269730323854643e-03
2.032000000000000028e+01,2.363028445993510009e-03
2.035999999999999943e+01,3.967972447444757626e-03
2.039999999999999858e+01,4.210599891706548643e-03
2.044000000000000128e+01,4.834551972899238034e-03
2.048000000000000043e+01,5.131474540770359499e-03
2.051999999999999957e+01,6.354609720565737932e-03
2.055999999999999872e+01,1.529393037524473531e-03
2.060000000000000142e+01,3.733133055312616490e-03
2.064000000000000057e+01,4.465579307115035562e-03
2.067999999999999972e+01,5.252417845330107672e-03
2.071999999999999886e+01,3.587164600498583041e-03
2.076000000000000156e+01,3.229545827669638020e-03
2.080000000000000071e+01,2.272454097119641463e-03
2.083999999999999986e+01,4.802548376480801628e-03
2.087999999999999901e+01,4.226685689005804658e-03
2.092000000000000171e+01,3.650726864577713646e-03
2.096000000000000085e+01,2.202851396652538100e-03
2.100000000000000000e+01,3.642785540279467812e-03
2.103999999999999915e+01,5.518534011429766274e-03
2.107999999999999829e+01,5.378101526074709551e-03
2.112000000000000099e+01,4.856151707473665979e-03
2.116000000000000014e+01,2.318021053055520884e-03
2.119999999999999929e+01,4.138897518533844223e-03
2.123999999999999844e+01,3.398705414578245994e-03
2.128000000000000114e+01,3.094328000210800917e-03
2.132000000000000028e+01,2.789855052331577812e-03
2.135999999999999943e+01,3.084663271020292655e-03
2.139999999999999858e+01,6.049326562980366154e-03
2.144000000000000128e+01,5.199679522325501881e-03
2.148000000000000043e+01,3.151183910064202058e-03
2.151999999999999957e+01,4.535386548133765565e-03
2.155999999999999872e+01,4.502785593563127069e-03
2.160000000000000142e+01,5.178443738486227486e-03
2.164000000000000057e+01,2.802634848542136757e-03
2.167999999999999972e+01,4.731345017193558725e-03
2.171999999999999886e+01,3.990009769679630017e-03
2.176000000000000156e+01,1.450449733232564431e-03
2.180000000000000071e+01,3.324386507274444159e-03
2.183999999999999986e+01,4.435385536251117318e-03
2.187999999999999901e+01,3.148783317591488315e-03
2.192000000000000171e+01,3.169817320914212859e-03
2.196000000000000085e+01,3.245245541661756581e-03
2.200000000000000000e+01,2.230803546137571751e-03
2.203999999999999915e+01,3.068885807933219821e-03
2.207999999999999829e+01,4.560739107921650201e-03
2.212000000000000099e+01,3.055614882602980184e-03
2.216000000000000014e+01,5.473588941995830015e-03
2.219999999999999929e+01,3.750321102729151611e-03
2.223999999999999844e+01,4.152021749655504870e-03
2.228000000000000114e+01,2.374076894108879520e-03
2.232000000000000028e+01,5.336562346107932668e-03
2.235999999999999943e+01,3.994339784532452420e-03
2.239999999999999858e+01,4.777085950526522434e-03
2.244000000000000128e+01,4.742406491186835354e-03
2.248000000000000043e+01,2.855014543677864350e-03
2.251999999999999957e+01,4.727255067686084687e-03
2.255999999999999872e+01,2.676209377853980016e-03
2.260000000000000142e+01,2.314222433868008254e-03
2.264000000000000057e+01,3.259872798058751058e-03
2.267999999999999972e+01,4.314407251299152632e-03
2.271999999999999886e+01,4.115606218170649901e-03
2.276000000000000156e+01,2.118581904712276472e-03
2.280000000000000071e+01,3.445280201735948476e-03
2.283999999999999986e+01,4.444952545741727261e-03
2.287999999999999901e+01,4.736177499060207491e-03
2.292000000000000171e+01,3.283668198855857565e-03
2.296000000000000085e+01,3.629195758455827214e-03
2.300000000000000000e+01,3.702186391844949822e-03
2.303999999999999915e+01,5.082814936852085227e-03
2.307999999999999829e+01,3.303001048519705902e-03
2.312000000000000099e+01,4.519977540839343472e-03
2.316000000000000014e+01,1.868157509911120770e-03
2.319999999999999929e+01,3.956769114099438836e-03
2.323999999999999844e+01,4.901023587253559161e-03
2.328000000000000114e+01,3.447678924815917451e-03
2.332000000000000028e+01,3.247483810974704718e-03
2.335999999999999943e+01,3.047196241172350165e-03
2.339999999999999858e+01,4.917390122112287945e-03
2.344000000000000128e+01,4.008563610823437547e-03
2.348000000000000043e+01,5.551640168978701738e-03
2.351999999999999957e+01,5.078539451620556894e-03
2.355999999999999872e+01,3.733526013133781421e-03
2.360000000000000142e+01,3.532684974791336970e-03
2.364000000000000057e+01,4.639482753228850280e-03
2.367999999999999972e+01,3.021749286932863109e-03
2.371999999999999886e+01,2.820632328966121271e-03
2.376000000000000156e+01,3.927154368811723757e-03
2.380000000000000071e+01,4.815629474759595442e-03
2.383999999999999986e+01,3.306506289933547078e-03
2.387999999999999901e+01,4.140309207131881962e-03
2.392000000000000171e+01,2.576513954244562601e-03
2.396000000000000085e+01,2.919734640625834283e-03
2.400000000000000000e+01,1.846155415358837534e-03
2.403999999999999915e+01,5.131587594421560539e-03
2.407999999999999829e+01,6.291865771927676945e-03
2.412000000000000099e+01,2.929483449278975221e-03
2.416000000000000014e+01,3.871623926561860041e-03
2.419999999999999929e+01,2.961054510473070354e-03
2.423999999999999844e+01,3.085680889173660416e-03
2.428000000000000114e+01,4.136525552146740926e-03
2.432000000000000028e+01,1.863463296156821821e-03
2.435999999999999943e+01,2.151283008042900909e-03
2.439999999999999858e+01,1.240258553444042490e-03
2.444000000000000128e+01,4.143358252311127483e-03
2.448000000000000043e+01,5.629658763659502012e-03
2.451999999999999957e+01,4.118985370348595895e-03
2.455999999999999872e+01,3.480041898288577761e-03
2.460000000000000142e+01,2.841007840935451910e-03
2.464000000000000057e+01,4.871833744728252050e-03
2.467999999999999972e+01,2.107556066031505797e-03
2.471999999999999886e+01,6.699174016192633620e-03
2.476000000000000156e+01,2.899428666138942085e-03
2.480000000000000071e+01,2.477897729204301281e-03
2.483999999999999986e+01,2.328720496193877488e-03
2.487999999999999901e+01,4.413493302950094802e-03
2.492000000000000171e+01,4.482090946237461855e-03
2.496000000000000085e+01,2.316558344678061945e-03
2.500000000000000000e+01,3.747195599680396959e-03
2.503999999999999915e+01,2.180859734497129186e-03
2.507999999999999829e+01,1.240349392757389728e-04
2.512000000000000099e+01,3.298043744563718040e-03
2.516000000000000014e+01,2.657747829240859807e-03
2.519999999999999929e+01,3.815492152993616663e-03
2.523999999999999844e+01,3.719904792057669024e-03
2.528000000000000114e+01,4.223604511414418353e-03
2.532000000000000028e+01,5.599035298560550017e-03
2.535999999999999943e+01,3.269139237677506915e-03
2.539999999999999858e+01,1.593019223550055192e-03
2.544000000000000128e+01,2.368805235729111881e-03
2.548000000000000043e+01,4.888143123962180973e-03
2.551999999999999957e+01,5.445795539318858472e-03
2.555999999999999872e+01,3.224430760685651105e-03
2.560000000000000142e+01,5.198613383511717541e-03
2.564000000000000057e+01,1.069963021775160181e-03
2.567999999999999972e+01,1.790725607352251130e-03
2.571999999999999886e+01,3.274242293298988086e-03
2.576000000000000156e+01,3.123006581017161252e-03
2.580000000000000071e+01,5.205722296416976334e-03
2.583999999999999986e+01,2.711291321029051220e-03
2.587999999999999901e+01,4.139964242356766050e-03
2.592000000000000171e+01,5.350593428025645151e-03
2.596000000000000085e+01,3.346295739701885246e-03
2.600000000000000000e+01,3.793904922502439308e-03
2.603999999999999915e+01,4.622847190412139422e-03
2.607999999999999829e+01,5.887611389205621784e-03
2.612000000000000099e+01,3.447049886508404219e-03
2.616000000000000014e+01,3.349417925451010029e-03
2.619999999999999929e+01,6.575513704126717714e-03
2.623999999999999844e+01,4.243665257706843476e-03
2.628000000000000114e+01,4.472701675681218375e-03
2.632000000000000028e+01,2.522098685939765886e-03
2.635999999999999943e+01,2.750959183267264515e-03
2.639999999999999858e+01,3.088709381648547213e-03
2.644000000000000128e+01,4.788591406329412853e-03
2.648000000000000043e+01,2.129282847450667069e-03
2.651999999999999957e+01,3.611034292515675689e-03
2.655999999999999872e+01,1.006039201861866437e-03
2.660000000000000142e+01,3.522902373589210413e-03
2.664000000000000057e+01,3.914615405784292214e-03
2.667999999999999972e+01,3.597886779984448783e-03
2.671999999999999886e+01,1.319474491632108889e-03
2.676000000000000156e+01,2.691723500413742160e-03
2.680000000000000071e+01,4.336329169981975422e-03
2.683999999999999986e+01,2.057655082531820168e-03
2.687999999999999901e+01,1.849467695763302695e-03
2.692000000000000171e+01,3.112390430284949633e-03
2.696000000000000085e+01,5.192557921274801661e-03
2.700000000000000000e+01,1.605804762846539582e-03
2.703999999999999915e+01,2.650511461710289285e-03
2.707999999999999829e+01,5.057350952379724082e-03
2.712000000000000099e+01,4.031310177314248976e-03
2.716000000000000014e+01,2.514783610105444933e-03
2.719999999999999929e+01,2.469367586595722173e-03
2.723999999999999844e+01,1.443066822756345052e-03
2.728000000000000114e+01,2.977652431914476743e-03
2.732000000000000028e+01,3.694819777722738001e-03
2.735999999999999943e+01,2.777237139067639891e-03
2.739999999999999858e+01,4.311563483581433605e-03
2.744000000000000128e+01,3.393808182862506715e-03
2.748000000000000043e+01,1.822101216461765195e-03
2.751999999999999957e+01,2.811280985123293039e-03
2.755999999999999872e+01,2.928554067069239365e-03
2.760000000000000142e+01,2.282898093504747133e-03
2.764000000000000057e+01,4.797505675770506045e-03
2.767999999999999972e+01,2.734969343078520743e-03
2.771999999999999886e+01,5.140427537237257649e-03
2.776000000000000156e+01,3.023230722557018572e-03
2.780000000000000071e+01,3.031010781903902950e-03
2.783999999999999986e+01,4.891323848469508566e-03
2.787999999999999901e+01,3.318757795838691693e-03
2.792000000000000171e+01,1.255707097603015300e-03
2.796000000000000085e+01,3.878606430004866504e-03
2.800000000000000000e+01,2.469250184507092855e-03
2.803999999999999915e+01,5.255445021460533953e-03
2.807999999999999829e+01,3.464496546897542079e-03
2.812000000000000099e+01,1.237552513880838109e-03
2.816000000000000014e+01,8.631419708358943101e-04
2.819999999999999929e+01,2.177798621815331317e-03
2.823999999999999844e+01,2.348105684776844674e-03
2.828000000000000114e+01,4.152991277020471640e-03
2.832000000000000028e+01,1.925621774117537840e-03
2.835999999999999943e+01,2.477095415225640668e-03
2.839999999999999858e+01,2.047686065983875432e-03
2.844000000000000128e+01,2.544501276804151009e-03
2.848000000000000043e+01,2.768787828559416374e-03
2.851999999999999957e+01,1.576281287553135723e-03
2.855999999999999872e+01,2.726707908834497766e-03
2.860000000000000142e+01,2.950740626917140036e-03
2.864000000000000057e+01,3.665087923338416175e-03
2.867999999999999972e+01,1.981844230625514312e-03
2.871999999999999886e+01,2.369090014424240359e-03
2.876000000000000156e+01,4.445403837065159056e-03
2.880000000000000071e+01,2.598440859550071348e-03
2.883999999999999986e+01,1.841169401829853385e-03
2.887999999999999901e+01,2.936432520275738395e-03
2.892000000000000171e+01,3.268768574567483889e-03
2.896000000000000085e+01,2.838177625049204990e-03
2.900000000000000000e+01,4.859498072465016048e-03
2.903999999999999915e+01,1.813277587748937702e-03
2.907999999999999829e+01,3.616475179597563889e-03
2.912000000000000099e+01,4.220835725568626053e-03
2.916000000000000014e+01,2.809027504548636343e-03
2.919999999999999929e+01,2.922821629864752295e-03
2.923999999999999844e+01,2.328177959210269224e-03
2.928000000000000114e+01,3.150159184719141057e-03
2.932000000000000028e+01,2.010460670043982476e-03
2.935999999999999943e+01,2.450853528511962292e-03
2.939999999999999858e+01,4.035427537023137182e-03
2.944000000000000128e+01,3.276900488369117407e-03
2.948000000000000043e+01,3.989487423029612970e-03
2.951999999999999957e+01,3.339771558962324836e-03
2.955999999999999872e+01,2.090595952538498378e-03
2.960000000000000142e+01,2.040090583309027428e-03
2.964000000000000057e+01,2.752345228173979936e-03
2.967999999999999972e+01,2.810651526284279125e-03
2.971999999999999886e+01,2.323987108845061451e-03
2.976000000000000156e+01,2.872526813685200194e-03
2.980000000000000071e+01,2.494674425650537496e-03
2.983999999999999986e+01,4.241801989193646170e-03
2.987999999999999901e+01,1.084856244123124421e-03
2.992000000000000171e+01,2.940796199135566839e-03
2.996000000000000085e+01,1.745281670859906908e-03
3.000000000000000000e+01,1.748437983219906355e-03
3.003999999999999915e+01,4.257996046891891415e-03
3.007999999999999829e+01,4.478942804335279450e-03
3.012000000000000099e+01,4.427363376822995682e-03
3.016000000000000014e+01,2.032683978339878701e-03
3.019999999999999929e+01,2.253384143406276640e-03
3.023999999999999844e+01,3.509289154881588962e-03
3.028000000000000114e+01,2.476583161848961833e-03
3.032000000000000028e+01,4.168234484259259257e-03
3.035999999999999943e+01,3.462297351988854761e-03
3.039999999999999858e+01,3.628098951212371630e-03
3.044000000000000128e+01,1.723244929026489063e-03
3.048000000000000043e+01,2.978658747104126307e-03
3.051999999999999957e+01,4.397457267111454064e-03
3.055999999999999872e+01,3.146223707006204958e-03
3.060000000000000142e+01,4.237926386739228682e-03
3.064000000000000057e+01,3.967327957380121888e-03
3.067999999999999972e+01,3.097271475300124744e-03
3.071999999999999886e+01,3.534864490911139839e-03
3.076000000000000156e+01,2.719134149323433180e-03
3.080000000000000071e+01,4.518784276447204186e-03
3.083999999999999986e+01,4.574712098185928014e-03
3.087999999999999901e+01,2.559984962300696550e-03
3.092000000000000171e+01,2.670239407284755867e-03
3.096000000000000085e+01,2.290013792817852632e-03
3.100000000000000000e+01,2.727039029576307227e-03
3.103999999999999915e+01,2.401140400419518681e-03
3.107999999999999829e+01,2.511071245162790379e-03
3.112000000000000099e+01,3.710697049316358936e-03
3.116000000000000014e+01,1.640915038783699511e-03
3.119999999999999929e+01,2.567935598417372435e-03
3.123999999999999844e+01,4.966072796507284802e-03
3.128000000000000114e+01,1.588318231139996921e-03
3.132000000000000028e+01,3.659361761344290861e-03
3.135999999999999943e+01,3.659751058054186174e-03
3.139999999999999858e+01,3.224149744529064207e-03
3.144000000000000128e+01,2.461535451974061848e-03
3.148000000000000043e+01,2.352706378482462366e-03
3.151999999999999957e+01,1.644420519496708191e-03
3.155999999999999872e+01,2.025830283706663362e-03
3.160000000000000142e+01,2.734092735429371947e-03
3.164000000000000057e+01,2.679432226398781487e-03
3.167999999999999972e+01,4.451403957658334187e-04
3.171999999999999886e+01,1.752539774077989214e-03
3.176000000000000156e+01,3.386792081279393820e-03
3.180000000000000071e+01,3.059368389632859207e-03
3.183999999999999986e+01,3.876129529021466250e-03
3.187999999999999901e+01,4.474855924026651874e-03
3.192000000000000171e+01,2.349063505189171938e-03
3.196000000000000085e+01,2.947630875903941520e-03
3.200000000000000000e+01,4.199984250155818291e-03
3.203999999999999915e+01,2.673330206166901063e-03
3.207999999999999829e+01,2.835749209582990975e-03
3.211999999999999744e+01,3.433999255846535443e-03
3.215999999999999659e+01,0.000000000000000000e+00
3.220000000000000284e+01,4.139862799085723168e-03
3.224000000000000199e+01,1.632014716085244477e-03
3.228000000000000114e+01,3.319724112013790196e-03
3.232000000000000028e+01,3.754112504164686549e-03
3.235999999999999943e+01,2.117848171424451323e-03
3.239999999999999858e+01,2.170657368842255665e-03
3.243999999999999773e+01,2.114410237555478488e-03
3.247999999999999687e+01,1.240752627311629639e-03
3.252000000000000313e+01,3.254922007729396487e-03
3.256000000000000227e+01,2.708039896102111110e-03
3.260000000000000142e+01,9.623259885365902447e-04
3.264000000000000057e+01,2.158928038095585776e-03
3.267999999999999972e+01,1.775276914391054738e-03
3.271999999999999886e+01,3.135188589028121975e-03
3.275999999999999801e+01,4.549510774005158242e-03
3.279999999999999716e+01,4.220113610459549393e-03
3.284000000000000341e+01,2.146997158735414451e-03
3.288000000000000256e+01,3.179663382492087156e-03
3.292000000000000171e+01,4.484695499687292759e-03
3.296000000000000085e+01,5.190273003777034697e-03
3.300000000000000000e+01,2.735423039871566833e-03
3.303999999999999915e+01,2.623512996796318816e-03
3.307999999999999829e+01,3.328856942841203811e-03
3.311999999999999744e+01,2.780881091991047830e-03
3.315999999999999659e+01,3.322603278101818412e-03
3.320000000000000284e+01,3.264871213171910598e-03
3.324000000000000199e+01,3.479505524433568545e-03
3.328000000000000114e+01,3.094685705342801324e-03
3.332000000000000028e+01,3.963030520881016469e-03
3.335999999999999943e+01,1.888903553243213764e-03
3.339999999999999858e+01,2.811582474698917297e-03
3.343999999999999773e+01,2.862363580026168735e-03
3.347999999999999687e+01,2.586134783874187697e-03
3.352000000000000313e+01,2.091873717448117578e-03
3.356000000000000227e+01,3.123221574868348914e-03
3.360000000000000142e+01,1.593519509190903906e-03
3.364000000000000057e+01,3.877955476129364872e-03
3.367999999999999972e+01,2.239122004895701106e-03
3.371999999999999886e+01,1.308565917427243581e-03
3.375999999999999801e+01,2.285040553539295898e-03
3.379999999999999716e+01,1.844730062314987309e-03
3.384000000000000341e+01,2.657584990193358025e-03
3.388000000000000256e+01,2.544053980298205571e-03
3.392000000000000171e+01,3.411244583041439689e-03
3.396000000000000085e+01,3.406538154129930794e-03
3.400000000000000000e+01,2.693401110199318202e-03
3.403999999999999915e+01,1.326322297024248083e-03
3.407999999999999829e+01,2.084229831904758998e-03
3.411999999999999744e+01,3.768370495713806428e-03
3.415999999999999659e+01,3.872260218992146230e-03
3.420000000000000284e+01,3.867096268707629052e-03
3.424000000000000199e+01,3.316968421760322847e-03
3.428000000000000114e+01,2.276365523924862942e-03
3.432000000000000028e+01,2.488928769321633802e-03
3.435999999999999943e+01,3.355281578559179620e-03
3.439999999999999858e+01,1.497119315290139580e-03
3.443999999999999773e+01,3.071674793506039454e-03
3.447999999999999687e+01,5.050068987104062339e-04
3.452000000000000313e+01,1.915944720393053524e-03
3.456000000000000227e+01,2.836407913596461494e-03
3.460000000000000142e+01,2.394575971776625230e-03
3.464000000000000057e+01,2.661022801636989728e-03
3.467999999999999972e+01,3.363304536369141930e-03
3.471999999999999886e+01,2.866757673401960221e-03
3.475999999999999801e+01,2.424624337981275569e-03
3.479999999999999716e+01,3.617079367935942171e-03
3.484000000000000341e+01,2.411952701752502221e-03
3.488000000000000256e+01,2.459993023619110302e-03
3.492000000000000171e+01,3.325290110435847810e-03
3.496000000000000085e+01,3.809090743075663719e-03
3.500000000000000000e+01,2.876108058703031201e-03
3.503999999999999915e+01,2.869359891173930369e-03
3.507999999999999829e+01,3.461913588249445305e-03
3.511999999999999744e+01,1.765863582456769559e-03
3.515999999999999659e+01,3.665998760634913301e-03
3.520000000000000284e+01,3.876906996368720444e-03
3.524000000000000199e+01,4.469162196361630562e-03
3.528000000000000114e+01,1.138150371947636635e-03
3.532000000000000028e+01,2.765543608643676772e-03
3.535999999999999943e+01,3.194109213146481465e-03
3.539999999999999858e+01,2.750779958383220078e-03
3.543999999999999773e+01,3.342663394765807341e-03
3.547999999999999687e+01,3.226118448862115486e-03
3.552000000000000313e+01,2.946033035321357629e-03
3.556000000000000227e+01,3.483205352236809233e-03
3.560000000000000142e+01,4.347236391078024113e-03
3.564000000000000057e+01,2.377776657219666991e-03
3.567999999999999972e+01,2.533305685182102480e-03
3.571999999999999886e+01,2.688760903519645494e-03
3.575999999999999801e+01,3.062097514298461193e-03
3.579999999999999716e+01,3.162916508988103392e-03
3.584000000000000341e+01,2.391841308197113682e-03
3.588000000000000256e+01,3.582288814656044325e-03
3.592000000000000171e+01,2.266178683407363455e-03
3.596000000000000085e+01,4.164833444998548156e-03
3.600000000000000000e+01,4.265284900166985485e-03
3.603999999999999915e+01,5.673393878795768459e-03
3.607999999999999829e+01,4.520456675662949154e-03
3.611999999999999744e+01,3.258468695485524681e-03
3.615999999999999659e+01,3.249649634370327389e-03
3.620000000000000284e+01,3.240757487759801658e-03
3.624000000000000199e+01,3.340769886859093485e-03
3.628000000000000114e+01,3.059287823137760154e-03
3.632000000000000028e+01,2.832221640383995181e-03
3.635999999999999943e+01,5.384010670467332532e-03
3.639999999999999858e+01,4.884354932667542629e-03
3.643999999999999773e+01,3.403828333688060058e-03
3.647999999999999687e+01,3.612381419967907684e-03
3.652000000000000313e+01,3.984328259796996070e-03
3.656000000000000227e+01,6.535753974448246968e-03
3.660000000000000142e+01,4.564538016313303935e-03
3.664000000000000057e+01,5.590132835146403682e-03
3.667999999999999972e+01,4.599570231684943673e-03
3.671999999999999886e+01,4.807688606673023515e-03
3.675999999999999801e+01,4.579824457539533739e-03
3.679999999999999716e+01,4.351888128072666125e-03
3.684000000000000341e+01,7.502184375308055750e-03
3.688000000000000256e+01,6.020861801305147851e-03
3.692000000000000171e+01,4.975377511445315364e-03
3.696000000000000085e+01,3.984310068059138642e-03
3.700000000000000000e+01,5.881076373877166044e-03
3.703999999999999915e+01,4.290488593874081276e-03
3.707999999999999829e+01,7.058931890387178977e-03
3.711999999999999744e+01,6.503487578058950169e-03
3.715999999999999659e+01,7.473657620548744204e-03
3.720000000000000284e+01,7.081536450383765259e-03
3.724000000000000199e+01,9.141339108043699049e-03
3.728000000000000114e+01,8.040720754530366471e-03
3.732000000000000028e+01,8.138784284628521742e-03
3.735999999999999943e+01,1.079774939444499635e-02
3.739999999999999858e+01,1.013282731782906565e-02
3.743999999999999773e+01,8.214591961484165109e-03
3.747999999999999687e+01,1.038294435794419497e-02
3.752000000000000313e+01,1.211531537682113656e-02
3.756000000000000227e+01,1.330272750759809233e-02
3.760000000000000142e+01,1.416313595234123222e-02
3.764000000000000057e+01,1.622222676344890410e-02
3.767999999999999972e+01,1.751840372576695878e-02
3.771999999999999886e+01,1.908695382281917763e-02
3.775999999999999801e+01,2.098236590038018989e-02
3.779999999999999716e+01,2.391299422939073202e-02
3.784000000000000341e+01,3.278282955894066403e-02
3.788000000000000256e+01,3.647615972155046626e-02
3.792000000000000171e+01,4.561829793651335507e-02
3.796000000000000085e+01,6.222532932510224657e-02
3.800000000000000000e+01,8.428116888673245488e-02
3.803999999999999915e+01,1.245361924724869979e-01
3.807999999999999829e+01,2.045679591731912050e-01
3.811999999999999744e+01,3.712368245194260785e-01
3.815999999999999659e+01,6.388733391397592998e-01
3.820000000000000284e+01,8.894547938520547259e-01
3.824000000000000199e+01,1.000000000000000000e+00
3.828000000000000114e+01,9.538898780876339245e-01
3.832000000000000028e+01,7.736827853435314095e-01
3.835999999999999943e+01,5.547340963314253415e-01
3.839999999999999858e+01,3.602508022110492147e-01
3.843999999999999773e+01,2.083776685911062632e-01
3.847999999999999687e+01,1.308816574379269015e-01
3.852000000000000313e+01,8.711413488069619238e-02
3.856000000000000227e+01,6.492410182875504865e-02
3.860000000000000142e+01,4.910918720733578602e-02
3.864000000000000057e+01,4.103161071254529668e-02
3.867999999999999972e+01,3.584187050141248582e-02
3.871999999999999886e+01,2.727375630977304719e-02
3.875999999999999801e+01,2.595258135692017978e-02
3.879999999999999716e+01,2.234280825285911778e-02
3.884000000000000341e+01,1.998620811091700311e-02
3.888000000000000256e+01,2.002704548547864019e-02
3.892000000000000171e+01,1.788826246072548060e-02
3.896000000000000085e+01,1.629429836852706870e-02
3.900000000000000000e+01,1.393742241889532607e-02
3.903999999999999915e+01,1.261576459138115218e-02
3.907999999999999829e+01,1.369154458209138371e-02
3.911999999999999744e+01,1.144343998116680201e-02
3.915999999999999659e+01,1.077544153769726884e-02
3.920000000000000284e+01,9.943908178250648183e-03
3.924000000000000199e+01,7.968041825421925614e-03
3.928000000000000114e+01,8.498591163399273063e-03
3.932000000000000028e+01,9.410493620737009346e-03
3.935999999999999943e+01,9.396018407447068177e-03
3.939999999999999858e+01,1.030778428851085449e-02
3.943999999999999773e+01,5.934069785194582246e-03
3.947999999999999687e+01,8.861784392289738174e-03
3.952000000000000313e+01,7.266861731720203853e-03
3.956000000000000227e+01,6.053292552575846239e-03
3.960000000000000142e+01,7.509605903282116565e-03
3.964000000000000057e+01,5.642035446827274939e-03
3.967999999999999972e+01,6.008437357467266010e-03
3.971999999999999886e+01,6.592726634617412582e-03
3.975999999999999801e+01,6.141661273720179851e-03
3.979999999999999716e+01,5.745017043729845098e-03
3.984000000000000341e+01,5.784215503004096377e-03
3.988000000000000256e+01,4.243171650958267767e-03
3.992000000000000171e+01,6.243831378404248941e-03
3.996000000000000085e+01,5.683450777469264796e-03
4.000000000000000000e+01,5.613401892605897683e-03
4.003999999999999915e+01,4.399021221243034664e-03
4.007999999999999829e+01,4.056393884653604863e-03
4.011999999999999744e+01,3.822676947154630880e-03
4.015999999999999659e+01,4.951112533991918960e-03
4.020000000000000284e+01,3.845440867096076246e-03
4.024000000000000199e+01,4.047433059794252469e-03
4.028000000000000114e+01,5.284645245278035870e-03
4.032000000000000028e+01,5.377526066671237635e-03
4.035999999999999943e+01,4.761985867762050413e-03
4.039999999999999858e+01,4.854733130087817219e-03
4.043999999999999773e+01,5.492301557701139390e-03
4.047999999999999687e+01,4.985538862600400259e-03
4.052000000000000313e+01,4.642175955461924110e-03
4.056000000000000227e+01,2.882038119145108237e-03
4.060000000000000142e+01,3.519340394129641825e-03
4.064000000000000057e+01,3.284755714929176937e-03
4.067999999999999972e+01,4.357835559108159951e-03
4.071999999999999886e+01,4.286584642637866933e-03
4.075999999999999801e+01,4.651177803347154686e-03
4.079999999999999716e+01,5.015704818136092896e-03
4.084000000000000341e+01,5.652609674501354355e-03
4.088000000000000256e+01,3.401542877817596844e-03
4.092000000000000171e+01,4.855647525520424314e-03
4.096000000000000085e+01,4.457067564042150112e-03
4.100000000000000000e+01,4.548820827238750017e-03
4.103999999999999915e+01,3.550732597969623056e-03
4.107999999999999829e+01,2.552578645189051715e-03
4.111999999999999744e+01,4.987152511363180003e-03
4.115999999999999659e+01,3.389490652856535970e-03
4.120000000000000284e+01,2.772561389619987958e-03
4.124000000000000199e+01,3.354319923719701127e-03
4.128000000000000114e+01,3.118681254571004351e-03
4.132000000000000028e+01,2.120134227948537731e-03
4.135999999999999943e+01,4.663292953206563465e-03
4.139999999999999858e+01,3.283193886709616979e-03
4.143999999999999773e+01,3.755648344435677782e-03
4.147999999999999687e+01,3.138261973481440252e-03
4.152000000000000313e+01,3.828541393133392135e-03
4.156000000000000227e+01,2.230226825322127997e-03
4.160000000000000142e+01,4.010152015164615558e-03
4.164000000000000057e+01,4.427792690550790000e-03
4.167999999999999972e+01,4.627413405865444043e-03
4.171999999999999886e+01,5.262879646618807798e-03
4.175999999999999801e+01,3.664240987060121604e-03
4.179999999999999716e+01,3.591223682238562243e-03
4.184000000000000341e+01,4.117518440179625955e-03
4.188000000000000256e+01,3.717439329173222867e-03
4.192000000000000171e+01,4.134627543339734410e-03
4.196000000000000085e+01,4.824195288718214139e-03
4.200000000000000000e+01,2.026416430947736332e-03
4.203999999999999915e+01,2.988299492629998676e-03
4.207999999999999829e+01,4.549494979139668931e-03
4.211999999999999744e+01,4.258007606448011018e-03
4.215999999999999659e+01,3.094635572648303436e-03
4.220000000000000284e+01,4.165239707623634435e-03
4.224000000000000199e+01,2.402363026680885607e-03
4.228000000000000114e+01,3.908749558381089187e-03
4.232000000000000028e+01,3.181032034587059649e-03
4.235999999999999943e+01,3.760981568625951926e-03
4.239999999999999858e+01,4.013934657926656983e-03
4.243999999999999773e+01,4.048868933694316913e-03
4.247999999999999687e+01,3.920273241703576585e-03
4.252000000000000313e+01,5.807699059518879776e-03
4.256000000000000227e+01,3.662891264697971591e-03
4.260000000000000142e+01,2.934728460635783152e-03
4.264000000000000057e+01,3.187300424232376774e-03
4.267999999999999972e+01,3.875719361526810784e-03
4.271999999999999886e+01,4.999985332863205942e-03
4.275999999999999801e+01,4.435035766795886701e-03
4.279999999999999716e+01,4.741843638902858496e-03
4.284000000000000341e+01,3.577391236016400945e-03
4.288000000000000256e+01,4.919359954907739571e-03
4.292000000000000171e+01,4.081714308897308081e-03
4.296000000000000085e+01,3.843382415285145903e-03
4.300000000000000000e+01,5.566583970178088855e-03
4.303999999999999915e+01,5.927503122659273996e-03
4.307999999999999829e+01,3.945341795323683426e-03
4.311999999999999744e+01,4.033691668386606317e-03
4.315999999999999659e+01,4.394422882985403803e-03
4.320000000000000284e+01,3.828782219993026592e-03
4.324000000000000199e+01,5.061209011279012120e-03
4.328000000000000114e+01,6.184595827119701919e-03
4.332000000000000028e+01,5.073880096069420011e-03
4.335999999999999943e+01,5.652254429468874311e-03
4.339999999999999858e+01,4.868346903553742201e-03
4.343999999999999773e+01,6.372906202512187805e-03
4.347999999999999687e+01,5.915807123108731032e-03
4.352000000000000313e+01,5.840067499199329444e-03
4.356000000000000227e+01,4.511023828212877909e-03
4.360000000000000142e+01,6.015335077781618946e-03
4.364000000000000057e+01,7.083674182419183799e-03
4.367999999999999972e+01,6.517287922998537923e-03
4.371999999999999886e+01,7.639992271124802260e-03
4.375999999999999801e+01,9.743433076545498367e-03
4.379999999999999716e+01,9.776238415496305359e-03
4.384000000000000341e+01,1.002693733640268835e-02
4.388000000000000256e+01,1.234814860424606267e-02
4.392000000000000171e+01,1.085508345287567941e-02
4.396000000000000085e+01,1.208639619429663879e-02
4.400000000000000000e+01,1.462537846765986360e-02
4.403999999999999915e+01,1.531168077834000468e-02
4.407999999999999829e+01,1.806849573767779077e-02
4.411999999999999744e+01,1.989894020733939603e-02
4.415999999999999659e+01,2.445376287151299066e-02
4.420000000000000284e+01,3.080665443822407437e-02
4.424000000000000199e+01,3.928454768039982281e-02
4.428000000000000114e+01,5.326574735507585978e-02
4.432000000000000028e+01,6.528528991861670683e-02
4.435999999999999943e+01,8.694928672806473413e-02
4.439999999999999858e+01,1.237611051722453670e-01
4.443999999999999773e+01,1.585022891154621583e-01
4.447999999999999687e+01,1.950960311690558835e-01
4.452000000000000313e+01,2.120192611483199818e-01
4.456000000000000227e+01,2.080187370486968612e-01
4.460000000000000142e+01,1.930659066643136967e-01
4.464000000000000057e+01,1.583335868157722537e-01
4.467999999999999972e+01,1.259987132336334581e-01
4.471999999999999886e+01,9.426315605903463901e-02
4.475999999999999801e+01,7.015596867285550653e-02
4.479999999999999716e+01,5.062577915133172762e-02
4.484000000000000341e+01,3.932333617865145514e-02
4.488000000000000256e+01,2.791185564429110935e-02
4.492000000000000171e+01,2.483709935032354238e-02
4.496000000000000085e+01,1.969170933986586977e-02
4.500000000000000000e+01,1.585399036995371533e-02
4.503999999999999915e+01,1.675673598305321005e-02
4.507999999999999829e+01,1.362725178519670795e-02
4.511999999999999744e+01,1.158748366719607355e-02
4.515999999999999659e+01,9.983566264229352949e-03
4.520000000000000284e+01,8.706522065779657288e-03
4.524000000000000199e+01,9.009593197092800182e-03
4.528000000000000114e+01,8.331806803279037665e-03
4.532000000000000028e+01,6.782140515543513999e-03
4.535999999999999943e+01,7.357477592908302604e-03
4.539999999999999858e+01,6.788490969887047734e-03
4.543999999999999773e+01,5.729046131989977766e-03
4.547999999999999687e+01,7.611936621683234108e-03
4.552000000000000313e+01,6.116463389372007661e-03
4.556000000000000227e+01,5.983150827854629913e-03
4.560000000000000142e+01,4.433070940519329844e-03
4.564000000000000057e+01,5.498393909567817622e-03
4.567999999999999972e+01,4.711039390042573091e-03
4.571999999999999886e+01,6.048688778714813967e-03
4.575999999999999801e+01,5.043261730627007083e-03
4.579999999999999716e+01,4.909596646523261589e-03
4.584000000000000341e+01,3.577119740388400894e-03
4.588000000000000256e+01,4.315158198397036141e-03
4.592000000000000171e+01,4.508250380228914431e-03
4.596000000000000085e+01,3.883952419075615333e-03
4.600000000000000000e+01,3.259596156738903561e-03
4.603999999999999915e+01,4.814733070783222893e-03
4.607999999999999829e+01,3.427417391084953795e-03
4.611999999999999744e+01,3.511240797859376331e-03
4.615999999999999659e+01,3.540517359396388921e-03
4.620000000000000284e+01,3.678713492331650830e-03
4.624000000000000199e+01,3.108497475551671822e-03
4.628000000000000114e+01,4.881241353509032516e-03
4.632000000000000028e+01,2.894201218330963010e-03
4.635999999999999943e+01,3.903986523744587111e-03
4.639999999999999858e+01,3.823938422805935912e-03
4.643999999999999773e+01,3.198944830164219492e-03
4.647999999999999687e+01,2.737360016760172557e-03
4.652000000000000313e+01,2.275717686646398178e-03
4.656000000000000227e+01,2.031973041889061082e-03
4.660000000000000142e+01,2.278570069984834495e-03
4.664000000000000057e+01,3.832840612735466217e-03
4.667999999999999972e+01,2.281193110613935916e-03
4.671999999999999886e+01,3.290461308737209142e-03
4.675999999999999801e+01,3.918250854201983310e-03
4.679999999999999716e+01,2.366431888145618251e-03
4.684000000000000341e+01,2.067797953034259274e-03
4.688000000000000256e+01,3.022349109212029306e-03
4.692000000000000171e+01,3.322977926955285061e-03
4.696000000000000085e+01,2.152352685150529799e-03
4.700000000000000000e+01,2.943266926263897985e-03
4.703999999999999915e+01,3.407191722558189449e-03
4.707999999999999829e+01,3.217194421794483498e-03
4.711999999999999744e+01,3.408562007496562362e-03
4.715999999999999659e+01,2.128675835371282576e-03
4.720000000000000284e+01,2.864818233315288842e-03
4.724000000000000199e+01,1.203397641801561913e-03
4.728000000000000114e+01,3.192669303960620538e-03
4.732000000000000028e+01,2.511934170197667546e-03
4.735999999999999943e+01,3.956205418741537069e-03
4.739999999999999858e+01,3.329846631787243202e-03
4.743999999999999773e+01,2.866898072329743859e-03
4.747999999999999687e+01,2.022471946408088261e-03
4.752000000000000313e+01,3.085097302447742385e-03
4.756000000000000227e+01,2.730958289531852396e-03
4.760000000000000142e+01,2.485740960058773971e-03
4.764000000000000057e+01,2.403934159803136801e-03
4.767999999999999972e+01,3.139403374275169262e-03
4.771999999999999886e+01,2.022198177724119066e-03
4.775999999999999801e+01,3.193466323212707739e-03
4.779999999999999716e+01,2.838992890949524044e-03
4.784000000000000341e+01,3.465262071082057110e-03
4.788000000000000256e+01,2.456812223290050137e-03
4.792000000000000171e+01,2.320127537721006130e-03
4.796000000000000085e+01,2.564809005844482809e-03
4.800000000000000000e+01,2.863923975421558618e-03
4.803999999999999915e+01,3.380938863087893254e-03
4.807999999999999829e+01,2.099768668258818628e-03
4.811999999999999744e+01,3.706448998302154692e-03
4.815999999999999659e+01,3.188011653955286333e-03
4.820000000000000284e+01,2.887474469074205810e-03
4.824000000000000199e+01,2.205460864267438231e-03
4.828000000000000114e+01,2.831123248224870406e-03
4.832000000000000028e+01,3.184286903805897458e-03
4.835999999999999943e+01,2.611086466188555950e-03
4.839999999999999858e+01,2.637207987771201557e-03
4.843999999999999773e+01,2.772252460023391131e-03
4.847999999999999687e+01,2.089910590970608766e-03
4.852000000000000313e+01,2.933200214468845851e-03
4.856000000000000227e+01,3.503991471655457449e-03
4.860000000000000142e+01,3.584329281152543768e-03
4.864000000000000057e+01,2.247904350985603216e-03
4.867999999999999972e+01,1.837734515010604197e-03
4.871999999999999886e+01,2.462797404432698345e-03
4.875999999999999801e+01,1.889052876945187479e-03
4.879999999999999716e+01,2.350541195543023442e-03
4.884000000000000341e+01,1.885666145072054881e-03
4.888000000000000256e+01,2.401535275944184384e-03
4.892000000000000171e+01,2.590417798171363879e-03
4.896000000000000085e+01,2.070892274084156805e-03
4.900000000000000000e+01,1.660290545484315082e-03
4.903999999999999915e+01,3.429186519075274383e-03
4.907999999999999829e+01,1.601768999567312326e-03
4.911999999999999744e+01,2.989136226118070758e-03
4.915999999999999659e+01,2.469342428603917786e-03
4.920000000000000284e+01,3.148248436907942743e-03
4.924000000000000199e+01,3.064258035875988637e-03
4.928000000000000114e+01,3.688568492475897010e-03
4.932000000000000028e+01,2.242251810095895106e-03
4.935999999999999943e+01,2.757478170937703501e-03
4.939999999999999858e+01,2.400830792959036172e-03
4.943999999999999773e+01,1.444753663656565693e-03
4.947999999999999687e+01,2.613686114899819307e-03
4.952000000000000313e+01,2.256879583188895876e-03
4.956000000000000227e+01,1.627576193769604031e-03
4.960000000000000142e+01,1.979018071887756521e-03
4.964000000000000057e+01,3.638137990470546781e-03
4.967999999999999972e+01,2.627254673434997311e-03
4.971999999999999886e+01,6.900093149015129601e-04
4.975999999999999801e+01,2.185504809654858355e-03
4.979999999999999716e+01,3.462992594195123900e-03
4.984000000000000341e+01,1.852522242771552103e-03
4.988000000000000256e+01,2.530528431626529861e-03
4.992000000000000171e+01,2.936038305870314509e-03
4.996000000000000085e+01,1.761321075514844315e-03
5.000000000000000000e+01,3.038546922761843974e-03
5.003999999999999915e+01,3.116967284111398905e-03
5.007999999999999829e+01,2.813914001365266666e-03
5.011999999999999744e+01,2.565297418311641205e-03
5.015999999999999659e+01,1.771740955559061078e-03
5.020000000000000284e+01,2.776262446963505531e-03
5.024000000000000199e+01,2.091579685316588295e-03
5.028000000000000114e+01,3.041508642223431178e-03
5.032000000000000028e+01,2.193255895906159013e-03
5.035999999999999943e+01,3.361036486844460117e-03
5.039999999999999858e+01,1.368415859484202772e-03
5.043999999999999773e+01,3.135469823844042134e-03
5.047999999999999687e+01,2.395988115759679557e-03
5.052000000000000313e+01,3.182140917432842771e-03
5.056000000000000227e+01,2.170112377946670137e-03
5.060000000000000142e+01,1.975364258309678187e-03
5.064000000000000057e+01,3.251762044032096600e-03
5.067999999999999972e+01,3.111400167641121747e-03
5.071999999999999886e+01,3.842807677562234351e-03
5.075999999999999801e+01,2.776034148044656969e-03
5.079999999999999716e+01,3.180406765263006381e-03
5.084000000000000341e+01,2.930862957771609642e-03
5.088000000000000256e+01,2.572290640219659485e-03
5.092000000000000171e+01,2.758555298117397296e-03
5.096000000000000085e+01,3.108235493795390852e-03
5.100000000000000000e+01,2.313600437265576036e-03
5.103999999999999915e+01,1.736869824634791701e-03
5.107999999999999829e+01,2.631285781148843227e-03
5.111999999999999744e+01,2.490364237348496445e-03
5.115999999999999659e+01,3.003257601923632961e-03
5.120000000000000284e+01,3.080190226608212241e-03
5.124000000000000199e+01,2.993606098898916185e-03
5.128000000000000114e+01,3.124926777153428509e-03
5.132000000000000028e+01,2.493354183966730881e-03
5.135999999999999943e+01,3.169462226042262225e-03
5.139999999999999858e+01,2.919210761073321760e-03
5.143999999999999773e+01,2.832375558014196305e-03
5.147999999999999687e+01,2.473046393764964657e-03
5.152000000000000313e+01,2.004689684961266996e-03
5.156000000000000227e+01,3.388901767445530021e-03
5.160000000000000142e+01,1.994135939968703745e-03
5.164000000000000057e+01,3.214782020495204288e-03
5.167999999999999972e+01,2.582759664067509325e-03
5.171999999999999886e+01,1.841710064806011560e-03
5.175999999999999801e+01,2.408341704248037965e-03
5.179999999999999716e+01,3.083901363266550524e-03
5.184000000000000341e+01,1.961281612137899446e-03
5.188000000000000256e+01,2.800208705911258478e-03
5.192000000000000171e+01,2.549310720822318879e-03
5.196000000000000085e+01,2.952228850991462077e-03
5.200000000000000000e+01,1.883900524973013829e-03
5.203999999999999915e+01,1.905298718344969377e-03
5.207999999999999829e+01,3.234378633173497133e-03
5.211999999999999744e+01,2.002436564236663268e-03
5.215999999999999659e+01,2.732041762610752916e-03
5.220000000000000284e+01,3.243642871419578563e-03
5.224000000000000199e+01,2.937863311271690040e-03
5.228000000000000114e+01,3.612833061717977707e-03
5.232000000000000028e+01,2.871045624160212684e-03
5.235999999999999943e+01,2.946541261593357657e-03
5.239999999999999858e+01,2.640566754890375043e-03
5.243999999999999773e+01,2.280054876978431823e-03
5.247999999999999687e+01,2.954781396811822624e-03
5.252000000000000313e+01,2.376217386653345105e-03
5.256000000000000227e+01,2.233515255192868726e-03
5.260000000000000142e+01,2.853607775357579115e-03
5.264000000000000057e+01,3.691607153186528094e-03
5.267999999999999972e+01,2.785917173525549566e-03
5.271999999999999886e+01,2.697510811952655470e-03
5.275999999999999801e+01,3.426388128811973504e-03
5.279999999999999716e+01,3.555840763254435131e-03
5.284000000000000341e+01,2.050581852444502678e-03
5.288000000000000256e+01,2.997270364014417363e-03
5.292000000000000171e+01,2.145781094728686084e-03
5.296000000000000085e+01,3.582773012219530977e-03
5.300000000000000000e+01,3.003632127820955646e-03
5.303999999999999915e+01,2.969331417110970296e-03
5.307999999999999829e+01,3.643337296725220314e-03
5.311999999999999744e+01,3.064053551509550444e-03
5.315999999999999659e+01,4.064897084194514683e-03
5.320000000000000284e+01,3.431029614724260147e-03
5.324000000000000199e+01,3.233025049802228362e-03
5.328000000000000114e+01,1.836219886857307906e-03
5.332000000000000028e+01,2.782385239216652196e-03
5.335999999999999943e+01,2.311794972519328785e-03
5.339999999999999858e+01,2.930933276912846101e-03
5.343999999999999773e+01,3.168603006117618869e-03
5.347999999999999687e+01,2.806849078755736457e-03
5.352000000000000313e+01,3.970734186961146286e-03
5.356000000000000227e+01,3.881330334122076470e-03
5.360000000000000142e+01,3.410458147470776368e-03
5.364000000000000057e+01,3.593404610531027339e-03
5.367999999999999972e+01,3.558349216758839757e-03
5.371999999999999886e+01,2.705915386762753911e-03
5.375999999999999801e+01,1.689968606052994708e-03
5.379999999999999716e+01,3.071481850207563244e-03
5.384000000000000341e+01,3.199706555726561635e-03
5.388000000000000256e+01,2.401575495537159894e-03
5.392000000000000171e+01,3.782949499522451041e-03
5.396000000000000085e+01,2.167394012128307911e-03
5.400000000000000000e+01,3.003787636749652521e-03
5.403999999999999915e+01,2.477915453595056720e-03
5.407999999999999829e+01,3.859104648839132515e-03
5.411999999999999744e+01,3.060696375537917072e-03
5.415999999999999659e+01,3.188551463574484761e-03
5.420000000000000284e+01,1.736185843489603800e-03
5.424000000000000199e+01,2.790258482915508251e-03
5.428000000000000114e+01,2.972464745504823855e-03
5.432000000000000028e+01,2.282804691601680695e-03
5.435999999999999943e+01,2.410430729895969917e-03
5.439999999999999858e+01,2.646988710135201803e-03
5.443999999999999773e+01,2.829012336371992432e-03
5.447999999999999687e+01,3.065479239811483465e-03
5.452000000000000313e+01,4.064743691394415680e-03
5.456000000000000227e+01,3.320321621661542766e-03
5.460000000000000142e+01,3.447674791621383860e-03
5.464000000000000057e+01,2.812139698702831227e-03
5.467999999999999972e+01,2.449003326429660156e-03
5.471999999999999886e+01,3.284575087464644983e-03
5.475999999999999801e+01,2.648904556057020843e-03
5.479999999999999716e+01,3.048475922354280769e-03
5.484000000000000341e+01,2.576181756632778437e-03
5.488000000000000256e+01,2.376286613277318709e-03
5.492000000000000171e+01,2.612256908923543935e-03
5.496000000000000085e+01,2.521249707888480185e-03
5.500000000000000000e+01,3.410995920848448708e-03
5.503999999999999915e+01,2.666033907483197473e-03
5.507999999999999829e+01,3.392224497675807790e-03
5.511999999999999744e+01,3.083083621967042023e-03
5.515999999999999659e+01,3.591230045338313342e-03
5.520000000000000284e+01,2.573646054621893560e-03
5.524000000000000199e+01,4.171479402880528056e-03
5.528000000000000114e+01,3.426250676282118889e-03
5.532000000000000028e+01,2.245067425238571248e-03
5.535999999999999943e+01,3.733790479632976417e-03
5.539999999999999858e+01,2.879451640202726655e-03
5.543999999999999773e+01,2.842400522261424346e-03
5.547999999999999687e+01,1.933484837807439381e-03
5.552000000000000313e+01,3.857942056459449584e-03
5.556000000000000227e+01,3.003427339219268046e-03
5.560000000000000142e+01,3.565577224580131297e-03
5.564000000000000057e+01,2.874441286791281410e-03
5.567999999999999972e+01,2.673660719973115427e-03
5.571999999999999886e+01,3.835056151357872298e-03
5.575999999999999801e+01,3.525210798903275974e-03
5.579999999999999716e+01,2.289012577258536102e-03
5.584000000000000341e+01,3.341299887167758793e-03
5.588000000000000256e+01,3.194790521422554309e-03
5.592000000000000171e+01,3.157215390699249537e-03
5.596000000000000085e+01,3.392040911633502440e-03
5.600000000000000000e+01,2.863980221389785755e-03
5.603999999999999915e+01,2.172410020047814156e-03
5.607999999999999829e+01,2.461594861992398575e-03
5.611999999999999744e+01,2.750736669818513308e-03
5.615999999999999659e+01,3.639212143605881269e-03
5.620000000000000284e+01,3.165425068200347636e-03
5.624000000000000199e+01,3.345460564874831125e-03
5.628000000000000114e+01,3.361986912515845406e-03
5.632000000000000028e+01,2.506649960870917671e-03
5.635999999999999943e+01,2.959001187504502976e-03
5.639999999999999858e+01,4.174152798455642299e-03
5.643999999999999773e+01,4.517441291153227907e-03
5.647999999999999687e+01,4.806198507399023212e-03
5.652000000000000313e+01,3.405760944621893591e-03
5.656000000000000227e+01,3.639944574426979065e-03
5.660000000000000142e+01,3.329198039938081281e-03
5.664000000000000057e+01,4.053696178984060074e-03
5.667999999999999972e+01,4.560196987007370667e-03
5.671999999999999886e+01,3.540969674019941137e-03
5.675999999999999801e+01,4.537785353348929886e-03
5.679999999999999716e+01,2.210743113148677316e-03
5.684000000000000341e+01,3.261963621715796135e-03
5.688000000000000256e+01,3.114388963231755694e-03
5.692000000000000171e+01,2.258418266915243264e-03
5.696000000000000085e+01,3.309513293774784919e-03
5.700000000000000000e+01,2.126526411435897181e-03
5.703999999999999915e+01,2.087762376934206889e-03
5.707999999999999829e+01,3.847086675779942417e-03
5.711999999999999744e+01,3.862728315334212469e-03
5.715999999999999659e+01,4.804637842036046415e-03
5.720000000000000284e+01,3.730420902982126488e-03
5.724000000000000199e+01,3.963893469777580135e-03
5.728000000000000114e+01,3.107549043824191053e-03
5.732000000000000028e+01,2.469118535798272250e-03
5.735999999999999943e+01,3.737754354389704031e-03
5.739999999999999858e+01,3.589640648681639932e-03
5.743999999999999773e+01,3.550463471072411777e-03
5.747999999999999687e+01,3.347778954753629927e-03
5.752000000000000313e+01,3.417497443513481826e-03
5.756000000000000227e+01,3.214731143391012357e-03
5.760000000000000142e+01,4.047210965062553178e-03
5.764000000000000057e+01,3.844363122512925966e-03
5.767999999999999972e+01,3.968407311848962636e-03
5.771999999999999886e+01,3.166101528513101497e-03
5.775999999999999801e+01,3.017620610334212795e-03
5.779999999999999716e+01,3.904386115669985884e-03
5.784000000000000341e+01,4.246223327379811119e-03
5.788000000000000256e+01,3.389266880641723326e-03
5.792000000000000171e+01,3.458579467589674265e-03
5.796000000000000085e+01,4.399672363137269691e-03
5.800000000000000000e+01,3.869527854116808305e-03
5.803999999999999915e+01,4.047697418092737788e-03
5.807999999999999829e+01,3.789916621368527756e-03
5.811999999999999744e+01,3.586584593162869383e-03
5.815999999999999659e+01,3.219746252097861142e-03
5.820000000000000284e+01,3.779177367127798531e-03
5.824000000000000199e+01,4.447546217139185243e-03
5.828000000000000114e+01,4.298543510157520550e-03
5.832000000000000028e+01,2.623815095930335552e-03
5.835999999999999943e+01,4.327351723547469449e-03
5.839999999999999858e+01,4.014763695732765855e-03
5.843999999999999773e+01,3.429692206606614873e-03
5.847999999999999687e+01,3.498446668831781733e-03
5.852000000000000313e+01,3.785116859308324845e-03
5.856000000000000227e+01,3.962770125797330026e-03
5.860000000000000142e+01,4.358339241225988106e-03
5.864000000000000057e+01,4.372447626202822894e-03
5.867999999999999972e+01,3.514696272197392977e-03
5.871999999999999886e+01,4.128103013065691912e-03
5.875999999999999801e+01,3.106807139612875138e-03
5.879999999999999716e+01,3.447691910861019979e-03
5.884000000000000341e+01,3.134672326225460080e-03
5.888000000000000256e+01,3.693434438104556319e-03
5.892000000000000171e+01,3.489314743927181880e-03
5.896000000000000085e+01,3.721066583508658796e-03
5.900000000000000000e+01,3.407891879443972639e-03
5.903999999999999915e+01,4.402409396714515762e-03
5.907999999999999829e+01,3.653247211555974219e-03
5.911999999999999744e+01,4.375243724712460196e-03
5.915999999999999659e+01,3.734982154141674223e-03
5.920000000000000284e+01,4.020991548269087050e-03
5.924000000000000199e+01,3.925541117106643232e-03
5.928000000000000114e+01,3.394142135567950261e-03
5.932000000000000028e+01,4.279413368634424342e-03
5.935999999999999943e+01,4.565269815721394349e-03
5.939999999999999858e+01,3.325402184854360423e-03
5.943999999999999773e+01,4.537491872804525969e-03
5.947999999999999687e+01,4.659767886933005761e-03
5.952000000000000313e+01,4.673028425333080466e-03
5.956000000000000227e+01,4.631762333779381943e-03
5.960000000000000142e+01,3.882104247449944152e-03
5.964000000000000057e+01,3.404852364438048194e-03
5.967999999999999972e+01,4.344271239128478547e-03
5.971999999999999886e+01,4.357343158353526973e-03
5.975999999999999801e+01,3.716512109609875804e-03
5.979999999999999716e+01,4.492351999600948352e-03
5.984000000000000341e+01,3.960423617145475590e-03
5.988000000000000256e+01,4.245789654377407976e-03
5.992000000000000171e+01,3.386853896142574209e-03
5.996000000000000085e+01,4.380499601463049876e-03
