2.003999999999999915e+01,1.514499056553533611e-02
2.007999999999999829e+01,1.454678449528342722e-02
2.012000000000000099e+01,1.008418702592629723e-02
2.016000000000000014e+01,2.475282417208626504e-02
2.019999999999999929e+01,1.642546378765111573e-02
2.023999999999999844e+01,1.243297280676774856e-02
2.028000000000000114e+01,2.474438620960451099e-02
2.032000000000000028e+01,1.896051001094728808e-02
2.035999999999999943e+01,2.194098930586372079e-02
2.039999999999999858e+01,1.455421769530218165e-02
2.044000000000000128e+01,1.046562878011576998e-02
2.048000000000000043e+01,2.155001317265719737e-02
2.051999999999999957e+01,1.425637619805453747e-02
2.055999999999999872e+01,1.139185513529539576e-02
2.060000000000000142e+01,3.010892519441806664e-02
2.064000000000000057e+01,1.791347376957132947e-02
2.067999999999999972e+01,1.184353767993126874e-02
2.071999999999999886e+01,1.227609466432063624e-02
2.076000000000000156e+01,1.270828361100732364e-02
2.080000000000000071e+01,1.332859352318272253e-02
2.083999999999999986e+01,1.621040076035404690e-02
2.087999999999999901e+01,1.862061892342218097e-02
2.092000000000000171e+01,2.055924827994664444e-02
2.096000000000000085e+01,2.221477783311849585e-02
2.100000000000000000e+01,2.123109865510180647e-02
2.103999999999999915e+01,1.892763216287745090e-02
2.107999999999999829e+01,1.794322092284795014e-02
2.112000000000000099e+01,2.233037301865287150e-02
2.116000000000000014e+01,1.927185469490046155e-02
2.119999999999999929e+01,2.130216713865405384e-02
2.123999999999999844e+01,2.078751682439175172e-02
2.128000000000000114e+01,1.028259896222350270e-02
2.132000000000000028e+01,1.363123887711079583e-02
2.135999999999999943e+01,2.131475568721542466e-02
2.139999999999999858e+01,2.136411494748799433e-02
2.144000000000000128e+01,2.508864106338624250e-02
2.148000000000000043e+01,1.052939660138388182e-02
2.151999999999999957e+01,2.452583263350214746e-02
2.155999999999999872e+01,2.146367540444447941e-02
2.160000000000000142e+01,1.491411414724817287e-02
2.164000000000000057e+01,2.155840223287264212e-02
2.167999999999999972e+01,1.350020705539498912e-02
2.171999999999999886e+01,1.759917370988306473e-02
2.176000000000000156e+01,1.472369579728514954e-02
2.180000000000000071e+01,1.382698852766349115e-02
2.183999999999999986e+01,1.462631906513010491e-02
2.187999999999999901e+01,1.919506376919262458e-02
2.192000000000000171e+01,1.424476704537992744e-02
2.196000000000000085e+01,2.013221260946840632e-02
2.200000000000000000e+01,1.668910601643242009e-02
2.203999999999999915e+01,1.946576822344143684e-02
2.207999999999999829e+01,2.582335719921197842e-02
2.212000000000000099e+01,2.002306378606200435e-02
2.216000000000000014e+01,1.987707376874058712e-02
2.219999999999999929e+01,1.812857109298919578e-02
2.223999999999999844e+01,1.383511234820915432e-02
2.228000000000000114e+01,1.698660079043667198e-02
2.232000000000000028e+01,1.090178358383137730e-02
2.235999999999999943e+01,1.480651203037975511e-02
2.239999999999999858e+01,8.626736052871926755e-03
2.244000000000000128e+01,1.450988235558476301e-02
2.248000000000000043e+01,1.869627350496818469e-02
2.251999999999999957e+01,1.694491321686994109e-02
2.255999999999999872e+01,1.519319693124595444e-02
2.260000000000000142e+01,2.069794123747388873e-02
2.264000000000000057e+01,1.461027283994940744e-02
2.267999999999999972e+01,1.276324579928953332e-02
2.271999999999999886e+01,1.242377371639510550e-02
2.276000000000000156e+01,1.802134214616891647e-02
2.280000000000000071e+01,1.692720606885092169e-02
2.283999999999999986e+01,1.479602782094958241e-02
2.287999999999999901e+01,1.577455985392055976e-02
2.292000000000000171e+01,1.006138818247809090e-02
2.296000000000000085e+01,1.094496893621217139e-02
2.300000000000000000e+01,9.189354336731930806e-03
2.303999999999999915e+01,1.355927085846811951e-02
2.307999999999999829e+01,1.811732359658360658e-02
2.312000000000000099e+01,2.060164799105822578e-02
2.316000000000000014e+01,1.469787166579153426e-02
2.319999999999999929e+01,1.633329304921656705e-02
2.323999999999999844e+01,1.730865240891642579e-02
2.328000000000000114e+01,1.790668311589805467e-02
2.332000000000000028e+01,1.652523118485215575e-02
2.335999999999999943e+01,1.212760883736403207e-02
2.339999999999999858e+01,2.375117863978863653e-02
2.344000000000000128e+01,1.115359580233096434e-02
2.348000000000000043e+01,1.797000289127440378e-02
2.351999999999999957e+01,2.120477442711873536e-02
2.355999999999999872e+01,9.737075275156884674e-03
2.360000000000000142e+01,1.259417099022045600e-02
2.364000000000000057e+01,1.629911724220683977e-02
2.367999999999999972e+01,1.020230073548800305e-02
2.371999999999999886e+01,1.852452426628888038e-02
2.376000000000000156e+01,1.638527499879280022e-02
2.380000000000000071e+01,1.217230193616720274e-02
2.383999999999999986e+01,1.531004212755332494e-02
2.387999999999999901e+01,8.646020898031715751e-03
2.392000000000000171e+01,8.201781043850967998e-03
2.396000000000000085e+01,1.218667984407000547e-02
2.400000000000000000e+01,1.739640906051058422e-02
2.403999999999999915e+01,1.638566390328251646e-02
2.407999999999999829e+01,1.641126096176321117e-02
2.412000000000000099e+01,1.898111038856532817e-02
2.416000000000000014e+01,1.278588831335017439e-02
2.419999999999999929e+01,1.149102833697081619e-02
2.423999999999999844e+01,1.151524474998565084e-02
2.428000000000000114e+01,1.398947023374406615e-02
2.432000000000000028e+01,1.344753172248800907e-02
2.435999999999999943e+01,1.083187316193520884e-02
2.439999999999999858e+01,4.823073670223624633e-03
2.444000000000000128e+01,1.785129305507755088e-02
2.448000000000000043e+01,1.052238583704437520e-02
2.451999999999999957e+01,1.582188101922010065e-02
2.455999999999999872e+01,1.980161243242299293e-02
2.460000000000000142e+01,1.086952310286693965e-02
2.464000000000000057e+01,9.476641114143969508e-03
2.467999999999999972e+01,1.420930121657631995e-02
2.471999999999999886e+01,1.234451402258792720e-02
2.476000000000000156e+01,1.406067152384679435e-02
2.480000000000000071e+01,1.078153651667290887e-02
2.483999999999999986e+01,1.541858765939274623e-02
2.487999999999999901e+01,1.619127924258857362e-02
2.492000000000000171e+01,1.460752141887305261e-02
2.496000000000000085e+01,1.406011169717504179e-02
2.500000000000000000e+01,1.059078689678963001e-02
2.503999999999999915e+01,1.654555946914860673e-02
2.507999999999999829e+01,5.441762325566438553e-03
2.512000000000000099e+01,1.252678929671864443e-02
2.516000000000000014e+01,1.508774800655259332e-02
2.519999999999999929e+01,1.981598883755076104e-02
2.523999999999999844e+01,1.464823297684791047e-02
2.528000000000000114e+01,1.786788804827236371e-02
2.532000000000000028e+01,1.430161110103680099e-02
2.535999999999999943e+01,1.035801941417635770e-02
2.539999999999999858e+01,6.508335094329553358e-03
2.544000000000000128e+01,1.208275082282203247e-02
2.548000000000000043e+01,1.869351813160527800e-02
2.551999999999999957e+01,1.220398211586614691e-02
2.555999999999999872e+01,4.677422123588885310e-03
2.560000000000000142e+01,1.515120072112823707e-02
2.564000000000000057e+01,1.516351909566648892e-02
2.567999999999999972e+01,1.960498762966254513e-02
2.571999999999999886e+01,1.094615417693354728e-02
2.576000000000000156e+01,1.152293417738806461e-02
2.580000000000000071e+01,1.379577847332001846e-02
2.583999999999999986e+01,7.397806872548925300e-03
2.587999999999999901e+01,7.125385389717791597e-03
2.592000000000000171e+01,1.919864256823001353e-02
2.596000000000000085e+01,6.768030859660212339e-03
2.600000000000000000e+01,1.601329076131872281e-02
2.603999999999999915e+01,5.938122540884199947e-03
2.607999999999999829e+01,1.433451796005922804e-02
2.612000000000000099e+01,1.792411843589616222e-02
2.616000000000000014e+01,1.350261573021655122e-02
2.619999999999999929e+01,7.007405282976702371e-03
2.623999999999999844e+01,1.342334184445098666e-02
2.628000000000000114e+01,1.032026614203420019e-02
2.632000000000000028e+01,8.724769477736571063e-03
2.635999999999999943e+01,1.089871694669726672e-02
2.639999999999999858e+01,1.759606375900227282e-02
2.644000000000000128e+01,1.675353110178634877e-02
2.648000000000000043e+01,1.393153694374219508e-02
2.651999999999999957e+01,1.289985626506219563e-02
2.655999999999999872e+01,2.053832818386040066e-02
2.660000000000000142e+01,1.036428561145144242e-02
2.664000000000000057e+01,1.083952789577186972e-02
2.667999999999999972e+01,1.235112978716782807e-02
2.671999999999999886e+01,1.160053867964501786e-02
2.676000000000000156e+01,1.301724012810652129e-02
2.680000000000000071e+01,1.396239210126877690e-02
2.683999999999999986e+01,1.189139693566424426e-02
2.687999999999999901e+01,1.867904524364554647e-02
2.692000000000000171e+01,8.031158672158849460e-03
2.696000000000000085e+01,8.503780936956511355e-03
2.700000000000000000e+01,1.472498334009649489e-02
2.703999999999999915e+01,1.717608499974054501e-02
2.707999999999999829e+01,8.788758597261832686e-03
2.712000000000000099e+01,7.846411756488473610e-03
2.716000000000000014e+01,1.048502566453160881e-02
2.719999999999999929e+01,1.001325047402747484e-02
2.723999999999999844e+01,7.656263234141223728e-03
2.728000000000000114e+01,1.415792214343566079e-02
2.732000000000000028e+01,1.066935390630657787e-02
2.735999999999999943e+01,1.575669925002972163e-02
2.739999999999999858e+01,4.445200970972630269e-03
2.744000000000000128e+01,8.777944394073122422e-03
2.748000000000000043e+01,1.970747047657204348e-02
2.751999999999999957e+01,1.895037212976018182e-02
2.755999999999999872e+01,1.225555605796192771e-02
2.760000000000000142e+01,0.000000000000000000e+00
2.764000000000000057e+01,2.120087249918273589e-02
2.767999999999999972e+01,1.196049244394472959e-02
2.771999999999999886e+01,1.676220171091181294e-02
2.776000000000000156e+01,2.165783413090228982e-02
2.780000000000000071e+01,1.430137778760342052e-02
2.783999999999999986e+01,1.815968053471346544e-02
2.787999999999999901e+01,2.041550861684076484e-02
2.792000000000000171e+01,1.145593678433112945e-02
2.796000000000000085e+01,1.003559450009200611e-02
2.800000000000000000e+01,1.455232777881393207e-02
2.803999999999999915e+01,1.143494792257856996e-02
2.807999999999999829e+01,1.482011037131815076e-02
2.812000000000000099e+01,8.403539760455594129e-03
2.816000000000000014e+01,1.386144095518862529e-02
2.819999999999999929e+01,1.262767376336047798e-02
2.823999999999999844e+01,8.848990636426645046e-03
2.828000000000000114e+01,1.006494126721210747e-02
2.832000000000000028e+01,1.014964201524819719e-02
2.835999999999999943e+01,1.711386441243887072e-02
2.839999999999999858e+01,1.257995700225908106e-02
2.844000000000000128e+01,1.549103798324776883e-02
2.848000000000000043e+01,1.114498624369681876e-02
2.851999999999999957e+01,1.037990434998482467e-02
2.855999999999999872e+01,5.467754408774133483e-03
2.860000000000000142e+01,9.791236917470424322e-03
2.864000000000000057e+01,9.402185706892111222e-03
2.867999999999999972e+01,4.489089780230248392e-03
2.871999999999999886e+01,1.418355607165555643e-02
2.876000000000000156e+01,1.784606829706322437e-02
2.880000000000000071e+01,1.538238235619696775e-02
2.883999999999999986e+01,6.980987252247839933e-03
2.887999999999999901e+01,1.186773428720230665e-02
2.892000000000000171e+01,1.731963407348441342e-02
2.896000000000000085e+01,1.136765216604468214e-02
2.900000000000000000e+01,2.021172308524006589e-02
2.903999999999999915e+01,1.058358525964624500e-02
2.907999999999999829e+01,1.320690286477947326e-02
2.912000000000000099e+01,1.149466743261514518e-02
2.916000000000000014e+01,1.694469210424265002e-02
2.919999999999999929e+01,1.023688174497866359e-02
2.923999999999999844e+01,1.069133202462551474e-02
2.928000000000000114e+01,4.359876774001514299e-03
2.932000000000000028e+01,9.714412352566540593e-03
2.935999999999999943e+01,8.188798568163910621e-03
2.939999999999999858e+01,1.184631476877778464e-02
2.944000000000000128e+01,1.493805478520279090e-02
2.948000000000000043e+01,1.444819911489220003e-02
2.951999999999999957e+01,1.621989882998625676e-02
2.955999999999999872e+01,9.226563163593696007e-03
2.960000000000000142e+01,1.580410755562297945e-02
2.964000000000000057e+01,1.267417342312637980e-02
2.967999999999999972e+01,1.284248379224638657e-02
2.971999999999999886e+01,1.301048605698882504e-02
2.976000000000000156e+01,1.770191014007246183e-02
2.980000000000000071e+01,1.306283424013149515e-02
2.983999999999999986e+01,1.106229333733430020e-02
2.987999999999999901e+01,1.283122011303024050e-02
2.992000000000000171e+01,1.092430977732912825e-02
2.996000000000000085e+01,1.797030788511013930e-02
3.000000000000000000e+01,5.413171255739731950e-03
3.003999999999999915e+01,2.046932843250244202e-02
3.007999999999999829e+01,7.911580142888180109e-03
3.012000000000000099e+01,1.014989217157468739e-02
3.016000000000000014e+01,1.144545536087981756e-02
3.019999999999999929e+01,1.707595457604884140e-02
3.023999999999999844e+01,1.460113353295324629e-02
3.028000000000000114e+01,1.344542928073435943e-02
3.032000000000000028e+01,1.719012806395276219e-02
3.035999999999999943e+01,1.179281934561099941e-02
3.039999999999999858e+01,1.779877557711694730e-02
3.044000000000000128e+01,2.191954116399972424e-02
3.048000000000000043e+01,1.190334855776242935e-02
3.051999999999999957e+01,1.903932814081622793e-02
3.055999999999999872e+01,2.400738477847788946e-02
3.060000000000000142e+01,2.520536448543793384e-02
3.064000000000000057e+01,2.696850844878348821e-02
3.067999999999999972e+01,1.864720337288660462e-02
3.071999999999999886e+01,1.607450331836423468e-02
3.076000000000000156e+01,1.906191981714423084e-02
3.080000000000000071e+01,1.686559520578278723e-02
3.083999999999999986e+01,7.977619866786290342e-03
3.087999999999999901e+01,1.888066142395921493e-02
3.092000000000000171e+01,1.753163508748277477e-02
3.096000000000000085e+01,1.938661744671064946e-02
3.100000000000000000e+01,1.492692761980472967e-02
3.103999999999999915e+01,1.310578081682720226e-02
3.107999999999999829e+01,1.938935063865501393e-02
3.112000000000000099e+01,1.474027505405238296e-02
3.116000000000000014e+01,1.084485593974021493e-02
3.119999999999999929e+01,1.759875218393898086e-02
3.123999999999999844e+01,1.370273692783317322e-02
3.128000000000000114e+01,9.429446530906533327e-03
3.132000000000000028e+01,1.316662999632633134e-02
3.135999999999999943e+01,1.916538115488713653e-02
3.139999999999999858e+01,1.517393245809209312e-02
3.144000000000000128e+01,1.316131888610957111e-02
3.148000000000000043e+01,1.586062737315781929e-02
3.151999999999999957e+01,1.940783910634777398e-02
3.155999999999999872e+01,1.720584860613157824e-02
3.160000000000000142e+01,1.594600625499190474e-02
3.164000000000000057e+01,1.129307140096053562e-02
3.167999999999999972e+01,1.257723672536303385e-02
3.171999999999999886e+01,9.808599507282083838e-03
3.176000000000000156e+01,1.194037495677992798e-02
3.180000000000000071e+01,1.699343161728389395e-02
3.183999999999999986e+01,1.497786676787668352e-02
3.187999999999999901e+01,1.644904987148946771e-02
3.192000000000000171e+01,1.471563108075862360e-02
3.196000000000000085e+01,1.759989319195655669e-02
3.200000000000000000e+01,1.200186934624401444e-02
3.203999999999999915e+01,8.476929006552122794e-03
3.207999999999999829e+01,1.060635841744148565e-02
3.211999999999999744e+01,7.929033018915702599e-03
3.215999999999999659e+01,6.665081354378337222e-03
3.220000000000000284e+01,1.218643265689049043e-02
3.224000000000000199e+01,1.299527432048181233e-02
3.228000000000000114e+01,4.002410750657588688e-03
3.232000000000000028e+01,1.263295324938050121e-02
3.235999999999999943e+01,1.589127633715024454e-02
3.239999999999999858e+01,1.198673729302588212e-02
3.243999999999999773e+01,1.552721339601866729e-02
3.247999999999999687e+01,1.011418491373570691e-02
3.252000000000000313e+01,7.528198090713802623e-03
3.256000000000000227e+01,2.039799848183210598e-02
3.260000000000000142e+01,7.821530722584889642e-03
3.264000000000000057e+01,7.496542206859036980e-03
3.267999999999999972e+01,1.094104009879034653e-02
3.271999999999999886e+01,1.287734006825248974e-02
3.275999999999999801e+01,1.547306284256877960e-02
3.279999999999999716e+01,6.005219034163195718e-03
3.284000000000000341e+01,6.244257876049314274e-03
3.288000000000000256e+01,1.308011549786457575e-02
3.292000000000000171e+01,9.831539063768646863e-03
3.296000000000000085e+01,1.091791711714120046e-02
3.300000000000000000e+01,1.077883222440844183e-02
3.303999999999999915e+01,1.271283752668352432e-02
3.307999999999999829e+01,1.106527122257678492e-02
3.311999999999999744e+01,1.215050622330758959e-02
3.315999999999999659e+01,5.695906704511199091e-03
3.320000000000000284e+01,9.890635922200045546e-03
3.324000000000000199e+01,1.106926081063996578e-02
3.328000000000000114e+01,1.498068807415537523e-02
3.332000000000000028e+01,1.040983821022331036e-02
3.335999999999999943e+01,1.545163010704047463e-02
3.339999999999999858e+01,1.314207782531896795e-02
3.343999999999999773e+01,1.064375358662053399e-02
3.347999999999999687e+01,7.673924555057190684e-03
3.352000000000000313e+01,4.421079733820033018e-03
3.356000000000000227e+01,6.351392723786033687e-03
3.360000000000000142e+01,1.073177712585592775e-02
3.364000000000000057e+01,6.629886540954320166e-03
3.367999999999999972e+01,1.515645962738393880e-02
3.371999999999999886e+01,5.776321480379193948e-03
3.375999999999999801e+01,6.291560873165913566e-03
3.379999999999999716e+01,6.995008188274373997e-03
3.384000000000000341e+01,8.263641164527265465e-03
3.388000000000000256e+01,1.038019317293157814e-02
3.392000000000000171e+01,5.616626320149699716e-03
3.396000000000000085e+01,1.112541581622000612e-02
3.400000000000000000e+01,1.050804192874959207e-02
3.403999999999999915e+01,1.158678745401093939e-02
3.407999999999999829e+01,1.228827656761544325e-02
3.411999999999999744e+01,1.072762218080629618e-02
3.415999999999999659e+01,1.378466341169765248e-02
3.420000000000000284e+01,2.610526964685390763e-03
3.424000000000000199e+01,9.248298164707241184e-03
3.428000000000000114e+01,8.063509233420045400e-03
3.432000000000000028e+01,6.124488024569678737e-03
3.435999999999999943e+01,1.031107365627040133e-02
3.439999999999999858e+01,6.769344327156371494e-03
3.443999999999999773e+01,1.547910628174060249e-02
3.447999999999999687e+01,3.360586684230309606e-03
3.452000000000000313e+01,6.038156836564305928e-03
3.456000000000000227e+01,9.280917466113518949e-03
3.460000000000000142e+01,1.045002654159453252e-02
3.464000000000000057e+01,8.414551916777006021e-03
3.467999999999999972e+01,1.354137431896045192e-02
3.471999999999999886e+01,1.075139516517339792e-02
3.475999999999999801e+01,1.267336001029499906e-02
3.479999999999999716e+01,1.044829854719784082e-02
3.484000000000000341e+01,1.048482805491702044e-02
3.488000000000000256e+01,7.128286732062951228e-03
3.492000000000000171e+01,5.185137604801865960e-03
3.496000000000000085e+01,1.031004300964229181e-02
3.500000000000000000e+01,9.214547352113399217e-03
3.503999999999999915e+01,7.930290439986990847e-03
3.507999999999999829e+01,7.399716218980791592e-03
3.511999999999999744e+01,3.381828404942423694e-03
3.515999999999999659e+01,7.845661978040320908e-03
3.520000000000000284e+01,1.334591214838433577e-02
3.524000000000000199e+01,8.196277574372424699e-03
3.528000000000000114e+01,1.699453852349271099e-02
3.532000000000000028e+01,1.052494124040097810e-02
3.535999999999999943e+01,1.008671311903165668e-02
3.539999999999999858e+01,1.596258753039171349e-02
3.543999999999999773e+01,1.825690612137966309e-02
3.547999999999999687e+01,1.499053743542287133e-02
3.552000000000000313e+01,1.323180932626710771e-02
3.556000000000000227e+01,1.844689539478942819e-02
3.560000000000000142e+01,1.367180970170193098e-02
3.564000000000000057e+01,8.613722399593447612e-03
3.567999999999999972e+01,1.354526984794759970e-02
3.571999999999999886e+01,1.395281967068793053e-02
3.575999999999999801e+01,1.699894408937608140e-02
3.579999999999999716e+01,1.212827417619986685e-02
3.584000000000000341e+01,1.489113088832884346e-02
3.588000000000000256e+01,7.946550815211877311e-03
3.592000000000000171e+01,1.853115652318001322e-02
3.596000000000000085e+01,2.091623586607425922e-02
3.600000000000000000e+01,1.802336451374450879e-02
3.603999999999999915e+01,1.022952020501352761e-02
3.607999999999999829e+01,1.789148665565754720e-02
3.611999999999999744e+01,1.641148413330748013e-02
3.615999999999999659e+01,1.417726164113064513e-02
3.620000000000000284e+01,1.279097369955542289e-02
3.624000000000000199e+01,1.215837620832548559e-02
3.628000000000000114e+01,1.199673633155289194e-02
3.632000000000000028e+01,1.334274238277113715e-02
3.635999999999999943e+01,1.336906359506508275e-02
3.639999999999999858e+01,8.494414258993174607e-03
3.643999999999999773e+01,1.181876176851368900e-02
3.647999999999999687e+01,1.109033857512964349e-02
3.652000000000000313e+01,1.262351759006038847e-02
3.656000000000000227e+01,1.999958505786650700e-02
3.660000000000000142e+01,1.559484446454948055e-02
3.664000000000000057e+01,1.769270343393752887e-02
3.667999999999999972e+01,1.470110499224447365e-02
3.671999999999999886e+01,1.802361791274383757e-02
3.675999999999999801e+01,1.738760637107090307e-02
3.679999999999999716e+01,1.307580373823261609e-02
3.684000000000000341e+01,1.394718085647539060e-02
3.688000000000000256e+01,1.953051615427960769e-02
3.692000000000000171e+01,2.643301265783530238e-02
3.696000000000000085e+01,2.494750074967266862e-02
3.700000000000000000e+01,2.789121472030251653e-02
3.703999999999999915e+01,2.583971805570243682e-02
3.707999999999999829e+01,1.323259332229865907e-02
3.711999999999999744e+01,2.682514423581985538e-02
3.715999999999999659e+01,1.940094278810047812e-02
3.720000000000000284e+01,2.338005177534157111e-02
3.724000000000000199e+01,2.453157192491402239e-02
3.728000000000000114e+01,2.756772189516823110e-02
3.732000000000000028e+01,2.598564057437222422e-02
3.735999999999999943e+01,2.666516708064023064e-02
3.739999999999999858e+01,2.725019248613628695e-02
3.743999999999999773e+01,3.330113475955314567e-02
3.747999999999999687e+01,2.427272198460189712e-02
3.752000000000000313e+01,3.305623879656262309e-02
3.756000000000000227e+01,3.543088293432953423e-02
3.760000000000000142e+01,4.242324569991282046e-02
3.764000000000000057e+01,4.234702575171050282e-02
3.767999999999999972e+01,3.774682128830917499e-02
3.771999999999999886e+01,4.351324269216762936e-02
3.775999999999999801e+01,5.229522954121149786e-02
3.779999999999999716e+01,5.184101428694389002e-02
3.784000000000000341e+01,5.704120731182359821e-02
3.788000000000000256e+01,5.865986083745989427e-02
3.792000000000000171e+01,6.225739283254556194e-02
3.796000000000000085e+01,7.282875505887848044e-02
3.800000000000000000e+01,8.170346594496281922e-02
3.803999999999999915e+01,8.115348759746095209e-02
3.807999999999999829e+01,9.398595729536042553e-02
3.811999999999999744e+01,1.051217764556897916e-01
3.815999999999999659e+01,1.055134860356899545e-01
3.820000000000000284e+01,1.239056184867450283e-01
3.824000000000000199e+01,1.301399763753526284e-01
3.828000000000000114e+01,1.528668477850809726e-01
3.832000000000000028e+01,1.722949157421677369e-01
3.835999999999999943e+01,1.986968166060966434e-01
3.839999999999999858e+01,2.418739648972721701e-01
3.843999999999999773e+01,2.758149153660879871e-01
3.847999999999999687e+01,3.386886372455100713e-01
3.852000000000000313e+01,3.941168048261919910e-01
3.856000000000000227e+01,4.879964255019968999e-01
3.860000000000000142e+01,5.932793659773440975e-01
3.864000000000000057e+01,7.096828934163458280e-01
3.867999999999999972e+01,8.120437618797381463e-01
3.871999999999999886e+01,9.450338019797782652e-01
3.875999999999999801e+01,9.990468142142290287e-01
3.879999999999999716e+01,1.000000000000000000e+00
3.884000000000000341e+01,9.514746455816516235e-01
3.888000000000000256e+01,8.664764739853263453e-01
3.892000000000000171e+01,7.309630746740269913e-01
3.896000000000000085e+01,6.029889784898567751e-01
3.900000000000000000e+01,5.190267560450970707e-01
3.903999999999999915e+01,4.172521023201306023e-01
3.907999999999999829e+01,3.528922171225862825e-01
3.911999999999999744e+01,3.126586448579931621e-01
3.915999999999999659e+01,2.750636699319042866e-01
3.920000000000000284e+01,2.509453949106981163e-01
3.924000000000000199e+01,2.325757819010371985e-01
3.928000000000000114e+01,2.193893649635859922e-01
3.932000000000000028e+01,2.095012570095876880e-01
3.935999999999999943e+01,2.019690146284434940e-01
3.939999999999999858e+01,2.026357888922937223e-01
3.943999999999999773e+01,2.077318053560650024e-01
3.947999999999999687e+01,2.072671612988402634e-01
3.952000000000000313e+01,1.923828864134919103e-01
3.956000000000000227e+01,1.935199117720887985e-01
3.960000000000000142e+01,1.954106500560278681e-01
3.964000000000000057e+01,1.822220477398111271e-01
3.967999999999999972e+01,1.777979301484000907e-01
3.971999999999999886e+01,1.599908711126368788e-01
3.975999999999999801e+01,1.439742141184278401e-01
3.979999999999999716e+01,1.317270911574645598e-01
3.984000000000000341e+01,1.216473482444376530e-01
3.988000000000000256e+01,1.166565610491969440e-01
3.992000000000000171e+01,1.064820937473777707e-01
3.996000000000000085e+01,9.706134177893616100e-02
4.000000000000000000e+01,9.131588081372189747e-02
4.003999999999999915e+01,8.915146675147872513e-02
4.007999999999999829e+01,7.416957985981373347e-02
4.011999999999999744e+01,7.784783925676970473e-02
4.015999999999999659e+01,7.087624681918665293e-02
4.020000000000000284e+01,6.588354810194368971e-02
4.024000000000000199e+01,6.541434130362745736e-02
4.028000000000000114e+01,5.193917427805513215e-02
4.032000000000000028e+01,5.561624499384815873e-02
4.035999999999999943e+01,5.363841670713795362e-02
4.039999999999999858e+01,5.005819750156416392e-02
4.043999999999999773e+01,4.873960672513485970e-02
4.047999999999999687e+01,4.449920441553954081e-02
4.052000000000000313e+01,4.553625084031381193e-02
4.056000000000000227e+01,3.978746718659251919e-02
4.060000000000000142e+01,4.478230613567727586e-02
4.064000000000000057e+01,3.743089784025208783e-02
4.067999999999999972e+01,2.904256670577467017e-02
4.071999999999999886e+01,3.281152449401908422e-02
4.075999999999999801e+01,3.177378526569748368e-02
4.079999999999999716e+01,3.686169595500428386e-02
4.084000000000000341e+01,2.969760510541440482e-02
4.088000000000000256e+01,3.582173666257410655e-02
4.092000000000000171e+01,3.007084468721939186e-02
4.096000000000000085e+01,3.364991220546886125e-02
4.100000000000000000e+01,2.940646454240302202e-02
4.103999999999999915e+01,2.855558173566381808e-02
4.107999999999999829e+01,2.666777876546723436e-02
4.111999999999999744e+01,3.439266946256022695e-02
4.115999999999999659e+01,3.184469248536461045e-02
4.120000000000000284e+01,2.646915315888953915e-02
4.124000000000000199e+01,3.127177450927742103e-02
4.128000000000000114e+01,2.730943887310825074e-02
4.132000000000000028e+01,2.532600444894482147e-02
4.135999999999999943e+01,2.682938138939968895e-02
4.139999999999999858e+01,3.115985938732163119e-02
4.143999999999999773e+01,2.380380606663408741e-02
4.147999999999999687e+01,2.351585089024444547e-02
4.152000000000000313e+01,2.511255389584212197e-02
4.156000000000000227e+01,2.161983213261608680e-02
4.160000000000000142e+01,1.680746058075852437e-02
4.164000000000000057e+01,2.339842916296445280e-02
4.167999999999999972e+01,1.830286803191778777e-02
4.171999999999999886e+01,1.650563193789321079e-02
4.175999999999999801e+01,2.224771770016198413e-02
4.179999999999999716e+01,2.299462466677978587e-02
4.184000000000000341e+01,1.874635310530605933e-02
4.188000000000000256e+01,1.958705063959290463e-02
4.192000000000000171e+01,2.627067247972633343e-02
4.196000000000000085e+01,2.060805590481287752e-02
4.200000000000000000e+01,2.050563106741749853e-02
4.203999999999999915e+01,2.652886444199465885e-02
4.207999999999999829e+01,2.001737146857175687e-02
4.211999999999999744e+01,2.217613517326739656e-02
4.215999999999999659e+01,1.783181260529436221e-02
4.220000000000000284e+01,1.791675069884701363e-02
4.224000000000000199e+01,2.318490466401143882e-02
4.228000000000000114e+01,1.997084143505341303e-02
4.232000000000000028e+01,1.685079875077193090e-02
4.235999999999999943e+01,2.004490515457046929e-02
4.239999999999999858e+01,1.880930298300522233e-02
4.243999999999999773e+01,1.729074468753170890e-02
4.247999999999999687e+01,1.991871582305284119e-02
4.252000000000000313e+01,1.858820102496776261e-02
4.256000000000000227e+01,1.857688515852173872e-02
4.260000000000000142e+01,2.129843400851158183e-02
4.264000000000000057e+01,1.977876462412622716e-02
4.267999999999999972e+01,2.108620485911149103e-02
4.271999999999999886e+01,2.277040141781559029e-02
4.275999999999999801e+01,1.521842905058457159e-02
4.279999999999999716e+01,2.001224825480030570e-02
4.284000000000000341e+01,2.197851607967551621e-02
4.288000000000000256e+01,2.215392083874369311e-02
4.292000000000000171e+01,2.459097061564454942e-02
4.296000000000000085e+01,2.438895855151495748e-02
4.300000000000000000e+01,2.626010330470536849e-02
4.303999999999999915e+01,2.511520928072104308e-02
4.307999999999999829e+01,3.132115720686153709e-02
4.311999999999999744e+01,2.348447585649550418e-02
4.315999999999999659e+01,2.422381377297887911e-02
4.320000000000000284e+01,2.128740340781478876e-02
4.324000000000000199e+01,2.655003537335575217e-02
4.328000000000000114e+01,2.691174281076253935e-02
4.332000000000000028e+01,2.293799219448960577e-02
4.335999999999999943e+01,2.650357413688947048e-02
4.339999999999999858e+01,2.903225143428220939e-02
4.343999999999999773e+01,3.033553561859562986e-02
4.347999999999999687e+01,3.314651362404794771e-02
4.352000000000000313e+01,3.218750112051286388e-02
4.356000000000000227e+01,2.604483285831252562e-02
4.360000000000000142e+01,2.555661140382560828e-02
4.364000000000000057e+01,3.109981449587482377e-02
4.367999999999999972e+01,3.287302814917456018e-02
4.371999999999999886e+01,2.983956458531029921e-02
4.375999999999999801e+01,3.528787993387193928e-02
4.379999999999999716e+01,3.508131929004616734e-02
4.384000000000000341e+01,3.864431970297430019e-02
4.388000000000000256e+01,3.758913270460807754e-02
4.392000000000000171e+01,4.869125603372256861e-02
4.396000000000000085e+01,3.905940559015668584e-02
4.400000000000000000e+01,4.412946394021762669e-02
4.403999999999999915e+01,5.278059594919827513e-02
4.407999999999999829e+01,5.002794740194303064e-02
4.411999999999999744e+01,6.028080983030834061e-02
4.415999999999999659e+01,6.092053522605726107e-02
4.420000000000000284e+01,6.061760569580459251e-02
4.424000000000000199e+01,5.984324334618886659e-02
4.428000000000000114e+01,6.236722315740238221e-02
4.432000000000000028e+01,7.412694056940111187e-02
4.435999999999999943e+01,7.768718780381814182e-02
4.439999999999999858e+01,8.115298076037341657e-02
4.443999999999999773e+01,8.876531625833816719e-02
4.447999999999999687e+01,9.741413042734992089e-02
4.452000000000000313e+01,1.042720925004936017e-01
4.456000000000000227e+01,1.100931576878552420e-01
4.460000000000000142e+01,1.129924389006779217e-01
4.464000000000000057e+01,1.157972674409957492e-01
4.467999999999999972e+01,1.266126592085285718e-01
4.471999999999999886e+01,1.410091291834923433e-01
4.475999999999999801e+01,1.406090259093620842e-01
4.479999999999999716e+01,1.419051140214654116e-01
4.484000000000000341e+01,1.559239848218125501e-01
4.488000000000000256e+01,1.562772155895339465e-01
4.492000000000000171e+01,1.613424583162735571e-01
4.496000000000000085e+01,1.635801638443254158e-01
4.500000000000000000e+01,1.728859910619099938e-01
4.503999999999999915e+01,1.683376905814751023e-01
4.507999999999999829e+01,1.639776734751371146e-01
4.511999999999999744e+01,1.609368724242453419e-01
4.515999999999999659e+01,1.481886966619085644e-01
4.520000000000000284e+01,1.416604446165594944e-01
4.524000000000000199e+01,1.389017629925463904e-01
4.528000000000000114e+01,1.353889224022695181e-01
4.532000000000000028e+01,1.166082904696522371e-01
4.535999999999999943e+01,1.111159109104470216e-01
4.539999999999999858e+01,1.026075083600768156e-01
4.543999999999999773e+01,1.009787417067620346e-01
4.547999999999999687e+01,9.774761811463845984e-02
4.552000000000000313e+01,8.942709624208035335e-02
4.556000000000000227e+01,8.459341382788662655e-02
4.560000000000000142e+01,7.806313090974682789e-02
4.564000000000000057e+01,6.663193924948251912e-02
4.567999999999999972e+01,6.707533658586892211e-02
4.571999999999999886e+01,6.487969054282949344e-02
4.575999999999999801e+01,5.768889219252822803e-02
4.579999999999999716e+01,5.643528846915960712e-02
4.584000000000000341e+01,5.471026262880738372e-02
4.588000000000000256e+01,4.827281838731928287e-02
4.592000000000000171e+01,4.466250543752022656e-02
4.596000000000000085e+01,4.180594795502170363e-02
4.600000000000000000e+01,4.102256735680467198e-02
4.603999999999999915e+01,3.326490460011004985e-02
4.607999999999999829e+01,4.039765328576715164e-02
4.611999999999999744e+01,3.706907873888039273e-02
4.615999999999999659e+01,2.978204260630065367e-02
4.620000000000000284e+01,3.653721940840876786e-02
4.624000000000000199e+01,3.443322803352036332e-02
4.628000000000000114e+01,3.591032530088294344e-02
4.632000000000000028e+01,2.994192044360523275e-02
4.635999999999999943e+01,3.283228936138329890e-02
4.639999999999999858e+01,2.903111163216662294e-02
4.643999999999999773e+01,2.664340315567499673e-02
4.647999999999999687e+01,2.331305500407257827e-02
4.652000000000000313e+01,2.064222169778765978e-02
4.656000000000000227e+01,1.910212534345882840e-02
4.660000000000000142e+01,2.312225149598910734e-02
4.664000000000000057e+01,2.026234387124986949e-02
4.667999999999999972e+01,2.136050503561976593e-02
4.671999999999999886e+01,2.424911479689444496e-02
4.675999999999999801e+01,2.129437962955210359e-02
4.679999999999999716e+01,2.455957888157697666e-02
4.684000000000000341e+01,1.924834707344507539e-02
4.688000000000000256e+01,1.751820792095647519e-02
4.692000000000000171e+01,1.974613916293390531e-02
4.696000000000000085e+01,1.745014796351319203e-02
4.700000000000000000e+01,1.647338539483459569e-02
4.703999999999999915e+01,2.133958137961687943e-02
4.707999999999999829e+01,1.423655066822983317e-02
4.711999999999999744e+01,1.863114111437172080e-02
4.715999999999999659e+01,1.190470470980563994e-02
4.720000000000000284e+01,1.394280333122874249e-02
4.724000000000000199e+01,1.400157931519720352e-02
4.728000000000000114e+01,1.679325132006145166e-02
4.732000000000000028e+01,1.600344696972117245e-02
4.735999999999999943e+01,1.304583204897303943e-02
4.739999999999999858e+01,1.527146751501045480e-02
4.743999999999999773e+01,1.089980765841558515e-02
4.747999999999999687e+01,1.538692906854210660e-02
4.752000000000000313e+01,1.346524442678694901e-02
4.756000000000000227e+01,1.493616825355470641e-02
4.760000000000000142e+01,8.678865414138313070e-03
4.764000000000000057e+01,1.278825479673435794e-02
4.767999999999999972e+01,1.114854977239740190e-02
4.771999999999999886e+01,1.186476624084730098e-02
4.775999999999999801e+01,1.239230653861643841e-02
4.779999999999999716e+01,1.423908081831740981e-02
4.784000000000000341e+01,1.306984842798207015e-02
4.788000000000000256e+01,1.510473791101388588e-02
4.792000000000000171e+01,1.205024516718037828e-02
4.796000000000000085e+01,1.304807414217534420e-02
4.800000000000000000e+01,7.542855908186651102e-03
4.803999999999999915e+01,1.014246774422565903e-02
4.807999999999999829e+01,1.359009359603378757e-02
4.811999999999999744e+01,5.539721547298342985e-03
4.815999999999999659e+01,1.275675232527123497e-02
4.820000000000000284e+01,1.526138022055844451e-02
4.824000000000000199e+01,1.314784986853530062e-02
4.828000000000000114e+01,9.337736939051606566e-03
4.832000000000000028e+01,1.203030169964310926e-02
4.835999999999999943e+01,6.900400509864844031e-03
4.839999999999999858e+01,8.650155016544012337e-03
4.843999999999999773e+01,1.162490341829098758e-02
4.847999999999999687e+01,8.944807132110483075e-03
4.852000000000000313e+01,1.370983355196078723e-02
4.856000000000000227e+01,1.093512846268622669e-02
4.860000000000000142e+01,1.098757259158633127e-02
4.864000000000000057e+01,8.966459079798002815e-03
4.867999999999999972e+01,8.264585436250228290e-03
4.871999999999999886e+01,1.368841468710921792e-02
4.875999999999999801e+01,9.404893306876965786e-03
4.879999999999999716e+01,8.796721792959162275e-03
4.884000000000000341e+01,1.045023489567802923e-02
4.888000000000000256e+01,1.021868069869702987e-02
4.892000000000000171e+01,1.074090176841858979e-02
4.896000000000000085e+01,8.152879291953634908e-03
4.900000000000000000e+01,8.109275605810734033e-03
4.903999999999999915e+01,8.159737414338126549e-03
4.907999999999999829e+01,1.273375027243872290e-02
4.911999999999999744e+01,1.005076847069474692e-02
4.915999999999999659e+01,1.302227066743279725e-02
4.920000000000000284e+01,8.077068164734500094e-03
4.924000000000000199e+01,1.010577134505867038e-02
4.928000000000000114e+01,8.270278177145649542e-03
4.932000000000000028e+01,1.439656514765124285e-03
4.935999999999999943e+01,9.122490763350987047e-03
4.939999999999999858e+01,8.982866018113745687e-03
4.943999999999999773e+01,1.035097496037894020e-02
4.947999999999999687e+01,1.021099808759983775e-02
4.952000000000000313e+01,9.976601184573229836e-03
4.956000000000000227e+01,8.234119001621308803e-03
4.960000000000000142e+01,7.905127208593928229e-03
4.964000000000000057e+01,8.706892969603134691e-03
4.967999999999999972e+01,8.754529195892030505e-03
4.971999999999999886e+01,1.162932213202122825e-02
4.975999999999999801e+01,3.477349976624875393e-03
4.979999999999999716e+01,1.021581414661251741e-02
4.984000000000000341e+01,7.435423645246718935e-03
4.988000000000000256e+01,1.285411988946076785e-02
4.992000000000000171e+01,1.440862406638944437e-02
4.996000000000000085e+01,1.125073713324986451e-02
5.000000000000000000e+01,9.317854529998030252e-03
5.003999999999999915e+01,9.081198363272577345e-03
5.007999999999999829e+01,9.315592119027306384e-03
5.011999999999999744e+01,1.077499100734829497e-02
5.015999999999999659e+01,1.129177483603117059e-02
5.020000000000000284e+01,1.416449674618906057e-02
5.024000000000000199e+01,1.062843079851039270e-02
5.028000000000000114e+01,6.055506226056234925e-03
5.032000000000000028e+01,1.232051364117923639e-02
5.035999999999999943e+01,6.522071932195005160e-03
5.039999999999999858e+01,7.037833090747588546e-03
5.043999999999999773e+01,9.438312097053041735e-03
5.047999999999999687e+01,9.199779563511562008e-03
5.052000000000000313e+01,1.018625483813117433e-02
5.056000000000000227e+01,9.287674050549381624e-03
5.060000000000000142e+01,6.598281836141444388e-03
5.064000000000000057e+01,6.547563749810371946e-03
5.067999999999999972e+01,5.648478449930331019e-03
5.071999999999999886e+01,5.597424824745555853e-03
5.075999999999999801e+01,1.346273072800191137e-02
5.079999999999999716e+01,1.001854539283193561e-02
5.084000000000000341e+01,1.043821230514186023e-02
5.088000000000000256e+01,9.726780238252807215e-03
5.092000000000000171e+01,1.005186991948808437e-02
5.096000000000000085e+01,1.358110207617099427e-02
5.100000000000000000e+01,1.041881835520011394e-02
5.103999999999999915e+01,1.083765511605911530e-02
5.107999999999999829e+01,1.097359354585894162e-02
5.111999999999999744e+01,1.374820931444942565e-02
5.115999999999999659e+01,1.218741947101954770e-02
5.120000000000000284e+01,9.307044053234913433e-03
5.124000000000000199e+01,1.047901229415671050e-02
5.128000000000000114e+01,4.394000323446204184e-03
5.132000000000000028e+01,1.225699116722198632e-02
5.135999999999999943e+01,1.088387061035228122e-02
5.139999999999999858e+01,8.568143288188542761e-03
5.143999999999999773e+01,7.948651767133179183e-03
5.147999999999999687e+01,1.072179493543044294e-02
5.152000000000000313e+01,8.499824325031945377e-03
5.156000000000000227e+01,1.372299675518521070e-02
5.160000000000000142e+01,6.505750884312069132e-03
5.164000000000000057e+01,7.581847899452019007e-03
5.167999999999999972e+01,7.998073125661800051e-03
5.171999999999999886e+01,7.848671198316763825e-03
5.175999999999999801e+01,1.090341709760907565e-02
5.179999999999999716e+01,1.065944971180679546e-02
5.184000000000000341e+01,1.032107781420722389e-02
5.188000000000000256e+01,1.035952351144891169e-02
5.192000000000000171e+01,1.228269695614445621e-02
5.196000000000000085e+01,1.175535749632571070e-02
5.200000000000000000e+01,1.009692654897362436e-02
5.203999999999999915e+01,1.201962277243857902e-02
5.207999999999999829e+01,6.308366664197673571e-03
5.211999999999999744e+01,1.039836653773684207e-02
5.215999999999999659e+01,8.833546338821288146e-03
5.220000000000000284e+01,6.891590932696366710e-03
5.224000000000000199e+01,5.703433000711391823e-03
5.228000000000000114e+01,8.190648212716205787e-03
5.232000000000000028e+01,9.264040974216092642e-03
5.235999999999999943e+01,1.203367569069255412e-02
5.239999999999999858e+01,9.525469411334535827e-03
5.243999999999999773e+01,1.238903596688897303e-02
5.247999999999999687e+01,1.101145010770187595e-02
5.252000000000000313e+01,1.208406221625588604e-02
5.256000000000000227e+01,6.465168881976043717e-03
5.260000000000000142e+01,1.083602347582170514e-02
5.264000000000000057e+01,1.379305775963837397e-02
5.267999999999999972e+01,1.062405361019457331e-02
5.271999999999999886e+01,6.323962789288164153e-03
5.275999999999999801e+01,7.112913840322666707e-03
5.279999999999999716e+01,1.063479783546213142e-02
5.284000000000000341e+01,1.293135159400162285e-02
5.288000000000000256e+01,1.513350779729045331e-02
5.292000000000000171e+01,5.649209471542486136e-03
5.296000000000000085e+01,1.482514332101069268e-02
5.300000000000000000e+01,1.052398018806049301e-02
5.303999999999999915e+01,7.824819190782341533e-03
5.307999999999999829e+01,9.554991631210240852e-03
5.311999999999999744e+01,7.326749041295871692e-03
5.315999999999999659e+01,8.773885481680010479e-03
5.320000000000000284e+01,9.843893403841912429e-03
5.324000000000000199e+01,1.364683721326310877e-02
5.328000000000000114e+01,1.066403602810542944e-02
5.332000000000000028e+01,7.775328966483112045e-03
5.335999999999999943e+01,1.072962273272050002e-02
5.339999999999999858e+01,1.283556747945403635e-02
5.343999999999999773e+01,9.286700715636463446e-03
5.347999999999999687e+01,1.129810247890964715e-02
5.352000000000000313e+01,7.183471427671590283e-03
5.356000000000000227e+01,8.157887599564189046e-03
5.360000000000000142e+01,1.422135126214687552e-02
5.364000000000000057e+01,6.524989119815510948e-03
5.367999999999999972e+01,1.230542373890106816e-02
5.371999999999999886e+01,1.007493952495647216e-02
5.375999999999999801e+01,1.189681582596594650e-02
5.379999999999999716e+01,8.817837966986218773e-03
5.384000000000000341e+01,8.943021847737188390e-03
5.388000000000000256e+01,1.321481141393647009e-02
5.392000000000000171e+01,1.145481520903520074e-02
5.396000000000000085e+01,1.261624844309563662e-02
5.400000000000000000e+01,1.113869368254393095e-02
5.403999999999999915e+01,9.472504758150892407e-03
5.407999999999999829e+01,8.560125615634149587e-03
5.411999999999999744e+01,8.401556522553230849e-03
5.415999999999999659e+01,1.154139567749467785e-02
5.420000000000000284e+01,1.307893622159545140e-02
5.424000000000000199e+01,1.423935520402070352e-02
5.428000000000000114e+01,1.426869794980329537e-02
5.432000000000000028e+01,1.307272035868694247e-02
5.435999999999999943e+01,1.234782131891586782e-02
5.439999999999999858e+01,1.011486937391736611e-02
5.443999999999999773e+01,1.410190295214800750e-02
5.447999999999999687e+01,9.795289677531276301e-03
5.452000000000000313e+01,7.844643380814147679e-03
5.456000000000000227e+01,1.032334042150405418e-02
5.460000000000000142e+01,1.082276405568488933e-02
5.464000000000000057e+01,1.565728719457596882e-02
5.467999999999999972e+01,1.144420987589054098e-02
5.471999999999999886e+01,9.775589608533757566e-03
5.475999999999999801e+01,1.677731056809333293e-02
5.479999999999999716e+01,9.076769803805746079e-03
5.484000000000000341e+01,1.673792091647654731e-02
5.488000000000000256e+01,1.214716440363051465e-02
5.492000000000000171e+01,9.629644440831450908e-03
5.496000000000000085e+01,1.540548957148285374e-02
5.500000000000000000e+01,9.023672247111673081e-03
5.503999999999999915e+01,1.357406285015287997e-02
5.507999999999999829e+01,8.605633832133361902e-03
5.511999999999999744e+01,1.353272523067118073e-02
5.515999999999999659e+01,1.403019340532146372e-02
5.520000000000000284e+01,1.462176827880294627e-02
5.524000000000000199e+01,1.436500644051694718e-02
5.528000000000000114e+01,1.090379896262751690e-02
5.532000000000000028e+01,1.394531599772338461e-02
5.535999999999999943e+01,1.557303091683530025e-02
5.539999999999999858e+01,1.493874467718041450e-02
5.543999999999999773e+01,1.062879202908095962e-02
5.547999999999999687e+01,1.103092197570418667e-02
5.552000000000000313e+01,1.595664604897798280e-02
5.556000000000000227e+01,8.159245206167101486e-03
5.560000000000000142e+01,1.317894339291776455e-02
5.564000000000000057e+01,8.962558807887965537e-03
5.567999999999999972e+01,1.417047654616926909e-02
5.571999999999999886e+01,1.362935365697434675e-02
5.575999999999999801e+01,1.007227707452143343e-02
5.579999999999999716e+01,1.631648108932131844e-02
5.584000000000000341e+01,1.257064872761168295e-02
5.588000000000000256e+01,1.824912002701051597e-02
5.592000000000000171e+01,1.422028858846621259e-02
5.596000000000000085e+01,1.000283582893594057e-02
5.600000000000000000e+01,1.539817626882423671e-02
5.603999999999999915e+01,1.372505707229077811e-02
5.607999999999999829e+01,1.327698287468707071e-02
5.611999999999999744e+01,1.169784474817710078e-02
5.615999999999999659e+01,1.256892893732150518e-02
5.620000000000000284e+01,1.475930329588995282e-02
5.624000000000000199e+01,1.383948280409839568e-02
5.628000000000000114e+01,1.348499807432329729e-02
5.632000000000000028e+01,1.539224799480884767e-02
5.635999999999999943e+01,1.155046156877000303e-02
5.639999999999999858e+01,1.374018504074350951e-02
5.643999999999999773e+01,1.121756074728558379e-02
5.647999999999999687e+01,1.444371378351155810e-02
5.652000000000000313e+01,1.672729430205779216e-02
5.656000000000000227e+01,1.147119682337648452e-02
5.660000000000000142e+01,1.743005081037500917e-02
5.664000000000000057e+01,1.735713722031806405e-02
5.667999999999999972e+01,1.492798666558205374e-02
5.671999999999999886e+01,1.391237412635919213e-02
5.675999999999999801e+01,1.826856331847338463e-02
5.679999999999999716e+01,1.376565496929547418e-02
5.684000000000000341e+01,1.510577072565265355e-02
5.688000000000000256e+01,1.456087269420731911e-02
5.692000000000000171e+01,1.712591263675727893e-02
5.696000000000000085e+01,1.761745059099205368e-02
5.700000000000000000e+01,1.952252843365641366e-02
5.703999999999999915e+01,1.878863861622962969e-02
5.707999999999999829e+01,2.220137588901009706e-02
5.711999999999999744e+01,1.788595017476421467e-02
5.715999999999999659e+01,2.158117116629316642e-02
5.720000000000000284e+01,1.962160579786271716e-02
5.724000000000000199e+01,1.737918330253401811e-02
5.728000000000000114e+01,1.834094555705186730e-02
5.732000000000000028e+01,2.015078363358023192e-02
5.735999999999999943e+01,1.715403573072954435e-02
5.739999999999999858e+01,1.679600717350893807e-02
5.743999999999999773e+01,2.096158558579423736e-02
5.747999999999999687e+01,2.107453376390548000e-02
5.752000000000000313e+01,1.713485197540218913e-02
5.756000000000000227e+01,1.526842439587197675e-02
5.760000000000000142e+01,1.924502600550709666e-02
5.764000000000000057e+01,1.766108856615301176e-02
5.767999999999999972e+01,2.201442521889904885e-02
5.771999999999999886e+01,2.033600151869576628e-02
5.775999999999999801e+01,1.799774669860426668e-02
5.779999999999999716e+01,1.905216884226429083e-02
5.784000000000000341e+01,2.293380201034034283e-02
5.788000000000000256e+01,1.644843497617736947e-02
5.792000000000000171e+01,1.467516685786583210e-02
5.796000000000000085e+01,1.893341907238661401e-02
5.800000000000000000e+01,1.461531487584738845e-02
5.803999999999999915e+01,1.585750970818038466e-02
5.807999999999999829e+01,1.653411992891692245e-02
5.811999999999999744e+01,1.853003316193282610e-02
5.815999999999999659e+01,1.958338484720792763e-02
5.820000000000000284e+01,1.846899847069613521e-02
5.824000000000000199e+01,1.264227636892975917e-02
5.828000000000000114e+01,1.755929513126254504e-02
5.832000000000000028e+01,1.672729065748580074e-02
5.835999999999999943e+01,1.957069999674076674e-02
5.839999999999999858e+01,1.836148525568988277e-02
5.843999999999999773e+01,1.856582003521007121e-02
5.847999999999999687e+01,1.848730598217611029e-02
5.852000000000000313e+01,2.189571807678021217e-02
5.856000000000000227e+01,1.861266486247347210e-02
5.860000000000000142e+01,1.693165097460743590e-02
5.864000000000000057e+01,2.024547392211097779e-02
5.867999999999999972e+01,1.479445627143413829e-02
5.871999999999999886e+01,1.791956196824701433e-02
5.875999999999999801e+01,1.369349311923572302e-02
5.879999999999999716e+01,1.540470585399019224e-02
5.884000000000000341e+01,1.419422986538296586e-02
5.888000000000000256e+01,1.053328726005265358e-02
5.892000000000000171e+01,1.629666865035178311e-02
5.896000000000000085e+01,1.574556487859823939e-02
5.900000000000000000e+01,1.472312701693224805e-02
5.903999999999999915e+01,1.709337441336179417e-02
5.907999999999999829e+01,1.644769032397073311e-02
5.911999999999999744e+01,1.410549616574007133e-02
5.915999999999999659e+01,1.883151841310034061e-02
5.920000000000000284e+01,1.950492193134444399e-02
5.924000000000000199e+01,1.207319917195176333e-02
5.928000000000000114e+01,1.915499867827808247e-02
5.932000000000000028e+01,1.709498439611254958e-02
5.935999999999999943e+01,1.691974762746537714e-02
5.939999999999999858e+01,1.891202174334355793e-02
5.943999999999999773e+01,1.685167873546248099e-02
5.947999999999999687e+01,1.799553519319969930e-02
5.952000000000000313e+01,1.970474908527180061e-02
5.956000000000000227e+01,1.641890297810493296e-02
5.960000000000000142e+01,1.548905782889245693e-02
5.964000000000000057e+01,1.597277022703567570e-02
5.967999999999999972e+01,1.673910802630423217e-02
5.971999999999999886e+01,1.863627080459996296e-02
5.975999999999999801e+01,2.279519124327222812e-02
5.979999999999999716e+01,1.781230110416648360e-02
5.984000000000000341e+01,1.999187628697874849e-02
5.988000000000000256e+01,1.915552533516017356e-02
5.992000000000000171e+01,1.681115840132331798e-02
5.996000000000000085e+01,1.493790747715983622e-02
