2.003999999999999915e+01,7.004430741728791265e-02
2.007999999999999829e+01,1.166543752277581503e-01
2.012000000000000099e+01,1.000496243792031725e-01
2.016000000000000014e+01,8.789197098791784457e-02
2.019999999999999929e+01,8.176972208878295623e-02
2.023999999999999844e+01,8.676546212002211877e-02
2.028000000000000114e+01,7.428964781490980662e-02
2.032000000000000028e+01,6.753157379263378945e-02
2.035999999999999943e+01,9.635142789694864374e-02
2.039999999999999858e+01,9.276963067797849849e-02
2.044000000000000128e+01,9.109363212918757113e-02
2.048000000000000043e+01,9.068810821060166449e-02
2.051999999999999957e+01,9.949459759954448757e-02
2.055999999999999872e+01,8.511161804382398610e-02
2.060000000000000142e+01,7.644637264082747297e-02
2.064000000000000057e+01,6.936925994723662503e-02
2.067999999999999972e+01,9.437579097104974168e-02
2.071999999999999886e+01,5.775579811049456197e-02
2.076000000000000156e+01,7.513809638231294663e-02
2.080000000000000071e+01,8.076673741148400476e-02
2.083999999999999986e+01,8.321858303957599401e-02
2.087999999999999901e+01,9.647074200423454149e-02
2.092000000000000171e+01,8.462745464992349476e-02
2.096000000000000085e+01,5.213598225062276298e-02
2.100000000000000000e+01,1.095425545091188307e-01
2.103999999999999915e+01,8.372160829309621688e-02
2.107999999999999829e+01,8.712534279807453153e-02
2.112000000000000099e+01,7.051621191938609035e-02
2.116000000000000014e+01,1.104506560727445685e-01
2.119999999999999929e+01,7.764041045869486679e-02
2.123999999999999844e+01,8.072573528729011516e-02
2.128000000000000114e+01,1.044588737409353069e-01
2.132000000000000028e+01,9.102541699766500405e-02
2.135999999999999943e+01,5.440247379512412607e-02
2.139999999999999858e+01,7.019349980265977840e-02
2.144000000000000128e+01,1.034557201111023506e-01
2.148000000000000043e+01,6.365558293990215832e-02
2.151999999999999957e+01,8.039901291917557480e-02
2.155999999999999872e+01,9.396563173422375903e-02
2.160000000000000142e+01,7.798952719317558957e-02
2.164000000000000057e+01,5.375402442248673057e-02
2.167999999999999972e+01,7.049666777536364726e-02
2.171999999999999886e+01,7.961523431138332885e-02
2.176000000000000156e+01,9.000424745423621364e-02
2.180000000000000071e+01,7.688610292266269408e-02
2.183999999999999986e+01,9.426326880170160516e-02
2.187999999999999901e+01,9.099222949395269211e-02
2.192000000000000171e+01,7.723815475159521993e-02
2.196000000000000085e+01,6.793113805864121890e-02
2.200000000000000000e+01,5.767093164328300492e-02
2.203999999999999915e+01,8.616523239506185261e-02
2.207999999999999829e+01,9.019938459593528080e-02
2.212000000000000099e+01,6.977338737017263481e-02
2.216000000000000014e+01,8.841955626647848843e-02
2.219999999999999929e+01,7.784065025285497041e-02
2.223999999999999844e+01,5.455507072392480616e-02
2.228000000000000114e+01,6.684737728652789812e-02
2.232000000000000028e+01,6.897430123934121526e-02
2.235999999999999943e+01,6.030051854238985265e-02
2.239999999999999858e+01,1.072172989834777601e-01
2.244000000000000128e+01,9.949607269048020564e-02
2.248000000000000043e+01,1.022574631227125552e-01
2.251999999999999957e+01,1.126425151653447920e-01
2.255999999999999872e+01,9.824974656618501445e-02
2.260000000000000142e+01,4.541970841824907734e-02
2.264000000000000057e+01,8.471131009802061740e-02
2.267999999999999972e+01,7.285917719266836456e-02
2.271999999999999886e+01,6.577174727996465409e-02
2.276000000000000156e+01,3.740076975016091987e-02
2.280000000000000071e+01,5.922009970501618259e-02
2.283999999999999986e+01,9.628696223536042931e-02
2.287999999999999901e+01,6.378571403884328306e-02
2.292000000000000171e+01,8.878098708860389376e-02
2.296000000000000085e+01,7.025639739406039364e-02
2.300000000000000000e+01,7.809749214636081682e-02
2.303999999999999915e+01,4.972493879170665487e-02
2.307999999999999829e+01,4.930637604304643345e-02
2.312000000000000099e+01,5.015823012638760681e-02
2.316000000000000014e+01,8.214068888548373137e-02
2.319999999999999929e+01,6.552069433193893899e-02
2.323999999999999844e+01,7.876065637419975285e-02
2.328000000000000114e+01,3.386831588869367721e-02
2.332000000000000028e+01,6.616750598373660752e-02
2.335999999999999943e+01,2.508663585768762180e-02
2.339999999999999858e+01,7.136246518863641197e-02
2.344000000000000128e+01,4.584654045764344904e-02
2.348000000000000043e+01,4.034305802228663196e-02
2.351999999999999957e+01,4.436918479680374700e-02
2.355999999999999872e+01,8.302018489311642491e-02
2.360000000000000142e+01,6.735081444128550310e-02
2.364000000000000057e+01,7.963542233522356850e-02
2.367999999999999972e+01,9.223745005457106849e-02
2.371999999999999886e+01,5.337805883768362986e-02
2.376000000000000156e+01,6.915621623763668069e-02
2.380000000000000071e+01,9.128736089612966842e-02
2.383999999999999986e+01,7.466354727608326414e-02
2.387999999999999901e+01,6.566336549160481373e-02
2.392000000000000171e+01,6.142786042786402279e-02
2.396000000000000085e+01,3.972072046057871508e-02
2.400000000000000000e+01,7.868669391607308050e-02
2.403999999999999915e+01,5.920268662280166183e-02
2.407999999999999829e+01,3.590648983004795375e-02
2.412000000000000099e+01,1.801028854362465847e-02
2.416000000000000014e+01,9.064738589654416923e-02
2.419999999999999929e+01,9.339868204137785623e-02
2.423999999999999844e+01,6.470122753917884051e-02
2.428000000000000114e+01,5.696918256437542155e-02
2.432000000000000028e+01,8.132070161551323284e-02
2.435999999999999943e+01,5.770506512207401739e-02
2.439999999999999858e+01,5.696080502157220560e-02
2.444000000000000128e+01,3.588594526966189940e-02
2.448000000000000043e+01,5.801280141504749216e-02
2.451999999999999957e+01,6.647994938212968552e-02
2.455999999999999872e+01,5.429883348848981578e-02
2.460000000000000142e+01,5.323561107061525882e-02
2.464000000000000057e+01,2.548855298023690666e-02
2.467999999999999972e+01,3.300166685544831530e-02
2.471999999999999886e+01,4.940904050437865125e-02
2.476000000000000156e+01,5.279202388486770731e-02
2.480000000000000071e+01,5.839837206304925032e-02
2.483999999999999986e+01,8.528777909052340234e-02
2.487999999999999901e+01,3.943241578339649195e-02
2.492000000000000171e+01,4.281432880085273701e-02
2.496000000000000085e+01,4.397234096336960496e-02
2.500000000000000000e+01,6.641340847225789268e-02
2.503999999999999915e+01,5.137013775918489178e-02
2.507999999999999829e+01,6.586912177619881625e-02
2.512000000000000099e+01,4.161311949130207938e-02
2.516000000000000014e+01,3.006330633255625828e-02
2.519999999999999929e+01,4.424380629124041037e-02
2.523999999999999844e+01,4.317627439786372867e-02
2.528000000000000114e+01,4.337911204704868184e-02
2.532000000000000028e+01,2.039237653965781175e-02
2.535999999999999943e+01,3.330112127468486810e-02
2.539999999999999858e+01,5.319814140328176649e-02
2.544000000000000128e+01,4.545832359840103892e-02
2.548000000000000043e+01,5.677791955627232295e-02
2.551999999999999957e+01,5.475544702470284270e-02
2.555999999999999872e+01,5.368567632346065571e-02
2.560000000000000142e+01,3.196761899250727401e-02
2.564000000000000057e+01,4.328608153475980297e-02
2.567999999999999972e+01,3.490924044220718170e-02
2.571999999999999886e+01,4.114454570831361374e-02
2.576000000000000156e+01,3.975568570879663144e-02
2.580000000000000071e+01,6.568543360136487597e-02
2.583999999999999986e+01,6.874325853498480798e-02
2.587999999999999901e+01,4.130528166299377024e-02
2.592000000000000171e+01,3.387969366708676322e-02
2.596000000000000085e+01,5.917295695642099673e-02
2.600000000000000000e+01,4.285226043867682716e-02
2.603999999999999915e+01,3.034320948159518333e-02
2.607999999999999829e+01,6.230648572108362510e-02
2.612000000000000099e+01,1.993665656771895570e-02
2.616000000000000014e+01,3.982820145830546360e-02
2.619999999999999929e+01,2.096473640226172164e-02
2.623999999999999844e+01,2.783156169465854021e-02
2.628000000000000114e+01,4.327495102516810271e-02
2.632000000000000028e+01,5.744739447227263651e-02
2.635999999999999943e+01,3.508845554468069394e-02
2.639999999999999858e+01,6.069611421116010569e-02
2.644000000000000128e+01,5.707860514029200472e-02
2.648000000000000043e+01,4.234263763731022090e-02
2.651999999999999957e+01,5.174864644204569403e-02
2.655999999999999872e+01,3.605908544983086467e-02
2.660000000000000142e+01,4.578214534236130923e-02
2.664000000000000057e+01,3.549221900043557365e-02
2.667999999999999972e+01,2.329601572928738373e-02
2.671999999999999886e+01,6.097237253910056665e-02
2.676000000000000156e+01,5.639942973871458348e-02
2.680000000000000071e+01,4.102568308249410212e-02
2.683999999999999986e+01,4.217002775721572644e-02
2.687999999999999901e+01,4.617301485589557497e-02
2.692000000000000171e+01,3.651624123245025832e-02
2.696000000000000085e+01,4.020094049153450505e-02
2.700000000000000000e+01,4.261467897979775293e-02
2.703999999999999915e+01,6.567610498793936824e-02
2.707999999999999829e+01,1.313375825721051562e-02
2.712000000000000099e+01,2.444107246351522392e-02
2.716000000000000014e+01,3.765403821729933209e-02
2.719999999999999929e+01,5.118434673222132386e-02
2.723999999999999844e+01,4.247802480187685970e-02
2.728000000000000114e+01,2.011193426783393357e-02
2.732000000000000028e+01,3.586491214027652530e-02
2.735999999999999943e+01,2.493399479055115678e-02
2.739999999999999858e+01,1.114380000209031635e-02
2.744000000000000128e+01,4.277888738173404176e-02
2.748000000000000043e+01,5.185967747960659735e-02
2.751999999999999957e+01,5.744586434730841046e-02
2.755999999999999872e+01,2.300636516505883550e-02
2.760000000000000142e+01,6.766427235294304732e-02
2.764000000000000057e+01,1.035248322559107793e-02
2.767999999999999972e+01,4.420923883755464162e-02
2.771999999999999886e+01,4.598184444969994483e-02
2.776000000000000156e+01,1.757626867902956080e-02
2.780000000000000071e+01,3.777258301611225583e-02
2.783999999999999986e+01,7.639293628361139288e-02
2.787999999999999901e+01,4.830402359705331106e-02
2.792000000000000171e+01,5.706351985253717285e-02
2.796000000000000085e+01,4.866895521356265353e-02
2.800000000000000000e+01,3.360316101443112935e-02
2.803999999999999915e+01,1.853702960397796140e-02
2.807999999999999829e+01,1.363573073438219090e-02
2.812000000000000099e+01,2.938209573994547685e-02
2.816000000000000014e+01,4.544578248911818746e-02
2.819999999999999929e+01,4.721435732855010919e-02
2.823999999999999844e+01,1.848707869427962391e-02
2.828000000000000114e+01,3.296143276292127361e-02
2.832000000000000028e+01,4.362350450466236096e-02
2.835999999999999943e+01,2.537802805612136142e-02
2.839999999999999858e+01,2.333294720291621480e-02
2.844000000000000128e+01,5.495964808603621965e-02
2.848000000000000043e+01,4.910193543438410441e-02
2.851999999999999957e+01,2.767845753865975922e-02
2.855999999999999872e+01,3.389118869174799487e-02
2.860000000000000142e+01,4.391550935875571798e-02
2.864000000000000057e+01,6.664594296337311707e-02
2.867999999999999972e+01,4.395041910151255282e-02
2.871999999999999886e+01,3.904359173975585628e-02
2.876000000000000156e+01,4.652521310629584295e-02
2.880000000000000071e+01,4.352364841260568384e-02
2.883999999999999986e+01,4.814560696391874395e-02
2.887999999999999901e+01,4.101373137505229943e-02
2.892000000000000171e+01,3.451682247304063700e-02
2.896000000000000085e+01,2.039567824697674503e-02
2.900000000000000000e+01,3.105177919759236072e-02
2.903999999999999915e+01,3.567195098330598613e-02
2.907999999999999829e+01,3.235022323565424351e-02
2.912000000000000099e+01,3.347539678167169713e-02
2.916000000000000014e+01,3.714150125289469168e-02
2.919999999999999929e+01,2.365351768201836430e-02
2.923999999999999844e+01,0.000000000000000000e+00
2.928000000000000114e+01,5.544385190744016007e-02
2.932000000000000028e+01,3.941348260269814108e-02
2.935999999999999943e+01,3.513622572605300254e-02
2.939999999999999858e+01,2.482303180293279551e-02
2.944000000000000128e+01,3.388682652738084916e-02
2.948000000000000043e+01,2.643185024386144472e-02
2.951999999999999957e+01,4.724838515587051480e-02
2.955999999999999872e+01,1.533272694652343740e-02
2.960000000000000142e+01,2.503036463037562956e-02
2.964000000000000057e+01,3.853956905915776471e-02
2.967999999999999972e+01,5.586033935713963922e-02
2.971999999999999886e+01,9.648419238690097294e-03
2.976000000000000156e+01,2.728610225907041401e-02
2.980000000000000071e+01,3.825251631142768255e-02
2.983999999999999986e+01,3.333547463848833547e-02
2.987999999999999901e+01,4.461879615886189115e-02
2.992000000000000171e+01,4.319527602369983843e-02
2.996000000000000085e+01,1.635845007238507717e-02
3.000000000000000000e+01,3.717048131728723642e-02
3.003999999999999915e+01,3.225154341245366207e-02
3.007999999999999829e+01,4.321530274015883410e-02
3.012000000000000099e+01,5.131972507946416101e-02
3.016000000000000014e+01,2.733994399939933262e-02
3.019999999999999929e+01,3.131399764532473429e-02
3.023999999999999844e+01,2.448717212260481668e-02
3.028000000000000114e+01,4.307288691743713094e-02
3.032000000000000028e+01,4.768110497094172479e-02
3.035999999999999943e+01,2.369939262976823030e-02
3.039999999999999858e+01,1.941230950075661238e-02
3.044000000000000128e+01,4.498502533608633031e-02
3.048000000000000043e+01,1.719020474401721996e-02
3.051999999999999957e+01,4.307980002399160180e-02
3.055999999999999872e+01,9.883948646907420033e-03
3.060000000000000142e+01,4.974986789985866992e-02
3.064000000000000057e+01,2.989501558004625803e-02
3.067999999999999972e+01,3.418204849199375089e-02
3.071999999999999886e+01,1.400874369527810477e-02
3.076000000000000156e+01,3.417806306709262471e-02
3.080000000000000071e+01,4.005221360669297681e-02
3.083999999999999986e+01,2.940756336349343095e-02
3.087999999999999901e+01,8.279681522085078835e-03
3.092000000000000171e+01,2.209417345020834103e-02
3.096000000000000085e+01,1.589558456499682096e-02
3.100000000000000000e+01,2.208539536718197305e-02
3.103999999999999915e+01,3.335738859222334152e-02
3.107999999999999829e+01,4.526430121468022483e-02
3.112000000000000099e+01,5.145290071637872997e-02
3.116000000000000014e+01,3.921672293670140641e-02
3.119999999999999929e+01,5.112241900428942526e-02
3.123999999999999844e+01,3.793244281447531729e-02
3.128000000000000114e+01,6.508507940869667774e-02
3.132000000000000028e+01,4.427040808125860816e-02
3.135999999999999943e+01,7.491650316067147153e-02
3.139999999999999858e+01,6.108956597030813090e-02
3.144000000000000128e+01,8.220499116498176939e-02
3.148000000000000043e+01,5.662375126356342103e-02
3.151999999999999957e+01,9.552739913308357089e-02
3.155999999999999872e+01,7.089831630257563411e-02
3.160000000000000142e+01,9.105910139997078212e-02
3.164000000000000057e+01,7.722968118323937647e-02
3.167999999999999972e+01,7.610630734861058289e-02
3.171999999999999886e+01,1.089723050225398088e-01
3.176000000000000156e+01,1.091187410836401556e-01
3.180000000000000071e+01,9.719361749412253060e-02
3.183999999999999986e+01,1.036924452619852610e-01
3.187999999999999901e+01,1.222619918690545232e-01
3.192000000000000171e+01,1.138298818385727884e-01
3.196000000000000085e+01,9.396153181879574046e-02
3.200000000000000000e+01,1.265069189405503836e-01
3.203999999999999915e+01,9.774319592836799853e-02
3.207999999999999829e+01,8.803874218342802593e-02
3.211999999999999744e+01,1.037467884724439654e-01
3.215999999999999659e+01,7.116984686734076360e-02
3.220000000000000284e+01,6.972331202293165220e-02
3.224000000000000199e+01,9.051265876406552890e-02
3.228000000000000114e+01,8.207670991121969462e-02
3.232000000000000028e+01,7.491097647239258750e-02
3.235999999999999943e+01,6.234456434728814778e-02
3.239999999999999858e+01,8.726178624666942885e-02
3.243999999999999773e+01,7.787112373519503028e-02
3.247999999999999687e+01,5.259694770022030341e-02
3.252000000000000313e+01,5.622954034524168393e-02
3.256000000000000227e+01,5.287314201472310266e-02
3.260000000000000142e+01,4.348073657930062730e-02
3.264000000000000057e+01,2.741699999899979701e-02
3.267999999999999972e+01,5.455479979127126483e-02
3.271999999999999886e+01,2.292476721916696103e-02
3.275999999999999801e+01,4.783805571730568446e-02
3.279999999999999716e+01,6.322105532854489784e-02
3.284000000000000341e+01,6.557948777381029937e-02
3.288000000000000256e+01,6.380787647679238284e-02
3.292000000000000171e+01,4.932935784446227517e-02
3.296000000000000085e+01,4.469790333176364150e-02
3.300000000000000000e+01,4.641923465962253387e-02
3.303999999999999915e+01,4.718713456349837160e-02
3.307999999999999829e+01,3.715409312187344798e-02
3.311999999999999744e+01,5.666313038853360018e-02
3.315999999999999659e+01,3.296974318177053886e-02
3.320000000000000284e+01,1.213486003356909620e-02
3.324000000000000199e+01,3.640747049044824185e-02
3.328000000000000114e+01,4.765550414831955933e-02
3.332000000000000028e+01,3.793742057839844667e-02
3.335999999999999943e+01,4.410196243112667058e-02
3.339999999999999858e+01,3.247700112582353749e-02
3.343999999999999773e+01,4.944112677659597693e-02
3.347999999999999687e+01,5.338067124970891086e-02
3.352000000000000313e+01,5.954338961129636287e-02
3.356000000000000227e+01,6.062306459681782861e-02
3.360000000000000142e+01,2.898313768591383177e-02
3.364000000000000057e+01,5.325118941494071806e-02
3.367999999999999972e+01,3.971705218212683020e-02
3.371999999999999886e+01,5.286602628254283287e-02
3.375999999999999801e+01,6.792050743492906995e-02
3.379999999999999716e+01,4.040787326645066402e-02
3.384000000000000341e+01,6.626192070227393538e-02
3.388000000000000256e+01,6.733789966461359300e-02
3.392000000000000171e+01,4.458879402410584336e-02
3.396000000000000085e+01,6.218224249369957990e-02
3.400000000000000000e+01,7.119836055084947934e-02
3.403999999999999915e+01,4.813019024278437918e-02
3.407999999999999829e+01,5.047447705788753181e-02
3.411999999999999744e+01,6.203047943219753418e-02
3.415999999999999659e+01,7.104471795146363733e-02
3.420000000000000284e+01,7.815251490419992952e-02
3.424000000000000199e+01,6.429417448734545126e-02
3.428000000000000114e+01,7.171868624741906117e-02
3.432000000000000028e+01,1.023320188014235077e-01
3.435999999999999943e+01,7.354215992186308171e-02
3.439999999999999858e+01,1.095547873427775570e-01
3.443999999999999773e+01,1.014119775205307716e-01
3.447999999999999687e+01,7.547964089553298173e-02
3.452000000000000313e+01,9.116049244890019054e-02
3.456000000000000227e+01,9.286375443352173908e-02
3.460000000000000142e+01,8.694265761611055798e-02
3.464000000000000057e+01,8.769197231643434398e-02
3.467999999999999972e+01,8.018160329902053463e-02
3.471999999999999886e+01,1.041192474534103352e-01
3.475999999999999801e+01,8.326612419455171887e-02
3.479999999999999716e+01,1.018025519090905023e-01
3.484000000000000341e+01,9.365492063988409277e-02
3.488000000000000256e+01,8.550680240946466337e-02
3.492000000000000171e+01,6.592237938570374989e-02
3.496000000000000085e+01,7.143273263692094532e-02
3.500000000000000000e+01,7.408364206063458579e-02
3.503999999999999915e+01,7.864003051294676805e-02
3.507999999999999829e+01,9.113746717844865841e-02
3.511999999999999744e+01,6.265606753459497524e-02
3.515999999999999659e+01,6.721097934012193464e-02
3.520000000000000284e+01,7.684798249254791436e-02
3.524000000000000199e+01,6.583648796424641791e-02
3.528000000000000114e+01,7.388419264475880321e-02
3.532000000000000028e+01,6.604832162491562630e-02
3.535999999999999943e+01,5.725896838872863992e-02
3.539999999999999858e+01,6.625816540567590340e-02
3.543999999999999773e+01,7.462154003694076998e-02
3.547999999999999687e+01,9.791450893077953410e-02
3.552000000000000313e+01,1.031002666707556692e-01
3.556000000000000227e+01,7.366041011078584833e-02
3.560000000000000142e+01,8.869267232356096986e-02
3.564000000000000057e+01,8.339408968042726078e-02
3.567999999999999972e+01,8.285992629330600490e-02
3.571999999999999886e+01,1.217152937377838223e-01
3.575999999999999801e+01,9.259057638083566244e-02
3.579999999999999716e+01,8.951360165489458121e-02
3.584000000000000341e+01,1.172492924160627725e-01
3.588000000000000256e+01,1.468904438154921277e-01
3.592000000000000171e+01,1.692248690959092805e-01
3.596000000000000085e+01,1.604279487224207490e-01
3.600000000000000000e+01,1.811730440046313562e-01
3.603999999999999915e+01,1.974703647797383110e-01
3.607999999999999829e+01,2.118612028289883764e-01
3.611999999999999744e+01,2.068741702599319332e-01
3.615999999999999659e+01,2.234876102905987982e-01
3.620000000000000284e+01,2.350179491469962523e-01
3.624000000000000199e+01,2.084283814126874357e-01
3.628000000000000114e+01,2.170987316821647306e-01
3.632000000000000028e+01,2.327571182708238762e-01
3.635999999999999943e+01,2.423794154359255604e-01
3.639999999999999858e+01,2.294472200313864008e-01
3.643999999999999773e+01,2.438333995746570781e-01
3.647999999999999687e+01,2.143817587946406922e-01
3.652000000000000313e+01,2.160604301964395568e-01
3.656000000000000227e+01,1.977258981826535700e-01
3.660000000000000142e+01,1.994035212249462008e-01
3.664000000000000057e+01,1.925037560565913686e-01
3.667999999999999972e+01,1.808385407873248640e-01
3.671999999999999886e+01,1.825145847223802187e-01
3.675999999999999801e+01,1.803781615514297443e-01
3.679999999999999716e+01,1.725233009060100076e-01
3.684000000000000341e+01,1.811863126589427775e-01
3.688000000000000256e+01,1.695184524083256650e-01
3.692000000000000171e+01,1.451435972493602677e-01
3.696000000000000085e+01,1.452281514146107344e-01
3.700000000000000000e+01,1.554773428328488638e-01
3.703999999999999915e+01,1.600080915222355238e-01
3.707999999999999829e+01,1.464315949042755693e-01
3.711999999999999744e+01,1.633500741679314028e-01
3.715999999999999659e+01,1.666085685224903412e-01
3.720000000000000284e+01,1.511244917782672559e-01
3.724000000000000199e+01,1.629587724672471039e-01
3.728000000000000114e+01,1.595447577093281055e-01
3.732000000000000028e+01,1.574008488991331112e-01
3.735999999999999943e+01,1.771750479988728477e-01
3.739999999999999858e+01,1.559703608726266677e-01
3.743999999999999773e+01,1.528718409193885741e-01
3.747999999999999687e+01,1.685148104276724401e-01
3.752000000000000313e+01,1.752627108771188658e-01
3.756000000000000227e+01,1.639033555104544015e-01
3.760000000000000142e+01,1.849449350093744504e-01
3.764000000000000057e+01,1.955031349116550521e-01
3.767999999999999972e+01,2.130493413582854878e-01
3.771999999999999886e+01,2.521959862511553019e-01
3.775999999999999801e+01,2.490930907079773327e-01
3.779999999999999716e+01,2.574254612316683732e-01
3.784000000000000341e+01,2.657572799901001259e-01
3.788000000000000256e+01,3.014074421700488893e-01
3.792000000000000171e+01,3.551637610142414081e-01
3.796000000000000085e+01,3.596819802370464503e-01
3.800000000000000000e+01,4.540978719322459889e-01
3.803999999999999915e+01,5.002286470009636998e-01
3.807999999999999829e+01,5.698658221270807012e-01
3.811999999999999744e+01,6.423613935969253452e-01
3.815999999999999659e+01,7.739414605703918149e-01
3.820000000000000284e+01,8.534244684289894467e-01
3.824000000000000199e+01,9.354482084220011595e-01
3.828000000000000114e+01,1.000000000000000000e+00
3.832000000000000028e+01,9.771942942203770688e-01
3.835999999999999943e+01,9.251631597357600212e-01
3.839999999999999858e+01,8.740844459720250592e-01
3.843999999999999773e+01,7.966392559909348803e-01
3.847999999999999687e+01,6.817094335424830343e-01
3.852000000000000313e+01,6.153812665060479636e-01
3.856000000000000227e+01,5.528644709266733459e-01
3.860000000000000142e+01,4.757346741655423816e-01
3.864000000000000057e+01,4.173463414697530238e-01
3.867999999999999972e+01,3.830997188596520497e-01
3.871999999999999886e+01,3.552057568606671323e-01
3.875999999999999801e+01,2.910978025926965751e-01
3.879999999999999716e+01,2.689206043820649983e-01
3.884000000000000341e+01,2.613552652905350993e-01
3.888000000000000256e+01,2.604602448893219568e-01
3.892000000000000171e+01,2.382813230759440459e-01
3.896000000000000085e+01,1.910065599892049604e-01
3.900000000000000000e+01,2.212406457788364533e-01
3.903999999999999915e+01,2.187550105727137928e-01
3.907999999999999829e+01,1.879969156448170198e-01
3.911999999999999744e+01,1.877337528120181787e-01
3.915999999999999659e+01,1.852463782400027292e-01
3.920000000000000284e+01,1.643340503648095252e-01
3.924000000000000199e+01,1.904350542278761549e-01
3.928000000000000114e+01,1.863576244977838414e-01
3.932000000000000028e+01,1.616316077624675718e-01
3.935999999999999943e+01,1.524704235081246473e-01
3.939999999999999858e+01,1.369554216925948364e-01
3.943999999999999773e+01,1.468527596523651613e-01
3.947999999999999687e+01,1.589731410167865289e-01
3.952000000000000313e+01,1.536215468185539168e-01
3.956000000000000227e+01,1.543049332589776501e-01
3.960000000000000142e+01,1.413282813707526786e-01
3.964000000000000057e+01,1.359749162803343403e-01
3.967999999999999972e+01,1.639754252638883081e-01
3.971999999999999886e+01,1.487733661542402774e-01
3.975999999999999801e+01,1.669251793671039374e-01
3.979999999999999716e+01,1.428274074816713035e-01
3.984000000000000341e+01,1.476362440175792989e-01
3.988000000000000256e+01,1.603860236790338178e-01
3.992000000000000171e+01,1.610640659166076294e-01
3.996000000000000085e+01,1.671417568712899593e-01
4.000000000000000000e+01,1.309698583490243318e-01
4.003999999999999915e+01,1.945430966826922070e-01
4.007999999999999829e+01,1.593229821702043525e-01
4.011999999999999744e+01,1.669865795623201865e-01
4.015999999999999659e+01,1.736965896504492346e-01
4.020000000000000284e+01,1.448278991075441224e-01
4.024000000000000199e+01,1.693257500520833347e-01
4.028000000000000114e+01,1.804812093626800007e-01
4.032000000000000028e+01,1.649524897144722391e-01
4.035999999999999943e+01,1.471995320551373332e-01
4.039999999999999858e+01,1.745539112451486852e-01
4.043999999999999773e+01,1.841186331485855365e-01
4.047999999999999687e+01,1.669991725902966462e-01
4.052000000000000313e+01,1.657621806989230395e-01
4.056000000000000227e+01,1.664305469853586128e-01
4.060000000000000142e+01,2.023587366967013190e-01
4.064000000000000057e+01,1.744363353351025547e-01
4.067999999999999972e+01,1.903506183642488525e-01
4.071999999999999886e+01,1.833926526627534248e-01
4.075999999999999801e+01,1.780223791782931664e-01
4.079999999999999716e+01,2.082295863222104193e-01
4.084000000000000341e+01,1.974578319273308791e-01
4.088000000000000256e+01,2.273461417233229864e-01
4.092000000000000171e+01,1.962428085553606372e-01
4.096000000000000085e+01,2.032582451698316250e-01
4.100000000000000000e+01,2.375919568988520414e-01
4.103999999999999915e+01,2.160166083506815105e-01
4.107999999999999829e+01,2.154063015231560407e-01
4.111999999999999744e+01,2.278194959874909054e-01
4.115999999999999659e+01,2.075129230423625737e-01
4.120000000000000284e+01,2.259604377895299276e-01
4.124000000000000199e+01,2.037466438227190924e-01
4.128000000000000114e+01,2.186986278861323130e-01
4.132000000000000028e+01,1.952129325589619102e-01
4.135999999999999943e+01,1.742679010592378119e-01
4.139999999999999858e+01,1.523692551078859037e-01
4.143999999999999773e+01,1.679540452659587790e-01
4.147999999999999687e+01,1.692434327718118359e-01
4.152000000000000313e+01,1.835563128122214560e-01
4.156000000000000227e+01,1.759499104780183898e-01
4.160000000000000142e+01,1.372120390119291045e-01
4.164000000000000057e+01,1.473934162330111652e-01
4.167999999999999972e+01,1.391497858556332567e-01
4.171999999999999886e+01,1.604480459045132534e-01
4.175999999999999801e+01,1.163073824493908170e-01
4.179999999999999716e+01,1.302981500600613185e-01
4.184000000000000341e+01,1.430176320039478477e-01
4.188000000000000256e+01,9.569843471271780033e-02
4.192000000000000171e+01,1.363708545795739580e-01
4.196000000000000085e+01,1.252637945950294263e-01
4.200000000000000000e+01,1.189210155011006798e-01
4.203999999999999915e+01,1.449790740666866973e-01
4.207999999999999829e+01,1.160810343324591709e-01
4.211999999999999744e+01,1.078303519677650674e-01
4.215999999999999659e+01,1.084735475583537417e-01
4.220000000000000284e+01,1.062571416899742716e-01
4.224000000000000199e+01,7.989780748471071725e-02
4.228000000000000114e+01,1.170701407325527438e-01
4.232000000000000028e+01,8.372095290221248653e-02
4.235999999999999943e+01,8.340791888978847657e-02
4.239999999999999858e+01,1.043775592810297359e-01
4.243999999999999773e+01,1.062868522706899022e-01
4.247999999999999687e+01,7.579401053390730225e-02
4.252000000000000313e+01,8.627885866517379099e-02
4.256000000000000227e+01,9.009215847043286485e-02
4.260000000000000142e+01,9.676375653761942752e-02
4.264000000000000057e+01,8.088072542122912156e-02
4.267999999999999972e+01,1.174111976263647050e-01
4.271999999999999886e+01,9.517361853453486231e-02
4.275999999999999801e+01,6.245254775257984975e-02
4.279999999999999716e+01,8.754522456103656924e-02
4.284000000000000341e+01,1.040603774206403515e-01
4.288000000000000256e+01,7.229030769038903570e-02
4.292000000000000171e+01,9.071010495242624871e-02
4.296000000000000085e+01,7.259815641166819655e-02
4.300000000000000000e+01,7.640419230286438212e-02
4.303999999999999915e+01,7.766826992687717035e-02
4.307999999999999829e+01,9.354411384257355078e-02
4.311999999999999744e+01,9.480685761898317854e-02
4.315999999999999659e+01,6.525575969214476857e-02
4.320000000000000284e+01,7.509402883532848016e-02
4.324000000000000199e+01,8.207267375055478376e-02
4.328000000000000114e+01,1.049337269073015583e-01
4.332000000000000028e+01,7.696825518418196066e-02
4.335999999999999943e+01,4.423718711318086472e-02
4.339999999999999858e+01,8.393228627425616817e-02
4.343999999999999773e+01,8.233070539193915183e-02
4.347999999999999687e+01,8.390506508760399440e-02
4.352000000000000313e+01,8.293745600732105316e-02
4.356000000000000227e+01,8.419280100719257753e-02
4.360000000000000142e+01,1.013305472427417919e-01
4.364000000000000057e+01,1.092554288505865889e-01
4.367999999999999972e+01,7.842491781763433201e-02
4.371999999999999886e+01,7.014769861773430260e-02
4.375999999999999801e+01,9.967152631702039245e-02
4.379999999999999716e+01,9.965214462986157762e-02
4.384000000000000341e+01,9.613780241454547570e-02
4.388000000000000256e+01,1.177180411863377185e-01
4.392000000000000171e+01,1.256381470506025000e-01
4.396000000000000085e+01,1.214864270422203879e-01
4.400000000000000000e+01,1.220989441379361773e-01
4.403999999999999915e+01,1.026980940564899969e-01
4.407999999999999829e+01,1.223689301968759746e-01
4.411999999999999744e+01,1.417214155002139708e-01
4.415999999999999659e+01,1.308953603712892932e-01
4.420000000000000284e+01,1.407166170739195810e-01
4.424000000000000199e+01,1.276655479816365402e-01
4.428000000000000114e+01,1.616277002855880940e-01
4.432000000000000028e+01,1.873299578207856253e-01
4.435999999999999943e+01,1.596643750501500203e-01
4.439999999999999858e+01,1.755177336452139747e-01
4.443999999999999773e+01,1.812052253515998301e-01
4.447999999999999687e+01,2.059517148488171912e-01
4.452000000000000313e+01,1.620826045954156525e-01
4.456000000000000227e+01,1.712622796684575566e-01
4.460000000000000142e+01,1.693230996035332836e-01
4.464000000000000057e+01,1.807250053483198671e-01
4.467999999999999972e+01,1.873612858461232433e-01
4.471999999999999886e+01,1.755724921899593782e-01
4.475999999999999801e+01,1.504412088180527296e-01
4.479999999999999716e+01,1.538987636947999060e-01
4.484000000000000341e+01,1.332133333121897911e-01
4.488000000000000256e+01,1.423873857552613864e-01
4.492000000000000171e+01,1.286890975160036310e-01
4.496000000000000085e+01,1.219786564381703797e-01
4.500000000000000000e+01,1.082789520326558202e-01
4.503999999999999915e+01,8.441336760250767179e-02
4.507999999999999829e+01,7.166522827418124464e-02
4.511999999999999744e+01,1.154601394154171207e-01
4.515999999999999659e+01,6.999143395640708420e-02
4.520000000000000284e+01,7.121826816971121854e-02
4.524000000000000199e+01,7.879762025008316129e-02
4.528000000000000114e+01,5.429243788500930090e-02
4.532000000000000028e+01,8.220070104325775950e-02
4.535999999999999943e+01,6.245901048061329452e-02
4.539999999999999858e+01,7.130614503066728949e-02
4.543999999999999773e+01,5.664560434965275337e-02
4.547999999999999687e+01,6.898557911926524178e-02
4.552000000000000313e+01,5.686489215998202784e-02
4.556000000000000227e+01,6.697979516803237443e-02
4.560000000000000142e+01,4.755144938177149894e-02
4.564000000000000057e+01,6.274749351414828091e-02
4.567999999999999972e+01,4.776496393650881550e-02
4.571999999999999886e+01,4.167623437415018256e-02
4.575999999999999801e+01,4.416364236921983821e-02
4.579999999999999716e+01,3.966176952200086564e-02
4.584000000000000341e+01,4.850095621258216499e-02
4.588000000000000256e+01,5.289215296639149244e-02
4.592000000000000171e+01,4.616446568313288534e-02
4.596000000000000085e+01,5.277783531048332866e-02
4.600000000000000000e+01,2.857730105773039625e-02
4.603999999999999915e+01,2.597702309930227660e-02
4.607999999999999829e+01,2.559964405001624588e-02
4.611999999999999744e+01,4.364590372237254351e-02
4.615999999999999659e+01,5.819715207421101433e-02
4.620000000000000284e+01,4.733473906337112153e-02
4.624000000000000199e+01,3.456562089116353015e-02
4.628000000000000114e+01,4.022013793767699463e-02
4.632000000000000028e+01,3.888536275740713671e-02
4.635999999999999943e+01,5.184462047680929442e-02
4.639999999999999858e+01,4.733175200793577481e-02
4.643999999999999773e+01,5.298331411968533466e-02
4.647999999999999687e+01,5.323388841234106411e-02
4.652000000000000313e+01,4.331855027833997340e-02
4.656000000000000227e+01,3.530843896259432124e-02
4.660000000000000142e+01,4.476897111336042984e-02
4.664000000000000057e+01,5.645238991304330628e-02
4.667999999999999972e+01,6.051118544012545203e-02
4.671999999999999886e+01,1.406104323238285998e-02
4.675999999999999801e+01,2.129496135015835137e-02
4.679999999999999716e+01,3.202240894241793756e-02
4.684000000000000341e+01,3.417224501278878779e-02
4.688000000000000256e+01,2.615616077492964250e-02
4.692000000000000171e+01,3.338708192288406679e-02
4.696000000000000085e+01,4.125257480330160598e-02
4.700000000000000000e+01,3.577552892707636101e-02
4.703999999999999915e+01,2.140320556818832778e-02
4.707999999999999829e+01,4.610250275135546749e-02
4.711999999999999744e+01,4.729408792277919882e-02
4.715999999999999659e+01,3.133119184917246974e-02
4.720000000000000284e+01,4.808668204798641904e-02
4.724000000000000199e+01,5.562922880336359371e-02
4.728000000000000114e+01,4.411132219378632174e-02
4.732000000000000028e+01,4.752275063059689664e-02
4.735999999999999943e+01,3.505033977221395924e-02
4.739999999999999858e+01,2.607144525235984348e-02
4.743999999999999773e+01,4.758730067568897604e-02
4.747999999999999687e+01,5.004269835541180766e-02
4.752000000000000313e+01,7.536896625592499899e-02
4.756000000000000227e+01,4.160941531397728543e-02
4.760000000000000142e+01,4.819211985807878018e-02
4.764000000000000057e+01,6.049196656118220605e-02
4.767999999999999972e+01,3.943657994652971510e-02
4.771999999999999886e+01,4.601698290584833873e-02
4.775999999999999801e+01,5.005532426180121786e-02
4.779999999999999716e+01,4.773966415319203654e-02
4.784000000000000341e+01,3.271677006184678382e-02
4.788000000000000256e+01,5.644781741582734214e-02
4.792000000000000171e+01,5.000024201889161080e-02
4.796000000000000085e+01,4.259890855054927067e-02
4.800000000000000000e+01,4.822092574844553947e-02
4.803999999999999915e+01,4.050038142070968433e-02
4.807999999999999829e+01,5.819198771051654201e-02
4.811999999999999744e+01,3.903407364618966674e-02
4.815999999999999659e+01,4.274701579096736731e-02
4.820000000000000284e+01,3.947062454963499306e-02
4.824000000000000199e+01,3.111086853919521264e-02
4.828000000000000114e+01,4.308067345369157725e-02
4.832000000000000028e+01,3.980194121971025040e-02
4.835999999999999943e+01,4.922889018827214525e-02
4.839999999999999858e+01,5.134883980994996849e-02
4.843999999999999773e+01,5.632695983692297126e-02
4.847999999999999687e+01,3.811499965944240703e-02
4.852000000000000313e+01,3.387936351007245911e-02
4.856000000000000227e+01,6.140909911192441589e-02
4.860000000000000142e+01,4.700671853692344609e-02
4.864000000000000057e+01,4.118041246676504286e-02
4.867999999999999972e+01,3.154137832295390853e-02
4.871999999999999886e+01,4.763214236712202260e-02
4.875999999999999801e+01,2.147312514939362510e-02
4.879999999999999716e+01,2.771479759274936630e-02
4.884000000000000341e+01,3.744995484834104382e-02
4.888000000000000256e+01,1.033557511092209752e-02
4.892000000000000171e+01,4.230545530565883033e-02
4.896000000000000085e+01,3.043724194923647097e-02
4.900000000000000000e+01,2.492146414122813763e-02
4.903999999999999915e+01,4.958273966506657193e-02
4.907999999999999829e+01,3.612382748875390959e-02
4.911999999999999744e+01,4.331211942916208396e-02
4.915999999999999659e+01,3.525185583075504669e-02
4.920000000000000284e+01,2.496716068481147008e-02
4.924000000000000199e+01,4.708314556691817893e-02
4.928000000000000114e+01,5.299758753665197164e-02
4.932000000000000028e+01,3.063934559763996715e-02
4.935999999999999943e+01,3.432854941704360785e-02
4.939999999999999858e+01,4.373485686331332611e-02
4.943999999999999773e+01,2.740977043062356802e-02
4.947999999999999687e+01,2.379034068002705907e-02
4.952000000000000313e+01,1.953478028666210189e-02
4.956000000000000227e+01,3.592641437698398249e-02
4.960000000000000142e+01,2.563366633905844391e-02
4.964000000000000057e+01,4.488263533277988410e-02
4.967999999999999972e+01,3.014100405798319365e-02
4.971999999999999886e+01,3.255228636060800845e-02
4.975999999999999801e+01,3.877469491579266930e-02
4.979999999999999716e+01,3.864305821989719864e-02
4.984000000000000341e+01,4.804045450330004380e-02
4.988000000000000256e+01,3.170644727470944141e-02
4.992000000000000171e+01,1.981888596000155531e-02
4.996000000000000085e+01,3.429641884987608136e-02
5.000000000000000000e+01,4.114925578153006552e-02
5.003999999999999915e+01,1.528213089158136223e-02
5.007999999999999829e+01,2.435696029632267168e-02
5.011999999999999744e+01,3.978420072902796173e-02
5.015999999999999659e+01,3.233898575872697079e-02
5.020000000000000284e+01,4.839990549952655902e-02
5.024000000000000199e+01,5.651846244560132515e-02
5.028000000000000114e+01,3.350536022630208610e-02
5.032000000000000028e+01,2.256257313451422511e-02
5.035999999999999943e+01,1.987816130904124581e-02
5.039999999999999858e+01,3.180535551659626620e-02
5.043999999999999773e+01,4.341406052170679319e-02
5.047999999999999687e+01,3.500925735706767600e-02
5.052000000000000313e+01,3.327451804521115719e-02
5.056000000000000227e+01,3.598621063555161592e-02
5.060000000000000142e+01,3.329682520657134548e-02
5.064000000000000057e+01,3.441854676408306196e-02
5.067999999999999972e+01,3.522177386476806754e-02
5.071999999999999886e+01,3.951844461836218070e-02
5.075999999999999801e+01,5.366178979157846390e-02
5.079999999999999716e+01,3.317918701158218547e-02
5.084000000000000341e+01,3.270842752765702049e-02
5.088000000000000256e+01,3.128384604400897412e-02
5.092000000000000171e+01,4.351787446252777108e-02
5.096000000000000085e+01,3.669136894889918343e-02
5.100000000000000000e+01,3.526427045080013367e-02
5.103999999999999915e+01,3.669528543552293132e-02
5.107999999999999829e+01,3.431351980277163455e-02
5.111999999999999744e+01,3.637817381199227873e-02
5.115999999999999659e+01,2.859447539195678414e-02
5.120000000000000284e+01,1.858630163786685954e-02
5.124000000000000199e+01,3.494319406498790082e-02
5.128000000000000114e+01,1.699178961225426832e-02
5.132000000000000028e+01,4.033554394901305712e-02
5.135999999999999943e+01,4.239512452146564775e-02
5.139999999999999858e+01,3.619465532089065352e-02
5.143999999999999773e+01,2.364010496429088184e-02
5.147999999999999687e+01,3.872126186300872686e-02
5.152000000000000313e+01,5.126027483970708315e-02
5.156000000000000227e+01,3.362058537402647790e-02
5.160000000000000142e+01,2.423924402701974762e-02
5.164000000000000057e+01,4.217594485028687556e-02
5.167999999999999972e+01,3.152224851459480004e-02
5.171999999999999886e+01,4.691594626922732797e-02
5.175999999999999801e+01,5.595555586199208592e-02
5.179999999999999716e+01,3.418113459375152902e-02
5.184000000000000341e+01,4.544265959533218963e-02
5.188000000000000256e+01,3.414935311962318670e-02
5.192000000000000171e+01,6.764546970079511612e-02
5.196000000000000085e+01,5.857407337951971854e-02
5.200000000000000000e+01,4.600753788109422648e-02
5.203999999999999915e+01,4.837023409287416476e-02
5.207999999999999829e+01,4.406117355482141312e-02
5.211999999999999744e+01,4.133955652638216655e-02
5.215999999999999659e+01,4.973522959549122463e-02
5.220000000000000284e+01,3.525840259934562293e-02
5.224000000000000199e+01,4.301701932356382513e-02
5.228000000000000114e+01,3.775064327685399845e-02
5.232000000000000028e+01,4.900180072084803218e-02
5.235999999999999943e+01,3.293319244695551429e-02
5.239999999999999858e+01,4.322962495809366118e-02
5.243999999999999773e+01,3.700678379203842239e-02
5.247999999999999687e+01,4.412485679254388171e-02
5.252000000000000313e+01,4.806544081352668446e-02
5.256000000000000227e+01,5.200515080047804495e-02
5.260000000000000142e+01,5.244970847432383482e-02
5.264000000000000057e+01,3.542200334595799888e-02
5.267999999999999972e+01,4.221804021553280523e-02
5.271999999999999886e+01,4.933086113027705666e-02
5.275999999999999801e+01,4.500698667593988622e-02
5.279999999999999716e+01,6.482451317447453232e-02
5.284000000000000341e+01,4.969838547542610591e-02
5.288000000000000256e+01,4.696017843926823809e-02
5.292000000000000171e+01,4.612705898023894413e-02
5.296000000000000085e+01,5.672887368627293342e-02
5.300000000000000000e+01,3.429300018453552978e-02
5.303999999999999915e+01,4.552836984495302330e-02
5.307999999999999829e+01,4.850365295166788465e-02
5.311999999999999744e+01,5.306635767473733001e-02
5.315999999999999659e+01,4.619235827142183226e-02
5.320000000000000284e+01,5.869482733184182982e-02
5.324000000000000199e+01,2.831209388432088733e-02
5.328000000000000114e+01,4.907198536129224464e-02
5.332000000000000028e+01,5.140661440226935303e-02
5.335999999999999943e+01,6.168189144766226401e-02
5.339999999999999858e+01,5.067295006650065353e-02
5.343999999999999773e+01,5.205191708800468997e-02
5.347999999999999687e+01,6.041854474036691125e-02
5.352000000000000313e+01,5.893676829538180284e-02
5.356000000000000227e+01,4.983021795217425914e-02
5.360000000000000142e+01,4.961729510536689453e-02
5.364000000000000057e+01,6.274526102893983326e-02
5.367999999999999972e+01,3.934124645398134196e-02
5.371999999999999886e+01,6.739750875260344665e-02
5.375999999999999801e+01,4.494467918785774452e-02
5.379999999999999716e+01,5.203347557880175223e-02
5.384000000000000341e+01,5.594475409112124181e-02
5.388000000000000256e+01,7.319691611943887621e-02
5.392000000000000171e+01,5.995266245516422260e-02
5.396000000000000085e+01,4.480153461356274625e-02
5.400000000000000000e+01,5.601541252777741259e-02
5.403999999999999915e+01,4.530973483950746783e-02
5.407999999999999829e+01,5.048622894556127616e-02
5.411999999999999744e+01,7.408618662718591263e-02
5.415999999999999659e+01,5.893052222665963458e-02
5.420000000000000284e+01,6.124533490387685380e-02
5.424000000000000199e+01,5.688834354182211589e-02
5.428000000000000114e+01,4.395357777203189042e-02
5.432000000000000028e+01,5.198356385613803893e-02
5.435999999999999943e+01,4.921214270619281295e-02
5.439999999999999858e+01,5.882860894138457197e-02
5.443999999999999773e+01,5.351406562347592322e-02
5.447999999999999687e+01,6.630531641744266680e-02
5.452000000000000313e+01,7.020112596716970854e-02
5.456000000000000227e+01,5.821293859023873168e-02
5.460000000000000142e+01,4.749447884551683680e-02
5.464000000000000057e+01,3.804574585727375086e-02
5.467999999999999972e+01,5.686797323016374445e-02
5.471999999999999886e+01,4.582909056009878274e-02
5.475999999999999801e+01,5.321365745391880286e-02
5.479999999999999716e+01,4.058462159911042921e-02
5.484000000000000341e+01,6.512106690193468495e-02
5.488000000000000256e+01,5.598445967341641322e-02
5.492000000000000171e+01,6.717726799859471964e-02
5.496000000000000085e+01,5.867413165434543637e-02
5.500000000000000000e+01,5.207603734924598493e-02
5.503999999999999915e+01,4.706532262544391859e-02
5.507999999999999829e+01,4.205367869659789454e-02
5.511999999999999744e+01,5.292418379308622134e-02
5.515999999999999659e+01,5.458157205152700669e-02
5.520000000000000284e+01,5.687335164197711290e-02
5.524000000000000199e+01,7.123533864510450675e-02
5.528000000000000114e+01,6.304241973386182085e-02
5.532000000000000028e+01,6.596672173746913337e-02
5.535999999999999943e+01,4.697143923949000099e-02
5.539999999999999858e+01,3.623442166580063267e-02
5.543999999999999773e+01,5.789794838195590210e-02
5.547999999999999687e+01,4.461776310232454246e-02
5.552000000000000313e+01,5.357294973316750059e-02
5.556000000000000227e+01,6.760978196415702579e-02
5.560000000000000142e+01,6.036234760342228806e-02
5.564000000000000057e+01,6.264381924108385069e-02
5.567999999999999972e+01,4.649997677466018164e-02
5.571999999999999886e+01,5.703876398976927969e-02
5.575999999999999801e+01,5.995272914148627036e-02
5.579999999999999716e+01,6.858365780321201699e-02
5.584000000000000341e+01,6.609548524674101200e-02
5.588000000000000256e+01,5.566482641756452521e-02
5.592000000000000171e+01,6.969316181641402319e-02
5.596000000000000085e+01,5.989593008498869664e-02
5.600000000000000000e+01,6.280421229160809693e-02
5.603999999999999915e+01,5.491105048350111706e-02
5.607999999999999829e+01,8.037140369991956079e-02
5.611999999999999744e+01,7.565295464069821119e-02
5.615999999999999659e+01,6.775693691049153311e-02
5.620000000000000284e+01,7.891966038212142043e-02
5.624000000000000199e+01,6.975108799670780291e-02
5.628000000000000114e+01,6.820543810527164574e-02
5.632000000000000028e+01,5.871729230809624028e-02
5.635999999999999943e+01,7.813539325562321447e-02
5.639999999999999858e+01,8.834035021746139416e-02
5.643999999999999773e+01,8.615554649665872755e-02
5.647999999999999687e+01,7.094565805324047625e-02
5.652000000000000313e+01,8.559499759796972140e-02
5.656000000000000227e+01,7.641875687646873527e-02
5.660000000000000142e+01,8.598358701737855714e-02
5.664000000000000057e+01,9.078253006792788571e-02
5.667999999999999972e+01,1.073339874227393492e-01
5.671999999999999886e+01,9.116533670897833397e-02
5.675999999999999801e+01,1.108914787893039988e-01
5.679999999999999716e+01,9.948581896020730619e-02
5.684000000000000341e+01,9.316177670788565457e-02
5.688000000000000256e+01,9.477830539570840374e-02
5.692000000000000171e+01,9.861749566974592485e-02
5.696000000000000085e+01,9.832611501182439429e-02
5.700000000000000000e+01,8.913923881438094721e-02
5.703999999999999915e+01,1.021877012496581888e-01
5.707999999999999829e+01,9.585783418392093691e-02
5.711999999999999744e+01,9.238594748999105766e-02
5.715999999999999659e+01,7.715960751451829414e-02
5.720000000000000284e+01,7.050915463759122037e-02
5.724000000000000199e+01,7.402289589409047355e-02
5.728000000000000114e+01,7.372372079491007479e-02
5.732000000000000028e+01,7.405889061403002349e-02
5.735999999999999943e+01,8.868785250697340528e-02
5.739999999999999858e+01,6.678475245846221542e-02
5.743999999999999773e+01,7.632916816691105721e-02
5.747999999999999687e+01,6.554226087067541173e-02
5.752000000000000313e+01,7.953197435537358306e-02
5.756000000000000227e+01,8.335553371183598848e-02
5.760000000000000142e+01,9.639029457378503474e-02
5.764000000000000057e+01,7.003403400079759311e-02
5.767999999999999972e+01,8.751408563315300759e-02
5.771999999999999886e+01,7.163868413943254299e-02
5.775999999999999801e+01,5.830358742371154201e-02
5.779999999999999716e+01,6.720381270183448108e-02
5.784000000000000341e+01,5.863166133279920644e-02
5.788000000000000256e+01,6.625926014582581014e-02
5.792000000000000171e+01,3.703712405078082165e-02
5.796000000000000085e+01,4.370975447791182467e-02
5.800000000000000000e+01,6.594680929566928973e-02
5.803999999999999915e+01,6.181695878819584017e-02
5.807999999999999829e+01,5.705079023165732927e-02
5.811999999999999744e+01,7.579058299160852663e-02
5.815999999999999659e+01,7.292839153097038785e-02
5.820000000000000284e+01,6.847689464770947976e-02
5.824000000000000199e+01,5.925947564487373670e-02
5.828000000000000114e+01,6.338284382769671099e-02
5.832000000000000028e+01,6.146964181099551228e-02
5.835999999999999943e+01,6.527334725756007983e-02
5.839999999999999858e+01,5.636958752857400973e-02
5.843999999999999773e+01,7.510138267782312527e-02
5.847999999999999687e+01,6.492497021183005201e-02
5.852000000000000313e+01,7.285426340894611552e-02
5.856000000000000227e+01,5.695793255331400157e-02
5.860000000000000142e+01,5.980262877357485352e-02
5.864000000000000057e+01,6.137567152030109358e-02
5.867999999999999972e+01,7.088924579930550030e-02
5.871999999999999886e+01,6.674236315054998814e-02
5.875999999999999801e+01,5.338228484801444546e-02
5.879999999999999716e+01,6.289282981030827613e-02
5.884000000000000341e+01,5.747226888916227155e-02
5.888000000000000256e+01,6.285118936074229889e-02
5.892000000000000171e+01,6.409949598957567773e-02
5.896000000000000085e+01,4.819306303292297811e-02
5.900000000000000000e+01,5.992217269428046916e-02
5.903999999999999915e+01,6.497937322872285315e-02
5.907999999999999829e+01,5.383481629685459707e-02
5.911999999999999744e+01,6.683152195246161442e-02
5.915999999999999659e+01,5.092000510541017100e-02
5.920000000000000284e+01,5.438482536254050925e-02
5.924000000000000199e+01,6.483718014535762297e-02
5.928000000000000114e+01,6.448801997928918506e-02
5.932000000000000028e+01,7.557365473715713100e-02
5.935999999999999943e+01,5.520976995673757687e-02
5.939999999999999858e+01,6.629335802249068654e-02
5.943999999999999773e+01,5.005702536608379327e-02
5.947999999999999687e+01,6.780945646136621319e-02
5.952000000000000313e+01,6.904245887518196956e-02
5.956000000000000227e+01,6.805080292729838443e-02
5.960000000000000142e+01,7.150538096655086051e-02
5.964000000000000057e+01,5.526391187592373522e-02
5.967999999999999972e+01,5.268086090251503095e-02
5.971999999999999886e+01,6.343856558847209282e-02
5.975999999999999801e+01,4.941763520340371890e-02
5.979999999999999716e+01,6.462053783234926463e-02
5.984000000000000341e+01,7.029255958067295862e-02
5.988000000000000256e+01,6.452773007991152721e-02
5.992000000000000171e+01,6.416211230680977928e-02
5.996000000000000085e+01,5.490093419013945819e-02
