2.003999999999999915e+01,4.002501253604962700e-02
2.007999999999999829e+01,5.790304481021215505e-02
2.012000000000000099e+01,3.138286968873558319e-02
2.016000000000000014e+01,5.844164834824082388e-02
2.019999999999999929e+01,3.237306997629931654e-02
2.023999999999999844e+01,3.881308640901561663e-02
2.028000000000000114e+01,4.374811990066022893e-02
2.032000000000000028e+01,6.478696836156513927e-02
2.035999999999999943e+01,5.196278343508985847e-02
2.039999999999999858e+01,7.164719018189888433e-02
2.044000000000000128e+01,5.310398794058032029e-02
2.048000000000000043e+01,4.464449541982390413e-02
2.051999999999999957e+01,4.386067098985611812e-02
2.055999999999999872e+01,7.001684064327373669e-02
2.060000000000000142e+01,5.899891604772216497e-02
2.064000000000000057e+01,5.911821591189119623e-02
2.067999999999999972e+01,3.455513185485369065e-02
2.071999999999999886e+01,4.641369958461499107e-02
2.076000000000000156e+01,4.623209627386565268e-02
2.080000000000000071e+01,4.093343857468594027e-02
2.083999999999999986e+01,3.563481250395880706e-02
2.087999999999999901e+01,5.020255426601340221e-02
2.092000000000000171e+01,5.920173163230818547e-02
2.096000000000000085e+01,6.127782084360180320e-02
2.100000000000000000e+01,4.574513985879889721e-02
2.103999999999999915e+01,1.666725682425067648e-02
2.107999999999999829e+01,3.138564362463416857e-02
2.112000000000000099e+01,3.481636510358245007e-02
2.116000000000000014e+01,4.682575746542461115e-02
2.119999999999999929e+01,4.528994464614795323e-02
2.123999999999999844e+01,4.435616583862292406e-02
2.128000000000000114e+01,4.522844068347106616e-02
2.132000000000000028e+01,3.767259479839649844e-02
2.135999999999999943e+01,4.607004097572228729e-02
2.139999999999999858e+01,4.769489293970310267e-02
2.144000000000000128e+01,2.794840227298239083e-02
2.148000000000000043e+01,3.800143618997955247e-02
2.151999999999999957e+01,4.368991439203157023e-02
2.155999999999999872e+01,4.802388715495774230e-02
2.160000000000000142e+01,3.429757032033793618e-02
2.164000000000000057e+01,3.953459112687738447e-02
2.167999999999999972e+01,6.162791305066910724e-02
2.171999999999999886e+01,5.708229751119650586e-02
2.176000000000000156e+01,3.432588668987126418e-02
2.180000000000000071e+01,3.279034867232892558e-02
2.183999999999999986e+01,4.389703715853780081e-02
2.187999999999999901e+01,2.881629270890838021e-02
2.192000000000000171e+01,4.774913571384736127e-02
2.196000000000000085e+01,5.659831738110577409e-02
2.200000000000000000e+01,5.536383692784016541e-02
2.203999999999999915e+01,5.006579568853220669e-02
2.207999999999999829e+01,3.483459331594682129e-02
2.212000000000000099e+01,4.007174471973180135e-02
2.216000000000000014e+01,4.545940447107181537e-02
2.219999999999999929e+01,5.957621730431171547e-02
2.223999999999999844e+01,3.591689358027273099e-02
2.228000000000000114e+01,3.212391028949811850e-02
2.232000000000000028e+01,2.727741179144017869e-02
2.235999999999999943e+01,2.589247389124943108e-02
2.239999999999999858e+01,5.069498129898428879e-02
2.244000000000000128e+01,5.126657799920465719e-02
2.248000000000000043e+01,1.692158195081524749e-02
2.251999999999999957e+01,2.727584287259584780e-02
2.255999999999999872e+01,3.988764005456175293e-02
2.260000000000000142e+01,3.880370210295850525e-02
2.264000000000000057e+01,3.621473502252580551e-02
2.267999999999999972e+01,2.429460527789783705e-02
2.271999999999999886e+01,2.080261333233991358e-02
2.276000000000000156e+01,2.001966139154999491e-02
2.280000000000000071e+01,4.557464948318541015e-02
2.283999999999999986e+01,5.156429817979963498e-02
2.287999999999999901e+01,3.648358116921807115e-02
2.292000000000000171e+01,3.359356186681802109e-02
2.296000000000000085e+01,4.244273183095664814e-02
2.300000000000000000e+01,3.278007713923261623e-02
2.303999999999999915e+01,2.371942123130946559e-02
2.307999999999999829e+01,4.581278156976790333e-02
2.312000000000000099e+01,2.997948557546068274e-02
2.316000000000000014e+01,5.071829616744102931e-02
2.319999999999999929e+01,3.398195651976819442e-02
2.323999999999999844e+01,3.921897425818311050e-02
2.328000000000000114e+01,3.873687886014742787e-02
2.332000000000000028e+01,2.350551636683051449e-02
2.335999999999999943e+01,4.860882036891245317e-02
2.339999999999999858e+01,4.421360552258012111e-02
2.344000000000000128e+01,5.637365224252642582e-02
2.348000000000000043e+01,6.371759722940402437e-02
2.351999999999999957e+01,5.435573801865302423e-02
2.355999999999999872e+01,3.581320147408605797e-02
2.360000000000000142e+01,3.803999484655186392e-02
2.364000000000000057e+01,4.162128802483369694e-02
2.367999999999999972e+01,6.416587891926395226e-02
2.371999999999999886e+01,5.871697023186447928e-02
2.376000000000000156e+01,5.176301049602166637e-02
2.380000000000000071e+01,5.067862402261542887e-02
2.383999999999999986e+01,5.215275386427365573e-02
2.387999999999999901e+01,4.534921542696788987e-02
2.392000000000000171e+01,6.789364616113607864e-02
2.396000000000000085e+01,5.401642965215939368e-02
2.400000000000000000e+01,6.903567309017047404e-02
2.403999999999999915e+01,7.532573745904488915e-02
2.407999999999999829e+01,9.952557384510245242e-02
2.412000000000000099e+01,8.986230325650475248e-02
2.416000000000000014e+01,1.118045354363176730e-01
2.419999999999999929e+01,1.292316568977480706e-01
2.423999999999999844e+01,1.108391358478626049e-01
2.428000000000000114e+01,1.223965871355933988e-01
2.432000000000000028e+01,9.753238413458913125e-02
2.435999999999999943e+01,9.148096298846319918e-02
2.439999999999999858e+01,8.422548337426669085e-02
2.444000000000000128e+01,7.772247769728679589e-02
2.448000000000000043e+01,8.325963664466459746e-02
2.451999999999999957e+01,6.351232630614185581e-02
2.455999999999999872e+01,6.212628624948130646e-02
2.460000000000000142e+01,5.532211232840591325e-02
2.464000000000000057e+01,6.371865351191044469e-02
2.467999999999999972e+01,5.601137800706147696e-02
2.471999999999999886e+01,4.499300203033154005e-02
2.476000000000000156e+01,3.939267286899825887e-02
2.480000000000000071e+01,5.260511695126639936e-02
2.483999999999999986e+01,3.917856250848910510e-02
2.487999999999999901e+01,3.387909848537476454e-02
2.492000000000000171e+01,4.077029302827431950e-02
2.496000000000000085e+01,3.095565519118452860e-02
2.500000000000000000e+01,2.911760287229454847e-02
2.503999999999999915e+01,3.826618634742348646e-02
2.507999999999999829e+01,4.545818528147917842e-02
2.512000000000000099e+01,3.368681041017534267e-02
2.516000000000000014e+01,2.658096176116910361e-02
2.519999999999999929e+01,3.587983768040077515e-02
2.523999999999999844e+01,3.118192169253598475e-02
2.528000000000000114e+01,3.957767254269367596e-02
2.532000000000000028e+01,3.834120395512879281e-02
2.535999999999999943e+01,1.814135686514415854e-02
2.539999999999999858e+01,4.249020782767518739e-02
2.544000000000000128e+01,4.862819148676528896e-02
2.548000000000000043e+01,3.279274323624317700e-02
2.551999999999999957e+01,4.434869965533041331e-02
2.555999999999999872e+01,4.025232982230993184e-02
2.560000000000000142e+01,3.555388824765082223e-02
2.564000000000000057e+01,2.468477968998415706e-02
2.567999999999999972e+01,3.563847821202780625e-02
2.571999999999999886e+01,3.816396989138022555e-02
2.576000000000000156e+01,2.849869012187005932e-02
2.580000000000000071e+01,4.125822529527266302e-02
2.583999999999999986e+01,3.595738788973407846e-02
2.587999999999999901e+01,1.410120265174225410e-02
2.592000000000000171e+01,1.903440404319363399e-02
2.596000000000000085e+01,3.435221301153449508e-02
2.600000000000000000e+01,3.973678412794951625e-02
2.603999999999999915e+01,4.346575702091710902e-02
2.607999999999999829e+01,3.259591135534545270e-02
2.612000000000000099e+01,4.144182841714335458e-02
2.616000000000000014e+01,3.674244322524698042e-02
2.619999999999999929e+01,3.655806134878804986e-02
2.623999999999999844e+01,3.637360541692947341e-02
2.628000000000000114e+01,3.724259251735973636e-02
2.632000000000000028e+01,2.893084826778296800e-02
2.635999999999999943e+01,4.078636970731506356e-02
2.639999999999999858e+01,1.802622678545545698e-02
2.644000000000000128e+01,3.213913136259487907e-02
2.648000000000000043e+01,3.059969168222964608e-02
2.651999999999999957e+01,3.568228479561864203e-02
2.655999999999999872e+01,2.752057293274613736e-02
2.660000000000000142e+01,2.899094335660384533e-02
2.664000000000000057e+01,2.985922168489588482e-02
2.667999999999999972e+01,3.087791989944440804e-02
2.671999999999999886e+01,1.970582787688988230e-02
2.676000000000000156e+01,4.947034601978211182e-02
2.680000000000000071e+01,1.662571712728779308e-02
2.683999999999999986e+01,2.411568662282101774e-02
2.687999999999999901e+01,2.919752869053085856e-02
2.692000000000000171e+01,2.193807405398785770e-02
2.696000000000000085e+01,3.544788357563601749e-02
2.700000000000000000e+01,1.960960634590165619e-02
2.703999999999999915e+01,3.025968872013032676e-02
2.707999999999999829e+01,3.383606061139223659e-02
2.712000000000000099e+01,4.719500716535377643e-02
2.716000000000000014e+01,3.873099148321544616e-02
2.719999999999999929e+01,2.304276041664707342e-02
2.723999999999999844e+01,2.029765527584396698e-02
2.728000000000000114e+01,1.725145061984781347e-02
2.732000000000000028e+01,2.037575544193954286e-02
2.735999999999999943e+01,2.891805619461035662e-02
2.739999999999999858e+01,1.879794362571675023e-02
2.744000000000000128e+01,1.123627691598605254e-02
2.748000000000000043e+01,2.564788461094810040e-02
2.751999999999999957e+01,1.853752813008636285e-02
2.755999999999999872e+01,1.398561515985749862e-02
2.760000000000000142e+01,4.570471677443801312e-02
2.764000000000000057e+01,3.437998679522803053e-02
2.767999999999999972e+01,4.517902985942694877e-02
2.771999999999999886e+01,1.684730614040986715e-02
2.776000000000000156e+01,3.652579300361243758e-02
2.780000000000000071e+01,3.558532552868667181e-02
2.783999999999999986e+01,2.907615822610159356e-02
2.787999999999999901e+01,4.664729324083932704e-02
2.792000000000000171e+01,2.313112437001369620e-02
2.796000000000000085e+01,2.324374859202483698e-02
2.800000000000000000e+01,1.884118772553505794e-02
2.803999999999999915e+01,3.490686477459986614e-02
2.807999999999999829e+01,2.026991095911340884e-02
2.812000000000000099e+01,1.962958371737036703e-02
2.816000000000000014e+01,2.199919590240938250e-02
2.819999999999999929e+01,2.783025439018632294e-02
2.823999999999999844e+01,1.620290354015355844e-02
2.828000000000000114e+01,3.031137526127461457e-02
2.832000000000000028e+01,2.575741565543425080e-02
2.835999999999999943e+01,1.307620264510794827e-02
2.839999999999999858e+01,2.116422561061219107e-02
2.844000000000000128e+01,3.000464422899816117e-02
2.848000000000000043e+01,2.755725348277238140e-02
2.851999999999999957e+01,2.887230788240414611e-02
2.855999999999999872e+01,1.769553092827250845e-02
2.860000000000000142e+01,2.788999624748722539e-02
2.864000000000000057e+01,2.785016694124871697e-02
2.867999999999999972e+01,2.600418519096858380e-02
2.871999999999999886e+01,1.166636895555181984e-02
2.876000000000000156e+01,2.381687866183418781e-02
2.880000000000000071e+01,3.265620804621367779e-02
2.883999999999999986e+01,2.990671591452514350e-02
2.887999999999999901e+01,1.797644233085518919e-02
2.892000000000000171e+01,2.139730264045973385e-02
2.896000000000000085e+01,2.120597439092181472e-02
2.900000000000000000e+01,2.643260997538553203e-02
2.903999999999999915e+01,2.609052224688933330e-02
2.907999999999999829e+01,4.034705251562879097e-02
2.912000000000000099e+01,1.773032689563174003e-02
2.916000000000000014e+01,1.889287343610406011e-02
2.919999999999999929e+01,8.918099073717562081e-03
2.923999999999999844e+01,1.594998042412321820e-02
2.928000000000000114e+01,2.448675375236585711e-02
2.932000000000000028e+01,1.451157873549640404e-02
2.935999999999999943e+01,3.403476897633837817e-02
2.939999999999999858e+01,7.052534460820511150e-03
2.944000000000000128e+01,4.267922528261469672e-02
2.948000000000000043e+01,3.496104339395803007e-02
2.951999999999999957e+01,3.100528708007499468e-02
2.955999999999999872e+01,3.863808831064481641e-02
2.960000000000000142e+01,3.227401230419291861e-02
2.964000000000000057e+01,4.096005099396905769e-02
2.967999999999999972e+01,1.126779730587049340e-02
2.971999999999999886e+01,3.515431029919321299e-02
2.976000000000000156e+01,2.788665188974460973e-02
2.980000000000000071e+01,0.000000000000000000e+00
2.983999999999999986e+01,2.674563031367848884e-02
2.987999999999999901e+01,3.934387535749871156e-02
2.992000000000000171e+01,1.597186417331414657e-02
2.996000000000000085e+01,4.061002051496511583e-02
3.000000000000000000e+01,2.340831949853282648e-02
3.003999999999999915e+01,1.704265386776753627e-02
3.007999999999999829e+01,2.647960708661894341e-02
3.012000000000000099e+01,2.086615502095331975e-02
3.016000000000000014e+01,3.481788406254585772e-02
3.019999999999999929e+01,1.626091011369212511e-02
3.023999999999999844e+01,1.997816165920601739e-02
3.028000000000000114e+01,3.693948474025685047e-02
3.032000000000000028e+01,3.584034756391132892e-02
3.035999999999999943e+01,3.459055314636796941e-02
3.039999999999999858e+01,4.387578196303516115e-02
3.044000000000000128e+01,4.443170645562957016e-02
3.048000000000000043e+01,1.925153735986493905e-02
3.051999999999999957e+01,1.965664444309330253e-02
3.055999999999999872e+01,2.894124354689450035e-02
3.060000000000000142e+01,2.708849434831964859e-02
3.064000000000000057e+01,2.689111306384088171e-02
3.067999999999999972e+01,1.766341765236306358e-02
3.071999999999999886e+01,2.649586685900531466e-02
3.076000000000000156e+01,4.616433736013427630e-02
3.080000000000000071e+01,3.573213397509666239e-02
3.083999999999999986e+01,3.147037117793216598e-02
3.087999999999999901e+01,1.712477246902003106e-02
3.092000000000000171e+01,2.535439105200488347e-02
3.096000000000000085e+01,2.771424363968288604e-02
3.100000000000000000e+01,3.835156942492438242e-02
3.103999999999999915e+01,4.296862509623916582e-02
3.107999999999999829e+01,4.577948135291137755e-02
3.112000000000000099e+01,5.716881356448326457e-02
3.116000000000000014e+01,5.350772013761086882e-02
3.119999999999999929e+01,4.743841473583336465e-02
3.123999999999999844e+01,5.431215697548615745e-02
3.128000000000000114e+01,5.591813716881773033e-02
3.132000000000000028e+01,7.453073236708725180e-02
3.135999999999999943e+01,7.643736993043140360e-02
3.139999999999999858e+01,8.120338095731301220e-02
3.144000000000000128e+01,8.611971871209253560e-02
3.148000000000000043e+01,8.682180837686601094e-02
3.151999999999999957e+01,9.369432532117563661e-02
3.155999999999999872e+01,8.702143432793882361e-02
3.160000000000000142e+01,1.202315409055713935e-01
3.164000000000000057e+01,9.986255889975959033e-02
3.167999999999999972e+01,1.055303380292829940e-01
3.171999999999999886e+01,1.333218111350371049e-01
3.176000000000000156e+01,1.186713822258680384e-01
3.180000000000000071e+01,1.256931380684435662e-01
3.183999999999999986e+01,1.399388327983402680e-01
3.187999999999999901e+01,1.258898631404975488e-01
3.192000000000000171e+01,1.438977520382548891e-01
3.196000000000000085e+01,1.111860945955504276e-01
3.200000000000000000e+01,1.305481336828649974e-01
3.203999999999999915e+01,1.131873622868116852e-01
3.207999999999999829e+01,1.029000225280863601e-01
3.211999999999999744e+01,1.064587285058364446e-01
3.215999999999999659e+01,1.082112139321733807e-01
3.220000000000000284e+01,1.048464218597252862e-01
3.224000000000000199e+01,9.154826981178862400e-02
3.228000000000000114e+01,8.532354548696333141e-02
3.232000000000000028e+01,7.307852599722410025e-02
3.235999999999999943e+01,9.574990495753751829e-02
3.239999999999999858e+01,8.696605574155226448e-02
3.243999999999999773e+01,7.968703665877925613e-02
3.247999999999999687e+01,6.081912482119329610e-02
3.252000000000000313e+01,5.083066664485606789e-02
3.256000000000000227e+01,5.694578388771413119e-02
3.260000000000000142e+01,6.050215920321667246e-02
3.264000000000000057e+01,4.223546503308042710e-02
3.267999999999999972e+01,5.136003540359377478e-02
3.271999999999999886e+01,5.672184107475663345e-02
3.275999999999999801e+01,3.785253406482056576e-02
3.279999999999999716e+01,5.224408881139594452e-02
3.284000000000000341e+01,5.956182034556200405e-02
3.288000000000000256e+01,4.415346237943038044e-02
3.292000000000000171e+01,4.785872384556642128e-02
3.296000000000000085e+01,3.229945296317994485e-02
3.300000000000000000e+01,2.607113400672135539e-02
3.303999999999999915e+01,3.414035044014039622e-02
3.307999999999999829e+01,4.160734874021429497e-02
3.311999999999999744e+01,4.335504132437358049e-02
3.315999999999999659e+01,3.772789932751044462e-02
3.320000000000000284e+01,4.940834064781403356e-02
3.324000000000000199e+01,3.354660372836978932e-02
3.328000000000000114e+01,2.806933112548184311e-02
3.332000000000000028e+01,3.342802971510616672e-02
3.335999999999999943e+01,4.525812467933882505e-02
3.339999999999999858e+01,3.842568889550466299e-02
3.343999999999999773e+01,3.836565302645837672e-02
3.347999999999999687e+01,3.785389374856661104e-02
3.352000000000000313e+01,5.796076768962352826e-02
3.356000000000000227e+01,4.119429884633206418e-02
3.360000000000000142e+01,4.293942591523883939e-02
3.364000000000000057e+01,4.829639537312113706e-02
3.367999999999999972e+01,5.846922686060054830e-02
3.371999999999999886e+01,5.073203410193197899e-02
3.375999999999999801e+01,4.630567627784260010e-02
3.379999999999999716e+01,4.985573174641593636e-02
3.384000000000000341e+01,6.890732737146487707e-02
3.388000000000000256e+01,6.733984966619614709e-02
3.392000000000000171e+01,6.938420886999950576e-02
3.396000000000000085e+01,6.616075357697719095e-02
3.400000000000000000e+01,6.730164639200583721e-02
3.403999999999999915e+01,7.160286610877715507e-02
3.407999999999999829e+01,7.846240173271525065e-02
3.411999999999999744e+01,7.343200739939682864e-02
3.415999999999999659e+01,8.405364951274030272e-02
3.420000000000000284e+01,8.278536010314051230e-02
3.424000000000000199e+01,9.265402898652229380e-02
3.428000000000000114e+01,9.710437455739841239e-02
3.432000000000000028e+01,1.063705696323781480e-01
3.435999999999999943e+01,1.097669321703661910e-01
3.439999999999999858e+01,1.340829158106154329e-01
3.443999999999999773e+01,1.296526773023513879e-01
3.447999999999999687e+01,1.152890349793713048e-01
3.452000000000000313e+01,1.272631033157147762e-01
3.456000000000000227e+01,1.198221054368686922e-01
3.460000000000000142e+01,1.200565000879520866e-01
3.464000000000000057e+01,1.237522150039940538e-01
3.467999999999999972e+01,1.152569838971063965e-01
3.471999999999999886e+01,9.547382130204443151e-02
3.475999999999999801e+01,1.062424361513734650e-01
3.479999999999999716e+01,8.886683201833149581e-02
3.484000000000000341e+01,1.088156186459845881e-01
3.488000000000000256e+01,9.821214387864994622e-02
3.492000000000000171e+01,9.573556303729732764e-02
3.496000000000000085e+01,8.753964046923597142e-02
3.500000000000000000e+01,8.912613834373432631e-02
3.503999999999999915e+01,7.189957082065533134e-02
3.507999999999999829e+01,7.995718512656124766e-02
3.511999999999999744e+01,7.371680905719681098e-02
3.515999999999999659e+01,6.296110777037187967e-02
3.520000000000000284e+01,6.876043789388053273e-02
3.524000000000000199e+01,7.621504590450003946e-02
3.528000000000000114e+01,5.943849191488966011e-02
3.532000000000000028e+01,7.035415590413399145e-02
3.535999999999999943e+01,7.163740396197482152e-02
3.539999999999999858e+01,7.337190635208817868e-02
3.543999999999999773e+01,5.599233041032439934e-02
3.547999999999999687e+01,6.811099995123949535e-02
3.552000000000000313e+01,6.277111767685517041e-02
3.556000000000000227e+01,8.692947931946304330e-02
3.560000000000000142e+01,6.759234592365419292e-02
3.564000000000000057e+01,8.256953657301077665e-02
3.567999999999999972e+01,7.948616206396204309e-02
3.571999999999999886e+01,8.362665050642963116e-02
3.575999999999999801e+01,9.288396537650640827e-02
3.579999999999999716e+01,1.013885063269571590e-01
3.584000000000000341e+01,9.634755557562292572e-02
3.588000000000000256e+01,9.115583955070852284e-02
3.592000000000000171e+01,1.249440212319829491e-01
3.596000000000000085e+01,1.152367008292505823e-01
3.600000000000000000e+01,1.408972152966253000e-01
3.603999999999999915e+01,1.239652414319053070e-01
3.607999999999999829e+01,1.556453255297206850e-01
3.611999999999999744e+01,1.381108074006971720e-01
3.615999999999999659e+01,1.386363274230980047e-01
3.620000000000000284e+01,1.546633414142168095e-01
3.624000000000000199e+01,1.586498814044483840e-01
3.628000000000000114e+01,1.629371559514656009e-01
3.632000000000000028e+01,1.481103349440520967e-01
3.635999999999999943e+01,1.639857626202287089e-01
3.639999999999999858e+01,1.645096569996159497e-01
3.643999999999999773e+01,1.504345300640360372e-01
3.647999999999999687e+01,1.661586341459176108e-01
3.652000000000000313e+01,1.513304447362340543e-01
3.656000000000000227e+01,1.401140405679614509e-01
3.660000000000000142e+01,1.311548978818583566e-01
3.664000000000000057e+01,1.279145746125432415e-01
3.667999999999999972e+01,1.177508555307903299e-01
3.671999999999999886e+01,1.306137478874479785e-01
3.675999999999999801e+01,1.118708241849487167e-01
3.679999999999999716e+01,1.117899363201127205e-01
3.684000000000000341e+01,9.936755760587302755e-02
3.688000000000000256e+01,8.754690681163501687e-02
3.692000000000000171e+01,8.927120270680397041e-02
3.696000000000000085e+01,7.910551306283856998e-02
3.700000000000000000e+01,9.422396767137718177e-02
3.703999999999999915e+01,7.879011861138722483e-02
3.707999999999999829e+01,8.337282288555532273e-02
3.711999999999999744e+01,7.922609210081116293e-02
3.715999999999999659e+01,6.604892036844525749e-02
3.720000000000000284e+01,6.852372558664666935e-02
3.724000000000000199e+01,6.031256020927524414e-02
3.728000000000000114e+01,6.188377065239256125e-02
3.732000000000000028e+01,6.420720295716782211e-02
3.735999999999999943e+01,6.908888697595508277e-02
3.739999999999999858e+01,5.425444409180867067e-02
3.743999999999999773e+01,6.199509089609321622e-02
3.747999999999999687e+01,5.694272666668104277e-02
3.752000000000000313e+01,6.287675398416252281e-02
3.756000000000000227e+01,4.412806702054375418e-02
3.760000000000000142e+01,5.788763510756876618e-02
3.764000000000000057e+01,4.470694905380998702e-02
3.767999999999999972e+01,3.739556461584517960e-02
3.771999999999999886e+01,4.182308057522294426e-02
3.775999999999999801e+01,5.121688126710925715e-02
3.779999999999999716e+01,4.465711105095641203e-02
3.784000000000000341e+01,3.975256783709671393e-02
3.788000000000000256e+01,4.056681977188116017e-02
3.792000000000000171e+01,3.189910822622075981e-02
3.796000000000000085e+01,3.963587152176967221e-02
3.800000000000000000e+01,2.615147064240338701e-02
3.803999999999999915e+01,5.209843363732775262e-02
3.807999999999999829e+01,3.454985305754768726e-02
3.811999999999999744e+01,4.047936417546038612e-02
3.815999999999999659e+01,3.677640456293507915e-02
3.820000000000000284e+01,2.750454236632274632e-02
3.824000000000000199e+01,3.704519037794627712e-02
3.828000000000000114e+01,3.800688318113353004e-02
3.832000000000000028e+01,3.054012254597441092e-02
3.835999999999999943e+01,2.247104044214793400e-02
3.839999999999999858e+01,2.975290669772207020e-02
3.843999999999999773e+01,1.942566143749909977e-02
3.847999999999999687e+01,2.008478893592935410e-02
3.852000000000000313e+01,2.555968373991137840e-02
3.856000000000000227e+01,2.591717657301563504e-02
3.860000000000000142e+01,2.642485600505815185e-02
3.864000000000000057e+01,1.970809615947240884e-02
3.867999999999999972e+01,2.683725366405248849e-02
3.871999999999999886e+01,2.975202138398015672e-02
3.875999999999999801e+01,3.281697257147261904e-02
3.879999999999999716e+01,3.889165494941594636e-02
3.884000000000000341e+01,2.509967968913179304e-02
3.888000000000000256e+01,3.960186294637673549e-02
3.892000000000000171e+01,2.836778743531566047e-02
3.896000000000000085e+01,3.895625909997260661e-02
3.900000000000000000e+01,2.365796787770368947e-02
3.903999999999999915e+01,3.469729885345981812e-02
3.907999999999999829e+01,2.707398791739342933e-02
3.911999999999999744e+01,3.480161124954724017e-02
3.915999999999999659e+01,2.401709365712498268e-02
3.920000000000000284e+01,2.873401132016935311e-02
3.924000000000000199e+01,4.835035324410453389e-02
3.928000000000000114e+01,2.687916895496490766e-02
3.932000000000000028e+01,3.219710904274618313e-02
3.935999999999999943e+01,3.480567234971269908e-02
3.939999999999999858e+01,2.883525852862920888e-02
3.943999999999999773e+01,3.505521910142355563e-02
3.947999999999999687e+01,2.577308354555739658e-02
3.952000000000000313e+01,4.644062206399116044e-02
3.956000000000000227e+01,2.541861867771404854e-02
3.960000000000000142e+01,3.254025716485260677e-02
3.964000000000000057e+01,2.235376575675980179e-02
3.967999999999999972e+01,4.121392997399470071e-02
3.971999999999999886e+01,3.855189124818405449e-02
3.975999999999999801e+01,4.010358534804888547e-02
3.979999999999999716e+01,3.608634555009265082e-02
3.984000000000000341e+01,3.628283701212513951e-02
3.988000000000000256e+01,3.738200278677430988e-02
3.992000000000000171e+01,2.312956637441928795e-02
3.996000000000000085e+01,2.528156566110603687e-02
4.000000000000000000e+01,3.766739519373307060e-02
4.003999999999999915e+01,2.040387766217908669e-02
4.007999999999999829e+01,2.872544921005743684e-02
4.011999999999999744e+01,2.440446060951105209e-02
4.015999999999999659e+01,1.526704383021916175e-02
4.020000000000000284e+01,2.825315506436767640e-02
4.024000000000000199e+01,3.326228294248829986e-02
4.028000000000000114e+01,2.472583222321213942e-02
4.032000000000000028e+01,4.072094801577627599e-02
4.035999999999999943e+01,3.519384833980133964e-02
4.039999999999999858e+01,3.418147406987446374e-02
4.043999999999999773e+01,4.340292143461102481e-02
4.047999999999999687e+01,3.185466374694402580e-02
4.052000000000000313e+01,3.114223633998627894e-02
4.056000000000000227e+01,2.230231676132077290e-02
4.060000000000000142e+01,3.016782546206966259e-02
4.064000000000000057e+01,3.682895786034781627e-02
4.067999999999999972e+01,2.618194000946746577e-02
4.071999999999999886e+01,3.359487106586971084e-02
4.075999999999999801e+01,4.717804856499414889e-02
4.079999999999999716e+01,2.945633604364958358e-02
4.084000000000000341e+01,4.920939940943049734e-02
4.088000000000000256e+01,2.787490524840248451e-02
4.092000000000000171e+01,5.424935900826582946e-02
4.096000000000000085e+01,3.998776133443292247e-02
4.100000000000000000e+01,4.107706113518286295e-02
4.103999999999999915e+01,4.382152531075784313e-02
4.107999999999999829e+01,3.888999479646089441e-02
4.111999999999999744e+01,3.621563730303480749e-02
4.115999999999999659e+01,4.738714862348693962e-02
4.120000000000000284e+01,5.268869354073451444e-02
4.124000000000000199e+01,3.496298023755798484e-02
4.128000000000000114e+01,4.191931721091454038e-02
4.132000000000000028e+01,4.857427989106212485e-02
4.135999999999999943e+01,4.589771431916991884e-02
4.139999999999999858e+01,5.797002818169454119e-02
4.143999999999999773e+01,4.475754161558145178e-02
4.147999999999999687e+01,6.029067034097904815e-02
4.152000000000000313e+01,6.002065790683906027e-02
4.156000000000000227e+01,5.884725627069752746e-02
4.160000000000000142e+01,6.023202336717293354e-02
4.164000000000000057e+01,5.078023120237386279e-02
4.167999999999999972e+01,6.089339468594811428e-02
4.171999999999999886e+01,6.393256116588931504e-02
4.175999999999999801e+01,7.178743154107090907e-02
4.179999999999999716e+01,8.009343099358898210e-02
4.184000000000000341e+01,6.461964771836707644e-02
4.188000000000000256e+01,8.436308168234671334e-02
4.192000000000000171e+01,8.740035134075659073e-02
4.196000000000000085e+01,9.224326992152762084e-02
4.200000000000000000e+01,1.100290255588676630e-01
4.203999999999999915e+01,1.281154030235510111e-01
4.207999999999999829e+01,1.383752636743454945e-01
4.211999999999999744e+01,1.415611194930733174e-01
4.215999999999999659e+01,1.793621768593668120e-01
4.220000000000000284e+01,1.912764087112664435e-01
4.224000000000000199e+01,2.403643839449081387e-01
4.228000000000000114e+01,2.908064941793647717e-01
4.232000000000000028e+01,3.537399275488443129e-01
4.235999999999999943e+01,4.010207058720090534e-01
4.239999999999999858e+01,5.092546278089761236e-01
4.243999999999999773e+01,5.992773497340786459e-01
4.247999999999999687e+01,7.510057264719623982e-01
4.252000000000000313e+01,8.596899803983293342e-01
4.256000000000000227e+01,9.457984579292408878e-01
4.260000000000000142e+01,1.000000000000000000e+00
4.264000000000000057e+01,9.825619318534186686e-01
4.267999999999999972e+01,9.192201892582175793e-01
4.271999999999999886e+01,8.363127181948504241e-01
4.275999999999999801e+01,7.217993136458236147e-01
4.279999999999999716e+01,6.089410390265144191e-01
4.284000000000000341e+01,4.887077403780922258e-01
4.288000000000000256e+01,3.994775679156603032e-01
4.292000000000000171e+01,3.227387068456010755e-01
4.296000000000000085e+01,2.556316078793416935e-01
4.300000000000000000e+01,2.160660740330807572e-01
4.303999999999999915e+01,1.659649586318942827e-01
4.307999999999999829e+01,1.598101850547301028e-01
4.311999999999999744e+01,1.392067619806925116e-01
4.315999999999999659e+01,1.273320817786393055e-01
4.320000000000000284e+01,1.007077454081597018e-01
4.324000000000000199e+01,1.011734618018190063e-01
4.328000000000000114e+01,8.658851535549901002e-02
4.332000000000000028e+01,8.298984694378687410e-02
4.335999999999999943e+01,8.044428729025306091e-02
4.339999999999999858e+01,6.916916967140106232e-02
4.343999999999999773e+01,5.969967200970628662e-02
4.347999999999999687e+01,6.091544414537974905e-02
4.352000000000000313e+01,5.565919426120184005e-02
4.356000000000000227e+01,6.575379174963236206e-02
4.360000000000000142e+01,5.974420226480488261e-02
4.364000000000000057e+01,5.448671095238595552e-02
4.367999999999999972e+01,3.914513321834733189e-02
4.371999999999999886e+01,3.584334356101495644e-02
4.375999999999999801e+01,4.789239736207419329e-02
4.379999999999999716e+01,2.743248200594810421e-02
4.384000000000000341e+01,4.565130424716128121e-02
4.388000000000000256e+01,5.649508210533421559e-02
4.392000000000000171e+01,4.386004163377918430e-02
4.396000000000000085e+01,4.311428198893724195e-02
4.400000000000000000e+01,4.071257262398370047e-02
4.403999999999999915e+01,3.891245105007216237e-02
4.407999999999999829e+01,3.575738329622858702e-02
4.411999999999999744e+01,3.245138900307469043e-02
4.415999999999999659e+01,3.426205674042646226e-02
4.420000000000000284e+01,3.577129381984805317e-02
4.424000000000000199e+01,3.818311988196110285e-02
4.428000000000000114e+01,3.306939117966728459e-02
4.432000000000000028e+01,4.992860730501573474e-02
4.435999999999999943e+01,3.683738671323501246e-02
4.439999999999999858e+01,3.593644344275670477e-02
4.443999999999999773e+01,2.179084526503935818e-02
4.447999999999999687e+01,1.757798454894091145e-02
4.452000000000000313e+01,3.609057751093357191e-02
4.456000000000000227e+01,3.714444173502969709e-02
4.460000000000000142e+01,2.736168876744338521e-02
4.464000000000000057e+01,2.766217268303565111e-02
4.467999999999999972e+01,3.578835440496624942e-02
4.471999999999999886e+01,3.774349572761132032e-02
4.475999999999999801e+01,2.886201672720055400e-02
4.479999999999999716e+01,3.457884806658868132e-02
4.484000000000000341e+01,3.818820558735553511e-02
4.488000000000000256e+01,3.532551447159718722e-02
4.492000000000000171e+01,3.742896795938766008e-02
4.496000000000000085e+01,4.254203207975309348e-02
4.500000000000000000e+01,4.434359882665882963e-02
4.503999999999999915e+01,3.019145297087907215e-02
4.507999999999999829e+01,3.108911963379415791e-02
4.511999999999999744e+01,3.153483508044888778e-02
4.515999999999999659e+01,3.243161384559864469e-02
4.520000000000000284e+01,4.205709555772196850e-02
4.524000000000000199e+01,3.648137351760868258e-02
4.528000000000000114e+01,3.210922521212600245e-02
4.532000000000000028e+01,3.044567538776181068e-02
4.535999999999999943e+01,1.960102157995591982e-02
4.539999999999999858e+01,4.186648038007309558e-02
4.543999999999999773e+01,3.207444558522687394e-02
4.547999999999999687e+01,2.920507762225323795e-02
4.552000000000000313e+01,2.302420210885641055e-02
4.556000000000000227e+01,3.204363227296737338e-02
4.560000000000000142e+01,1.788521633379590997e-02
4.564000000000000057e+01,3.066630363522919109e-02
4.567999999999999972e+01,2.237657900875721431e-02
4.571999999999999886e+01,3.786580244560765890e-02
4.575999999999999801e+01,2.822064345967167584e-02
4.579999999999999716e+01,2.685266801925969074e-02
4.584000000000000341e+01,2.759127067127007185e-02
4.588000000000000256e+01,2.893142510352841867e-02
4.592000000000000171e+01,3.629122243878370180e-02
4.596000000000000085e+01,3.808196531834205645e-02
4.600000000000000000e+01,2.136043340711136704e-02
4.603999999999999915e+01,3.940452966057446382e-02
4.607999999999999829e+01,2.930418616984187263e-02
4.611999999999999744e+01,2.612649698548827337e-02
4.615999999999999659e+01,1.903527751348533387e-02
4.620000000000000284e+01,3.361596096962091162e-02
4.624000000000000199e+01,3.886502066682796797e-02
4.628000000000000114e+01,3.041788178720253311e-02
4.632000000000000028e+01,2.723786521747504491e-02
4.635999999999999943e+01,2.947547272773511778e-02
4.639999999999999858e+01,2.599351461808835362e-02
4.643999999999999773e+01,3.244425561073618902e-02
4.647999999999999687e+01,3.302492686485732770e-02
4.652000000000000313e+01,1.795286165695527889e-02
4.656000000000000227e+01,2.906776891959528958e-02
4.660000000000000142e+01,2.904501474251919638e-02
4.664000000000000057e+01,2.300168514260976863e-02
4.667999999999999972e+01,3.562019801805618030e-02
4.671999999999999886e+01,3.303747817606202813e-02
4.675999999999999801e+01,4.008644606774951907e-02
4.679999999999999716e+01,4.367337880509341436e-02
4.684000000000000341e+01,3.506912753512922420e-02
4.688000000000000256e+01,4.196616121470848892e-02
4.692000000000000171e+01,4.841120845007661905e-02
4.696000000000000085e+01,5.320024803492525572e-02
4.700000000000000000e+01,4.504558771642676318e-02
4.703999999999999915e+01,4.456607646357586827e-02
4.707999999999999829e+01,4.845065732900039751e-02
4.711999999999999744e+01,4.887319677733457934e-02
4.715999999999999659e+01,4.929525274319693229e-02
4.720000000000000284e+01,6.070351080786219600e-02
4.724000000000000199e+01,6.262962298958207885e-02
4.728000000000000114e+01,7.960550463361253104e-02
4.732000000000000028e+01,6.873792737116965479e-02
4.735999999999999943e+01,6.042840611190130468e-02
4.739999999999999858e+01,6.822216983694538717e-02
4.743999999999999773e+01,6.788830674122546538e-02
4.747999999999999687e+01,7.161752282948116721e-02
4.752000000000000313e+01,6.300503904915875919e-02
4.756000000000000227e+01,4.837196184060597870e-02
4.760000000000000142e+01,4.487558145535570919e-02
4.764000000000000057e+01,6.229856305121778820e-02
4.767999999999999972e+01,5.594164762421072884e-02
4.771999999999999886e+01,4.627318159039617990e-02
4.775999999999999801e+01,5.075146030717327811e-02
4.779999999999999716e+01,3.295486518188249503e-02
4.784000000000000341e+01,4.194722768787910450e-02
4.788000000000000256e+01,4.973507219675855906e-02
4.792000000000000171e+01,2.967944605651445800e-02
4.796000000000000085e+01,3.806830328129208463e-02
4.800000000000000000e+01,4.660716313682064516e-02
4.803999999999999915e+01,5.002843548759744463e-02
4.807999999999999829e+01,5.058965784477595373e-02
4.811999999999999744e+01,5.205339324884096508e-02
4.815999999999999659e+01,4.418546731749664613e-02
4.820000000000000284e+01,4.685221625507213217e-02
4.824000000000000199e+01,3.552172315062469138e-02
4.828000000000000114e+01,3.427439569061099117e-02
4.832000000000000028e+01,3.257505438686892490e-02
4.835999999999999943e+01,2.425309378629701001e-02
4.839999999999999858e+01,3.519495221054937117e-02
4.843999999999999773e+01,3.951418977228519230e-02
4.847999999999999687e+01,4.052186185318987915e-02
4.852000000000000313e+01,3.626143448228946048e-02
4.856000000000000227e+01,2.838843495900495936e-02
4.860000000000000142e+01,3.707020459353171232e-02
4.864000000000000057e+01,3.506578052213082941e-02
4.867999999999999972e+01,3.321134577314392017e-02
4.871999999999999886e+01,4.053705273971512646e-02
4.875999999999999801e+01,3.145746664036989243e-02
4.879999999999999716e+01,4.194269684328165437e-02
4.884000000000000341e+01,3.662464262632279116e-02
4.888000000000000256e+01,3.732617338195300810e-02
4.892000000000000171e+01,3.802718621000399091e-02
4.896000000000000085e+01,3.978119819816425262e-02
4.900000000000000000e+01,3.310654772880357311e-02
4.903999999999999915e+01,2.567886421866798219e-02
4.907999999999999829e+01,3.721398131915343299e-02
4.911999999999999744e+01,3.685887489612605511e-02
4.915999999999999659e+01,4.297485562458369657e-02
4.920000000000000284e+01,3.554508318157739016e-02
4.924000000000000199e+01,4.226202652395879417e-02
4.928000000000000114e+01,4.100180958771514755e-02
4.932000000000000028e+01,5.042674815371062103e-02
4.935999999999999943e+01,4.389788956993879304e-02
4.939999999999999858e+01,5.106423598138185721e-02
4.943999999999999773e+01,6.304613598214213466e-02
4.947999999999999687e+01,5.154910883794876220e-02
4.952000000000000313e+01,7.632266728040898451e-02
4.956000000000000227e+01,6.151352384838452286e-02
4.960000000000000142e+01,6.747320148521508687e-02
4.964000000000000057e+01,6.259616329210114516e-02
4.967999999999999972e+01,5.230050039179176546e-02
4.971999999999999886e+01,6.352616897647303529e-02
4.975999999999999801e+01,4.811235132470157577e-02
4.979999999999999716e+01,5.452086869810023745e-02
4.984000000000000341e+01,4.979166122147141160e-02
4.988000000000000256e+01,5.032950638168227214e-02
4.992000000000000171e+01,4.635173745523638728e-02
4.996000000000000085e+01,3.891187152982233249e-02
5.000000000000000000e+01,3.959860439844725688e-02
5.003999999999999915e+01,3.381318764375479402e-02
5.007999999999999829e+01,3.525135279981590070e-02
5.011999999999999744e+01,2.750832081407663526e-02
5.015999999999999659e+01,2.563434619700614980e-02
5.020000000000000284e+01,3.053244348335981337e-02
5.024000000000000199e+01,2.910888978511246006e-02
5.028000000000000114e+01,3.490891408340191654e-02
5.032000000000000028e+01,2.851768626701178116e-02
5.035999999999999943e+01,4.018621869265676799e-02
5.039999999999999858e+01,3.544942595580791167e-02
5.043999999999999773e+01,2.544449619067319646e-02
5.047999999999999687e+01,2.567319156652102599e-02
5.052000000000000313e+01,3.839304959450495769e-02
5.056000000000000227e+01,2.928948742302919447e-02
5.060000000000000142e+01,3.282758889093595478e-02
5.064000000000000057e+01,2.853900601647693311e-02
5.067999999999999972e+01,2.560439374572937021e-02
5.071999999999999886e+01,3.245189426010493955e-02
5.075999999999999801e+01,2.424858554279465603e-02
5.079999999999999716e+01,3.395452590330949594e-02
5.084000000000000341e+01,3.387724481911118940e-02
5.088000000000000256e+01,3.590644318907322552e-02
5.092000000000000171e+01,3.898860235982037903e-02
5.096000000000000085e+01,2.912698412572868947e-02
5.100000000000000000e+01,2.979998596152227952e-02
5.103999999999999915e+01,3.137544369663781973e-02
5.107999999999999829e+01,2.783325443090698195e-02
5.111999999999999744e+01,2.970859608680507385e-02
5.115999999999999659e+01,3.098136576416385748e-02
5.120000000000000284e+01,3.029703970374178143e-02
5.124000000000000199e+01,3.743828306334866241e-02
5.128000000000000114e+01,3.118423509657052353e-02
5.132000000000000028e+01,2.568213499627776744e-02
5.135999999999999943e+01,3.538022706120699107e-02
5.139999999999999858e+01,3.875664543907801629e-02
5.143999999999999773e+01,2.828626170039123464e-02
5.147999999999999687e+01,3.331707288426265928e-02
5.152000000000000313e+01,3.142419782081336960e-02
5.156000000000000227e+01,3.088527613852178749e-02
5.160000000000000142e+01,3.425885045440778265e-02
5.164000000000000057e+01,3.537431531536982393e-02
5.167999999999999972e+01,3.784373120895958426e-02
5.171999999999999886e+01,3.353995949394499021e-02
5.175999999999999801e+01,3.089114235173765627e-02
5.179999999999999716e+01,2.899426368189547687e-02
5.184000000000000341e+01,3.808349630102760008e-02
5.188000000000000256e+01,3.392792840405758209e-02
5.192000000000000171e+01,3.323334258371891947e-02
5.196000000000000085e+01,2.967863083397702037e-02
5.200000000000000000e+01,3.108992512451106208e-02
5.203999999999999915e+01,2.843707149649012805e-02
5.207999999999999829e+01,3.526529893105215252e-02
5.211999999999999744e+01,2.388213690565886907e-02
5.215999999999999659e+01,4.019086328206988162e-02
5.220000000000000284e+01,3.392362459777822914e-02
5.224000000000000199e+01,4.255555575028863169e-02
5.228000000000000114e+01,3.959820664052778050e-02
5.232000000000000028e+01,2.429906372098663767e-02
5.235999999999999943e+01,3.744431805369874411e-02
5.239999999999999858e+01,2.575606511749455735e-02
5.243999999999999773e+01,3.754562362106374923e-02
5.247999999999999687e+01,2.660870903109371216e-02
5.252000000000000313e+01,2.921643582162414612e-02
5.256000000000000227e+01,3.739216790435604537e-02
5.260000000000000142e+01,3.969771047352864402e-02
5.264000000000000057e+01,2.755441722911048524e-02
5.267999999999999972e+01,2.383867543409310188e-02
5.271999999999999886e+01,2.960400217616506596e-02
5.275999999999999801e+01,3.085365924970243437e-02
5.279999999999999716e+01,3.255423011865500593e-02
5.284000000000000341e+01,1.950495615393375154e-02
5.288000000000000256e+01,3.309403862930463541e-02
5.292000000000000171e+01,3.027774662305070599e-02
5.296000000000000085e+01,2.550432443390851164e-02
5.300000000000000000e+01,3.563005720754471722e-02
5.303999999999999915e+01,2.543734677476475192e-02
5.307999999999999829e+01,3.300333824480585626e-02
5.311999999999999744e+01,2.657199216593533059e-02
5.315999999999999659e+01,3.202974685980732733e-02
5.320000000000000284e+01,2.981126966227221758e-02
5.324000000000000199e+01,3.406379976620040051e-02
5.328000000000000114e+01,3.048959386010169359e-02
5.332000000000000028e+01,3.067734773698336734e-02
5.335999999999999943e+01,3.146650700240639226e-02
5.339999999999999858e+01,2.638546109740306719e-02
5.343999999999999773e+01,3.319351048523884462e-02
5.347999999999999687e+01,3.247582505469717024e-02
5.352000000000000313e+01,3.010200358732660272e-02
5.356000000000000227e+01,2.155696871229009770e-02
5.360000000000000142e+01,2.851308726911417138e-02
5.364000000000000057e+01,3.005050361725121119e-02
5.367999999999999972e+01,3.083479611478469676e-02
5.371999999999999886e+01,2.981244610833945832e-02
5.375999999999999801e+01,2.412390430934270580e-02
5.379999999999999716e+01,3.137796862812672338e-02
5.384000000000000341e+01,3.050428087121069554e-02
5.388000000000000256e+01,3.580058278439809949e-02
5.392000000000000171e+01,3.582867956192811038e-02
5.396000000000000085e+01,2.667550404469616609e-02
5.400000000000000000e+01,3.467900221315570880e-02
5.403999999999999915e+01,3.575876481516344213e-02
5.407999999999999829e+01,4.135298509079351342e-02
5.411999999999999744e+01,3.535788909335821351e-02
5.415999999999999659e+01,3.914483855651788163e-02
5.420000000000000284e+01,3.329900336905608493e-02
5.424000000000000199e+01,2.730204358291641112e-02
5.428000000000000114e+01,3.168913712057412624e-02
5.432000000000000028e+01,3.366756619987033156e-02
5.435999999999999943e+01,3.203330961449667169e-02
5.439999999999999858e+01,3.641852996932979508e-02
5.443999999999999773e+01,3.463251969394318813e-02
5.447999999999999687e+01,3.284588267575169057e-02
5.452000000000000313e+01,4.038977641376568367e-02
5.456000000000000227e+01,2.340112571518868784e-02
5.460000000000000142e+01,3.350230545323917147e-02
5.464000000000000057e+01,2.479003620047080109e-02
5.467999999999999972e+01,1.938819245520944853e-02
5.471999999999999886e+01,2.963798277512804183e-02
5.475999999999999801e+01,3.747910002540832952e-02
5.479999999999999716e+01,4.080450768214309576e-02
5.484000000000000341e+01,3.163756965703343194e-02
5.488000000000000256e+01,4.143331873025912077e-02
5.492000000000000171e+01,4.340229969688049610e-02
5.496000000000000085e+01,3.573848113885675498e-02
5.500000000000000000e+01,3.830819926051705349e-02
5.503999999999999915e+01,4.283381286769617075e-02
5.507999999999999829e+01,3.441556843717135522e-02
5.511999999999999744e+01,3.442482770260300168e-02
5.515999999999999659e+01,3.052038054063155315e-02
5.520000000000000284e+01,4.136454273212112481e-02
5.524000000000000199e+01,3.836182843693457939e-02
5.528000000000000114e+01,4.137857385940116317e-02
5.532000000000000028e+01,3.325748718230120415e-02
5.535999999999999943e+01,4.063751949195448104e-02
5.539999999999999858e+01,3.763223090102017082e-02
5.543999999999999773e+01,3.357277890850868945e-02
5.547999999999999687e+01,3.809132611929661599e-02
5.552000000000000313e+01,3.764264198655940113e-02
5.556000000000000227e+01,3.689230486838060430e-02
5.560000000000000142e+01,2.982021186459179671e-02
5.564000000000000057e+01,3.253013535619402735e-02
5.567999999999999972e+01,3.283136777276088325e-02
5.571999999999999886e+01,4.366712788369765674e-02
5.575999999999999801e+01,4.035499622512856571e-02
5.579999999999999716e+01,5.043693920097210709e-02
5.584000000000000341e+01,4.004988161843187761e-02
5.588000000000000256e+01,3.748830264609193802e-02
5.592000000000000171e+01,3.989265299537958498e-02
5.596000000000000085e+01,5.749710548290398043e-02
5.600000000000000000e+01,3.928129388149243645e-02
5.603999999999999915e+01,4.725226921674904185e-02
5.607999999999999829e+01,4.122584907268613680e-02
5.611999999999999744e+01,5.611862494694525028e-02
5.615999999999999659e+01,4.918787102367565278e-02
5.620000000000000284e+01,5.188862008305712009e-02
5.624000000000000199e+01,5.263217476639557579e-02
5.628000000000000114e+01,5.217104705551336985e-02
5.632000000000000028e+01,5.261227190863088099e-02
5.635999999999999943e+01,6.072846342489537919e-02
5.639999999999999858e+01,7.095102636293791620e-02
5.643999999999999773e+01,6.567116124673949562e-02
5.647999999999999687e+01,6.249766598663242939e-02
5.652000000000000313e+01,5.676496065884640424e-02
5.656000000000000227e+01,5.735269510359253947e-02
5.660000000000000142e+01,6.501338130269306015e-02
5.664000000000000057e+01,6.590078360345709430e-02
5.667999999999999972e+01,7.055007992836011266e-02
5.671999999999999886e+01,6.812508568337373449e-02
5.675999999999999801e+01,6.118434348551772539e-02
5.679999999999999716e+01,7.486177889178055600e-02
5.684000000000000341e+01,7.047823501550588843e-02
5.688000000000000256e+01,6.172944339076463088e-02
5.692000000000000171e+01,6.667570958668846137e-02
5.696000000000000085e+01,5.973159882180276853e-02
5.700000000000000000e+01,6.603103665309614789e-02
5.703999999999999915e+01,6.630969552228514752e-02
5.707999999999999829e+01,7.035024058717957718e-02
5.711999999999999744e+01,6.596196427735299961e-02
5.715999999999999659e+01,6.337903940941459757e-02
5.720000000000000284e+01,5.477533244799842604e-02
5.724000000000000199e+01,5.565260556237301703e-02
5.728000000000000114e+01,5.607768947610884680e-02
5.732000000000000028e+01,5.213751703010122834e-02
5.735999999999999943e+01,4.307957467684124520e-02
5.739999999999999858e+01,5.208125478518677021e-02
5.743999999999999773e+01,4.693501024460570992e-02
5.747999999999999687e+01,3.742350621290787410e-02
5.752000000000000313e+01,5.485127291733983557e-02
5.756000000000000227e+01,4.247884711927018414e-02
5.760000000000000142e+01,3.702885095153807260e-02
5.764000000000000057e+01,3.398620704330637676e-02
5.767999999999999972e+01,3.937101672905670563e-02
5.771999999999999886e+01,3.798252137970015846e-02
5.775999999999999801e+01,4.697801124676957013e-02
5.779999999999999716e+01,3.836401070186042789e-02
5.784000000000000341e+01,5.533475165393611506e-02
5.788000000000000256e+01,4.054876065263280510e-02
5.792000000000000171e+01,4.005981811264334308e-02
5.796000000000000085e+01,4.950334921606369676e-02
5.800000000000000000e+01,4.434743705195123148e-02
5.803999999999999915e+01,3.798680804851066461e-02
5.807999999999999829e+01,3.448503035209307677e-02
5.811999999999999744e+01,4.016321040304628165e-02
5.815999999999999659e+01,3.786405638415074604e-02
5.820000000000000284e+01,4.083179217067808842e-02
5.824000000000000199e+01,3.401616168647249305e-02
5.828000000000000114e+01,4.285209559438866306e-02
5.832000000000000028e+01,4.039963613655397912e-02
5.835999999999999943e+01,3.749496634131001954e-02
5.839999999999999858e+01,4.076019775487089991e-02
5.843999999999999773e+01,3.544607940694713411e-02
5.847999999999999687e+01,2.636869220855530410e-02
5.852000000000000313e+01,3.520040299922201632e-02
5.856000000000000227e+01,3.921532550320210725e-02
5.860000000000000142e+01,4.428305850204409394e-02
5.864000000000000057e+01,3.234329486092964862e-02
5.867999999999999972e+01,3.394805204243971780e-02
5.871999999999999886e+01,3.284305354695352813e-02
5.875999999999999801e+01,3.790794921468205320e-02
5.879999999999999716e+01,4.131660551025944511e-02
5.884000000000000341e+01,2.997529954566052757e-02
5.888000000000000256e+01,3.789760750092818764e-02
5.892000000000000171e+01,3.949809459458778621e-02
5.896000000000000085e+01,3.763630854952534910e-02
5.900000000000000000e+01,3.562330474742635145e-02
5.903999999999999915e+01,3.571662069944423618e-02
5.907999999999999829e+01,2.783258457621630433e-02
5.911999999999999744e+01,3.469708108780112515e-02
5.915999999999999659e+01,3.930332096991213248e-02
5.920000000000000284e+01,3.834024727517726383e-02
5.924000000000000199e+01,3.812896644394447171e-02
5.928000000000000114e+01,4.077651343443407239e-02
5.932000000000000028e+01,4.026278534647779322e-02
5.935999999999999943e+01,3.703928905603161292e-02
5.939999999999999858e+01,3.231004420371720587e-02
5.943999999999999773e+01,3.375068020628055332e-02
5.947999999999999687e+01,3.970566819861397201e-02
5.952000000000000313e+01,3.979033124548848888e-02
5.956000000000000227e+01,3.836924259912135454e-02
5.960000000000000142e+01,3.092732488867548646e-02
5.964000000000000057e+01,4.169548835354063704e-02
5.967999999999999972e+01,4.343277012997785042e-02
5.971999999999999886e+01,4.607233792872998668e-02
5.975999999999999801e+01,3.576795609710630569e-02
5.979999999999999716e+01,3.313847360410147186e-02
5.984000000000000341e+01,3.682936669047403438e-02
5.988000000000000256e+01,3.148937417420193119e-02
5.992000000000000171e+01,3.638282204788179097e-02
5.996000000000000085e+01,3.600794657655834174e-02
