2.003999999999999915e+01,5.283680364833143184e-02
2.007999999999999829e+01,5.860975021433884047e-02
2.012000000000000099e+01,6.211844673545116602e-02
2.016000000000000014e+01,5.410103210361826009e-02
2.019999999999999929e+01,6.728274667423972399e-02
2.023999999999999844e+01,4.979717050134765954e-02
2.028000000000000114e+01,4.568959580548898752e-02
2.032000000000000028e+01,6.463352096212898745e-02
2.035999999999999943e+01,6.114291889474607333e-02
2.039999999999999858e+01,5.806371196733979556e-02
2.044000000000000128e+01,5.951228218521278923e-02
2.048000000000000043e+01,4.552417394962839092e-02
2.051999999999999957e+01,6.590761497611698216e-02
2.055999999999999872e+01,4.821427283662633317e-02
2.060000000000000142e+01,5.151423586362508661e-02
2.064000000000000057e+01,4.369972009394623019e-02
2.067999999999999972e+01,3.320930915413053408e-02
2.071999999999999886e+01,5.914863626902426563e-02
2.076000000000000156e+01,5.956614437643820842e-02
2.080000000000000071e+01,6.471724433392228581e-02
2.083999999999999986e+01,7.069137227876601259e-02
2.087999999999999901e+01,6.740339060363355339e-02
2.092000000000000171e+01,6.617335068255701669e-02
2.096000000000000085e+01,7.646893176618101140e-02
2.100000000000000000e+01,7.091618976221820969e-02
2.103999999999999915e+01,7.565415303180207662e-02
2.107999999999999829e+01,9.315265058166818934e-02
2.112000000000000099e+01,7.236853896513201212e-02
2.116000000000000014e+01,5.899366340130727387e-02
2.119999999999999929e+01,9.583840136181570601e-02
2.123999999999999844e+01,1.201279192851843342e-01
2.128000000000000114e+01,9.378567858844245875e-02
2.132000000000000028e+01,1.174572308178694208e-01
2.135999999999999943e+01,1.337190396573345041e-01
2.139999999999999858e+01,1.452467532383947546e-01
2.144000000000000128e+01,1.279595334658961414e-01
2.148000000000000043e+01,1.401041921730242779e-01
2.151999999999999957e+01,1.335190536605863343e-01
2.155999999999999872e+01,1.166427015551226021e-01
2.160000000000000142e+01,1.205538232134667070e-01
2.164000000000000057e+01,1.012071254328429232e-01
2.167999999999999972e+01,1.086166550536025455e-01
2.171999999999999886e+01,1.057349691168787131e-01
2.176000000000000156e+01,9.482607750458635354e-02
2.180000000000000071e+01,6.292337486189784890e-02
2.183999999999999986e+01,9.503015924870808484e-02
2.187999999999999901e+01,6.271529628569473547e-02
2.192000000000000171e+01,8.555969700265485256e-02
2.196000000000000085e+01,7.362040336176446653e-02
2.200000000000000000e+01,5.509463497236485874e-02
2.203999999999999915e+01,5.962034531754351746e-02
2.207999999999999829e+01,5.817703730644686877e-02
2.212000000000000099e+01,6.476041093577783458e-02
2.216000000000000014e+01,7.319589196979660317e-02
2.219999999999999929e+01,6.290156743530410377e-02
2.223999999999999844e+01,5.672335969629997698e-02
2.228000000000000114e+01,3.490263227886846592e-02
2.232000000000000028e+01,5.136399539495697941e-02
2.235999999999999943e+01,4.559662585612226510e-02
2.239999999999999858e+01,4.291627552421382191e-02
2.244000000000000128e+01,7.254925963267745692e-02
2.248000000000000043e+01,3.487912127710918186e-02
2.251999999999999957e+01,6.554066322333233774e-02
2.255999999999999872e+01,3.569111284238264681e-02
2.260000000000000142e+01,4.865167030321054104e-02
2.264000000000000057e+01,3.382637530115129715e-02
2.267999999999999972e+01,2.188227694339657525e-02
2.271999999999999886e+01,4.492715821088399258e-02
2.276000000000000156e+01,2.907195280181527203e-02
2.280000000000000071e+01,4.532425828826813080e-02
2.283999999999999986e+01,2.308811436557773461e-02
2.287999999999999901e+01,4.016314972490935692e-02
2.292000000000000171e+01,3.089306305729885502e-02
2.296000000000000085e+01,4.776173070094760775e-02
2.300000000000000000e+01,3.169906334115810825e-02
2.303999999999999915e+01,3.580639469059457985e-02
2.307999999999999829e+01,2.303628179039003340e-02
2.312000000000000099e+01,3.496418736324109072e-02
2.316000000000000014e+01,4.030560394526467444e-02
2.319999999999999929e+01,3.021030867804978468e-02
2.323999999999999844e+01,3.019987254826712875e-02
2.328000000000000114e+01,2.854260495001399722e-02
2.332000000000000028e+01,3.799929113106854939e-02
2.335999999999999943e+01,3.942875199197750508e-02
2.339999999999999858e+01,5.320708039889024410e-02
2.344000000000000128e+01,2.726203728101827747e-02
2.348000000000000043e+01,4.350963382594398576e-02
2.351999999999999957e+01,3.279464360274850221e-02
2.355999999999999872e+01,3.648671020930761844e-02
2.360000000000000142e+01,4.861707853470231822e-02
2.364000000000000057e+01,4.201762361146645780e-02
2.367999999999999972e+01,2.759675856399043323e-02
2.371999999999999886e+01,2.799458663145303755e-02
2.376000000000000156e+01,3.950636307596460534e-02
2.380000000000000071e+01,3.702215417826723587e-02
2.383999999999999986e+01,4.503443530092741953e-02
2.387999999999999901e+01,2.958305035739100530e-02
2.392000000000000171e+01,3.533074894266732130e-02
2.396000000000000085e+01,3.408031046518582990e-02
2.400000000000000000e+01,1.801060769064011594e-02
2.403999999999999915e+01,3.260766671332271383e-02
2.407999999999999829e+01,3.341455608081627532e-02
2.412000000000000099e+01,4.389465553158306693e-02
2.416000000000000014e+01,3.214600022727745476e-02
2.419999999999999929e+01,3.583348951899966578e-02
2.423999999999999844e+01,4.960582567029353518e-02
2.428000000000000114e+01,3.723884222157538421e-02
2.432000000000000028e+01,3.125196040342494153e-02
2.435999999999999943e+01,1.950185136029747301e-02
2.439999999999999858e+01,3.327302157384730286e-02
2.444000000000000128e+01,4.086932533054971062e-02
2.448000000000000043e+01,3.446963539609809030e-02
2.451999999999999957e+01,3.074530038986644440e-02
2.455999999999999872e+01,4.410365855819998321e-02
2.460000000000000142e+01,2.432484295369726629e-02
2.464000000000000057e+01,1.730651792029284930e-02
2.467999999999999972e+01,3.704438345468993171e-02
2.471999999999999886e+01,3.126038136127893413e-02
2.476000000000000156e+01,3.453212411884790112e-02
2.480000000000000071e+01,1.845657201100519770e-02
2.483999999999999986e+01,3.716415437451924680e-02
2.487999999999999901e+01,2.520438902524655203e-02
2.492000000000000171e+01,3.032731243050889453e-02
2.496000000000000085e+01,1.836694937893139021e-02
2.500000000000000000e+01,1.916707247842231593e-02
2.503999999999999915e+01,2.758220311734614627e-02
2.507999999999999829e+01,2.714681081892067818e-02
2.512000000000000099e+01,3.741371195001189781e-02
2.516000000000000014e+01,1.845399580426121053e-02
2.519999999999999929e+01,2.151662397094495499e-02
2.523999999999999844e+01,2.499058785275977759e-02
2.528000000000000114e+01,3.175735470608320038e-02
2.532000000000000028e+01,2.432229843002870970e-02
2.535999999999999943e+01,1.750439552058289522e-02
2.539999999999999858e+01,3.682521696441636710e-02
2.544000000000000128e+01,3.185907668930722941e-02
2.548000000000000043e+01,4.685708604062308741e-02
2.551999999999999957e+01,1.801531583278693366e-02
2.555999999999999872e+01,2.601486250445649018e-02
2.560000000000000142e+01,3.195591097337700109e-02
2.564000000000000057e+01,3.501518424915088523e-02
2.567999999999999972e+01,4.815928670437712861e-02
2.571999999999999886e+01,4.092698737445567975e-02
2.576000000000000156e+01,2.937217750429842178e-02
2.580000000000000071e+01,2.111016422116209976e-02
2.583999999999999986e+01,3.157738139549595702e-02
2.587999999999999901e+01,2.743113031520821518e-02
2.592000000000000171e+01,3.625117321517799807e-02
2.596000000000000085e+01,1.378639776780886915e-02
2.600000000000000000e+01,1.869525405592754874e-02
2.603999999999999915e+01,1.537103299441347319e-02
2.607999999999999829e+01,3.612733668902472217e-02
2.612000000000000099e+01,4.597491342910319662e-02
2.616000000000000014e+01,2.906569011232925867e-02
2.619999999999999929e+01,2.429948083872844264e-02
2.623999999999999844e+01,2.529589224774009618e-02
2.628000000000000114e+01,3.967023146662114474e-02
2.632000000000000028e+01,1.926082279617894952e-02
2.635999999999999943e+01,9.142054081064754020e-03
2.639999999999999858e+01,4.533227167381183309e-02
2.644000000000000128e+01,2.924411429412067387e-02
2.648000000000000043e+01,2.941535001621863737e-02
2.651999999999999957e+01,1.950113037192287985e-02
2.655999999999999872e+01,2.708121759611243143e-02
2.660000000000000142e+01,6.875403737086547597e-03
2.664000000000000057e+01,2.536326562086435588e-02
2.667999999999999972e+01,4.241007341626635424e-02
2.671999999999999886e+01,3.681645677563082780e-02
2.676000000000000156e+01,3.842618830686624076e-02
2.680000000000000071e+01,4.929745876706646129e-02
2.683999999999999986e+01,2.147441158185984036e-02
2.687999999999999901e+01,9.910752587298189351e-03
2.692000000000000171e+01,2.098687416171312464e-02
2.696000000000000085e+01,3.823724582832252472e-02
2.700000000000000000e+01,3.634611474304794143e-02
2.703999999999999915e+01,3.342556339900932399e-02
2.707999999999999829e+01,2.412429405975022659e-02
2.712000000000000099e+01,2.490783621982391866e-02
2.716000000000000014e+01,1.498845778121079934e-02
2.719999999999999929e+01,1.741790023273077220e-02
2.723999999999999844e+01,2.849141883649444762e-02
2.728000000000000114e+01,1.857105912718561014e-02
2.732000000000000028e+01,3.334866632391753072e-02
2.735999999999999943e+01,1.169595986378438139e-02
2.739999999999999858e+01,2.297398432029719093e-02
2.744000000000000128e+01,2.210835086657594525e-02
2.748000000000000043e+01,1.959583437736956216e-02
2.751999999999999957e+01,0.000000000000000000e+00
2.755999999999999872e+01,3.597499830511169394e-02
2.760000000000000142e+01,2.172979864367506619e-02
2.764000000000000057e+01,3.403493408275157922e-02
2.767999999999999972e+01,1.093884756015182751e-02
2.771999999999999886e+01,1.809783940261155966e-02
2.776000000000000156e+01,4.398603812904889471e-02
2.780000000000000071e+01,2.644606755245369062e-02
2.783999999999999986e+01,3.813207824347053521e-02
2.787999999999999901e+01,2.141471476114778505e-02
2.792000000000000171e+01,2.116254582531559153e-02
2.796000000000000085e+01,9.795808218866126210e-03
2.800000000000000000e+01,3.197725153680867211e-02
2.803999999999999915e+01,3.316480721050444475e-02
2.807999999999999829e+01,4.073241835001170652e-02
2.812000000000000099e+01,3.409817198213113687e-02
2.816000000000000014e+01,2.355302385679091184e-02
2.819999999999999929e+01,1.362499422893505459e-02
2.823999999999999844e+01,2.551345246399642011e-02
2.828000000000000114e+01,4.295868721001362689e-02
2.832000000000000028e+01,2.973653200740326852e-02
2.835999999999999943e+01,2.371770533208676646e-02
2.839999999999999858e+01,4.404338530128836665e-02
2.844000000000000128e+01,4.769737433633675777e-02
2.848000000000000043e+01,3.447385282129654394e-02
2.851999999999999957e+01,3.524568898818049995e-02
2.855999999999999872e+01,4.095684085375671246e-02
2.860000000000000142e+01,4.111053256104768572e-02
2.864000000000000057e+01,5.176065535496503917e-02
2.867999999999999972e+01,3.338993677879182470e-02
2.871999999999999886e+01,4.527428428981734171e-02
2.876000000000000156e+01,2.216903482871890665e-02
2.880000000000000071e+01,4.990076295467493067e-02
2.883999999999999986e+01,4.326035050074080596e-02
2.887999999999999901e+01,2.077151820967813867e-02
2.892000000000000171e+01,4.788474728340157138e-02
2.896000000000000085e+01,5.297498179314224370e-02
2.900000000000000000e+01,4.633317748882808534e-02
2.903999999999999915e+01,4.380740649054978147e-02
2.907999999999999829e+01,3.263688256830042655e-02
2.912000000000000099e+01,3.854899583357134646e-02
2.916000000000000014e+01,5.125278955420588950e-02
2.919999999999999929e+01,6.148640262215149949e-02
2.923999999999999844e+01,5.813560180596803045e-02
2.928000000000000114e+01,4.655168385988298074e-02
2.932000000000000028e+01,5.884243176483414800e-02
2.935999999999999943e+01,5.322656269107534088e-02
2.939999999999999858e+01,6.345841261811066558e-02
2.944000000000000128e+01,6.751533469899523299e-02
2.948000000000000043e+01,7.239517868652348143e-02
2.951999999999999957e+01,8.633070908241481656e-02
2.955999999999999872e+01,1.012949795275418091e-01
2.960000000000000142e+01,8.662093993248366763e-02
2.964000000000000057e+01,1.059066993757679931e-01
2.967999999999999972e+01,1.229280913978109263e-01
2.971999999999999886e+01,1.241010532693223589e-01
2.976000000000000156e+01,1.133361478707840819e-01
2.980000000000000071e+01,1.171840418129707628e-01
2.983999999999999986e+01,1.449065952217059028e-01
2.987999999999999901e+01,1.662483962572109120e-01
2.992000000000000171e+01,1.649497335675241538e-01
2.996000000000000085e+01,1.875257288710429626e-01
3.000000000000000000e+01,1.969289392089001167e-01
3.003999999999999915e+01,2.316475404314798092e-01
3.007999999999999829e+01,2.727461725641495138e-01
3.012000000000000099e+01,3.008778373826353492e-01
3.016000000000000014e+01,3.226287463900898156e-01
3.019999999999999929e+01,3.789569049347472074e-01
3.023999999999999844e+01,3.858881095985875476e-01
3.028000000000000114e+01,4.529181342951866807e-01
3.032000000000000028e+01,5.115092099680886850e-01
3.035999999999999943e+01,5.906818327259178991e-01
3.039999999999999858e+01,6.655318879742379012e-01
3.044000000000000128e+01,6.948955502577649490e-01
3.048000000000000043e+01,7.563666291428433608e-01
3.051999999999999957e+01,8.116627669216817109e-01
3.055999999999999872e+01,8.272354457573674047e-01
3.060000000000000142e+01,8.228433011415874354e-01
3.064000000000000057e+01,8.116587565717610087e-01
3.067999999999999972e+01,7.605449324606182726e-01
3.071999999999999886e+01,7.542993077432327276e-01
3.076000000000000156e+01,6.809562780259500459e-01
3.080000000000000071e+01,5.977335595178508987e-01
3.083999999999999986e+01,5.604081345542701875e-01
3.087999999999999901e+01,5.047644356999896331e-01
3.092000000000000171e+01,4.587938634395296589e-01
3.096000000000000085e+01,3.982097605529159590e-01
3.100000000000000000e+01,3.310390724170473309e-01
3.103999999999999915e+01,3.105889518694083806e-01
3.107999999999999829e+01,2.814940538420772631e-01
3.112000000000000099e+01,2.439601969687600347e-01
3.116000000000000014e+01,2.335940893523489326e-01
3.119999999999999929e+01,2.137599262836187841e-01
3.123999999999999844e+01,1.706678259084584426e-01
3.128000000000000114e+01,1.724439180514538150e-01
3.132000000000000028e+01,1.235881283046175033e-01
3.135999999999999943e+01,1.117794033505157686e-01
3.139999999999999858e+01,1.184940214641580780e-01
3.144000000000000128e+01,9.289465832368072606e-02
3.148000000000000043e+01,1.018725290047446802e-01
3.151999999999999957e+01,8.923901194014416394e-02
3.155999999999999872e+01,8.874844310938354019e-02
3.160000000000000142e+01,8.599348328388950469e-02
3.164000000000000057e+01,7.953339809880126399e-02
3.167999999999999972e+01,7.122055918639226546e-02
3.171999999999999886e+01,6.928773104838194252e-02
3.176000000000000156e+01,6.858943507313464139e-02
3.180000000000000071e+01,6.377437352419387806e-02
3.183999999999999986e+01,4.249339842119447680e-02
3.187999999999999901e+01,4.611615336201226739e-02
3.192000000000000171e+01,5.838292699468575903e-02
3.196000000000000085e+01,3.174950099448511920e-02
3.200000000000000000e+01,4.092821718026319611e-02
3.203999999999999915e+01,5.422292983849508197e-02
3.207999999999999829e+01,2.923489876497211565e-02
3.211999999999999744e+01,3.738335978141352212e-02
3.215999999999999659e+01,5.005945404660724213e-02
3.220000000000000284e+01,5.203256583269625507e-02
3.224000000000000199e+01,4.597834327123701686e-02
3.228000000000000114e+01,3.066187112219016797e-02
3.232000000000000028e+01,3.757347499203066155e-02
3.235999999999999943e+01,3.584028566651716735e-02
3.239999999999999858e+01,2.566812177935607481e-02
3.243999999999999773e+01,3.566584118953072813e-02
3.247999999999999687e+01,1.376120482625236251e-02
3.252000000000000313e+01,1.758356714824372766e-02
3.256000000000000227e+01,3.581287579924367220e-02
3.260000000000000142e+01,2.934349657217712182e-02
3.264000000000000057e+01,3.337049932029428206e-02
3.267999999999999972e+01,2.298976944915838427e-02
3.271999999999999886e+01,1.775412332563533133e-02
3.275999999999999801e+01,2.527886807698204868e-02
3.279999999999999716e+01,2.971593060087888982e-02
3.284000000000000341e+01,2.447909841194443117e-02
3.288000000000000256e+01,2.459316713098598506e-02
3.292000000000000171e+01,2.944067889242660968e-02
3.296000000000000085e+01,1.452915735147114647e-02
3.300000000000000000e+01,3.584140396827538433e-02
3.303999999999999915e+01,2.813275568351664840e-02
3.307999999999999829e+01,3.030302659722033595e-02
3.311999999999999744e+01,3.885329109631775052e-02
3.315999999999999659e+01,3.073180670975957790e-02
3.320000000000000284e+01,3.290087829796238539e-02
3.324000000000000199e+01,3.445209175430685722e-02
3.328000000000000114e+01,2.180138434950267337e-02
3.332000000000000028e+01,1.882377407165354219e-02
3.335999999999999943e+01,4.795354503511740224e-02
3.339999999999999858e+01,3.694818393666264578e-02
3.343999999999999773e+01,3.602755674146145698e-02
3.347999999999999687e+01,2.934359034719418585e-02
3.352000000000000313e+01,4.221203661571048399e-02
3.356000000000000227e+01,2.564794334853454441e-02
3.360000000000000142e+01,3.357592075761364758e-02
3.364000000000000057e+01,2.442050513802246706e-02
3.367999999999999972e+01,2.452654397571477768e-02
3.371999999999999886e+01,1.742850679390855334e-02
3.375999999999999801e+01,2.803050720481184074e-02
3.379999999999999716e+01,2.072583612330362174e-02
3.384000000000000341e+01,3.791323277136394304e-02
3.388000000000000256e+01,1.681786358752019456e-02
3.392000000000000171e+01,1.568654040495746221e-02
3.396000000000000085e+01,2.690395511419001184e-02
3.400000000000000000e+01,2.721254611934781353e-02
3.403999999999999915e+01,3.986987403407204339e-02
3.407999999999999829e+01,3.832527126535913153e-02
3.411999999999999744e+01,2.751839631779482917e-02
3.415999999999999659e+01,3.132426717948307016e-02
3.420000000000000284e+01,2.463295013116612725e-02
3.424000000000000199e+01,2.164596429436788441e-02
3.428000000000000114e+01,4.767906153093813548e-02
3.432000000000000028e+01,1.793476192357364857e-02
3.435999999999999943e+01,4.334957325959622187e-02
3.439999999999999858e+01,4.324239811811975143e-02
3.443999999999999773e+01,4.992683860490249037e-02
3.447999999999999687e+01,3.849878012550776024e-02
3.452000000000000313e+01,5.115114277709461449e-02
3.456000000000000227e+01,3.601750661369528678e-02
3.460000000000000142e+01,5.340287471670342179e-02
3.464000000000000057e+01,4.979427414158445198e-02
3.467999999999999972e+01,4.783180812751709060e-02
3.471999999999999886e+01,5.224931605426635928e-02
3.475999999999999801e+01,6.304679743071793518e-02
3.479999999999999716e+01,5.655505241135988515e-02
3.484000000000000341e+01,7.085061859693451980e-02
3.488000000000000256e+01,7.320825464981270403e-02
3.492000000000000171e+01,7.433055456956413898e-02
3.496000000000000085e+01,8.183282548344555929e-02
3.500000000000000000e+01,1.072409378903101951e-01
3.503999999999999915e+01,1.075386942114864575e-01
3.507999999999999829e+01,1.024847299386613675e-01
3.511999999999999744e+01,1.318021356711437664e-01
3.515999999999999659e+01,1.588551066997085370e-01
3.520000000000000284e+01,1.830261851587787481e-01
3.524000000000000199e+01,1.837334580751553148e-01
3.528000000000000114e+01,1.926730701801341872e-01
3.532000000000000028e+01,2.366015072093110849e-01
3.535999999999999943e+01,2.430704367346333827e-01
3.539999999999999858e+01,2.851456475763873843e-01
3.543999999999999773e+01,2.671212462017649170e-01
3.547999999999999687e+01,2.904660606563288505e-01
3.552000000000000313e+01,3.282177850974339339e-01
3.556000000000000227e+01,3.256285318316205490e-01
3.560000000000000142e+01,3.510302498082954470e-01
3.564000000000000057e+01,3.564670824530867810e-01
3.567999999999999972e+01,4.275597852003522603e-01
3.571999999999999886e+01,4.675733688931798526e-01
3.575999999999999801e+01,4.639528664263830593e-01
3.579999999999999716e+01,4.502467946546458988e-01
3.584000000000000341e+01,4.608269469319349332e-01
3.588000000000000256e+01,4.086318329679179961e-01
3.592000000000000171e+01,3.416173083547375255e-01
3.596000000000000085e+01,3.172069084262956751e-01
3.600000000000000000e+01,2.666570450013150406e-01
3.603999999999999915e+01,2.086972579473781730e-01
3.607999999999999829e+01,2.108362197146085026e-01
3.611999999999999744e+01,1.635781554072011923e-01
3.615999999999999659e+01,1.476041614638135546e-01
3.620000000000000284e+01,1.310122730460999974e-01
3.624000000000000199e+01,1.043348099211872382e-01
3.628000000000000114e+01,1.134694364330095240e-01
3.632000000000000028e+01,9.893442501722787830e-02
3.635999999999999943e+01,9.263173952995898408e-02
3.639999999999999858e+01,8.344714673976272312e-02
3.643999999999999773e+01,6.685262540946609877e-02
3.647999999999999687e+01,8.010143664052785106e-02
3.652000000000000313e+01,7.544354298339717158e-02
3.656000000000000227e+01,6.440481493692711001e-02
3.660000000000000142e+01,7.024281311475882861e-02
3.664000000000000057e+01,7.196398629405158232e-02
3.667999999999999972e+01,6.339376023906549695e-02
3.671999999999999886e+01,4.576704920761123091e-02
3.675999999999999801e+01,4.748689193385129126e-02
3.679999999999999716e+01,5.064702406725752476e-02
3.684000000000000341e+01,6.759659260596620478e-02
3.688000000000000256e+01,6.314052671449829623e-02
3.692000000000000171e+01,4.880469689170674474e-02
3.696000000000000085e+01,5.196304624764965657e-02
3.700000000000000000e+01,5.903151205303681925e-02
3.703999999999999915e+01,4.572343708789380901e-02
3.707999999999999829e+01,7.152054793433092195e-02
3.711999999999999744e+01,6.356287391465399728e-02
3.715999999999999659e+01,4.922435813892132861e-02
3.720000000000000284e+01,6.472916608448733844e-02
3.724000000000000199e+01,6.767855754714327543e-02
3.728000000000000114e+01,7.206823252359227661e-02
3.732000000000000028e+01,8.654259376519544966e-02
3.735999999999999943e+01,8.496261192859089206e-02
3.739999999999999858e+01,8.996839025295727543e-02
3.743999999999999773e+01,1.069112254925221883e-01
3.747999999999999687e+01,1.040949719337608270e-01
3.752000000000000313e+01,1.187728906781319732e-01
3.756000000000000227e+01,1.295397922531532076e-01
3.760000000000000142e+01,1.499797384058859373e-01
3.764000000000000057e+01,2.064375766222840691e-01
3.767999999999999972e+01,2.521923650769011260e-01
3.771999999999999886e+01,3.477549259759514233e-01
3.775999999999999801e+01,4.083277794021319407e-01
3.779999999999999716e+01,5.277644457826339286e-01
3.784000000000000341e+01,6.066542873378746314e-01
3.788000000000000256e+01,6.252386675939378691e-01
3.792000000000000171e+01,6.534960884987972562e-01
3.796000000000000085e+01,5.872820724019899297e-01
3.800000000000000000e+01,5.225083309789159136e-01
3.803999999999999915e+01,4.770811275978746324e-01
3.807999999999999829e+01,3.978991275639731096e-01
3.811999999999999744e+01,3.166584756085071839e-01
3.815999999999999659e+01,2.885186966923495855e-01
3.820000000000000284e+01,2.387674480144183209e-01
3.824000000000000199e+01,1.906622901883548160e-01
3.828000000000000114e+01,1.896892493084515463e-01
3.832000000000000028e+01,1.362318684703045513e-01
3.835999999999999943e+01,1.327880713435808380e-01
3.839999999999999858e+01,1.165830243668078553e-01
3.843999999999999773e+01,1.195186913961023972e-01
3.847999999999999687e+01,1.037243529733141989e-01
3.852000000000000313e+01,9.184011233762205684e-02
3.856000000000000227e+01,7.830885262774857358e-02
3.860000000000000142e+01,8.371248583466409099e-02
3.864000000000000057e+01,7.470831324627695558e-02
3.867999999999999972e+01,7.620044847479520711e-02
3.871999999999999886e+01,8.160267903483738039e-02
3.875999999999999801e+01,7.033309195320430751e-02
3.879999999999999716e+01,6.482597134425391316e-02
3.884000000000000341e+01,5.334962660208344282e-02
3.888000000000000256e+01,4.393100310359152744e-02
3.892000000000000171e+01,6.476732045811971206e-02
3.896000000000000085e+01,4.752662873403255134e-02
3.900000000000000000e+01,5.642449438431965808e-02
3.903999999999999915e+01,4.412251820907196059e-02
3.907999999999999829e+01,5.569508805294044046e-02
3.911999999999999744e+01,6.520899369738393514e-02
3.915999999999999659e+01,6.278491665988747417e-02
3.920000000000000284e+01,6.447674818536261454e-02
3.924000000000000199e+01,5.855279766790662949e-02
3.928000000000000114e+01,5.242255310995569406e-02
3.932000000000000028e+01,5.534787463733337881e-02
3.935999999999999943e+01,5.189232739736177047e-02
3.939999999999999858e+01,4.349664477267244089e-02
3.943999999999999773e+01,6.885482173847001786e-02
3.947999999999999687e+01,6.478038648364023433e-02
3.952000000000000313e+01,8.190484322299687592e-02
3.956000000000000227e+01,8.956114186711944258e-02
3.960000000000000142e+01,8.733764367525183314e-02
3.964000000000000057e+01,6.514921104005802488e-02
3.967999999999999972e+01,7.774373067276892091e-02
3.971999999999999886e+01,6.852094275653713984e-02
3.975999999999999801e+01,7.926212913888024125e-02
3.979999999999999716e+01,9.617740796568699513e-02
3.984000000000000341e+01,8.036696415470299948e-02
3.988000000000000256e+01,1.100420646467354935e-01
3.992000000000000171e+01,9.772958090181030344e-02
3.996000000000000085e+01,9.241446413617451783e-02
4.000000000000000000e+01,1.132378924670524173e-01
4.003999999999999915e+01,1.120381901952514081e-01
4.007999999999999829e+01,1.139252900578003602e-01
4.011999999999999744e+01,1.427742100428031069e-01
4.015999999999999659e+01,1.650364323133472200e-01
4.020000000000000284e+01,1.774188503811847395e-01
4.024000000000000199e+01,2.052372161081653379e-01
4.028000000000000114e+01,2.307910842685817476e-01
4.032000000000000028e+01,2.688994313584206486e-01
4.035999999999999943e+01,3.072131093973165528e-01
4.039999999999999858e+01,3.982159947234711339e-01
4.043999999999999773e+01,5.005384427567797223e-01
4.047999999999999687e+01,6.160328251295156265e-01
4.052000000000000313e+01,7.179426551238540233e-01
4.056000000000000227e+01,8.435211938412543464e-01
4.060000000000000142e+01,9.306110650947059248e-01
4.064000000000000057e+01,1.000000000000000000e+00
4.067999999999999972e+01,9.712127202610709720e-01
4.071999999999999886e+01,9.955262821301269494e-01
4.075999999999999801e+01,9.311313081144904080e-01
4.079999999999999716e+01,8.331873231750334119e-01
4.084000000000000341e+01,7.233053349268303567e-01
4.088000000000000256e+01,6.307116586033272299e-01
4.092000000000000171e+01,5.389407637277418006e-01
4.096000000000000085e+01,4.648698180442691896e-01
4.100000000000000000e+01,3.722746550933258569e-01
4.103999999999999915e+01,3.272232134512890744e-01
4.107999999999999829e+01,2.564438841908232014e-01
4.111999999999999744e+01,2.391770298768396419e-01
4.115999999999999659e+01,2.394043031745758388e-01
4.120000000000000284e+01,1.865297437793669855e-01
4.124000000000000199e+01,1.340663236535187264e-01
4.128000000000000114e+01,1.507576299960793897e-01
4.132000000000000028e+01,1.299893556587361498e-01
4.135999999999999943e+01,1.285675786009281285e-01
4.139999999999999858e+01,1.172659826069806371e-01
4.143999999999999773e+01,1.115210015473428740e-01
4.147999999999999687e+01,1.065987950600208317e-01
4.152000000000000313e+01,9.673642715891653254e-02
4.156000000000000227e+01,8.769683284789905886e-02
4.160000000000000142e+01,8.977096787689639590e-02
4.164000000000000057e+01,9.740171538463129886e-02
4.167999999999999972e+01,1.011213951382303328e-01
4.171999999999999886e+01,9.763690064944556546e-02
4.175999999999999801e+01,8.427258280449156924e-02
4.179999999999999716e+01,7.358340772632560034e-02
4.184000000000000341e+01,7.977089453647157047e-02
4.188000000000000256e+01,7.257963139515055673e-02
4.192000000000000171e+01,7.094497729476617609e-02
4.196000000000000085e+01,7.342619787045794044e-02
4.200000000000000000e+01,8.084656913039492410e-02
4.203999999999999915e+01,8.250349609277858598e-02
4.207999999999999829e+01,6.090235265672257897e-02
4.211999999999999744e+01,5.885351629384855815e-02
4.215999999999999659e+01,5.700998877988251029e-02
4.220000000000000284e+01,5.784159912156016520e-02
4.224000000000000199e+01,5.743778345617103764e-02
4.228000000000000114e+01,3.892137305729127111e-02
4.232000000000000028e+01,3.275359790729170939e-02
4.235999999999999943e+01,4.943123288092112627e-02
4.239999999999999858e+01,5.128937764485023282e-02
4.243999999999999773e+01,4.059204208099378292e-02
4.247999999999999687e+01,4.080260592781394247e-02
4.252000000000000313e+01,3.957192120494546633e-02
4.256000000000000227e+01,4.225128466661595694e-02
4.260000000000000142e+01,4.143120732816055196e-02
4.264000000000000057e+01,3.937569907149401915e-02
4.267999999999999972e+01,4.061278015156065402e-02
4.271999999999999886e+01,3.608640858512873750e-02
4.275999999999999801e+01,3.073624287678420469e-02
4.279999999999999716e+01,1.550624104329537817e-02
4.284000000000000341e+01,1.941689919328710642e-02
4.288000000000000256e+01,3.320635621870692694e-02
4.292000000000000171e+01,3.752761389528092018e-02
4.296000000000000085e+01,4.040761759990756097e-02
4.300000000000000000e+01,3.711252697059298084e-02
4.303999999999999915e+01,2.599578851765598289e-02
4.307999999999999829e+01,2.084728311297883926e-02
4.311999999999999744e+01,2.763576488525180258e-02
4.315999999999999659e+01,3.318880935482607097e-02
4.320000000000000284e+01,2.330489641794891362e-02
4.324000000000000199e+01,2.597542655914110085e-02
4.328000000000000114e+01,2.226503980377017577e-02
4.332000000000000028e+01,2.122977715283905567e-02
4.335999999999999943e+01,4.262827409803456036e-02
4.339999999999999858e+01,3.747557844088079265e-02
4.343999999999999773e+01,2.635360217234795216e-02
4.347999999999999687e+01,3.457809715428578068e-02
4.352000000000000313e+01,2.983546029870684860e-02
4.356000000000000227e+01,1.953517960804740036e-02
4.360000000000000142e+01,4.298870743197447802e-02
4.364000000000000057e+01,4.030267795650747248e-02
4.367999999999999972e+01,4.770125665900084438e-02
4.371999999999999886e+01,3.184174482736308598e-02
4.375999999999999801e+01,4.541383792461644447e-02
4.379999999999999716e+01,3.161145700909293726e-02
4.384000000000000341e+01,3.777300029847275448e-02
4.388000000000000256e+01,4.660966081669033062e-02
4.392000000000000171e+01,5.112358782872256091e-02
4.396000000000000085e+01,4.616930272293381932e-02
4.400000000000000000e+01,4.018538912586437639e-02
4.403999999999999915e+01,5.025483390653001647e-02
4.407999999999999829e+01,6.155865958671543486e-02
4.411999999999999744e+01,4.384145432664177805e-02
4.415999999999999659e+01,4.341252071988505740e-02
4.420000000000000284e+01,4.709943428679665145e-02
4.424000000000000199e+01,6.292914040427513567e-02
4.428000000000000114e+01,4.150504862420292818e-02
4.432000000000000028e+01,4.107397077976523980e-02
4.435999999999999943e+01,4.558201464382150708e-02
4.439999999999999858e+01,5.400008410115320068e-02
4.443999999999999773e+01,3.957169243393571234e-02
4.447999999999999687e+01,3.131733575079408832e-02
4.452000000000000313e+01,2.717882231240538113e-02
4.456000000000000227e+01,3.621219311977237620e-02
4.460000000000000142e+01,2.836785545793707800e-02
4.464000000000000057e+01,2.916738031357010014e-02
4.467999999999999972e+01,2.687907708076872973e-02
4.471999999999999886e+01,2.191458351806014476e-02
4.475999999999999801e+01,3.485581161641463505e-02
4.479999999999999716e+01,3.256588178856152649e-02
4.484000000000000341e+01,2.101354816319088090e-02
4.488000000000000256e+01,4.280336908710351967e-02
4.492000000000000171e+01,3.721870224703534291e-02
4.496000000000000085e+01,1.804942851486855682e-02
4.500000000000000000e+01,3.633869035505871148e-02
4.503999999999999915e+01,1.243448597082384352e-02
4.507999999999999829e+01,2.989937954831308614e-02
4.511999999999999744e+01,3.130983477139592103e-02
4.515999999999999659e+01,4.589216687351804075e-02
4.520000000000000284e+01,2.960108265190400725e-02
4.524000000000000199e+01,3.718446881778452590e-02
4.528000000000000114e+01,3.612290315835126053e-02
4.532000000000000028e+01,4.041208567030754595e-02
4.535999999999999943e+01,4.099597437042160758e-02
4.539999999999999858e+01,4.693061025969626904e-02
4.543999999999999773e+01,5.018904697900416351e-02
4.547999999999999687e+01,6.476698452504839332e-02
4.552000000000000313e+01,4.456093844684486799e-02
4.556000000000000227e+01,6.737053743555912466e-02
4.560000000000000142e+01,5.683688569154277809e-02
4.564000000000000057e+01,6.544385955299723834e-02
4.567999999999999972e+01,6.725824880138130124e-02
4.571999999999999886e+01,6.125095732147648603e-02
4.575999999999999801e+01,6.100604686034408891e-02
4.579999999999999716e+01,6.919916554954078092e-02
4.584000000000000341e+01,6.154365616909221459e-02
4.588000000000000256e+01,5.059448484195559065e-02
4.592000000000000171e+01,4.520187344431296494e-02
4.596000000000000085e+01,4.454254498576638854e-02
4.600000000000000000e+01,6.467039071122757110e-02
4.603999999999999915e+01,4.939678905349087490e-02
4.607999999999999829e+01,4.667759560469925822e-02
4.611999999999999744e+01,3.016796189666983222e-02
4.615999999999999659e+01,4.082589327763664483e-02
4.620000000000000284e+01,3.584101129374924616e-02
4.624000000000000199e+01,3.579522793597779418e-02
4.628000000000000114e+01,3.718961759125353345e-02
4.632000000000000028e+01,2.314701153315259358e-02
4.635999999999999943e+01,2.062971462209143778e-02
4.639999999999999858e+01,3.169591761516411116e-02
4.643999999999999773e+01,2.362037917474158269e-02
4.647999999999999687e+01,2.665851015837385207e-02
4.652000000000000313e+01,2.496223746374138727e-02
4.656000000000000227e+01,1.359190160402935083e-02
4.660000000000000142e+01,1.683415881698322944e-02
4.664000000000000057e+01,1.328381963012058645e-02
4.667999999999999972e+01,2.619844465708267428e-02
4.671999999999999886e+01,1.317929369366060456e-02
4.675999999999999801e+01,1.765420158593864614e-02
4.679999999999999716e+01,1.430741548983818952e-02
4.684000000000000341e+01,1.445898677939139870e-02
4.688000000000000256e+01,2.078456358615485625e-02
4.692000000000000171e+01,1.846516843191317592e-02
4.696000000000000085e+01,2.540706468496557041e-02
4.700000000000000000e+01,6.209362385012052142e-03
4.703999999999999915e+01,3.888258128495066489e-03
4.707999999999999829e+01,2.358922954482135445e-02
4.711999999999999744e+01,1.900297305818607688e-02
4.715999999999999659e+01,1.585687878008055357e-02
4.720000000000000284e+01,1.579749921795717618e-02
4.724000000000000199e+01,2.067720600408910064e-02
4.728000000000000114e+01,2.390978665309484788e-02
4.732000000000000028e+01,3.064071879438118665e-02
4.735999999999999943e+01,2.111136595403231495e-02
4.739999999999999858e+01,1.096398112731822479e-02
4.743999999999999773e+01,2.345612492788010442e-02
4.747999999999999687e+01,3.059639588896844245e-02
4.752000000000000313e+01,1.962400778057636630e-02
4.756000000000000227e+01,2.840967907862508579e-02
4.760000000000000142e+01,1.249647833069746604e-02
4.764000000000000057e+01,1.695879338144435158e-02
4.767999999999999972e+01,1.668669051160804467e-02
4.771999999999999886e+01,3.637846420857583640e-02
4.775999999999999801e+01,2.087458852924627822e-02
4.779999999999999716e+01,1.813091906576224169e-02
4.784000000000000341e+01,6.536447220820467731e-03
4.788000000000000256e+01,1.325929697965816216e-02
4.792000000000000171e+01,1.812919361871806120e-02
4.796000000000000085e+01,2.382178526955660430e-02
4.800000000000000000e+01,1.934032215782662597e-03
4.803999999999999915e+01,1.174184191468561657e-02
4.807999999999999829e+01,2.216652602720314141e-02
4.811999999999999744e+01,2.291712782117847833e-02
4.815999999999999659e+01,2.510787954582296977e-02
4.820000000000000284e+01,1.721290972005472958e-02
4.824000000000000199e+01,1.569774783842713822e-02
4.828000000000000114e+01,6.566692922008126806e-03
4.832000000000000028e+01,2.666136782261482874e-02
4.835999999999999943e+01,2.246879959571269902e-02
4.839999999999999858e+01,2.218620785064331219e-02
4.843999999999999773e+01,1.346444460704141963e-02
4.847999999999999687e+01,2.244253822604012558e-02
4.852000000000000313e+01,2.936185223372379111e-02
4.856000000000000227e+01,2.804781239435249693e-02
4.860000000000000142e+01,1.747132259270760962e-02
4.864000000000000057e+01,1.656774182119262126e-02
4.867999999999999972e+01,1.031227347677125643e-02
4.871999999999999886e+01,2.978360491627700737e-02
4.875999999999999801e+01,2.476186919230881009e-02
4.879999999999999716e+01,2.776648753544599252e-02
4.884000000000000341e+01,2.541921634121914464e-02
4.888000000000000256e+01,3.274485123043559959e-02
4.892000000000000171e+01,2.175199073634583383e-02
4.896000000000000085e+01,2.866480033630438781e-02
4.900000000000000000e+01,3.146063318336626835e-02
4.903999999999999915e+01,2.437655329143336227e-02
4.907999999999999829e+01,2.490718577916317331e-02
4.911999999999999744e+01,2.955360503348687662e-02
4.915999999999999659e+01,4.407874605827376280e-02
4.920000000000000284e+01,3.760973963928241487e-02
4.924000000000000199e+01,4.575329387940491738e-02
4.928000000000000114e+01,3.249106144387862299e-02
4.932000000000000028e+01,4.289743017735451330e-02
4.935999999999999943e+01,3.622021287419058266e-02
4.939999999999999858e+01,3.551115102320719780e-02
4.943999999999999773e+01,4.509244575452766440e-02
4.947999999999999687e+01,3.409122785391063837e-02
4.952000000000000313e+01,3.502691855193545978e-02
4.956000000000000227e+01,3.390381686967007535e-02
4.960000000000000142e+01,3.092774144082091614e-02
4.964000000000000057e+01,4.359331738404556567e-02
4.967999999999999972e+01,2.970762361995601952e-02
4.971999999999999886e+01,4.710583373209571711e-02
4.975999999999999801e+01,3.033746553632107185e-02
4.979999999999999716e+01,3.312131011975853051e-02
4.984000000000000341e+01,4.022675175455110719e-02
4.988000000000000256e+01,4.259774845746703426e-02
4.992000000000000171e+01,4.579141610755484842e-02
4.996000000000000085e+01,4.836702033995416566e-02
5.000000000000000000e+01,3.921032792322481225e-02
5.003999999999999915e+01,5.701533383257151311e-02
5.007999999999999829e+01,3.406754551082138288e-02
5.011999999999999744e+01,4.384439002790212203e-02
5.015999999999999659e+01,4.127147855693402007e-02
5.020000000000000284e+01,5.289947770869175836e-02
5.024000000000000199e+01,4.682642264482976546e-02
5.028000000000000114e+01,6.606850996179046420e-02
5.032000000000000028e+01,6.555135083269414409e-02
5.035999999999999943e+01,6.297538950101910782e-02
5.039999999999999858e+01,6.698502871812646309e-02
5.043999999999999773e+01,8.087337399003539928e-02
5.047999999999999687e+01,7.767811947410054041e-02
5.052000000000000313e+01,9.856308964337680278e-02
5.056000000000000227e+01,9.557242792349247840e-02
5.060000000000000142e+01,1.055477571662646885e-01
5.064000000000000057e+01,1.173748441402533288e-01
5.067999999999999972e+01,1.164405304920638068e-01
5.071999999999999886e+01,1.235325473374872390e-01
5.075999999999999801e+01,1.425614575570052778e-01
5.079999999999999716e+01,1.624130279191778048e-01
5.084000000000000341e+01,1.767068650634441018e-01
5.088000000000000256e+01,1.895593509951067068e-01
5.092000000000000171e+01,1.972657409762758884e-01
5.096000000000000085e+01,2.105286290065213894e-01
5.100000000000000000e+01,2.161755906061944288e-01
5.103999999999999915e+01,2.187346460302393159e-01
5.107999999999999829e+01,2.089439341706035291e-01
5.111999999999999744e+01,2.090319200168239966e-01
5.115999999999999659e+01,2.070610938381773070e-01
5.120000000000000284e+01,2.015907212698030138e-01
5.124000000000000199e+01,1.778018248334857221e-01
5.128000000000000114e+01,1.624508902648211517e-01
5.132000000000000028e+01,1.623299481917827025e-01
5.135999999999999943e+01,1.418322895292496444e-01
5.139999999999999858e+01,1.347122502567262015e-01
5.143999999999999773e+01,1.070096742876584101e-01
5.147999999999999687e+01,1.050338642156222746e-01
5.152000000000000313e+01,1.022341524476141628e-01
5.156000000000000227e+01,8.379156150541863801e-02
5.160000000000000142e+01,8.613607599121123060e-02
5.164000000000000057e+01,9.280216542820965420e-02
5.167999999999999972e+01,7.085876935396411003e-02
5.171999999999999886e+01,6.785010511097581964e-02
5.175999999999999801e+01,5.722550510624097031e-02
5.179999999999999716e+01,5.668541358323805207e-02
5.184000000000000341e+01,6.067271368068975768e-02
5.188000000000000256e+01,6.116045903946862317e-02
5.192000000000000171e+01,5.279735192311824782e-02
5.196000000000000085e+01,4.381615683335799566e-02
5.200000000000000000e+01,5.232895626330807959e-02
5.203999999999999915e+01,5.754801811494841823e-02
5.207999999999999829e+01,5.350458727736008557e-02
5.211999999999999744e+01,4.513832225512903751e-02
5.215999999999999659e+01,4.829729516834593839e-02
5.220000000000000284e+01,4.445778429202022763e-02
5.224000000000000199e+01,5.008531912070521286e-02
5.228000000000000114e+01,4.850855005279788856e-02
5.232000000000000028e+01,5.228244321125539301e-02
5.235999999999999943e+01,5.440914786105459366e-02
5.239999999999999858e+01,4.336279252111367721e-02
5.243999999999999773e+01,4.507658642774481361e-02
5.247999999999999687e+01,5.563996571823756621e-02
5.252000000000000313e+01,3.985785955711268480e-02
5.256000000000000227e+01,5.000832515775079784e-02
5.260000000000000142e+01,5.830578017822316689e-02
5.264000000000000057e+01,5.816401213314834756e-02
5.267999999999999972e+01,6.090307239655838589e-02
5.271999999999999886e+01,6.755205610144311701e-02
5.275999999999999801e+01,5.979306064763278972e-02
5.279999999999999716e+01,8.228883563013669744e-02
5.284000000000000341e+01,8.379041847744957139e-02
5.288000000000000256e+01,8.961356105142116724e-02
5.292000000000000171e+01,9.543606123969920751e-02
5.296000000000000085e+01,1.057859392972279322e-01
5.300000000000000000e+01,1.214864712321763601e-01
5.303999999999999915e+01,1.194859145734951389e-01
5.307999999999999829e+01,1.100752250711122537e-01
5.311999999999999744e+01,1.181585163372356612e-01
5.315999999999999659e+01,1.178025781533242888e-01
5.320000000000000284e+01,1.120946969005764404e-01
5.324000000000000199e+01,1.072094458325029837e-01
5.328000000000000114e+01,9.409078296587237988e-02
5.332000000000000028e+01,9.002751429452128529e-02
5.335999999999999943e+01,9.234399070466418891e-02
5.339999999999999858e+01,8.910270246557752682e-02
5.343999999999999773e+01,7.659890483937184524e-02
5.347999999999999687e+01,6.656428744972078815e-02
5.352000000000000313e+01,5.817557330622656619e-02
5.356000000000000227e+01,5.493168703972924061e-02
5.360000000000000142e+01,5.683262815911428734e-02
5.364000000000000057e+01,4.700122793795786375e-02
5.367999999999999972e+01,5.198815298703481080e-02
5.371999999999999886e+01,4.153799146656628194e-02
5.375999999999999801e+01,3.540937886823902758e-02
5.379999999999999716e+01,4.348163269233927541e-02
5.384000000000000341e+01,3.570516022390903682e-02
5.388000000000000256e+01,4.068881932193155887e-02
5.392000000000000171e+01,4.608346200604153398e-02
5.396000000000000085e+01,3.377700480089022156e-02
5.400000000000000000e+01,3.731796456116100169e-02
5.403999999999999915e+01,3.838843868668417869e-02
5.407999999999999829e+01,3.595933106224107056e-02
5.411999999999999744e+01,3.599939581652188136e-02
5.415999999999999659e+01,3.130496308968246100e-02
5.420000000000000284e+01,3.628337112806767628e-02
5.424000000000000199e+01,3.611564245346222252e-02
5.428000000000000114e+01,3.491815907116843642e-02
5.432000000000000028e+01,2.775126149437167830e-02
5.435999999999999943e+01,2.902228796941684272e-02
5.439999999999999858e+01,3.049847301235550021e-02
5.443999999999999773e+01,4.144167674901141907e-02
5.447999999999999687e+01,4.188744358064801915e-02
5.452000000000000313e+01,3.080667739204668437e-02
5.456000000000000227e+01,2.240089730473132645e-02
5.460000000000000142e+01,2.634360169416733594e-02
5.464000000000000057e+01,1.587830384253031274e-02
5.467999999999999972e+01,2.208369110665356350e-02
5.471999999999999886e+01,3.116988163242593451e-02
5.475999999999999801e+01,2.914117444091554598e-02
5.479999999999999716e+01,2.978745040400457983e-02
5.484000000000000341e+01,2.405266753846140720e-02
5.488000000000000256e+01,4.425042795004448942e-02
5.492000000000000171e+01,2.719425982763950395e-02
5.496000000000000085e+01,3.010187938032741345e-02
5.500000000000000000e+01,3.033318238670061270e-02
5.503999999999999915e+01,3.468019947473268555e-02
5.507999999999999829e+01,2.441338979461210590e-02
5.511999999999999744e+01,3.122889807763482017e-02
5.515999999999999659e+01,3.289825835203503274e-02
5.520000000000000284e+01,2.880401275223570812e-02
5.524000000000000199e+01,2.676728753031459504e-02
5.528000000000000114e+01,3.851977230994562545e-02
5.532000000000000028e+01,3.668752299884161377e-02
5.535999999999999943e+01,3.526623959370579764e-02
5.539999999999999858e+01,2.005440199078531438e-02
5.543999999999999773e+01,3.180419641349339216e-02
5.547999999999999687e+01,3.202744602921727551e-02
5.552000000000000313e+01,3.616058470840599615e-02
5.556000000000000227e+01,3.802903821531981171e-02
5.560000000000000142e+01,4.504229455239469604e-02
5.564000000000000057e+01,4.073482324284850853e-02
5.567999999999999972e+01,4.239543028051803025e-02
5.571999999999999886e+01,4.487863705376750334e-02
5.575999999999999801e+01,5.271246381754123023e-02
5.579999999999999716e+01,4.737318884684856013e-02
5.584000000000000341e+01,4.326815038803438762e-02
5.588000000000000256e+01,4.698355994425131715e-02
5.592000000000000171e+01,4.987501378190935947e-02
5.596000000000000085e+01,4.123991691921014696e-02
5.600000000000000000e+01,4.680565946764496388e-02
5.603999999999999915e+01,4.269722245688122725e-02
5.607999999999999829e+01,5.567109162251463600e-02
5.611999999999999744e+01,5.300202562691604807e-02
5.615999999999999659e+01,4.518679934483423727e-02
5.620000000000000284e+01,3.737089040567604520e-02
5.624000000000000199e+01,4.169762668275686646e-02
5.628000000000000114e+01,4.684695581981574569e-02
5.632000000000000028e+01,4.890831395414216992e-02
5.635999999999999943e+01,4.355949897338403515e-02
5.639999999999999858e+01,3.553435025730619645e-02
5.643999999999999773e+01,3.615291917994094273e-02
5.647999999999999687e+01,2.812639876522273971e-02
5.652000000000000313e+01,3.491816875161354167e-02
5.656000000000000227e+01,3.903360303822705352e-02
5.660000000000000142e+01,3.800287163609871594e-02
5.664000000000000057e+01,3.347252705268081302e-02
5.667999999999999972e+01,3.696843978682635978e-02
5.671999999999999886e+01,3.099598373764896053e-02
5.675999999999999801e+01,2.461119990615143888e-02
5.679999999999999716e+01,3.345634128760370529e-02
5.684000000000000341e+01,2.727599604222688198e-02
5.688000000000000256e+01,3.467902202900426806e-02
5.692000000000000171e+01,3.528932539955752234e-02
5.696000000000000085e+01,2.725453353938466286e-02
5.700000000000000000e+01,2.951000544088920943e-02
5.703999999999999915e+01,3.938009199028559559e-02
5.707999999999999829e+01,2.907921084564520087e-02
5.711999999999999744e+01,3.524316573396429897e-02
5.715999999999999659e+01,3.358529943526854245e-02
5.720000000000000284e+01,2.101832458613077034e-02
5.724000000000000199e+01,2.944420504266779051e-02
5.728000000000000114e+01,3.581119833383044487e-02
5.732000000000000028e+01,3.394473022387878292e-02
5.735999999999999943e+01,2.816700184293619361e-02
5.739999999999999858e+01,2.856314981610982850e-02
5.743999999999999773e+01,3.945537527352287882e-02
5.747999999999999687e+01,4.314323298946822621e-02
5.752000000000000313e+01,3.736271209980219360e-02
5.756000000000000227e+01,3.219894922963162376e-02
5.760000000000000142e+01,3.794290012888459906e-02
5.764000000000000057e+01,3.812903432077891647e-02
5.767999999999999972e+01,3.028752181635001664e-02
5.771999999999999886e+01,3.932247622780581098e-02
5.775999999999999801e+01,3.971232558624697428e-02
5.779999999999999716e+01,4.277712126570569484e-02
5.784000000000000341e+01,3.822590653402509892e-02
5.788000000000000256e+01,3.202743551989538362e-02
5.792000000000000171e+01,3.117955797611091096e-02
5.796000000000000085e+01,2.683205104426078166e-02
5.800000000000000000e+01,2.577694535231857959e-02
5.803999999999999915e+01,3.933429227431643055e-02
5.807999999999999829e+01,3.292647834923770334e-02
5.811999999999999744e+01,2.960524506590273344e-02
5.815999999999999659e+01,4.254301592173122259e-02
5.820000000000000284e+01,3.777963483016925916e-02
5.824000000000000199e+01,2.745842966453215794e-02
5.828000000000000114e+01,3.833588616041562480e-02
5.832000000000000028e+01,2.904235973771514615e-02
5.835999999999999943e+01,4.876862073749846371e-02
5.839999999999999858e+01,4.256096234148525753e-02
5.843999999999999773e+01,4.973083689934274659e-02
5.847999999999999687e+01,3.261334407774162808e-02
5.852000000000000313e+01,2.105225648459013721e-02
5.856000000000000227e+01,4.468552760297579002e-02
5.860000000000000142e+01,3.559284575090489872e-02
5.864000000000000057e+01,4.708136376586209704e-02
5.867999999999999972e+01,3.675234144363870303e-02
5.871999999999999886e+01,4.000666776230592248e-02
5.875999999999999801e+01,3.749734449758960336e-02
5.879999999999999716e+01,3.951532739941779337e-02
5.884000000000000341e+01,4.791298810006362763e-02
5.888000000000000256e+01,5.425174199075799564e-02
5.892000000000000171e+01,4.474170721738970902e-02
5.896000000000000085e+01,5.231394326017983765e-02
5.900000000000000000e+01,5.597489889628760873e-02
5.903999999999999915e+01,4.769762776658551667e-02
5.907999999999999829e+01,5.773754072862359588e-02
5.911999999999999744e+01,5.110538607174364839e-02
5.915999999999999659e+01,5.641002165492869924e-02
5.920000000000000284e+01,5.574518312765078948e-02
5.924000000000000199e+01,5.363889074485413827e-02
5.928000000000000114e+01,4.247583639705290043e-02
5.932000000000000028e+01,4.983578231912617201e-02
5.935999999999999943e+01,6.007647453357516792e-02
5.939999999999999858e+01,5.426255306576758392e-02
5.943999999999999773e+01,4.947700478471920432e-02
5.947999999999999687e+01,5.004203082055347362e-02
5.952000000000000313e+01,5.616344980697674655e-02
5.956000000000000227e+01,4.725934877078997315e-02
5.960000000000000142e+01,5.770152106596008329e-02
5.964000000000000057e+01,5.414726798039552758e-02
5.967999999999999972e+01,5.450285288239548748e-02
5.971999999999999886e+01,5.424025453478691777e-02
5.975999999999999801e+01,4.759653695147176428e-02
5.979999999999999716e+01,4.692084713058633505e-02
5.984000000000000341e+01,5.118408895691192034e-02
5.988000000000000256e+01,5.688733681737982023e-02
5.992000000000000171e+01,5.703273997696677727e-02
5.996000000000000085e+01,5.841232906364621225e-02
