2.003999999999999915e+01,1.635903685836387345e-02
2.007999999999999829e+01,2.465728640889210815e-02
2.012000000000000099e+01,2.028251805677950062e-02
2.016000000000000014e+01,2.548037837410446760e-02
2.019999999999999929e+01,1.315162324258187243e-02
2.023999999999999844e+01,1.403569189410900676e-02
2.028000000000000114e+01,1.984102395713785438e-02
2.032000000000000028e+01,1.499566535170583637e-02
2.035999999999999943e+01,1.756577737284033963e-02
2.039999999999999858e+01,1.609148016477592383e-02
2.044000000000000128e+01,1.738128919563946759e-02
2.048000000000000043e+01,1.112131250821233805e-02
2.051999999999999957e+01,1.827638667031660641e-02
2.055999999999999872e+01,2.017364917062789906e-02
2.060000000000000142e+01,1.708274335027102145e-02
2.064000000000000057e+01,1.062153360748463969e-02
2.067999999999999972e+01,2.101333492867836147e-02
2.071999999999999886e+01,2.399016741550532086e-02
2.076000000000000156e+01,1.490066755062485412e-02
2.080000000000000071e+01,1.706905875180836016e-02
2.083999999999999986e+01,1.876581695186757895e-02
2.087999999999999901e+01,1.958647496337047322e-02
2.092000000000000171e+01,1.292474873616139205e-02
2.096000000000000085e+01,2.284638326942423081e-02
2.100000000000000000e+01,1.753336074497477068e-02
2.103999999999999915e+01,2.496126722762699590e-02
2.107999999999999829e+01,1.412101753346498012e-02
2.112000000000000099e+01,2.431325460705890951e-02
2.116000000000000014e+01,2.533782589876109811e-02
2.119999999999999929e+01,1.766660790826349303e-02
2.123999999999999844e+01,1.747825245063415467e-02
2.128000000000000114e+01,2.396382602130679371e-02
2.132000000000000028e+01,1.164194977053226512e-02
2.135999999999999943e+01,1.590342557725057254e-02
2.139999999999999858e+01,9.514187217464451299e-03
2.144000000000000128e+01,1.741632337748193204e-02
2.148000000000000043e+01,1.426327731326508357e-02
2.151999999999999957e+01,1.502030188847941310e-02
2.155999999999999872e+01,1.995704044424987528e-02
2.160000000000000142e+01,1.956853365762602215e-02
2.164000000000000057e+01,1.331549223546444650e-02
2.167999999999999972e+01,1.184886165866649160e-02
2.171999999999999886e+01,1.732579474831632757e-02
2.176000000000000156e+01,1.808417849008146089e-02
2.180000000000000071e+01,2.005618466496487604e-02
2.183999999999999986e+01,2.115206976414210974e-02
2.187999999999999901e+01,1.382179499747790419e-02
2.192000000000000171e+01,9.929704797276032655e-03
2.196000000000000085e+01,1.291376198887886871e-02
2.200000000000000000e+01,1.387570672503717767e-02
2.203999999999999915e+01,1.659055709537184120e-02
2.207999999999999829e+01,1.236228641120067605e-02
2.212000000000000099e+01,5.640023290701495946e-03
2.216000000000000014e+01,1.368099639463336327e-02
2.219999999999999929e+01,1.862127584594014049e-02
2.223999999999999844e+01,1.857335129436447560e-02
2.228000000000000114e+01,1.448097660958828740e-02
2.232000000000000028e+01,1.557946516254334057e-02
2.235999999999999943e+01,1.168974710172228544e-02
2.239999999999999858e+01,1.359759001373785949e-02
2.244000000000000128e+01,1.914583933691006365e-02
2.248000000000000043e+01,1.957105732970106093e-02
2.251999999999999957e+01,1.925496155743289597e-02
2.255999999999999872e+01,1.846719536123045749e-02
2.260000000000000142e+01,1.532024839083645854e-02
2.264000000000000057e+01,1.419583821157290732e-02
2.267999999999999972e+01,1.388056500173947411e-02
2.271999999999999886e+01,1.194762998823339396e-02
2.276000000000000156e+01,1.082383020356154218e-02
2.280000000000000071e+01,2.116011112862540774e-02
2.283999999999999986e+01,8.172368619590197891e-03
2.287999999999999901e+01,1.817199511801806736e-02
2.292000000000000171e+01,1.367844436584662177e-02
2.296000000000000085e+01,1.430833187378425034e-02
2.300000000000000000e+01,1.979201256011017124e-02
2.303999999999999915e+01,1.644504182482122226e-02
2.307999999999999829e+01,9.997358290353152571e-03
2.312000000000000099e+01,2.491917327302414081e-02
2.316000000000000014e+01,6.337888878003404211e-03
2.319999999999999929e+01,7.777880202412035954e-03
2.323999999999999844e+01,1.191450579203949187e-02
2.328000000000000114e+01,8.501284742522678337e-03
2.332000000000000028e+01,1.290793623466132342e-02
2.335999999999999943e+01,1.380940251840147986e-02
2.339999999999999858e+01,1.322801430911588368e-02
2.344000000000000128e+01,1.493878969642539224e-02
2.348000000000000043e+01,1.691939622436131399e-02
2.351999999999999957e+01,1.869795565263593362e-02
2.355999999999999872e+01,1.312889550824803894e-02
2.360000000000000142e+01,1.598640128913155281e-02
2.364000000000000057e+01,1.493424945239696378e-02
2.367999999999999972e+01,9.635383863467954224e-03
2.371999999999999886e+01,1.802114371166051512e-02
2.376000000000000156e+01,1.400345067152419451e-02
2.380000000000000071e+01,1.463730024525100246e-02
2.383999999999999986e+01,1.486686259836616716e-02
2.387999999999999901e+01,1.084970684779735378e-02
2.392000000000000171e+01,1.788814112148860713e-02
2.396000000000000085e+01,1.104007499253622550e-02
2.400000000000000000e+01,1.342749872014440370e-02
2.403999999999999915e+01,1.305124402570223205e-02
2.407999999999999829e+01,1.105729793745852986e-02
2.412000000000000099e+01,1.627650750921099190e-02
2.416000000000000014e+01,1.023824338820217283e-02
2.419999999999999929e+01,1.303099845513028265e-02
2.423999999999999844e+01,1.292524864280708910e-02
2.428000000000000114e+01,1.854960784646316960e-02
2.432000000000000028e+01,8.197716176268016533e-03
2.435999999999999943e+01,1.220454654698482043e-02
2.439999999999999858e+01,1.324545750440303711e-02
2.444000000000000128e+01,1.003963817396656168e-02
2.448000000000000043e+01,7.238450332420200313e-03
2.451999999999999957e+01,1.097629891933398633e-02
2.455999999999999872e+01,1.457948883169658469e-02
2.460000000000000142e+01,1.056539233222830373e-02
2.464000000000000057e+01,1.430372860172890274e-02
2.467999999999999972e+01,2.605094587542552010e-03
2.471999999999999886e+01,8.433494265804539550e-03
2.476000000000000156e+01,4.285217201094840452e-03
2.480000000000000071e+01,1.564164050256686145e-02
2.483999999999999986e+01,1.459458741766650469e-02
2.487999999999999901e+01,3.705677084612068323e-03
2.492000000000000171e+01,1.816347822377665719e-02
2.496000000000000085e+01,1.657760351146774988e-02
2.500000000000000000e+01,1.842984635268228588e-02
2.503999999999999915e+01,1.178844952166500232e-02
2.507999999999999829e+01,8.585168503575331400e-03
2.512000000000000099e+01,1.596557403081871190e-02
2.516000000000000014e+01,8.785342517924239758e-03
2.519999999999999929e+01,1.003164211838486301e-02
2.523999999999999844e+01,1.019951350925016320e-02
2.528000000000000114e+01,5.581347913159227445e-03
2.532000000000000028e+01,1.902949137789348988e-02
2.535999999999999943e+01,8.412034998347939566e-03
2.539999999999999858e+01,1.289479961338136325e-02
2.544000000000000128e+01,4.704430576151026958e-03
2.548000000000000043e+01,1.026605973579000630e-02
2.551999999999999957e+01,1.171575721524222360e-02
2.555999999999999872e+01,3.997693180032881044e-03
2.560000000000000142e+01,1.697496317493535703e-02
2.564000000000000057e+01,1.087504514479384517e-02
2.567999999999999972e+01,2.550701433233216499e-03
2.571999999999999886e+01,1.033773754670377389e-02
2.576000000000000156e+01,1.111416148540531230e-02
2.580000000000000071e+01,1.020544555463959689e-02
2.583999999999999986e+01,1.313929521827541212e-02
2.587999999999999901e+01,1.472505853612662494e-02
2.592000000000000171e+01,3.233211441005030828e-03
2.596000000000000085e+01,1.102105843334458268e-02
2.600000000000000000e+01,1.058488907772525689e-02
2.603999999999999915e+01,1.129483885079030601e-02
2.607999999999999829e+01,8.836599499477515440e-03
2.612000000000000099e+01,9.074931751934182944e-03
2.616000000000000014e+01,4.662029976591985057e-03
2.619999999999999929e+01,4.968029650094116234e-03
2.623999999999999844e+01,5.139334096532948912e-03
2.628000000000000114e+01,1.791663143533620689e-02
2.632000000000000028e+01,3.729632769915143010e-03
2.635999999999999943e+01,8.215620013274924430e-03
2.639999999999999858e+01,1.148833170268868421e-02
2.644000000000000128e+01,4.986563255185700108e-03
2.648000000000000043e+01,4.956377538689711419e-03
2.651999999999999957e+01,5.735245243024702719e-03
2.655999999999999872e+01,3.798270537565461512e-04
2.660000000000000142e+01,1.147282480724399513e-02
2.664000000000000057e+01,8.948908059550734345e-03
2.667999999999999972e+01,1.127870442283837593e-02
2.671999999999999886e+01,1.057511984269300480e-02
2.676000000000000156e+01,1.162433820157091069e-02
2.680000000000000071e+01,1.415671441775134300e-02
2.683999999999999986e+01,1.520616129528600327e-02
2.687999999999999901e+01,7.155228991183863740e-03
2.692000000000000171e+01,1.096875407326702336e-02
2.696000000000000085e+01,2.159090670706071205e-02
2.700000000000000000e+01,1.502335120564095641e-02
2.703999999999999915e+01,1.957872889810015338e-02
2.707999999999999829e+01,1.146093725608132545e-02
2.712000000000000099e+01,1.251115653453063747e-02
2.716000000000000014e+01,1.302219425193061782e-02
2.719999999999999929e+01,9.286441630920268600e-03
2.723999999999999844e+01,1.330306520951479027e-02
2.728000000000000114e+01,1.185949775770081017e-02
2.732000000000000028e+01,1.344953106499748204e-02
2.735999999999999943e+01,1.409591214262106984e-02
2.739999999999999858e+01,1.427051749026358486e-02
2.744000000000000128e+01,1.269253623336894995e-02
2.748000000000000043e+01,1.219323172157826124e-02
2.751999999999999957e+01,1.513198993454289293e-02
2.755999999999999872e+01,1.362171681784895595e-02
2.760000000000000142e+01,1.575173784388158790e-02
2.764000000000000057e+01,1.350013685251550896e-02
2.767999999999999972e+01,1.394507352330050590e-02
2.771999999999999886e+01,7.446766427574729591e-03
2.776000000000000156e+01,1.328477581176805943e-02
2.780000000000000071e+01,1.453892653880402633e-02
2.783999999999999986e+01,2.475883936237874283e-02
2.787999999999999901e+01,1.960912333128956783e-02
2.792000000000000171e+01,2.167248028189537948e-02
2.796000000000000085e+01,1.962385246414204837e-02
2.800000000000000000e+01,2.249632009039425826e-02
2.803999999999999915e+01,2.415547648048626747e-02
2.807999999999999829e+01,2.534284234553272827e-02
2.812000000000000099e+01,2.949638051087601770e-02
2.816000000000000014e+01,3.102097271919583218e-02
2.819999999999999929e+01,3.119742810445239045e-02
2.823999999999999844e+01,4.391242268462022119e-02
2.828000000000000114e+01,5.399846869687085354e-02
2.832000000000000028e+01,6.091627684806084908e-02
2.835999999999999943e+01,7.477750419624602796e-02
2.839999999999999858e+01,1.023906662095532688e-01
2.844000000000000128e+01,1.258918330109264905e-01
2.848000000000000043e+01,1.566734716626796142e-01
2.851999999999999957e+01,1.926458386559882774e-01
2.855999999999999872e+01,2.298316810020688550e-01
2.860000000000000142e+01,2.651300893992615260e-01
2.864000000000000057e+01,2.939571113830814486e-01
2.867999999999999972e+01,2.806522991225698371e-01
2.871999999999999886e+01,2.640444181923072287e-01
2.876000000000000156e+01,2.292356250408877916e-01
2.880000000000000071e+01,1.897755404220075881e-01
2.883999999999999986e+01,1.575285087679704488e-01
2.887999999999999901e+01,1.264949455043218873e-01
2.892000000000000171e+01,9.101232132088597770e-02
2.896000000000000085e+01,7.912363333533237175e-02
2.900000000000000000e+01,6.089837320943620319e-02
2.903999999999999915e+01,4.907722906262524526e-02
2.907999999999999829e+01,4.507583213457109356e-02
2.912000000000000099e+01,4.289459785081935900e-02
2.916000000000000014e+01,2.986024740420204632e-02
2.919999999999999929e+01,3.024075895247027926e-02
2.923999999999999844e+01,2.482398156145397550e-02
2.928000000000000114e+01,2.567649282202410371e-02
2.932000000000000028e+01,2.295627814695173907e-02
2.935999999999999943e+01,1.989906720301216903e-02
2.939999999999999858e+01,1.677450333133026494e-02
2.944000000000000128e+01,1.904288094291912287e-02
2.948000000000000043e+01,2.036756019904586296e-02
2.951999999999999957e+01,1.710834337520517057e-02
2.955999999999999872e+01,1.452329172384315449e-02
2.960000000000000142e+01,9.376673837588681004e-03
2.964000000000000057e+01,1.494846625871502042e-02
2.967999999999999972e+01,1.189169594734088529e-02
2.971999999999999886e+01,8.026044164428555380e-03
2.976000000000000156e+01,1.433951165515780918e-02
2.980000000000000071e+01,1.155253643250302512e-02
2.983999999999999986e+01,1.112499661163378339e-02
2.987999999999999901e+01,7.731418146652561940e-03
2.992000000000000171e+01,1.040488124992415206e-02
2.996000000000000085e+01,6.943984484270485959e-03
3.000000000000000000e+01,4.696531740663970576e-03
3.003999999999999915e+01,9.931750064386081142e-03
3.007999999999999829e+01,5.729464318360273124e-03
3.012000000000000099e+01,9.818780533335560654e-03
3.016000000000000014e+01,3.998713567977311110e-03
3.019999999999999929e+01,1.038008788865441880e-02
3.023999999999999844e+01,1.022262993118675141e-02
3.028000000000000114e+01,3.930805142410557194e-03
3.032000000000000028e+01,2.020736897515763939e-03
3.035999999999999943e+01,4.694657484771599248e-03
3.039999999999999858e+01,1.556317841340855586e-04
3.044000000000000128e+01,5.795710562073742508e-03
3.048000000000000043e+01,1.028983606853651513e-02
3.051999999999999957e+01,1.040227689615126801e-02
3.055999999999999872e+01,1.212025316154644603e-03
3.060000000000000142e+01,7.863403173421648282e-03
3.064000000000000057e+01,1.121167058663798295e-02
3.067999999999999972e+01,1.213317037262974518e-02
3.071999999999999886e+01,7.594404282592880431e-03
3.076000000000000156e+01,7.369974110304792700e-03
3.080000000000000071e+01,0.000000000000000000e+00
3.083999999999999986e+01,4.292164828118519293e-03
3.087999999999999901e+01,8.584355580327787671e-03
3.092000000000000171e+01,1.193281664635026905e-02
3.096000000000000085e+01,5.304466073225358805e-03
3.100000000000000000e+01,8.383330424517087751e-03
3.103999999999999915e+01,1.072069563729533860e-02
3.107999999999999829e+01,1.454112558550005145e-02
3.112000000000000099e+01,1.168788200329463726e-02
3.116000000000000014e+01,7.081970878846679390e-03
3.119999999999999929e+01,9.756472424520894540e-03
3.123999999999999844e+01,1.323992469587301560e-02
3.128000000000000114e+01,7.218435735684367201e-03
3.132000000000000028e+01,1.366800790461239826e-02
3.135999999999999943e+01,5.421986031515596723e-03
3.139999999999999858e+01,1.133229986833196937e-02
3.144000000000000128e+01,1.340019743229400005e-02
3.148000000000000043e+01,1.196273311738225466e-02
3.151999999999999957e+01,1.409806660314638464e-02
3.155999999999999872e+01,1.178428172946124376e-02
3.160000000000000142e+01,1.311070396871187940e-02
3.164000000000000057e+01,1.612241191778533353e-02
3.167999999999999972e+01,1.461758784366008410e-02
3.171999999999999886e+01,1.978646565008301134e-02
3.176000000000000156e+01,1.430440388284348954e-02
3.180000000000000071e+01,1.232772277133883411e-02
3.183999999999999986e+01,1.506982039667357706e-02
3.187999999999999901e+01,1.248644901305176642e-02
3.192000000000000171e+01,2.149778201695408397e-02
3.196000000000000085e+01,1.513939739580599624e-02
3.200000000000000000e+01,1.592658593311059925e-02
3.203999999999999915e+01,2.116290464434226332e-02
3.207999999999999829e+01,1.750096419377623544e-02
3.211999999999999744e+01,2.132164955504758930e-02
3.215999999999999659e+01,1.685077348962662341e-02
3.220000000000000284e+01,1.298659410416672447e-02
3.224000000000000199e+01,1.673986002536185028e-02
3.228000000000000114e+01,1.422389349464170220e-02
3.232000000000000028e+01,1.629187315147468187e-02
3.235999999999999943e+01,1.471964967716850488e-02
3.239999999999999858e+01,1.281036379135417139e-02
3.243999999999999773e+01,1.393456726651832837e-02
3.247999999999999687e+01,1.559805027670248603e-02
3.252000000000000313e+01,4.251190327614789641e-03
3.256000000000000227e+01,5.645008739831413984e-03
3.260000000000000142e+01,1.189241145893856454e-02
3.264000000000000057e+01,7.151800193550862661e-03
3.267999999999999972e+01,7.467004653024954600e-03
3.271999999999999886e+01,1.546705502843491453e-02
3.275999999999999801e+01,6.075038787165581468e-03
3.279999999999999716e+01,1.272683727534203342e-02
3.284000000000000341e+01,6.098641630440593958e-03
3.288000000000000256e+01,8.166454213118731070e-03
3.292000000000000171e+01,5.313241476228879046e-03
3.296000000000000085e+01,9.605581010641905948e-03
3.300000000000000000e+01,7.830905586344397498e-03
3.303999999999999915e+01,4.101288557235596016e-03
3.307999999999999829e+01,1.061812961989773950e-02
3.311999999999999744e+01,5.675068884500298651e-03
3.315999999999999659e+01,9.225777126030039813e-03
3.320000000000000284e+01,1.493361450575404932e-02
3.324000000000000199e+01,8.911903265101965219e-03
3.328000000000000114e+01,4.710264157769868815e-03
3.332000000000000028e+01,1.088990002613267165e-02
3.335999999999999943e+01,1.053063573311392200e-02
3.339999999999999858e+01,1.044098674684053492e-02
3.343999999999999773e+01,1.587901431975853248e-02
3.347999999999999687e+01,1.396920648613296165e-02
3.352000000000000313e+01,1.071114607982243117e-02
3.356000000000000227e+01,1.682318963458399527e-02
3.360000000000000142e+01,1.329541937481472022e-02
3.364000000000000057e+01,1.205959078567412843e-02
3.367999999999999972e+01,1.210453720402892251e-02
3.371999999999999886e+01,1.289096933673565537e-02
3.375999999999999801e+01,1.489076368348627756e-02
3.379999999999999716e+01,9.340482502742964224e-03
3.384000000000000341e+01,8.913402861077831391e-03
3.388000000000000256e+01,1.077825966825392279e-02
3.392000000000000171e+01,1.432835257827209073e-02
3.396000000000000085e+01,1.417079649237913339e-02
3.400000000000000000e+01,1.010335738171006838e-02
3.403999999999999915e+01,1.769798758563168040e-02
3.407999999999999829e+01,9.653209827291078793e-03
3.411999999999999744e+01,1.461872070005916860e-02
3.415999999999999659e+01,1.769667665253025352e-02
3.420000000000000284e+01,1.544911311876615879e-02
3.424000000000000199e+01,2.250422769815406052e-02
3.428000000000000114e+01,1.998692472080238619e-02
3.432000000000000028e+01,1.942449335473649813e-02
3.435999999999999943e+01,1.892942324969912327e-02
3.439999999999999858e+01,1.533339405117483713e-02
3.443999999999999773e+01,1.834359650008534487e-02
3.447999999999999687e+01,1.697202811065497141e-02
3.452000000000000313e+01,2.173481225807372824e-02
3.456000000000000227e+01,1.288050958532610708e-02
3.460000000000000142e+01,1.521638667300862814e-02
3.464000000000000057e+01,2.307991421094530635e-02
3.467999999999999972e+01,1.645000863069789529e-02
3.471999999999999886e+01,1.541516281296452864e-02
3.475999999999999801e+01,1.289721533759969133e-02
3.479999999999999716e+01,1.334529482278110774e-02
3.484000000000000341e+01,1.231027090973525577e-02
3.488000000000000256e+01,1.855557959940408105e-02
3.492000000000000171e+01,1.644185575896929541e-02
3.496000000000000085e+01,1.466512433651717164e-02
3.500000000000000000e+01,1.895532395448358207e-02
3.503999999999999915e+01,1.016771473155423343e-02
3.507999999999999829e+01,1.378367377688260315e-02
3.511999999999999744e+01,1.477053543335158335e-02
3.515999999999999659e+01,1.137561145641528305e-02
3.520000000000000284e+01,7.441330988550222923e-03
3.524000000000000199e+01,1.065255318500728937e-02
3.528000000000000114e+01,9.751631348588139445e-03
3.532000000000000028e+01,1.377164569165749246e-02
3.535999999999999943e+01,1.603890111120400905e-02
3.539999999999999858e+01,1.891278358687897496e-02
3.543999999999999773e+01,1.807898486562021373e-02
3.547999999999999687e+01,1.818886672417256711e-02
3.552000000000000313e+01,1.742232986513440884e-02
3.556000000000000227e+01,1.564455131249647274e-02
3.560000000000000142e+01,1.332740756595070762e-02
3.564000000000000057e+01,1.458297197939635755e-02
3.567999999999999972e+01,1.509693629977126514e-02
3.571999999999999886e+01,1.736350861243812771e-02
3.575999999999999801e+01,1.895589014429413174e-02
3.579999999999999716e+01,1.529012843085434531e-02
3.584000000000000341e+01,1.917432264440223702e-02
3.588000000000000256e+01,1.753072766063577120e-02
3.592000000000000171e+01,2.316744265183840260e-02
3.596000000000000085e+01,1.774866037096416160e-02
3.600000000000000000e+01,1.920572000732905654e-02
3.603999999999999915e+01,2.450512331212905889e-02
3.607999999999999829e+01,1.915349305109260991e-02
3.611999999999999744e+01,2.384602158061908603e-02
3.615999999999999659e+01,1.067453214815430179e-02
3.620000000000000284e+01,1.779367979972172262e-02
3.624000000000000199e+01,2.841811150395624416e-02
3.628000000000000114e+01,2.326826527383224832e-02
3.632000000000000028e+01,1.764644923729375217e-02
3.635999999999999943e+01,1.849600096817908060e-02
3.639999999999999858e+01,2.790666223471675519e-02
3.643999999999999773e+01,3.131764474977951490e-02
3.647999999999999687e+01,2.326865236175846424e-02
3.652000000000000313e+01,2.506157690275416169e-02
3.656000000000000227e+01,2.146151955708245490e-02
3.660000000000000142e+01,2.042298369141703346e-02
3.664000000000000057e+01,1.904729316266521796e-02
3.667999999999999972e+01,2.232286501185031316e-02
3.671999999999999886e+01,9.824149353399877840e-03
3.675999999999999801e+01,1.478479437487188915e-02
3.679999999999999716e+01,2.385741074054156460e-02
3.684000000000000341e+01,2.018923436618807327e-02
3.688000000000000256e+01,2.029597233115798191e-02
3.692000000000000171e+01,2.188564796805980706e-02
3.696000000000000085e+01,1.727340038104687933e-02
3.700000000000000000e+01,1.940215084811398524e-02
3.703999999999999915e+01,1.930622846915630228e-02
3.707999999999999829e+01,1.786197606099992202e-02
3.711999999999999744e+01,1.567609222904810598e-02
3.715999999999999659e+01,1.928744823000507272e-02
3.720000000000000284e+01,1.602276525670285820e-02
3.724000000000000199e+01,2.111694038422987779e-02
3.728000000000000114e+01,1.488594530842631859e-02
3.732000000000000028e+01,1.640710711715492182e-02
3.735999999999999943e+01,1.691698806887792159e-02
3.739999999999999858e+01,1.533701044760632515e-02
3.743999999999999773e+01,1.375691602156866276e-02
3.747999999999999687e+01,1.655842235608697560e-02
3.752000000000000313e+01,1.875311066954218897e-02
3.756000000000000227e+01,1.252129796037621152e-02
3.760000000000000142e+01,1.397422499080133718e-02
3.764000000000000057e+01,1.293282190931030647e-02
3.767999999999999972e+01,8.048866788491331262e-03
3.771999999999999886e+01,1.644476618339217600e-02
3.775999999999999801e+01,1.809943652557455263e-02
3.779999999999999716e+01,1.436109800185437005e-02
3.784000000000000341e+01,8.532891331862637110e-03
3.788000000000000256e+01,1.079388462651081730e-02
3.792000000000000171e+01,1.554895962847864001e-02
3.796000000000000085e+01,8.574383314917291554e-03
3.800000000000000000e+01,1.656493174638267243e-02
3.803999999999999915e+01,1.929728819586945532e-02
3.807999999999999829e+01,1.077186808892318867e-02
3.811999999999999744e+01,1.060528693625215589e-02
3.815999999999999659e+01,1.158456121199949278e-02
3.820000000000000284e+01,1.552978847297094810e-02
3.824000000000000199e+01,1.987934784035233146e-02
3.828000000000000114e+01,1.000503997416070899e-02
3.832000000000000028e+01,1.428691725634426320e-02
3.835999999999999943e+01,1.358023980558872683e-02
3.839999999999999858e+01,1.395200150860839011e-02
3.843999999999999773e+01,1.594148991795091286e-02
3.847999999999999687e+01,1.152678887349108811e-02
3.852000000000000313e+01,2.261648968303072577e-02
3.856000000000000227e+01,1.489836557272498224e-02
3.860000000000000142e+01,1.938149998589401221e-02
3.864000000000000057e+01,1.961759515545119167e-02
3.867999999999999972e+01,2.106694549240963055e-02
3.871999999999999886e+01,1.341565903955061617e-02
3.875999999999999801e+01,1.553882972616985395e-02
3.879999999999999716e+01,1.833596454645108551e-02
3.884000000000000341e+01,1.574006787308419170e-02
3.888000000000000256e+01,2.184004888261072835e-02
3.892000000000000171e+01,2.167065297076936278e-02
3.896000000000000085e+01,2.696140246415243066e-02
3.900000000000000000e+01,2.294927591706562992e-02
3.903999999999999915e+01,2.250978355464810371e-02
3.907999999999999829e+01,2.415988134377676164e-02
3.911999999999999744e+01,2.729286893845243520e-02
3.915999999999999659e+01,2.422388544282842032e-02
3.920000000000000284e+01,2.904184003344630755e-02
3.924000000000000199e+01,2.833193232172560513e-02
3.928000000000000114e+01,3.132947567859813154e-02
3.932000000000000028e+01,2.495672497976181986e-02
3.935999999999999943e+01,3.644774470861810584e-02
3.939999999999999858e+01,3.486086073410672725e-02
3.943999999999999773e+01,3.192559538282010306e-02
3.947999999999999687e+01,3.445046412288512577e-02
3.952000000000000313e+01,2.275143865014199809e-02
3.956000000000000227e+01,2.716349187935397647e-02
3.960000000000000142e+01,2.530615339213357698e-02
3.964000000000000057e+01,3.227949815785777915e-02
3.967999999999999972e+01,3.257898314941964218e-02
3.971999999999999886e+01,3.213678014782211934e-02
3.975999999999999801e+01,2.771715774569409596e-02
3.979999999999999716e+01,3.819520987233127746e-02
3.984000000000000341e+01,3.235961818525060624e-02
3.988000000000000256e+01,3.609622611073971810e-02
3.992000000000000171e+01,3.154110377174244167e-02
3.996000000000000085e+01,3.959167668322522565e-02
4.000000000000000000e+01,3.584514284112987059e-02
4.003999999999999915e+01,4.018776196758743618e-02
4.007999999999999829e+01,3.799133472261498334e-02
4.011999999999999744e+01,4.186172711992888068e-02
4.015999999999999659e+01,5.463020250917028503e-02
4.020000000000000284e+01,5.775872048472610598e-02
4.024000000000000199e+01,5.805579651472334013e-02
4.028000000000000114e+01,7.143043820280717271e-02
4.032000000000000028e+01,7.772673987482804636e-02
4.035999999999999943e+01,8.766305806454292859e-02
4.039999999999999858e+01,9.483534188036323032e-02
4.043999999999999773e+01,1.114449910188712034e-01
4.047999999999999687e+01,1.397839804068624903e-01
4.052000000000000313e+01,1.598986375287544115e-01
4.056000000000000227e+01,2.150668574476030659e-01
4.060000000000000142e+01,2.519664964842586174e-01
4.064000000000000057e+01,3.205491439344904103e-01
4.067999999999999972e+01,4.292411805349621301e-01
4.071999999999999886e+01,5.543139148101723368e-01
4.075999999999999801e+01,7.007557638011442380e-01
4.079999999999999716e+01,8.351982554740129405e-01
4.084000000000000341e+01,9.335756430889984303e-01
4.088000000000000256e+01,1.000000000000000000e+00
4.092000000000000171e+01,9.510164419013739101e-01
4.096000000000000085e+01,8.663722434511051951e-01
4.100000000000000000e+01,7.584036264514875114e-01
4.103999999999999915e+01,6.184819752666941284e-01
4.107999999999999829e+01,4.865820433698523906e-01
4.111999999999999744e+01,3.821182131131035664e-01
4.115999999999999659e+01,2.941698930635276987e-01
4.120000000000000284e+01,2.304219423763756436e-01
4.124000000000000199e+01,1.849421875300487628e-01
4.128000000000000114e+01,1.553712408042997872e-01
4.132000000000000028e+01,1.278898354934142334e-01
4.135999999999999943e+01,1.113962297040453353e-01
4.139999999999999858e+01,9.139704620192157236e-02
4.143999999999999773e+01,8.049815100075935481e-02
4.147999999999999687e+01,7.418300268892942528e-02
4.152000000000000313e+01,6.496897352915212420e-02
4.156000000000000227e+01,6.795613849080445190e-02
4.160000000000000142e+01,5.826981819983833438e-02
4.164000000000000057e+01,6.105433450112878607e-02
4.167999999999999972e+01,5.446850539913387218e-02
4.171999999999999886e+01,4.923068742761059491e-02
4.175999999999999801e+01,4.911589867617981858e-02
4.179999999999999716e+01,5.500048196166758968e-02
4.184000000000000341e+01,4.511066634138768267e-02
4.188000000000000256e+01,4.256844207454432705e-02
4.192000000000000171e+01,3.888001563102252284e-02
4.196000000000000085e+01,3.269716508341050792e-02
4.200000000000000000e+01,2.826678589131897609e-02
4.203999999999999915e+01,2.693709824156379287e-02
4.207999999999999829e+01,2.628130336104220893e-02
4.211999999999999744e+01,2.319849194809447609e-02
4.215999999999999659e+01,2.935077527645734222e-02
4.220000000000000284e+01,2.640234609908479260e-02
4.224000000000000199e+01,2.284699620549605903e-02
4.228000000000000114e+01,2.185304420961072663e-02
4.232000000000000028e+01,1.816242711838695137e-02
4.235999999999999943e+01,1.662873986713660213e-02
4.239999999999999858e+01,2.325156528971834835e-02
4.243999999999999773e+01,1.645936560201298124e-02
4.247999999999999687e+01,1.526205683902758653e-02
4.252000000000000313e+01,1.709801812194798598e-02
4.256000000000000227e+01,1.172076854641120915e-02
4.260000000000000142e+01,1.288216202468032458e-02
4.264000000000000057e+01,1.748128925509568818e-02
4.267999999999999972e+01,1.688953460183084329e-02
4.271999999999999886e+01,1.953327880154934540e-02
4.275999999999999801e+01,2.028928096692072039e-02
4.279999999999999716e+01,1.288831231206777513e-02
4.284000000000000341e+01,1.323938044063574515e-02
4.288000000000000256e+01,1.729782131098527020e-02
4.292000000000000171e+01,1.609796402301146012e-02
4.296000000000000085e+01,1.334741561347945610e-02
4.300000000000000000e+01,1.376494891198974668e-02
4.303999999999999915e+01,1.209250092550046701e-02
4.307999999999999829e+01,1.810467344778898813e-02
4.311999999999999744e+01,1.407235870751057626e-02
4.315999999999999659e+01,1.314071114122711617e-02
4.320000000000000284e+01,1.214141039442320075e-02
4.324000000000000199e+01,1.120927770251234530e-02
4.328000000000000114e+01,1.627648484649747013e-02
4.332000000000000028e+01,8.198291945064280217e-03
4.335999999999999943e+01,1.380429716448008416e-02
4.339999999999999858e+01,1.064661903350172696e-02
4.343999999999999773e+01,7.556104605926856552e-03
4.347999999999999687e+01,1.241984619557348450e-02
4.352000000000000313e+01,9.935533933901735323e-03
4.356000000000000227e+01,1.446172120887597584e-02
4.360000000000000142e+01,1.345995131903968828e-02
4.364000000000000057e+01,1.474990552535520097e-02
4.367999999999999972e+01,1.260164346479080051e-02
4.371999999999999886e+01,1.213840428408114076e-02
4.375999999999999801e+01,1.255125447866002261e-02
4.379999999999999716e+01,1.471653686535351509e-02
4.384000000000000341e+01,1.229761160542873488e-02
4.388000000000000256e+01,1.378827048840486173e-02
4.392000000000000171e+01,1.433491683837425680e-02
4.396000000000000085e+01,1.575764821214264977e-02
4.400000000000000000e+01,1.273099056381249775e-02
4.403999999999999915e+01,1.435543515860423711e-02
4.407999999999999829e+01,8.362169506484136774e-03
4.411999999999999744e+01,6.615538039755996906e-03
4.415999999999999659e+01,9.452595152400324399e-03
4.420000000000000284e+01,1.134563363995254662e-02
4.424000000000000199e+01,1.330581842495012941e-02
4.428000000000000114e+01,1.149071862432072232e-02
4.432000000000000028e+01,9.136063904839645741e-03
4.435999999999999943e+01,1.069098288468459286e-02
4.439999999999999858e+01,1.655994101069181365e-02
4.443999999999999773e+01,1.204732789002269273e-02
4.447999999999999687e+01,1.238804059776556395e-02
4.452000000000000313e+01,1.535751351938467214e-02
4.456000000000000227e+01,1.077667680337278215e-02
4.460000000000000142e+01,9.363886983486847601e-03
4.464000000000000057e+01,1.300665266938837161e-02
4.467999999999999972e+01,6.672308203960239381e-03
4.471999999999999886e+01,1.031452436218919556e-02
4.475999999999999801e+01,1.078814496691751258e-02
4.479999999999999716e+01,7.553880725001755475e-03
4.484000000000000341e+01,8.026946580270069923e-03
4.488000000000000256e+01,1.254439692670302267e-02
4.492000000000000171e+01,1.375842613273231888e-02
4.496000000000000085e+01,1.126456701092589698e-02
4.500000000000000000e+01,1.207356818797777030e-02
4.503999999999999915e+01,1.436533036648636116e-02
4.507999999999999829e+01,9.848293174903726202e-03
4.511999999999999744e+01,1.031938999267793811e-02
4.515999999999999659e+01,1.092502414390132508e-02
4.520000000000000284e+01,1.139555054685320763e-02
4.524000000000000199e+01,1.301177833549379929e-02
4.528000000000000114e+01,9.234834512523151448e-03
4.532000000000000028e+01,1.105271982312105473e-02
4.535999999999999943e+01,9.836818631461080251e-03
4.539999999999999858e+01,7.542050600060364041e-03
4.543999999999999773e+01,9.898354351354802724e-03
4.547999999999999687e+01,9.220868989497661011e-03
4.552000000000000313e+01,6.790403648449153291e-03
4.556000000000000227e+01,1.164003854057401102e-02
4.560000000000000142e+01,7.793353268775503849e-03
4.564000000000000057e+01,1.533884071375171340e-02
4.567999999999999972e+01,1.034557624143432955e-02
4.571999999999999886e+01,1.627260537530602832e-02
4.575999999999999801e+01,7.301494001339075071e-03
4.579999999999999716e+01,9.318085545821096910e-03
4.584000000000000341e+01,1.221072121010046037e-02
4.588000000000000256e+01,1.038428273685688269e-02
4.592000000000000171e+01,1.239997296846524939e-02
4.596000000000000085e+01,1.428053891614187651e-02
4.600000000000000000e+01,1.312730443679411586e-02
4.603999999999999915e+01,9.546968135825261922e-03
4.607999999999999829e+01,1.210073285561024878e-02
4.611999999999999744e+01,1.236221611888974059e-02
4.615999999999999659e+01,1.410643601528452362e-02
4.620000000000000284e+01,6.952089534720238412e-03
4.624000000000000199e+01,1.698725326205154096e-02
4.628000000000000114e+01,1.279837569622832572e-02
4.632000000000000028e+01,1.171009655086538599e-02
4.635999999999999943e+01,1.075632863001439385e-02
4.639999999999999858e+01,1.539736634468841063e-02
4.643999999999999773e+01,1.087018824919316548e-02
4.647999999999999687e+01,7.960561930141338630e-03
4.652000000000000313e+01,1.131984916427774233e-02
4.656000000000000227e+01,1.049933588867230615e-02
4.660000000000000142e+01,6.240542814439719622e-03
4.664000000000000057e+01,1.121674700815205282e-02
4.667999999999999972e+01,1.194573702837312471e-02
4.671999999999999886e+01,9.775733061918865860e-03
4.675999999999999801e+01,1.050408478408081277e-02
4.679999999999999716e+01,9.007551307528522538e-03
4.684000000000000341e+01,1.485850126747225580e-02
4.688000000000000256e+01,1.295685795393924922e-02
4.692000000000000171e+01,2.399781372332884452e-02
4.696000000000000085e+01,1.083787758185714503e-02
4.700000000000000000e+01,1.297992563266145601e-02
4.703999999999999915e+01,1.026805220159210386e-02
4.707999999999999829e+01,1.018488328533295219e-02
4.711999999999999744e+01,1.144960800932793253e-02
4.715999999999999659e+01,9.208629697669364414e-03
4.720000000000000284e+01,8.450365391380512681e-03
4.724000000000000199e+01,1.503957581860862133e-02
4.728000000000000114e+01,8.146244776647122016e-03
4.732000000000000028e+01,1.257763884609256790e-02
4.735999999999999943e+01,1.296403710554938984e-02
4.739999999999999858e+01,1.335010185606117297e-02
4.743999999999999773e+01,1.211796695879341357e-02
4.747999999999999687e+01,1.432346050762507532e-02
4.752000000000000313e+01,1.032680107389436636e-02
4.756000000000000227e+01,9.498124134244480266e-03
4.760000000000000142e+01,1.015215249698522663e-02
4.764000000000000057e+01,1.013173160043657518e-02
4.767999999999999972e+01,1.233553584709533822e-02
4.771999999999999886e+01,9.415759605393276416e-03
4.775999999999999801e+01,8.855028872014204799e-03
4.779999999999999716e+01,1.557434963512568937e-02
4.784000000000000341e+01,1.534998887187893381e-02
4.788000000000000256e+01,1.155249835476060416e-02
4.792000000000000171e+01,7.687251961968752899e-03
4.796000000000000085e+01,6.652924096000191467e-03
4.800000000000000000e+01,1.168524442363020992e-02
4.803999999999999915e+01,1.105468887767059073e-02
4.807999999999999829e+01,9.749674499144584880e-03
4.811999999999999744e+01,1.430907254475636235e-02
4.815999999999999659e+01,9.295751040254682934e-03
4.820000000000000284e+01,1.344998180922384219e-02
4.824000000000000199e+01,9.244890238886171660e-03
4.828000000000000114e+01,1.393770499000075887e-02
4.832000000000000028e+01,1.134977250690376478e-02
4.835999999999999943e+01,1.327802616904327597e-02
4.839999999999999858e+01,1.358805929625346749e-02
4.843999999999999773e+01,1.268433733537058239e-02
4.847999999999999687e+01,1.178025836749914575e-02
4.852000000000000313e+01,1.350485258371324042e-02
4.856000000000000227e+01,1.266746804382669171e-02
4.860000000000000142e+01,1.675073074452334762e-02
4.864000000000000057e+01,1.092420818725321416e-02
4.867999999999999972e+01,1.082726376423874710e-02
4.871999999999999886e+01,1.167371185242799432e-02
4.875999999999999801e+01,1.319390737010025551e-02
4.879999999999999716e+01,1.302846259700842120e-02
4.884000000000000341e+01,7.604590861502950189e-03
4.888000000000000256e+01,1.458398714147709010e-02
4.892000000000000171e+01,1.131653680712059462e-02
4.896000000000000085e+01,1.162150482355232654e-02
4.900000000000000000e+01,1.125199399056579785e-02
4.903999999999999915e+01,9.668715015017573591e-03
4.907999999999999829e+01,1.428688284073581505e-02
4.911999999999999744e+01,1.236580760769691659e-02
4.915999999999999659e+01,1.159034847115180365e-02
4.920000000000000284e+01,1.681410036641235034e-02
4.924000000000000199e+01,1.388074132348546090e-02
4.928000000000000114e+01,1.209299576615861620e-02
4.932000000000000028e+01,1.461918230835143259e-02
4.935999999999999943e+01,1.336997373708301989e-02
4.939999999999999858e+01,1.185074393055142797e-02
4.943999999999999773e+01,1.087042465272704608e-02
4.947999999999999687e+01,1.905762979884046207e-02
4.952000000000000313e+01,1.207696841768917534e-02
4.956000000000000227e+01,1.540981761842663382e-02
4.960000000000000142e+01,1.557396595961662959e-02
4.964000000000000057e+01,1.573773205517878249e-02
4.967999999999999972e+01,1.300243976202041830e-02
4.971999999999999886e+01,1.215427296259775046e-02
4.975999999999999801e+01,1.258653131091163647e-02
4.979999999999999716e+01,1.220947129813773277e-02
4.984000000000000341e+01,1.628115417672206661e-02
4.988000000000000256e+01,1.374616640803332304e-02
4.992000000000000171e+01,1.363758820443626563e-02
4.996000000000000085e+01,1.359603184568379530e-02
5.000000000000000000e+01,1.517195067715887066e-02
5.003999999999999915e+01,1.425326960436642566e-02
5.007999999999999829e+01,1.643510514403094883e-02
5.011999999999999744e+01,1.666162746167767703e-02
5.015999999999999659e+01,1.992125359832985429e-02
5.020000000000000284e+01,2.358495162231760700e-02
5.024000000000000199e+01,1.794552905212349128e-02
5.028000000000000114e+01,2.241736823988868879e-02
5.032000000000000028e+01,2.560800038270347190e-02
5.035999999999999943e+01,2.994422251307480437e-02
5.039999999999999858e+01,3.920105272062351237e-02
5.043999999999999773e+01,4.771596169517360042e-02
5.047999999999999687e+01,6.067959963631539000e-02
5.052000000000000313e+01,7.418212460812091680e-02
5.056000000000000227e+01,7.959492097476372763e-02
5.060000000000000142e+01,8.682741263573257040e-02
5.064000000000000057e+01,7.606074918115623973e-02
5.067999999999999972e+01,7.163031982164141942e-02
5.071999999999999886e+01,6.342446575853656621e-02
5.075999999999999801e+01,5.636419298000917844e-02
5.079999999999999716e+01,3.804586689031413949e-02
5.084000000000000341e+01,3.260264354149107480e-02
5.088000000000000256e+01,2.938357571204284341e-02
5.092000000000000171e+01,2.380471093748449257e-02
5.096000000000000085e+01,2.011294467742671260e-02
5.100000000000000000e+01,2.268999449719150477e-02
5.103999999999999915e+01,2.101973528099311192e-02
5.107999999999999829e+01,1.860754090702958566e-02
5.111999999999999744e+01,1.444224471216764595e-02
5.115999999999999659e+01,1.425378531884315472e-02
5.120000000000000284e+01,1.952520501958341509e-02
5.124000000000000199e+01,1.805510237721036360e-02
5.128000000000000114e+01,1.186580810709684901e-02
5.132000000000000028e+01,1.605739717861983176e-02
5.135999999999999943e+01,1.424898287754839364e-02
5.139999999999999858e+01,1.223791487917409888e-02
5.143999999999999773e+01,1.373180022026204185e-02
5.147999999999999687e+01,1.333775380205902937e-02
5.152000000000000313e+01,1.590937055987692514e-02
5.156000000000000227e+01,1.443590012642590598e-02
5.160000000000000142e+01,1.424281480700770840e-02
5.164000000000000057e+01,1.317296003994226916e-02
5.167999999999999972e+01,1.351831075202520466e-02
5.171999999999999886e+01,1.251501290587527480e-02
5.175999999999999801e+01,1.285950774542219885e-02
5.179999999999999716e+01,1.219240755041889855e-02
5.184000000000000341e+01,7.480214072061334984e-03
5.188000000000000256e+01,1.389041333258215702e-02
5.192000000000000171e+01,1.140192176354312865e-02
5.196000000000000085e+01,9.587108000154522663e-03
5.200000000000000000e+01,1.606342014481155003e-02
5.203999999999999915e+01,1.391068306043775904e-02
5.207999999999999829e+01,1.303832064652189066e-02
5.211999999999999744e+01,1.472714203702416881e-02
5.215999999999999659e+01,1.277532949892308360e-02
5.220000000000000284e+01,1.021637954042681554e-02
5.224000000000000199e+01,7.454757608371637145e-03
5.228000000000000114e+01,9.613702849492178001e-03
5.232000000000000028e+01,1.008693121363275075e-02
5.235999999999999943e+01,1.285169394898126941e-02
5.239999999999999858e+01,1.447002648959955923e-02
5.243999999999999773e+01,1.224548585096203387e-02
5.247999999999999687e+01,1.264953223691718878e-02
5.252000000000000313e+01,9.278114755876414044e-03
5.256000000000000227e+01,1.204065730732844716e-02
5.260000000000000142e+01,1.203890004402412284e-02
5.264000000000000057e+01,1.432867105984238741e-02
5.267999999999999972e+01,9.202777873265736291e-03
5.271999999999999886e+01,1.203093966509395304e-02
5.275999999999999801e+01,1.222962026668554178e-02
5.279999999999999716e+01,9.596585649175554816e-03
5.284000000000000341e+01,1.154705075639210661e-02
5.288000000000000256e+01,1.019392153392141391e-02
5.292000000000000171e+01,9.514449229951356043e-03
5.296000000000000085e+01,1.389035140980395856e-02
5.300000000000000000e+01,1.253585874627070017e-02
5.303999999999999915e+01,9.091167223261012800e-03
5.307999999999999829e+01,1.252194600028394382e-02
5.311999999999999744e+01,1.130090416871833842e-02
5.315999999999999659e+01,8.394127183916733764e-03
5.320000000000000284e+01,7.644044188355621910e-03
5.324000000000000199e+01,8.646187994602937826e-03
5.328000000000000114e+01,1.086126930951526563e-02
5.332000000000000028e+01,1.361517673423778309e-02
5.335999999999999943e+01,1.279583517427536517e-02
5.339999999999999858e+01,9.481820605021206924e-03
5.343999999999999773e+01,8.728961120354247760e-03
5.347999999999999687e+01,1.141359953710056191e-02
5.352000000000000313e+01,8.907120219433748223e-03
5.356000000000000227e+01,1.253457917681206728e-02
5.360000000000000142e+01,9.487875496356207652e-03
5.364000000000000057e+01,8.800089390430938102e-03
5.367999999999999972e+01,8.381477350211913313e-03
5.371999999999999886e+01,1.193964641246426754e-02
5.375999999999999801e+01,1.232902410418677992e-02
5.379999999999999716e+01,1.265051798644335236e-02
5.384000000000000341e+01,9.331341387584443647e-03
5.388000000000000256e+01,5.135346604395474475e-03
5.392000000000000171e+01,1.469073123626359230e-02
5.396000000000000085e+01,9.415208002077728178e-03
5.400000000000000000e+01,1.202630084390797667e-02
5.403999999999999915e+01,1.005296411315351364e-02
5.407999999999999829e+01,1.178675644076647606e-02
5.411999999999999744e+01,9.745050089467225188e-03
5.415999999999999659e+01,1.424173527587863607e-02
5.420000000000000284e+01,1.233388898141002214e-02
5.424000000000000199e+01,9.886271934208674256e-03
5.428000000000000114e+01,1.465115434238115771e-02
5.432000000000000028e+01,8.562373170304279218e-03
5.435999999999999943e+01,1.305664235579001749e-02
5.439999999999999858e+01,1.141601992032896182e-02
5.443999999999999773e+01,7.280701847830558029e-03
5.447999999999999687e+01,1.109940046062907540e-02
5.452000000000000313e+01,5.749707463080989088e-03
5.456000000000000227e+01,1.051118310161611343e-02
5.460000000000000142e+01,1.102527224767427781e-02
5.464000000000000057e+01,1.261744720655722310e-02
5.467999999999999972e+01,1.447877447369870854e-02
5.471999999999999886e+01,1.000296999894309188e-02
5.475999999999999801e+01,8.088291888943733784e-03
5.479999999999999716e+01,1.028519348908359457e-02
5.484000000000000341e+01,1.126820075346517645e-02
5.488000000000000256e+01,1.353152176745116460e-02
5.492000000000000171e+01,9.390295635194794224e-03
5.496000000000000085e+01,6.596792564802676610e-03
5.500000000000000000e+01,1.148765065441192251e-02
5.503999999999999915e+01,9.906547934029424907e-03
5.507999999999999829e+01,1.304371830740203540e-02
5.511999999999999744e+01,1.004598139446552518e-02
5.515999999999999659e+01,1.190133794039970570e-02
5.520000000000000284e+01,1.247538126503874682e-02
5.524000000000000199e+01,1.257704313235302046e-02
5.528000000000000114e+01,1.186926740776618125e-02
5.532000000000000028e+01,1.014982006241323120e-02
5.535999999999999943e+01,1.119371918591499301e-02
5.539999999999999858e+01,9.742901785229631309e-03
5.543999999999999773e+01,1.314517175132959119e-02
5.547999999999999687e+01,9.940649228449432301e-03
5.552000000000000313e+01,1.273520023030554060e-02
5.556000000000000227e+01,1.013635595398816591e-02
5.560000000000000142e+01,1.589597031176043923e-02
5.564000000000000057e+01,9.184027100915814756e-03
5.567999999999999972e+01,1.089795183642071688e-02
5.571999999999999886e+01,9.510453609654001203e-03
5.575999999999999801e+01,1.418943473869179427e-02
5.579999999999999716e+01,1.421653694918126841e-02
5.584000000000000341e+01,1.046810305794848746e-02
5.588000000000000256e+01,1.089863643166714274e-02
5.592000000000000171e+01,1.227240566296612656e-02
5.596000000000000085e+01,1.276931145444387683e-02
5.600000000000000000e+01,1.353534083434923541e-02
5.603999999999999915e+01,1.342450503383753845e-02
5.607999999999999829e+01,1.122340423120842499e-02
5.611999999999999744e+01,1.185304441462947493e-02
5.615999999999999659e+01,1.106652838389421759e-02
5.620000000000000284e+01,1.405450633859299525e-02
5.624000000000000199e+01,1.515444896854978990e-02
5.628000000000000114e+01,1.059133644354799154e-02
5.632000000000000028e+01,1.195986898446862144e-02
5.635999999999999943e+01,1.440644991540400086e-02
5.639999999999999858e+01,1.766143415463342775e-02
5.643999999999999773e+01,1.188280711492806577e-02
5.647999999999999687e+01,1.291216534707749324e-02
5.652000000000000313e+01,1.306464795523496793e-02
5.656000000000000227e+01,1.436258565477333167e-02
5.660000000000000142e+01,1.249167019263043230e-02
5.664000000000000057e+01,1.297960703267504907e-02
5.667999999999999972e+01,1.407370793036130316e-02
5.671999999999999886e+01,1.651549359680389364e-02
5.675999999999999801e+01,1.315939155900161875e-02
5.679999999999999716e+01,1.182508307791677211e-02
5.684000000000000341e+01,1.224292307182869161e-02
5.688000000000000256e+01,1.016601434053091176e-02
5.692000000000000171e+01,1.078500708361373323e-02
5.696000000000000085e+01,1.490883306504757824e-02
5.700000000000000000e+01,1.195395611619098214e-02
5.703999999999999915e+01,1.755973962926643192e-02
5.707999999999999829e+01,1.473859741434179263e-02
5.711999999999999744e+01,1.299548705377163646e-02
5.715999999999999659e+01,1.415050610436176075e-02
5.720000000000000284e+01,1.092325998739953827e-02
5.724000000000000199e+01,1.551514839946722783e-02
5.728000000000000114e+01,1.437654884627295737e-02
5.732000000000000028e+01,1.060836888888061491e-02
5.735999999999999943e+01,9.199025568313437540e-03
5.739999999999999858e+01,9.002530115726796109e-03
5.743999999999999773e+01,9.075126920843085143e-03
5.747999999999999687e+01,1.143914669903513433e-02
5.752000000000000313e+01,1.656646594999491157e-02
5.756000000000000227e+01,1.441283692792643539e-02
5.760000000000000142e+01,1.333722931663757633e-02
5.764000000000000057e+01,1.057578907874707520e-02
5.767999999999999972e+01,1.226292115382491242e-02
5.771999999999999886e+01,1.563477150448986178e-02
5.775999999999999801e+01,1.253460186490532036e-02
5.779999999999999716e+01,1.347853561026130312e-02
5.784000000000000341e+01,1.421967554035127521e-02
5.788000000000000256e+01,1.206157867064970926e-02
5.792000000000000171e+01,1.023997466793190314e-02
5.796000000000000085e+01,1.421515794321090258e-02
5.800000000000000000e+01,1.232501548215421752e-02
5.803999999999999915e+01,9.895019590063560203e-03
5.807999999999999829e+01,9.554200458012990921e-03
5.811999999999999744e+01,1.015656931715784930e-02
5.815999999999999659e+01,1.406151214714939854e-02
5.820000000000000284e+01,1.210112488931573693e-02
5.824000000000000199e+01,1.249955512175328527e-02
5.828000000000000114e+01,1.343670354706048495e-02
5.832000000000000028e+01,1.289023770926866520e-02
5.835999999999999943e+01,1.342177674659621525e-02
5.839999999999999858e+01,1.449203136589966891e-02
5.843999999999999773e+01,1.475277963976732304e-02
5.847999999999999687e+01,2.161923651202730945e-02
5.852000000000000313e+01,1.938462579700561683e-02
5.856000000000000227e+01,1.249807611287996091e-02
5.860000000000000142e+01,1.174535504626309998e-02
5.864000000000000057e+01,1.753092804399124585e-02
5.867999999999999972e+01,2.297886684448595743e-02
5.871999999999999886e+01,1.919091160049806941e-02
5.875999999999999801e+01,1.897516148431106428e-02
5.879999999999999716e+01,2.597181247983432889e-02
5.884000000000000341e+01,2.562007629994065422e-02
5.888000000000000256e+01,2.964947527122241758e-02
5.892000000000000171e+01,3.731848694196910482e-02
5.896000000000000085e+01,3.622347671643558892e-02
5.900000000000000000e+01,4.180157482827730198e-02
5.903999999999999915e+01,4.400853353169831284e-02
5.907999999999999829e+01,5.329306514903288383e-02
5.911999999999999744e+01,5.374616033603993315e-02
5.915999999999999659e+01,5.689510826074477279e-02
5.920000000000000284e+01,5.916712225149785981e-02
5.924000000000000199e+01,6.919081620352982021e-02
5.928000000000000114e+01,5.845131388858521709e-02
5.932000000000000028e+01,5.667688874572610058e-02
5.935999999999999943e+01,5.247507197204270141e-02
5.939999999999999858e+01,5.144098008425948554e-02
5.943999999999999773e+01,6.112465013191600155e-02
5.947999999999999687e+01,4.418035796266129439e-02
5.952000000000000313e+01,4.085250126104524038e-02
5.956000000000000227e+01,4.042272175271497542e-02
5.960000000000000142e+01,3.129631747619369270e-02
5.964000000000000057e+01,3.619081237355146335e-02
5.967999999999999972e+01,3.515253392920575370e-02
5.971999999999999886e+01,2.393458494295006359e-02
5.975999999999999801e+01,2.424332356401914454e-02
5.979999999999999716e+01,2.509074730663739261e-02
5.984000000000000341e+01,1.771341842926698121e-02
5.988000000000000256e+01,1.984044296265688109e-02
5.992000000000000171e+01,1.974229683961887041e-02
5.996000000000000085e+01,1.263279443710094152e-02
