2.003999999999999915e+01,4.052250578569902700e-02
2.007999999999999829e+01,3.867079215092371347e-02
2.012000000000000099e+01,3.681971553158728400e-02
2.016000000000000014e+01,3.996680782651525904e-02
2.019999999999999929e+01,3.291956511251644540e-02
2.023999999999999844e+01,3.646772552544874646e-02
2.028000000000000114e+01,3.671814388314060401e-02
2.032000000000000028e+01,3.946795746351217105e-02
2.035999999999999943e+01,3.872012420290590895e-02
2.039999999999999858e+01,3.527424775992939882e-02
2.044000000000000128e+01,3.742623222215914897e-02
2.048000000000000043e+01,3.208253778651354304e-02
2.051999999999999957e+01,3.213679947033685341e-02
2.055999999999999872e+01,3.159197520997136105e-02
2.060000000000000142e+01,3.714475833481362815e-02
2.064000000000000057e+01,3.790052383427964383e-02
2.067999999999999972e+01,3.555843141845330124e-02
2.071999999999999886e+01,3.581566769286848029e-02
2.076000000000000156e+01,3.497405605875150703e-02
2.080000000000000071e+01,3.243389076130226423e-02
2.083999999999999986e+01,3.988939874922997619e-02
2.087999999999999901e+01,2.985414339583270654e-02
2.092000000000000171e+01,3.391253545468379121e-02
2.096000000000000085e+01,3.297399477952665803e-02
2.100000000000000000e+01,3.393511604453011699e-02
2.103999999999999915e+01,2.840004104876665478e-02
2.107999999999999829e+01,2.526437791413022396e-02
2.112000000000000099e+01,2.992546122899602049e-02
2.116000000000000014e+01,1.779542386586351749e-02
2.119999999999999929e+01,2.135823262978240114e-02
2.123999999999999844e+01,2.652084099380844565e-02
2.128000000000000114e+01,2.598684815326291614e-02
2.132000000000000028e+01,3.284979047026249932e-02
2.135999999999999943e+01,3.361632545218041362e-02
2.139999999999999858e+01,2.498807918978812256e-02
2.144000000000000128e+01,2.395666426826600914e-02
2.148000000000000043e+01,4.591448251461457269e-02
2.151999999999999957e+01,2.879216465648842468e-02
2.155999999999999872e+01,2.696287475152660609e-02
2.160000000000000142e+01,3.023164249584897600e-02
2.164000000000000057e+01,2.440547069012506676e-02
2.167999999999999972e+01,3.477187772759441492e-02
2.171999999999999886e+01,3.124570949951258406e-02
2.176000000000000156e+01,2.032375799050346876e-02
2.180000000000000071e+01,3.199122319596049008e-02
2.183999999999999986e+01,3.196502276691649130e-02
2.187999999999999901e+01,3.343864373787443917e-02
2.192000000000000171e+01,1.962037142746136942e-02
2.196000000000000085e+01,2.449343272652076270e-02
2.200000000000000000e+01,2.846749412686470221e-02
2.203999999999999915e+01,1.445098892996149811e-02
2.207999999999999829e+01,2.322378974891977158e-02
2.212000000000000099e+01,2.380118642351882613e-02
2.216000000000000014e+01,2.307977362792756545e-02
2.219999999999999929e+01,3.345343301755889648e-02
2.223999999999999844e+01,2.323779972548833256e-02
2.228000000000000114e+01,2.941462081414688776e-02
2.232000000000000028e+01,3.129410537909780438e-02
2.235999999999999943e+01,1.578271361725953545e-02
2.239999999999999858e+01,3.025706251923345955e-02
2.244000000000000128e+01,2.764038367061206342e-02
2.248000000000000043e+01,2.012665738203573210e-02
2.251999999999999957e+01,2.690641103118249916e-02
2.255999999999999872e+01,2.209241874953061721e-02
2.260000000000000142e+01,1.907806891635535629e-02
2.264000000000000057e+01,1.976242258651310368e-02
2.267999999999999972e+01,2.524493543577025628e-02
2.271999999999999886e+01,2.543058783263279360e-02
2.276000000000000156e+01,2.311799688343340112e-02
2.280000000000000071e+01,2.990143886449487046e-02
2.283999999999999986e+01,2.848944573251306969e-02
2.287999999999999901e+01,3.137584981528714762e-02
2.292000000000000171e+01,1.996982432849173095e-02
2.296000000000000085e+01,2.285725985411255629e-02
2.300000000000000000e+01,2.264673767645920127e-02
2.303999999999999915e+01,2.453569103913441629e-02
2.307999999999999829e+01,1.543058013905661968e-02
2.312000000000000099e+01,1.971936731798903247e-02
2.316000000000000014e+01,1.681221234388119781e-02
2.319999999999999929e+01,2.400057981907234225e-02
2.323999999999999844e+01,1.609689858174431429e-02
2.328000000000000114e+01,2.158710854149677866e-02
2.332000000000000028e+01,1.098575962390265816e-02
2.335999999999999943e+01,2.297376032195933004e-02
2.339999999999999858e+01,1.897014937409080212e-02
2.344000000000000128e+01,2.416249450115036737e-02
2.348000000000000043e+01,2.405794648664887764e-02
2.351999999999999957e+01,2.175497445407778910e-02
2.355999999999999872e+01,2.325061702612970377e-02
2.360000000000000142e+01,2.784521777561849848e-02
2.364000000000000057e+01,2.024632210696504855e-02
2.367999999999999972e+01,1.944455605307491425e-02
2.371999999999999886e+01,2.553986856585194892e-02
2.376000000000000156e+01,2.234024899824067767e-02
2.380000000000000071e+01,2.813666867644296771e-02
2.383999999999999986e+01,1.704190173193693286e-02
2.387999999999999901e+01,2.104016160784095632e-02
2.392000000000000171e+01,2.174052286460215894e-02
2.396000000000000085e+01,2.673923488309322763e-02
2.400000000000000000e+01,1.834502693046497282e-02
2.403999999999999915e+01,1.175039948894546042e-02
2.407999999999999829e+01,1.645066471474623468e-02
2.412000000000000099e+01,2.255070432114575016e-02
2.416000000000000014e+01,1.575757043642751418e-02
2.419999999999999929e+01,2.545675902166723986e-02
2.423999999999999844e+01,1.996390520994057588e-02
2.428000000000000114e+01,1.407170679393036396e-02
2.432000000000000028e+01,2.417207232449961052e-02
2.435999999999999943e+01,1.738122886608872014e-02
2.439999999999999858e+01,2.768240330954117520e-02
2.444000000000000128e+01,2.708940566622383694e-02
2.448000000000000043e+01,1.910050774917304225e-02
2.451999999999999957e+01,2.220658222936310044e-02
2.455999999999999872e+01,3.091034040506766833e-02
2.460000000000000142e+01,3.271794650752274380e-02
2.464000000000000057e+01,2.303166788647829574e-02
2.467999999999999972e+01,2.084213057483974563e-02
2.471999999999999886e+01,2.714883957598730399e-02
2.476000000000000156e+01,2.575978424286558266e-02
2.480000000000000071e+01,1.887387764748960084e-02
2.483999999999999986e+01,1.948470547958988663e-02
2.487999999999999901e+01,1.979611357255623913e-02
2.492000000000000171e+01,2.060770558499619778e-02
2.496000000000000085e+01,1.672204483234224215e-02
2.500000000000000000e+01,1.383631792012824692e-02
2.503999999999999915e+01,1.544879666139072245e-02
2.507999999999999829e+01,2.175938068041967724e-02
2.512000000000000099e+01,2.487196513821862340e-02
2.516000000000000014e+01,1.289241830034122162e-02
2.519999999999999929e+01,1.830470697183698287e-02
2.523999999999999844e+01,1.592125999088783717e-02
2.528000000000000114e+01,1.543729085847790616e-02
2.532000000000000028e+01,1.545348844071723834e-02
2.535999999999999943e+01,2.666457296245223693e-02
2.539999999999999858e+01,2.098440376266369131e-02
2.544000000000000128e+01,1.450503737505567069e-02
2.548000000000000043e+01,2.581729714298876960e-02
2.551999999999999957e+01,1.504086306386576317e-02
2.555999999999999872e+01,1.116142840921748036e-02
2.560000000000000142e+01,2.207509457707538050e-02
2.564000000000000057e+01,1.789660880346755079e-02
2.567999999999999972e+01,1.801639981084447381e-02
2.571999999999999886e+01,9.540829140897225114e-03
2.576000000000000156e+01,1.435909232573254722e-02
2.580000000000000071e+01,1.727868544215773253e-02
2.583999999999999986e+01,1.320212247799136193e-02
2.587999999999999901e+01,1.102501155512753198e-02
2.592000000000000171e+01,6.849274730019899379e-03
2.596000000000000085e+01,1.516775777819275549e-02
2.600000000000000000e+01,1.549057113998169970e-02
2.603999999999999915e+01,1.521406285148711214e-02
2.607999999999999829e+01,1.803640607051785680e-02
2.612000000000000099e+01,1.666119999239502533e-02
2.616000000000000014e+01,1.338730836152001065e-02
2.619999999999999929e+01,1.621078324831059722e-02
2.623999999999999844e+01,1.823502653763279732e-02
2.628000000000000114e+01,1.656146700980304018e-02
2.632000000000000028e+01,5.692815963094809140e-03
2.635999999999999943e+01,1.671373078915032104e-02
2.639999999999999858e+01,1.194280627786979861e-02
2.644000000000000128e+01,1.996593301123919528e-02
2.648000000000000043e+01,2.119277748107042253e-02
2.651999999999999957e+01,1.982126620710372364e-02
2.655999999999999872e+01,9.254653091363926679e-03
2.660000000000000142e+01,8.583514839142923972e-03
2.664000000000000057e+01,1.850750443666193332e-02
2.667999999999999972e+01,1.044072786097035958e-02
2.671999999999999886e+01,1.696710258950395386e-02
2.676000000000000156e+01,1.659723233873617101e-02
2.680000000000000071e+01,1.532815573135956275e-02
2.683999999999999986e+01,2.035631945870198037e-02
2.687999999999999901e+01,1.399045278791418920e-02
2.692000000000000171e+01,1.412172435565296237e-02
2.696000000000000085e+01,9.155854444630641062e-03
2.700000000000000000e+01,1.398549151991635049e-02
2.703999999999999915e+01,7.521041987528329087e-03
2.707999999999999829e+01,1.904805113615617648e-02
2.712000000000000099e+01,1.438338728921906284e-02
2.716000000000000014e+01,1.871461816757019267e-02
2.719999999999999929e+01,1.774879589949298828e-02
2.723999999999999844e+01,2.068138062404031169e-02
2.728000000000000114e+01,1.531838858960679790e-02
2.732000000000000028e+01,1.175483598672156897e-02
2.735999999999999943e+01,2.028564035068618904e-02
2.739999999999999858e+01,3.061588070523423369e-02
2.744000000000000128e+01,2.285537152501897554e-02
2.748000000000000043e+01,1.769390027351216976e-02
2.751999999999999957e+01,2.012899884954413507e-02
2.755999999999999872e+01,2.456342787900219968e-02
2.760000000000000142e+01,3.439550850253650371e-02
2.764000000000000057e+01,2.493742292026027846e-02
2.767999999999999972e+01,3.656924105573709088e-02
2.771999999999999886e+01,2.871098819966590165e-02
2.776000000000000156e+01,4.344189570617669471e-02
2.780000000000000071e+01,4.418001576141848685e-02
2.783999999999999986e+01,4.821681296773064340e-02
2.787999999999999901e+01,6.224898065450949758e-02
2.792000000000000171e+01,6.718593867549847720e-02
2.796000000000000085e+01,7.802028616815302742e-02
2.800000000000000000e+01,8.945463577551926448e-02
2.803999999999999915e+01,1.075859767926761329e-01
2.807999999999999829e+01,1.134236797457532503e-01
2.812000000000000099e+01,1.472478638859279210e-01
2.816000000000000014e+01,1.739758414851430846e-01
2.819999999999999929e+01,1.950069202363238219e-01
2.823999999999999844e+01,2.144390759868240737e-01
2.828000000000000114e+01,2.174796075029959141e-01
2.832000000000000028e+01,2.390112977271591499e-01
2.835999999999999943e+01,2.296585127800225279e-01
2.839999999999999858e+01,2.265029503964033075e-01
2.844000000000000128e+01,2.148518600150399471e-01
2.848000000000000043e+01,1.875087915036397213e-01
2.851999999999999957e+01,1.582669359310230894e-01
2.855999999999999872e+01,1.316240718340890847e-01
2.860000000000000142e+01,1.114782737154189907e-01
2.864000000000000057e+01,8.653511387488385664e-02
2.867999999999999972e+01,7.778423179311425018e-02
2.871999999999999886e+01,5.314145991364071370e-02
2.876000000000000156e+01,4.868898924741794920e-02
2.880000000000000071e+01,5.183303335329565720e-02
2.883999999999999986e+01,3.778582375900083057e-02
2.887999999999999901e+01,3.373394163311164290e-02
2.892000000000000171e+01,3.258088751572180142e-02
2.896000000000000085e+01,3.012873144612614532e-02
2.900000000000000000e+01,1.748186186146581667e-02
2.903999999999999915e+01,2.502528144667915538e-02
2.907999999999999829e+01,1.597714104314282985e-02
2.912000000000000099e+01,2.122219669772630948e-02
2.916000000000000014e+01,1.867134809258540890e-02
2.919999999999999929e+01,2.561605983005936504e-02
2.923999999999999844e+01,1.966737957514519061e-02
2.928000000000000114e+01,9.521014104964356170e-03
2.932000000000000028e+01,8.870203815951067244e-03
2.935999999999999943e+01,2.011376312489293258e-02
2.939999999999999858e+01,2.506066793700957931e-02
2.944000000000000128e+01,1.441550399989688543e-02
2.948000000000000043e+01,1.176662827622825848e-02
2.951999999999999957e+01,1.121694937473221437e-02
2.955999999999999872e+01,1.026769876527008386e-02
2.960000000000000142e+01,1.181744422656062082e-02
2.964000000000000057e+01,2.772645955522412727e-03
2.967999999999999972e+01,8.120970328236071928e-03
2.971999999999999886e+01,1.237006140435012447e-02
2.976000000000000156e+01,6.324455603846754377e-03
2.980000000000000071e+01,1.617122737144174177e-02
2.983999999999999986e+01,1.352438402895695703e-02
2.987999999999999901e+01,7.079632353513875924e-03
2.992000000000000171e+01,8.731100638594127550e-03
2.996000000000000085e+01,1.098248673474629990e-02
3.000000000000000000e+01,1.463339430057802523e-02
3.003999999999999915e+01,8.889148997891539727e-03
3.007999999999999829e+01,6.843287188803459827e-03
3.012000000000000099e+01,0.000000000000000000e+00
3.016000000000000014e+01,6.550308085296542744e-03
3.019999999999999929e+01,8.103286005140205445e-03
3.023999999999999844e+01,4.958784056207329524e-03
3.028000000000000114e+01,1.590752692663094728e-02
3.032000000000000028e+01,1.266347261061918916e-02
3.035999999999999943e+01,5.521538643473490084e-03
3.039999999999999858e+01,9.774176179808182971e-03
3.044000000000000128e+01,5.331298349503966506e-03
3.048000000000000043e+01,9.984123116831391045e-03
3.051999999999999957e+01,5.841478404168827521e-03
3.055999999999999872e+01,1.009487814146926496e-02
3.060000000000000142e+01,1.394866143825997107e-02
3.064000000000000057e+01,6.408252611570804981e-03
3.067999999999999972e+01,7.663685762942294352e-03
3.071999999999999886e+01,1.691535379280198828e-02
3.076000000000000156e+01,1.157440302137434547e-02
3.080000000000000071e+01,1.263047292928998200e-02
3.083999999999999986e+01,1.388662010811877838e-02
3.087999999999999901e+01,1.364368140681201762e-02
3.092000000000000171e+01,1.270126048397724958e-02
3.096000000000000085e+01,1.395792511833335997e-02
3.100000000000000000e+01,1.401535072826532759e-02
3.103999999999999915e+01,1.917042795362465177e-02
3.107999999999999829e+01,1.742907438757851368e-02
3.112000000000000099e+01,2.608275463246621101e-02
3.116000000000000014e+01,1.254754776988691554e-02
3.119999999999999929e+01,1.700362237863179901e-02
3.123999999999999844e+01,2.595763596607426199e-02
3.128000000000000114e+01,2.041895905834386141e-02
3.132000000000000028e+01,2.447570198004506148e-02
3.135999999999999943e+01,2.533417694525503736e-02
3.139999999999999858e+01,3.328930148927539828e-02
3.144000000000000128e+01,2.885069277630445544e-02
3.148000000000000043e+01,3.220838490788274777e-02
3.151999999999999957e+01,3.666568111364900545e-02
3.155999999999999872e+01,4.322208639698315452e-02
3.160000000000000142e+01,4.168263045400510958e-02
3.164000000000000057e+01,4.054311871706381409e-02
3.167999999999999972e+01,6.039338797724497221e-02
3.171999999999999886e+01,7.054858009148651243e-02
3.176000000000000156e+01,8.240306999133874266e-02
3.180000000000000071e+01,9.055951964746167260e-02
3.183999999999999986e+01,9.101990044392271884e-02
3.187999999999999901e+01,9.637799538090721652e-02
3.192000000000000171e+01,9.354026465533368806e-02
3.196000000000000085e+01,9.020290832046119756e-02
3.200000000000000000e+01,8.656582600057965982e-02
3.203999999999999915e+01,6.693676041056507986e-02
3.207999999999999829e+01,6.999662004341468402e-02
3.211999999999999744e+01,6.885867230674422301e-02
3.215999999999999659e+01,4.992962403554072198e-02
3.220000000000000284e+01,4.649304741394399282e-02
3.224000000000000199e+01,4.235693179489861959e-02
3.228000000000000114e+01,3.752127545792215829e-02
3.232000000000000028e+01,3.678370895707225308e-02
3.235999999999999943e+01,3.894482250323148820e-02
3.239999999999999858e+01,2.961171755229700595e-02
3.243999999999999773e+01,2.687546408569809961e-02
3.247999999999999687e+01,3.023630702102108811e-02
3.252000000000000313e+01,2.929937470961321844e-02
3.256000000000000227e+01,2.126604660417697953e-02
3.260000000000000142e+01,2.212842856603031150e-02
3.264000000000000057e+01,2.319081037708685400e-02
3.267999999999999972e+01,2.025526207664156073e-02
3.271999999999999886e+01,9.023903031603084518e-03
3.275999999999999801e+01,1.358484356657583755e-02
3.279999999999999716e+01,1.924533312029829898e-02
3.284000000000000341e+01,1.361148659639265998e-02
3.288000000000000256e+01,1.677338742401331476e-02
3.292000000000000171e+01,1.423818638667109782e-02
3.296000000000000085e+01,1.819986379500644624e-02
3.300000000000000000e+01,4.425072282079232922e-02
3.303999999999999915e+01,6.570393221641679382e-02
3.307999999999999829e+01,3.548272356747249334e-02
3.311999999999999744e+01,1.305774522329722007e-02
3.315999999999999659e+01,1.432115237282271906e-02
3.320000000000000284e+01,1.708389402581852665e-02
3.324000000000000199e+01,8.552282396361778061e-03
3.328000000000000114e+01,1.491339192916822827e-02
3.332000000000000028e+01,1.397817163400739450e-02
3.335999999999999943e+01,1.674119375288459638e-02
3.339999999999999858e+01,1.590605748112094639e-02
3.343999999999999773e+01,2.186763102640429737e-02
3.347999999999999687e+01,2.493069744678567262e-02
3.352000000000000313e+01,2.239658686735378559e-02
3.356000000000000227e+01,1.596445899819253639e-02
3.360000000000000142e+01,1.962740625289480581e-02
3.364000000000000057e+01,2.079164219031039151e-02
3.367999999999999972e+01,1.885746105563925606e-02
3.371999999999999886e+01,1.962200012680162531e-02
3.375999999999999801e+01,1.768792137445742915e-02
3.379999999999999716e+01,1.845255938698187742e-02
3.384000000000000341e+01,2.131620840957498472e-02
3.388000000000000256e+01,3.407501916788202578e-02
3.392000000000000171e+01,2.084669855475584574e-02
3.396000000000000085e+01,2.660904742352767846e-02
3.400000000000000000e+01,3.357084436896214108e-02
3.403999999999999915e+01,3.293642850058656896e-02
3.407999999999999829e+01,3.410116130222621417e-02
3.411999999999999744e+01,4.256232803464257697e-02
3.415999999999999659e+01,4.292752342987028735e-02
3.420000000000000284e+01,4.709087578139094232e-02
3.424000000000000199e+01,5.045465243895452812e-02
3.428000000000000114e+01,4.862102209708339673e-02
3.432000000000000028e+01,4.598781262029033590e-02
3.435999999999999943e+01,5.524875768114695385e-02
3.439999999999999858e+01,5.501441166851262637e-02
3.443999999999999773e+01,6.827342751074319538e-02
3.447999999999999687e+01,5.754430134251131701e-02
3.452000000000000313e+01,6.490626451794703766e-02
3.456000000000000227e+01,5.767544544626319186e-02
3.460000000000000142e+01,5.394291410888912841e-02
3.464000000000000057e+01,5.570768223306746952e-02
3.467999999999999972e+01,6.087078397820442494e-02
3.471999999999999886e+01,4.874242843986326124e-02
3.475999999999999801e+01,4.670909813139481614e-02
3.479999999999999716e+01,4.377621736982874323e-02
3.484000000000000341e+01,4.094329115854519752e-02
3.488000000000000256e+01,4.510691417171318329e-02
3.492000000000000171e+01,4.317354660625109114e-02
3.496000000000000085e+01,4.483840196314304444e-02
3.500000000000000000e+01,4.660320498838772807e-02
3.503999999999999915e+01,3.357530377595107501e-02
3.507999999999999829e+01,3.284132882202508291e-02
3.511999999999999744e+01,3.160759234068698936e-02
3.515999999999999659e+01,3.237285942111065712e-02
3.520000000000000284e+01,3.333801623986110130e-02
3.524000000000000199e+01,3.100478754293702413e-02
3.528000000000000114e+01,2.827174110905730092e-02
3.532000000000000028e+01,2.903695144080337479e-02
3.535999999999999943e+01,3.459977555871406735e-02
3.539999999999999858e+01,2.886815348812024964e-02
3.543999999999999773e+01,3.273177403726627854e-02
3.547999999999999687e+01,3.259734404113937001e-02
3.552000000000000313e+01,3.486170481197722881e-02
3.556000000000000227e+01,3.132889949362472476e-02
3.560000000000000142e+01,3.449276041388096153e-02
3.564000000000000057e+01,4.125481500828968862e-02
3.567999999999999972e+01,4.701733062660079510e-02
3.571999999999999886e+01,4.178523830970663766e-02
3.575999999999999801e+01,5.264516855379918620e-02
3.579999999999999716e+01,5.550900759330912315e-02
3.584000000000000341e+01,5.227581648309284623e-02
3.588000000000000256e+01,6.103666520457957240e-02
3.592000000000000171e+01,5.620417990640622086e-02
3.596000000000000085e+01,5.656908527670582998e-02
3.600000000000000000e+01,7.132684145453120628e-02
3.603999999999999915e+01,7.249125845124922141e-02
3.607999999999999829e+01,7.845325826544780057e-02
3.611999999999999744e+01,8.411535488494568946e-02
3.615999999999999659e+01,9.337562281232429651e-02
3.620000000000000284e+01,1.113315446187999880e-01
3.624000000000000199e+01,1.096970782985809689e-01
3.628000000000000114e+01,1.181575718299017058e-01
3.632000000000000028e+01,1.207209159104793705e-01
3.635999999999999943e+01,1.116899204938151396e-01
3.639999999999999858e+01,1.205500322133710583e-01
3.643999999999999773e+01,1.212141238558527567e-01
3.647999999999999687e+01,1.048865345307875979e-01
3.652000000000000313e+01,1.100482713864003176e-01
3.656000000000000227e+01,9.432024761043743266e-02
3.660000000000000142e+01,8.289003092375214765e-02
3.664000000000000057e+01,8.175465994903720335e-02
3.667999999999999972e+01,7.082404781617328282e-02
3.671999999999999886e+01,6.659005374840969160e-02
3.675999999999999801e+01,6.825307064617393282e-02
3.679999999999999716e+01,5.872153181093445196e-02
3.684000000000000341e+01,5.658626058605167874e-02
3.688000000000000256e+01,5.844893238991064055e-02
3.692000000000000171e+01,4.521896707625462641e-02
3.696000000000000085e+01,4.228383371070938007e-02
3.700000000000000000e+01,4.804431981461239343e-02
3.703999999999999915e+01,4.460925331034198277e-02
3.707999999999999829e+01,3.867532752729468948e-02
3.711999999999999744e+01,4.133706537986202301e-02
3.715999999999999659e+01,3.450339344564992694e-02
3.720000000000000284e+01,3.606548036131510676e-02
3.724000000000000199e+01,3.542855313343230839e-02
3.728000000000000114e+01,4.078856517719187808e-02
3.732000000000000028e+01,3.045621886429453889e-02
3.735999999999999943e+01,3.201789805286351515e-02
3.739999999999999858e+01,3.577838580094992033e-02
3.743999999999999773e+01,3.124285978751473181e-02
3.747999999999999687e+01,2.440835863525073549e-02
3.752000000000000313e+01,2.796861601672946326e-02
3.756000000000000227e+01,2.952974683557326938e-02
3.760000000000000142e+01,2.519367314823578105e-02
3.764000000000000057e+01,3.335131695330503104e-02
3.767999999999999972e+01,2.521688288305784509e-02
3.771999999999999886e+01,3.337428841493014081e-02
3.775999999999999801e+01,2.893778750881245698e-02
3.779999999999999716e+01,2.849919006034029936e-02
3.784000000000000341e+01,3.595657057209503127e-02
3.788000000000000256e+01,2.712186460612112104e-02
3.792000000000000171e+01,3.238007484735690861e-02
3.796000000000000085e+01,2.564407408250799977e-02
3.800000000000000000e+01,2.260611615573362987e-02
3.803999999999999915e+01,3.066254910313406454e-02
3.807999999999999829e+01,2.892368067550000685e-02
3.811999999999999744e+01,3.118270194165191980e-02
3.815999999999999659e+01,3.094281747600091670e-02
3.820000000000000284e+01,3.829904346907609530e-02
3.824000000000000199e+01,3.556010918802827298e-02
3.828000000000000114e+01,3.961767654565171576e-02
3.832000000000000028e+01,4.107638061715621070e-02
3.835999999999999943e+01,4.583330935284826713e-02
3.839999999999999858e+01,5.358860901508660790e-02
3.843999999999999773e+01,5.204834517987977360e-02
3.847999999999999687e+01,5.840403177718074545e-02
3.852000000000000313e+01,5.916232631436300210e-02
3.856000000000000227e+01,5.632224051866911024e-02
3.860000000000000142e+01,5.298224351359050177e-02
3.864000000000000057e+01,5.164110038830101168e-02
3.867999999999999972e+01,5.079954933652444660e-02
3.871999999999999886e+01,4.226163350210560693e-02
3.875999999999999801e+01,3.782153050613989292e-02
3.879999999999999716e+01,3.597997854235104181e-02
3.884000000000000341e+01,3.583741983878035303e-02
3.888000000000000256e+01,3.809350738164910682e-02
3.892000000000000171e+01,3.845036053786609481e-02
3.896000000000000085e+01,4.110590582717138508e-02
3.900000000000000000e+01,4.056285454783868649e-02
3.903999999999999915e+01,3.991967582335937542e-02
3.907999999999999829e+01,3.877656524370601265e-02
3.911999999999999744e+01,3.843287982941741981e-02
3.915999999999999659e+01,4.338639811739251895e-02
3.920000000000000284e+01,4.184293904557106342e-02
3.924000000000000199e+01,4.839529906186348235e-02
3.928000000000000114e+01,5.294845853477586628e-02
3.932000000000000028e+01,5.530251439905318339e-02
3.935999999999999943e+01,4.856086853956161076e-02
3.939999999999999858e+01,6.100955952112819408e-02
3.943999999999999773e+01,6.156392651114592912e-02
3.947999999999999687e+01,6.431701259559396977e-02
3.952000000000000313e+01,6.826930933012735625e-02
3.956000000000000227e+01,8.391563559482015378e-02
3.960000000000000142e+01,8.506891350399176099e-02
3.964000000000000057e+01,8.892065698759518688e-02
3.967999999999999972e+01,1.089642050972920578e-01
3.971999999999999886e+01,1.072183006058239491e-01
3.975999999999999801e+01,1.264618295740245757e-01
3.979999999999999716e+01,1.377090952893981757e-01
3.984000000000000341e+01,1.591511184057602668e-01
3.988000000000000256e+01,1.857903635833158817e-01
3.992000000000000171e+01,2.136288022061323399e-01
3.996000000000000085e+01,2.638559750996128384e-01
4.000000000000000000e+01,3.031883066386527603e-01
4.003999999999999915e+01,3.742047815393134136e-01
4.007999999999999829e+01,4.586144250344278417e-01
4.011999999999999744e+01,5.517195538013600631e-01
4.015999999999999659e+01,6.552193275501937419e-01
4.020000000000000284e+01,7.737114754902137959e-01
4.024000000000000199e+01,8.847070946140316305e-01
4.028000000000000114e+01,9.630186137598285567e-01
4.032000000000000028e+01,9.987509146408833915e-01
4.035999999999999943e+01,1.000000000000000000e+00
4.039999999999999858e+01,9.467757336394454493e-01
4.043999999999999773e+01,8.661647460554117162e-01
4.047999999999999687e+01,7.776574166427357993e-01
4.052000000000000313e+01,6.838524611629775984e-01
4.056000000000000227e+01,5.935455370656452789e-01
4.060000000000000142e+01,5.056371852340071360e-01
4.064000000000000057e+01,4.296227178242750244e-01
4.067999999999999972e+01,3.413140703984932078e-01
4.071999999999999886e+01,2.825905729660191379e-01
4.075999999999999801e+01,2.418579458095651002e-01
4.079999999999999716e+01,1.894308375099316710e-01
4.084000000000000341e+01,1.668887260593173993e-01
4.088000000000000256e+01,1.393488250744377432e-01
4.092000000000000171e+01,1.182055094868429967e-01
4.096000000000000085e+01,1.089560645572946740e-01
4.100000000000000000e+01,9.950645720657370907e-02
4.103999999999999915e+01,8.805757361124512406e-02
4.107999999999999829e+01,7.490926406798524562e-02
4.111999999999999744e+01,6.855733400914310050e-02
4.115999999999999659e+01,6.070587590617730622e-02
4.120000000000000284e+01,5.765178039893925632e-02
4.124000000000000199e+01,5.769588433638028063e-02
4.128000000000000114e+01,5.424144162052526447e-02
4.132000000000000028e+01,5.078672406441057247e-02
4.135999999999999943e+01,4.533271649982869439e-02
4.139999999999999858e+01,4.317680284276860514e-02
4.143999999999999773e+01,4.501863607945162660e-02
4.147999999999999687e+01,3.876418313065875532e-02
4.152000000000000313e+01,3.590776960032659310e-02
4.156000000000000227e+01,3.684919645751767725e-02
4.160000000000000142e+01,3.409216155278065041e-02
4.164000000000000057e+01,3.293404880210444585e-02
4.167999999999999972e+01,2.657821076274145822e-02
4.171999999999999886e+01,2.611917034908324206e-02
4.175999999999999801e+01,3.345598861598620549e-02
4.179999999999999716e+01,2.699931860753730997e-02
4.184000000000000341e+01,2.883825720061594308e-02
4.188000000000000256e+01,2.068182962805541897e-02
4.192000000000000171e+01,1.982150049219503704e-02
4.196000000000000085e+01,2.505786000391726359e-02
4.200000000000000000e+01,2.099850289525679800e-02
4.203999999999999915e+01,2.243612695889657047e-02
4.207999999999999829e+01,2.057507130436390941e-02
4.211999999999999744e+01,2.850887229377545642e-02
4.215999999999999659e+01,2.124986011008560619e-02
4.220000000000000284e+01,3.118205088595778218e-02
4.224000000000000199e+01,2.092389142845104202e-02
4.228000000000000114e+01,2.415875661125010954e-02
4.232000000000000028e+01,2.359517839105077647e-02
4.235999999999999943e+01,2.503029404577331377e-02
4.239999999999999858e+01,2.166745613267004669e-02
4.243999999999999773e+01,2.200247008409005403e-02
4.247999999999999687e+01,2.303681400796323692e-02
4.252000000000000313e+01,1.567497499665829533e-02
4.256000000000000227e+01,2.430491539193829417e-02
4.260000000000000142e+01,1.554310889631247555e-02
4.264000000000000057e+01,2.037426222903669995e-02
4.267999999999999972e+01,2.200666070873806210e-02
4.271999999999999886e+01,2.573768825140550914e-02
4.275999999999999801e+01,1.207696202123739911e-02
4.279999999999999716e+01,1.570736361578085882e-02
4.284000000000000341e+01,1.493959540673668422e-02
4.288000000000000256e+01,2.056832829133768692e-02
4.292000000000000171e+01,2.019967717320610492e-02
4.296000000000000085e+01,1.783166722730961454e-02
4.300000000000000000e+01,1.516345816373202912e-02
4.303999999999999915e+01,2.119060877675368187e-02
4.307999999999999829e+01,2.052071379840922707e-02
4.311999999999999744e+01,1.925076252377757105e-02
4.315999999999999659e+01,2.507695500611777789e-02
4.320000000000000284e+01,1.660984563428933788e-02
4.324000000000000199e+01,1.543877792324033736e-02
4.328000000000000114e+01,2.286310889350966213e-02
4.332000000000000028e+01,2.049191310554434806e-02
4.335999999999999943e+01,1.712084800885221858e-02
4.339999999999999858e+01,2.334468315589356344e-02
4.343999999999999773e+01,1.827372629745917590e-02
4.347999999999999687e+01,1.869968867395705586e-02
4.352000000000000313e+01,1.782592284263954246e-02
4.356000000000000227e+01,1.495277237632047437e-02
4.360000000000000142e+01,9.980284882131087651e-03
4.364000000000000057e+01,1.890056622138942821e-02
4.367999999999999972e+01,1.912476271431991573e-02
4.371999999999999886e+01,1.345149146725521661e-02
4.375999999999999801e+01,1.707325296242321808e-02
4.379999999999999716e+01,1.729631008628748287e-02
4.384000000000000341e+01,1.422061179075172557e-02
4.388000000000000256e+01,1.944043435213890086e-02
4.392000000000000171e+01,1.586421107191728769e-02
4.396000000000000085e+01,1.218764872720847457e-02
4.400000000000000000e+01,1.770615812945147693e-02
4.403999999999999915e+01,1.902634745840602742e-02
4.407999999999999829e+01,1.554851095927210942e-02
4.411999999999999744e+01,1.676796078826135739e-02
4.415999999999999659e+01,1.598800017501235404e-02
4.420000000000000284e+01,1.710670362210651649e-02
4.424000000000000199e+01,2.152337882246892556e-02
4.428000000000000114e+01,1.954280883415067394e-02
4.432000000000000028e+01,1.946089774472822831e-02
4.435999999999999943e+01,1.827912366213160431e-02
4.439999999999999858e+01,1.189950729804197145e-02
4.443999999999999773e+01,2.211129351218001082e-02
4.447999999999999687e+01,1.373184390410228314e-02
4.452000000000000313e+01,2.144404007135609219e-02
4.456000000000000227e+01,2.056006421405451659e-02
4.460000000000000142e+01,1.917591907500158441e-02
4.464000000000000057e+01,2.408824865598007195e-02
4.467999999999999972e+01,2.090415441288715967e-02
4.471999999999999886e+01,1.432131622739421517e-02
4.475999999999999801e+01,1.963218525411550633e-02
4.479999999999999716e+01,1.324840108941292317e-02
4.484000000000000341e+01,2.035753145413973786e-02
4.488000000000000256e+01,1.727126527227157080e-02
4.492000000000000171e+01,1.918210302603642892e-02
4.496000000000000085e+01,1.969319996223166391e-02
4.500000000000000000e+01,2.080356780809991882e-02
4.503999999999999915e+01,1.691596718952857389e-02
4.507999999999999829e+01,7.230791006945175639e-03
4.511999999999999744e+01,1.343733344768411643e-02
4.515999999999999659e+01,1.654496503787490982e-02
4.520000000000000284e+01,1.655368405703514997e-02
4.524000000000000199e+01,1.776136769729125958e-02
4.528000000000000114e+01,1.806905011804946920e-02
4.532000000000000028e+01,1.687702556450981078e-02
4.535999999999999943e+01,1.648415778107365295e-02
4.539999999999999858e+01,1.729024773680360588e-02
4.543999999999999773e+01,1.419780941951826608e-02
4.547999999999999687e+01,1.940082313985808105e-02
4.552000000000000313e+01,1.610757421645014550e-02
4.556000000000000227e+01,2.200932994117869856e-02
4.560000000000000142e+01,1.611644739244829511e-02
4.564000000000000057e+01,1.861896067179945324e-02
4.567999999999999972e+01,1.482411921797068682e-02
4.571999999999999886e+01,1.522674191103597953e-02
4.575999999999999801e+01,1.572884946267659456e-02
4.579999999999999716e+01,2.282723385751649764e-02
4.584000000000000341e+01,1.623190688066391066e-02
4.588000000000000256e+01,1.493349456502448755e-02
4.592000000000000171e+01,1.903194586250197065e-02
4.596000000000000085e+01,1.693298105580859705e-02
4.600000000000000000e+01,1.563314549149965801e-02
4.603999999999999915e+01,1.793105627590774187e-02
4.607999999999999829e+01,2.002858613787280792e-02
4.611999999999999744e+01,1.932701587486986353e-02
4.615999999999999659e+01,1.712570250743775807e-02
4.620000000000000284e+01,1.532370709043280078e-02
4.624000000000000199e+01,1.492053462723509465e-02
4.628000000000000114e+01,1.571628205258974315e-02
4.632000000000000028e+01,2.240862924816809654e-02
4.635999999999999943e+01,1.540724270578225190e-02
4.639999999999999858e+01,1.660131795753906278e-02
4.643999999999999773e+01,2.189287571511972993e-02
4.647999999999999687e+01,1.958768558885021910e-02
4.652000000000000313e+01,1.358382208131204104e-02
4.656000000000000227e+01,1.427615340019291849e-02
4.660000000000000142e+01,1.756670025717409558e-02
4.664000000000000057e+01,1.625901251996294747e-02
4.667999999999999972e+01,2.004830368954351252e-02
4.671999999999999886e+01,2.013891287544312264e-02
4.675999999999999801e+01,1.763029575342812960e-02
4.679999999999999716e+01,2.241756716925507459e-02
4.684000000000000341e+01,2.140718731984242104e-02
4.688000000000000256e+01,1.799747734584033684e-02
4.692000000000000171e+01,1.928493326619030654e-02
4.696000000000000085e+01,1.897266100007593756e-02
4.700000000000000000e+01,2.735557808279884956e-02
4.703999999999999915e+01,2.174488016219722555e-02
4.707999999999999829e+01,1.813267309958907156e-02
4.711999999999999744e+01,1.911767265653448525e-02
4.715999999999999659e+01,2.459992644016476340e-02
4.720000000000000284e+01,2.448441481898598615e-02
4.724000000000000199e+01,2.336886700228328617e-02
4.728000000000000114e+01,2.545120950979685645e-02
4.732000000000000028e+01,2.183583077866776967e-02
4.735999999999999943e+01,1.831986808681621004e-02
4.739999999999999858e+01,2.599784434863380150e-02
4.743999999999999773e+01,2.258075790150374310e-02
4.747999999999999687e+01,2.546002402015155527e-02
4.752000000000000313e+01,2.394091903876578720e-02
4.756000000000000227e+01,2.691905107924045387e-02
4.760000000000000142e+01,2.739787135405540724e-02
4.764000000000000057e+01,2.937540503817836005e-02
4.767999999999999972e+01,3.005303158431175264e-02
4.771999999999999886e+01,3.232931877117448116e-02
4.775999999999999801e+01,3.040712587988146989e-02
4.779999999999999716e+01,2.508605656904026177e-02
4.784000000000000341e+01,2.766053509781496444e-02
4.788000000000000256e+01,3.043435797198169521e-02
4.792000000000000171e+01,2.751043380026911914e-02
4.796000000000000085e+01,2.588530792923243729e-02
4.800000000000000000e+01,2.495927460407170589e-02
4.803999999999999915e+01,2.553193748339453381e-02
4.807999999999999829e+01,2.910255493251219863e-02
4.811999999999999744e+01,2.137817907970820247e-02
4.815999999999999659e+01,2.304859738845435949e-02
4.820000000000000284e+01,2.241957946907666144e-02
4.824000000000000199e+01,2.368905184131529437e-02
4.828000000000000114e+01,2.115982445867141751e-02
4.832000000000000028e+01,2.212829468485899564e-02
4.835999999999999943e+01,2.329608861064927719e-02
4.839999999999999858e+01,2.046527627533720889e-02
4.843999999999999773e+01,2.772890076490193423e-02
4.847999999999999687e+01,2.249810839956794747e-02
4.852000000000000313e+01,1.866604092054194655e-02
4.856000000000000227e+01,1.973097014086026835e-02
4.860000000000000142e+01,1.939600197970656886e-02
4.864000000000000057e+01,1.776108538898467371e-02
4.867999999999999972e+01,2.442148319729239153e-02
4.871999999999999886e+01,1.698824306962668299e-02
4.875999999999999801e+01,2.334760088126958122e-02
4.879999999999999716e+01,1.931149219426552682e-02
4.884000000000000341e+01,1.917286143936618517e-02
4.888000000000000256e+01,2.363136160279286774e-02
4.892000000000000171e+01,1.579532733078644821e-02
4.896000000000000085e+01,2.135207970613144102e-02
4.900000000000000000e+01,1.661330765280346830e-02
4.903999999999999915e+01,2.456766409915823318e-02
4.907999999999999829e+01,2.002757788337762579e-02
4.911999999999999744e+01,1.818554948768959581e-02
4.915999999999999659e+01,2.223999870797177189e-02
4.920000000000000284e+01,1.449965481137498874e-02
4.924000000000000199e+01,1.995218417398001223e-02
4.928000000000000114e+01,1.950700664953008284e-02
4.932000000000000028e+01,2.705726397923190196e-02
4.935999999999999943e+01,2.161331324148997590e-02
4.939999999999999858e+01,2.076647105580231578e-02
4.943999999999999773e+01,2.081856082339512276e-02
4.947999999999999687e+01,3.126489470047995323e-02
4.952000000000000313e+01,2.911681631773629236e-02
4.956000000000000227e+01,2.786766472682575616e-02
4.960000000000000142e+01,3.191526779226105254e-02
4.964000000000000057e+01,3.416312605413578118e-02
4.967999999999999972e+01,4.400660099627524968e-02
4.971999999999999886e+01,4.925170886707418150e-02
4.975999999999999801e+01,6.109292325331044243e-02
4.979999999999999716e+01,6.103936804304484209e-02
4.984000000000000341e+01,6.548295178714037823e-02
4.988000000000000256e+01,6.452855619887559735e-02
4.992000000000000171e+01,6.447307191810193461e-02
4.996000000000000085e+01,6.101861831172814693e-02
5.000000000000000000e+01,5.316568693540921209e-02
5.003999999999999915e+01,4.561195767081659136e-02
5.007999999999999829e+01,4.475427183018798605e-02
5.011999999999999744e+01,3.959805373055318850e-02
5.015999999999999659e+01,3.284196980585853132e-02
5.020000000000000284e+01,4.087792860696704000e-02
5.024000000000000199e+01,3.422048005945174665e-02
5.028000000000000114e+01,2.426399909486298689e-02
5.032000000000000028e+01,2.600108485065622324e-02
5.035999999999999943e+01,2.843716164386120293e-02
5.039999999999999858e+01,2.467563135934407875e-02
5.043999999999999773e+01,2.211284203320509206e-02
5.047999999999999687e+01,2.004913723825801214e-02
5.052000000000000313e+01,2.218269013231177061e-02
5.056000000000000227e+01,2.371586672034377286e-02
5.060000000000000142e+01,2.035078636926273762e-02
5.064000000000000057e+01,1.948379711516889934e-02
5.067999999999999972e+01,1.841622908315098187e-02
5.071999999999999886e+01,2.014660072431414747e-02
5.075999999999999801e+01,1.827806728545576173e-02
5.079999999999999716e+01,2.020697680267607987e-02
5.084000000000000341e+01,1.563840829970864973e-02
5.088000000000000256e+01,2.086431965503016822e-02
5.092000000000000171e+01,1.399551189556891631e-02
5.096000000000000085e+01,1.902014467354305391e-02
5.100000000000000000e+01,1.594808179121961697e-02
5.103999999999999915e+01,1.837261297264651538e-02
5.107999999999999829e+01,2.049659749893864916e-02
5.111999999999999744e+01,1.602314128927967082e-02
5.115999999999999659e+01,1.774592868862746864e-02
5.120000000000000284e+01,1.606969342741933551e-02
5.124000000000000199e+01,1.859068488652803469e-02
5.128000000000000114e+01,1.931186100229597205e-02
5.132000000000000028e+01,1.613425593412939202e-02
5.135999999999999943e+01,1.995249125164737236e-02
5.139999999999999858e+01,2.396991951210231120e-02
5.143999999999999773e+01,2.298910403092662910e-02
5.147999999999999687e+01,2.100806998308797288e-02
5.152000000000000313e+01,2.262454657787153073e-02
5.156000000000000227e+01,1.854311956287334889e-02
5.160000000000000142e+01,1.636003831896621144e-02
5.164000000000000057e+01,1.657505448759889755e-02
5.167999999999999972e+01,1.958796903783400697e-02
5.171999999999999886e+01,2.469912554248531247e-02
5.175999999999999801e+01,2.441222185210143239e-02
5.179999999999999716e+01,1.762779884995115121e-02
5.184000000000000341e+01,2.173727181075994774e-02
5.188000000000000256e+01,1.954912336360995276e-02
5.192000000000000171e+01,1.795994818267014972e-02
5.196000000000000085e+01,1.716964589223059223e-02
5.200000000000000000e+01,2.197584704634896607e-02
5.203999999999999915e+01,1.938496251432999043e-02
5.207999999999999829e+01,2.179087395158655141e-02
5.211999999999999744e+01,1.310152138344952352e-02
5.215999999999999659e+01,1.320708689430072705e-02
5.220000000000000284e+01,2.000860464354643764e-02
5.224000000000000199e+01,1.991278146617383657e-02
5.228000000000000114e+01,1.461877707226679098e-02
5.232000000000000028e+01,2.321716816711706655e-02
5.235999999999999943e+01,2.151989031276912642e-02
5.239999999999999858e+01,2.102126911315956720e-02
5.243999999999999773e+01,1.682371990087955585e-02
5.247999999999999687e+01,1.962196290077570029e-02
5.252000000000000313e+01,1.762181705078772961e-02
5.256000000000000227e+01,1.811967971462962596e-02
5.260000000000000142e+01,1.751732496591387744e-02
5.264000000000000057e+01,1.681425780802056624e-02
5.267999999999999972e+01,1.661018055478475849e-02
5.271999999999999886e+01,1.920395695060781241e-02
5.275999999999999801e+01,2.119726241387469290e-02
5.279999999999999716e+01,2.079098312115044977e-02
5.284000000000000341e+01,2.028398281683639615e-02
5.288000000000000256e+01,1.757729566033879379e-02
5.292000000000000171e+01,2.116672708400669026e-02
5.296000000000000085e+01,2.005770140486985362e-02
5.300000000000000000e+01,2.374553077913980903e-02
5.303999999999999915e+01,1.583830321498871235e-02
5.307999999999999829e+01,1.792536222736466900e-02
5.311999999999999744e+01,1.601361196170987891e-02
5.315999999999999659e+01,2.089772331525718840e-02
5.320000000000000284e+01,1.748514303719998428e-02
5.324000000000000199e+01,1.906930883442744390e-02
5.328000000000000114e+01,1.875362259180569230e-02
5.332000000000000028e+01,2.073601082907486695e-02
5.335999999999999943e+01,2.071859291314368662e-02
5.339999999999999858e+01,1.850146577875718540e-02
5.343999999999999773e+01,1.348492367111542647e-02
5.347999999999999687e+01,1.886245362472128637e-02
5.352000000000000313e+01,2.154051583649324586e-02
5.356000000000000227e+01,2.051960186208634171e-02
5.360000000000000142e+01,1.809857544590190784e-02
5.364000000000000057e+01,1.997462319347391435e-02
5.367999999999999972e+01,1.695228152478469447e-02
5.371999999999999886e+01,2.022602402661208970e-02
5.375999999999999801e+01,2.339900594575349338e-02
5.379999999999999716e+01,1.657610899548741384e-02
5.384000000000000341e+01,2.434519686234960095e-02
5.388000000000000256e+01,1.372254593839420701e-02
5.392000000000000171e+01,1.869138311446469705e-02
5.396000000000000085e+01,1.666285471078554972e-02
5.400000000000000000e+01,1.843163162458957144e-02
5.403999999999999915e+01,1.870032649892294785e-02
5.407999999999999829e+01,1.836849366477951925e-02
5.411999999999999744e+01,2.143415829712693246e-02
5.415999999999999659e+01,2.200022900469383175e-02
5.420000000000000284e+01,1.976685204983902669e-02
5.424000000000000199e+01,1.843220059037143851e-02
5.428000000000000114e+01,1.939558231921611683e-02
5.432000000000000028e+01,2.065798206816558263e-02
5.435999999999999943e+01,1.782156853174230240e-02
5.439999999999999858e+01,2.068150588331655465e-02
5.443999999999999773e+01,1.824321843991812131e-02
5.447999999999999687e+01,2.250078516741486553e-02
5.452000000000000313e+01,1.586288600534390206e-02
5.456000000000000227e+01,1.961901245149456907e-02
5.460000000000000142e+01,2.167513142664788742e-02
5.464000000000000057e+01,1.703370759100874404e-02
5.467999999999999972e+01,2.048743873726009690e-02
5.471999999999999886e+01,1.584431421834661680e-02
5.475999999999999801e+01,2.159520670524255059e-02
5.479999999999999716e+01,1.994889479271246685e-02
5.484000000000000341e+01,1.890143055117417606e-02
5.488000000000000256e+01,2.355029655184411042e-02
5.492000000000000171e+01,2.390042383561454334e-02
5.496000000000000085e+01,1.975190933723054362e-02
5.500000000000000000e+01,1.420322218018350499e-02
5.503999999999999915e+01,1.944834267511378473e-02
5.507999999999999829e+01,1.449762790042588394e-02
5.511999999999999744e+01,1.864155590618413530e-02
5.515999999999999659e+01,1.978609361316952669e-02
5.520000000000000284e+01,1.923059804192088496e-02
5.524000000000000199e+01,2.087314369501962544e-02
5.528000000000000114e+01,2.051580061176068795e-02
5.532000000000000028e+01,1.965782715745541601e-02
5.535999999999999943e+01,1.839917228400763868e-02
5.539999999999999858e+01,1.803919301195616026e-02
5.543999999999999773e+01,2.207616115433742518e-02
5.547999999999999687e+01,1.841604363193238489e-02
5.552000000000000313e+01,2.095198218594770956e-02
5.556000000000000227e+01,1.709019037523315521e-02
5.560000000000000142e+01,2.302267540587919076e-02
5.564000000000000057e+01,1.865935040776656520e-02
5.567999999999999972e+01,1.699380107062573031e-02
5.571999999999999886e+01,2.022494046647173652e-02
5.575999999999999801e+01,2.015681173914946750e-02
5.579999999999999716e+01,2.298635485612413043e-02
5.584000000000000341e+01,1.691938875533548214e-02
5.588000000000000256e+01,2.084658879730279940e-02
5.592000000000000171e+01,2.397328064382838603e-02
5.596000000000000085e+01,1.950281685216458810e-02
5.600000000000000000e+01,2.072863512920057952e-02
5.603999999999999915e+01,2.235334811798253898e-02
5.607999999999999829e+01,2.167828594359918343e-02
5.611999999999999744e+01,2.560004328021949285e-02
5.615999999999999659e+01,2.452335385828077405e-02
5.620000000000000284e+01,2.594451638626957615e-02
5.624000000000000199e+01,2.236722871473443425e-02
5.628000000000000114e+01,2.868413930874458284e-02
5.632000000000000028e+01,2.590461869442958059e-02
5.635999999999999943e+01,3.072042743981116472e-02
5.639999999999999858e+01,2.833886431124151353e-02
5.643999999999999773e+01,3.005435356788472429e-02
5.647999999999999687e+01,3.206876793858075975e-02
5.652000000000000313e+01,3.398230301330212866e-02
5.656000000000000227e+01,3.259653555520635598e-02
5.660000000000000142e+01,3.490801091084864971e-02
5.664000000000000057e+01,4.421509954849291157e-02
5.667999999999999972e+01,3.962810921892989668e-02
5.671999999999999886e+01,3.563988569768380965e-02
5.675999999999999801e+01,4.244539584766993806e-02
5.679999999999999716e+01,4.115396086740411019e-02
5.684000000000000341e+01,3.886207677582782793e-02
5.688000000000000256e+01,3.107196159507727082e-02
5.692000000000000171e+01,3.657434001328547374e-02
5.696000000000000085e+01,3.188080229920063624e-02
5.700000000000000000e+01,3.578207314095582792e-02
5.703999999999999915e+01,3.438500735637944894e-02
5.707999999999999829e+01,3.248723549952922673e-02
5.711999999999999744e+01,3.138811459094396211e-02
5.715999999999999659e+01,2.599015861844238690e-02
5.720000000000000284e+01,3.408458554629494042e-02
5.724000000000000199e+01,3.278268967756738789e-02
5.728000000000000114e+01,3.088012846176748857e-02
5.732000000000000028e+01,2.677768942023277948e-02
5.735999999999999943e+01,2.727201655474597100e-02
5.739999999999999858e+01,3.196330545527961003e-02
5.743999999999999773e+01,2.595890421579963303e-02
5.747999999999999687e+01,2.395155995660272139e-02
5.752000000000000313e+01,2.883984045640776428e-02
5.756000000000000227e+01,2.743025523974693819e-02
5.760000000000000142e+01,3.111717923817062734e-02
5.764000000000000057e+01,3.040529685450241854e-02
5.767999999999999972e+01,2.899278124655114280e-02
5.771999999999999886e+01,3.067775624451200833e-02
5.775999999999999801e+01,3.226179861154246375e-02
5.779999999999999716e+01,2.674835956012240959e-02
5.784000000000000341e+01,3.242841041645358469e-02
5.788000000000000256e+01,3.261018717154939156e-02
5.792000000000000171e+01,3.648914996446261938e-02
5.796000000000000085e+01,3.566944059426561259e-02
5.800000000000000000e+01,3.994622323432867050e-02
5.803999999999999915e+01,4.332245582099418513e-02
5.807999999999999829e+01,4.299951780696466969e-02
5.811999999999999744e+01,4.087647024709647331e-02
5.815999999999999659e+01,5.034670152066496318e-02
5.820000000000000284e+01,4.882135794789464744e-02
5.824000000000000199e+01,4.999367992521966397e-02
5.828000000000000114e+01,5.826149531715272417e-02
5.832000000000000028e+01,5.713294145947963448e-02
5.835999999999999943e+01,6.359963093738094098e-02
5.839999999999999858e+01,5.807123024266869910e-02
5.843999999999999773e+01,6.023802011495220377e-02
5.847999999999999687e+01,6.290355042193883361e-02
5.852000000000000313e+01,5.937112439326722169e-02
5.856000000000000227e+01,6.643245326934532624e-02
5.860000000000000142e+01,5.909986723312762175e-02
5.864000000000000057e+01,5.976231517865217974e-02
5.867999999999999972e+01,5.982403756021887481e-02
5.871999999999999886e+01,5.178873222837630796e-02
5.875999999999999801e+01,5.324771580262247644e-02
5.879999999999999716e+01,5.000799108362707218e-02
5.884000000000000341e+01,5.466334107157549277e-02
5.888000000000000256e+01,4.272584931135341851e-02
5.892000000000000171e+01,4.048254092006280114e-02
5.896000000000000085e+01,4.053706442063852861e-02
5.900000000000000000e+01,2.909622530329528459e-02
5.903999999999999915e+01,2.954847918593375353e-02
5.907999999999999829e+01,3.359791854001252520e-02
5.911999999999999744e+01,2.985016499301634471e-02
5.915999999999999659e+01,2.550166523627296275e-02
5.920000000000000284e+01,2.774886596111007797e-02
5.924000000000000199e+01,2.419788207115001338e-02
5.928000000000000114e+01,2.014609748238164674e-02
5.932000000000000028e+01,1.599331316386756394e-02
5.935999999999999943e+01,1.923582782409426900e-02
5.939999999999999858e+01,2.047827653827156980e-02
5.943999999999999773e+01,1.722189077626068779e-02
5.947999999999999687e+01,1.876208134950070258e-02
5.952000000000000313e+01,1.600333535036016497e-02
5.956000000000000227e+01,1.214407257471672788e-02
5.960000000000000142e+01,1.727930921309945439e-02
5.964000000000000057e+01,1.181871175732038086e-02
5.967999999999999972e+01,1.235409010301500611e-02
5.971999999999999886e+01,1.368800756561573857e-02
5.975999999999999801e+01,1.012327409862375481e-02
5.979999999999999716e+01,1.705229152903949344e-02
5.984000000000000341e+01,1.118655147038364987e-02
5.988000000000000256e+01,9.217814490677980407e-03
5.992000000000000171e+01,1.094617752466756251e-02
5.996000000000000085e+01,1.207375993926103168e-02
