2.003999999999999915e+01,2.557924916476250407e-02
2.007999999999999829e+01,1.955136715700027047e-02
2.012000000000000099e+01,3.220756706142351156e-02
2.016000000000000014e+01,2.172275610351006789e-02
2.019999999999999929e+01,4.277809917219083102e-02
2.023999999999999844e+01,3.452151485947307918e-02
2.028000000000000114e+01,3.243576510880505359e-02
2.032000000000000028e+01,2.280770431583491187e-02
2.035999999999999943e+01,1.969330542235607148e-02
2.039999999999999858e+01,1.675023824058605865e-02
2.044000000000000128e+01,4.089054911331096304e-02
2.048000000000000043e+01,4.154701535333259199e-02
2.051999999999999957e+01,3.260419559043074150e-02
2.055999999999999872e+01,2.674674827029282012e-02
2.060000000000000142e+01,3.974478945484446329e-02
2.064000000000000057e+01,3.114454086566836519e-02
2.067999999999999972e+01,3.711442169426588944e-02
2.071999999999999886e+01,2.765692669502715917e-02
2.076000000000000156e+01,3.979754661951995232e-02
2.080000000000000071e+01,2.194057290846626943e-02
2.083999999999999986e+01,4.042334366769758519e-02
2.087999999999999901e+01,4.227883584183021737e-02
2.092000000000000171e+01,3.899180769245878114e-02
2.096000000000000085e+01,4.701803252956180540e-02
2.100000000000000000e+01,2.178978858640428368e-02
2.103999999999999915e+01,3.615815782532095374e-02
2.107999999999999829e+01,3.081378764643808582e-02
2.112000000000000099e+01,2.958326677630348719e-02
2.116000000000000014e+01,3.315225181967798584e-02
2.119999999999999929e+01,3.620689846085821395e-02
2.123999999999999844e+01,3.926144899259163129e-02
2.128000000000000114e+01,2.568871450630140149e-02
2.132000000000000028e+01,3.371408593764754769e-02
2.135999999999999943e+01,4.311067382577526974e-02
2.139999999999999858e+01,2.902340228547227105e-02
2.144000000000000128e+01,2.299250408388215858e-02
2.148000000000000043e+01,2.776060756992442674e-02
2.151999999999999957e+01,2.858608126716782882e-02
2.155999999999999872e+01,3.266832563687592506e-02
2.160000000000000142e+01,3.143662443509429028e-02
2.164000000000000057e+01,2.540521995457007548e-02
2.167999999999999972e+01,3.222978568937457516e-02
2.171999999999999886e+01,2.568393125818955666e-02
2.176000000000000156e+01,2.976565969957604280e-02
2.180000000000000071e+01,2.819061072898380177e-02
2.183999999999999986e+01,4.495678738497408539e-02
2.187999999999999901e+01,3.549646790081166514e-02
2.192000000000000171e+01,2.123644063485924383e-02
2.196000000000000085e+01,1.897530752112185082e-02
2.200000000000000000e+01,3.179852553254542552e-02
2.203999999999999915e+01,2.439474575110970114e-02
2.207999999999999829e+01,1.990489965530988989e-02
2.212000000000000099e+01,2.775677376258166643e-02
2.216000000000000014e+01,2.258104925167274749e-02
2.219999999999999929e+01,2.460461429685321597e-02
2.223999999999999844e+01,3.776999743113503005e-02
2.228000000000000114e+01,2.505170661636586110e-02
2.232000000000000028e+01,4.198797830154293170e-02
2.235999999999999943e+01,4.298260484785191432e-02
2.239999999999999858e+01,1.740789826717941899e-02
2.244000000000000128e+01,2.714442455301270540e-02
2.248000000000000043e+01,1.271141679346474845e-02
2.251999999999999957e+01,9.934465556010456389e-03
2.255999999999999872e+01,3.218388653439013120e-02
2.260000000000000142e+01,2.460709924107418178e-02
2.264000000000000057e+01,3.108616690815977496e-02
2.267999999999999972e+01,2.230924153809015972e-02
2.271999999999999886e+01,3.461615663437991181e-02
2.276000000000000156e+01,3.218132034296932592e-02
2.280000000000000071e+01,3.043202010175743641e-02
2.283999999999999986e+01,4.051018554831242735e-02
2.287999999999999901e+01,2.676163914058781595e-02
2.292000000000000171e+01,3.118288667853502324e-02
2.296000000000000085e+01,3.371845301331240219e-02
2.300000000000000000e+01,3.351126594156119548e-02
2.303999999999999915e+01,2.867576738784328311e-02
2.307999999999999829e+01,2.332590019718401922e-02
2.312000000000000099e+01,3.066056575131040005e-02
2.316000000000000014e+01,3.628096119781762385e-02
2.319999999999999929e+01,4.155840038951925247e-02
2.323999999999999844e+01,2.609457955354713837e-02
2.328000000000000114e+01,1.525881622456829075e-02
2.332000000000000028e+01,3.287769912913074410e-02
2.335999999999999943e+01,3.644047824465831975e-02
2.339999999999999858e+01,3.571776871261312519e-02
2.344000000000000128e+01,4.116584292251068006e-02
2.348000000000000043e+01,3.684316921382667365e-02
2.351999999999999957e+01,9.379430606236085002e-03
2.355999999999999872e+01,4.259622503092104495e-02
2.360000000000000142e+01,3.981587986912141219e-02
2.364000000000000057e+01,1.697992549477588681e-02
2.367999999999999972e+01,1.865608238803474414e-02
2.371999999999999886e+01,3.267393375266521710e-02
2.376000000000000156e+01,3.400698939144185251e-02
2.380000000000000071e+01,1.614150480456888817e-02
2.383999999999999986e+01,2.793055827252744622e-02
2.387999999999999901e+01,1.040762581947024014e-02
2.392000000000000171e+01,2.973863123921567653e-02
2.396000000000000085e+01,9.301376418552671776e-03
2.400000000000000000e+01,1.680451395941885001e-02
2.403999999999999915e+01,3.270681164901215882e-02
2.407999999999999829e+01,2.838207873782904248e-02
2.412000000000000099e+01,1.342951605531846060e-02
2.416000000000000014e+01,2.796007196928608843e-02
2.419999999999999929e+01,1.986379498441450189e-02
2.423999999999999844e+01,1.365293107530438955e-02
2.428000000000000114e+01,2.149789575160349075e-02
2.432000000000000028e+01,2.557159992064219831e-02
2.435999999999999943e+01,2.655970018718104356e-02
2.439999999999999858e+01,7.149350394590226442e-03
2.444000000000000128e+01,2.545000167206575015e-02
2.448000000000000043e+01,3.038018839636943969e-02
2.451999999999999957e+01,2.176849561219563675e-02
2.455999999999999872e+01,9.385538461006455793e-03
2.460000000000000142e+01,2.322882090182658288e-02
2.464000000000000057e+01,1.735930667181494885e-02
2.467999999999999972e+01,1.457509862544025675e-02
2.471999999999999886e+01,2.858934108046901068e-02
2.476000000000000156e+01,2.169088475069592611e-02
2.480000000000000071e+01,2.661986258735738256e-02
2.483999999999999986e+01,1.937827026530734506e-02
2.487999999999999901e+01,1.727895265459035087e-02
2.492000000000000171e+01,2.700706728043067439e-02
2.496000000000000085e+01,1.925076614527133911e-02
2.500000000000000000e+01,8.408850814932120749e-03
2.503999999999999915e+01,8.194465607179908517e-03
2.507999999999999829e+01,3.060661171964892263e-02
2.512000000000000099e+01,1.736442242454492094e-02
2.516000000000000014e+01,4.122073977329511994e-03
2.519999999999999929e+01,9.392311432140022093e-03
2.523999999999999844e+01,2.546149010508828511e-02
2.528000000000000114e+01,2.456049080673669560e-02
2.532000000000000028e+01,1.937397198277266558e-02
2.535999999999999943e+01,3.012882180746603161e-02
2.539999999999999858e+01,2.785602090728664729e-02
2.544000000000000128e+01,3.243962883247798051e-02
2.548000000000000043e+01,2.313851318614528266e-02
2.551999999999999957e+01,3.749240765589597485e-02
2.555999999999999872e+01,3.299056221915365461e-02
2.560000000000000142e+01,4.340159569923442151e-02
2.564000000000000057e+01,1.541565641672782913e-02
2.567999999999999972e+01,1.485583954142569510e-02
2.571999999999999886e+01,1.772414074818204691e-02
2.576000000000000156e+01,7.050542504393462681e-03
2.580000000000000071e+01,7.004462160634336056e-03
2.583999999999999986e+01,1.861438494569171362e-02
2.587999999999999901e+01,9.654419557783776654e-03
2.592000000000000171e+01,8.750755459829213587e-03
2.596000000000000085e+01,7.161262095860375029e-03
2.600000000000000000e+01,1.208533992714074315e-02
2.603999999999999915e+01,2.198025950225866026e-02
2.607999999999999829e+01,2.741823301719344130e-02
2.612000000000000099e+01,1.177207156336825336e-02
2.616000000000000014e+01,9.667465524165150606e-03
2.619999999999999929e+01,2.196148581635795974e-02
2.623999999999999844e+01,1.608541251413826700e-02
2.628000000000000114e+01,2.015119214438531800e-02
2.632000000000000028e+01,1.101789194201888145e-02
2.635999999999999943e+01,5.484113841044136774e-03
2.639999999999999858e+01,1.572027335110867327e-02
2.644000000000000128e+01,1.310017972270878517e-02
2.648000000000000043e+01,2.659285104278975159e-02
2.651999999999999957e+01,2.140118132937105302e-02
2.655999999999999872e+01,1.432377251645786977e-02
2.660000000000000142e+01,1.890235460980371762e-02
2.664000000000000057e+01,7.710637043997742301e-03
2.667999999999999972e+01,1.211743827417010276e-02
2.671999999999999886e+01,9.324654159267685774e-03
2.676000000000000156e+01,3.481504664273850358e-02
2.680000000000000071e+01,1.008086017922603557e-02
2.683999999999999986e+01,3.951341014150128172e-02
2.687999999999999901e+01,6.379549405255128050e-03
2.692000000000000171e+01,2.604110931210543850e-02
2.696000000000000085e+01,1.759053394851074412e-02
2.700000000000000000e+01,3.913727444366666558e-02
2.703999999999999915e+01,2.742944902139523092e-02
2.707999999999999829e+01,3.217720752224358799e-02
2.712000000000000099e+01,1.275535735578114602e-02
2.716000000000000014e+01,7.389289457668223905e-03
2.719999999999999929e+01,2.036436098494330549e-02
2.723999999999999844e+01,2.682549605239378451e-02
2.728000000000000114e+01,1.700207823197283363e-02
2.732000000000000028e+01,1.609201074633394984e-02
2.735999999999999943e+01,1.809579203172156578e-02
2.739999999999999858e+01,2.318483575685615847e-02
2.744000000000000128e+01,3.033065540636589383e-02
2.748000000000000043e+01,2.016343307946208419e-02
2.751999999999999957e+01,1.719541475074565229e-02
2.755999999999999872e+01,1.576992748048709064e-02
2.760000000000000142e+01,2.600041503417509572e-02
2.764000000000000057e+01,3.863050391980228648e-02
2.767999999999999972e+01,3.994704853301690034e-02
2.771999999999999886e+01,2.275064712597020533e-02
2.776000000000000156e+01,2.458103338626955667e-02
2.780000000000000071e+01,3.035374721345726959e-02
2.783999999999999986e+01,4.486838870061141821e-02
2.787999999999999901e+01,4.652675389077137041e-02
2.792000000000000171e+01,4.732784398157141581e-02
2.796000000000000085e+01,6.184187485084447627e-02
2.800000000000000000e+01,5.510032620459703184e-02
2.803999999999999915e+01,4.715867190508570700e-02
2.807999999999999829e+01,5.018732746195809363e-02
2.812000000000000099e+01,5.390143351112716696e-02
2.816000000000000014e+01,6.995716262620092774e-02
2.819999999999999929e+01,6.595720919338433907e-02
2.823999999999999844e+01,7.772716378015223637e-02
2.828000000000000114e+01,7.389820664478896628e-02
2.832000000000000028e+01,7.606854045767062755e-02
2.835999999999999943e+01,7.618169191088212944e-02
2.839999999999999858e+01,8.692231945011089089e-02
2.844000000000000128e+01,8.497807599826359692e-02
2.848000000000000043e+01,8.217654844096154709e-02
2.851999999999999957e+01,7.063267778230307437e-02
2.855999999999999872e+01,8.720054046184246010e-02
2.860000000000000142e+01,7.342785543977195517e-02
2.864000000000000057e+01,7.833911530858619909e-02
2.867999999999999972e+01,6.405175647006614015e-02
2.871999999999999886e+01,5.422095333874690781e-02
2.876000000000000156e+01,6.598813647265981686e-02
2.880000000000000071e+01,5.409992685701689452e-02
2.883999999999999986e+01,4.152584165829985990e-02
2.887999999999999901e+01,4.197902519427550855e-02
2.892000000000000171e+01,3.248995901187713697e-02
2.896000000000000085e+01,3.877078926979820456e-02
2.900000000000000000e+01,3.185249659450864468e-02
2.903999999999999915e+01,1.807740988720589123e-02
2.907999999999999829e+01,1.218715933773613196e-02
2.912000000000000099e+01,3.697984780056780274e-02
2.916000000000000014e+01,3.657440891609203132e-02
2.919999999999999929e+01,4.011127508326713109e-02
2.923999999999999844e+01,1.399324050420561877e-02
2.928000000000000114e+01,1.992945686038153502e-02
2.932000000000000028e+01,1.695190293733780246e-02
2.935999999999999943e+01,1.003159314016598309e-02
2.939999999999999858e+01,2.676623105970528729e-02
2.944000000000000128e+01,2.018829456103535258e-02
2.948000000000000043e+01,1.412437237070405388e-02
2.951999999999999957e+01,1.440255045386906393e-02
2.955999999999999872e+01,1.810878486301287921e-02
2.960000000000000142e+01,2.267186027464435441e-02
2.964000000000000057e+01,2.929167622956361031e-02
2.967999999999999972e+01,1.517012858671726826e-02
2.971999999999999886e+01,1.424725048143441961e-02
2.976000000000000156e+01,1.315272493338974849e-02
2.980000000000000071e+01,5.201393130774532164e-03
2.983999999999999986e+01,2.416187389690441223e-02
2.987999999999999901e+01,1.106764325593241269e-02
2.992000000000000171e+01,3.088472481758400626e-02
2.996000000000000085e+01,8.533649276767443087e-03
3.000000000000000000e+01,1.463711253964527365e-02
3.003999999999999915e+01,4.455978527469316684e-03
3.007999999999999829e+01,1.912968148012469602e-02
3.012000000000000099e+01,1.443332825490286145e-02
3.016000000000000014e+01,8.365420969901660869e-03
3.019999999999999929e+01,2.218133367147034560e-02
3.023999999999999844e+01,0.000000000000000000e+00
3.028000000000000114e+01,7.130272189242884383e-03
3.032000000000000028e+01,2.111687472217183351e-02
3.035999999999999943e+01,1.213371666519066222e-02
3.039999999999999858e+01,8.635573169204649110e-03
3.044000000000000128e+01,2.982084653640430447e-02
3.048000000000000043e+01,2.032271334322046513e-02
3.051999999999999957e+01,1.099574910874388280e-02
3.055999999999999872e+01,2.652361411958877729e-02
3.060000000000000142e+01,2.765243028143048176e-02
3.064000000000000057e+01,1.352512539091037073e-02
3.067999999999999972e+01,1.739607533530450681e-02
3.071999999999999886e+01,1.115333230114902603e-02
3.076000000000000156e+01,1.999479951109777234e-02
3.080000000000000071e+01,1.100892841531611425e-02
3.083999999999999986e+01,2.482091031764950897e-02
3.087999999999999901e+01,1.994848106760125153e-02
3.092000000000000171e+01,1.353307122320293772e-02
3.096000000000000085e+01,1.803565276870682009e-03
3.100000000000000000e+01,1.132918094736440340e-02
3.103999999999999915e+01,1.914039978161727329e-02
3.107999999999999829e+01,1.306680498339675423e-02
3.112000000000000099e+01,8.192855366575588216e-03
3.116000000000000014e+01,1.343209451254965756e-02
3.119999999999999929e+01,1.695693424911291075e-02
3.123999999999999844e+01,1.945303118102587395e-02
3.128000000000000114e+01,1.080694025621478128e-02
3.132000000000000028e+01,1.175979258498933630e-02
3.135999999999999943e+01,2.299724477210987258e-02
3.139999999999999858e+01,2.686362203692023096e-02
3.144000000000000128e+01,7.074564094869987066e-03
3.148000000000000043e+01,1.231173491442703709e-02
3.151999999999999957e+01,1.360611512206122940e-02
3.155999999999999872e+01,8.729318018307867175e-03
3.160000000000000142e+01,1.653691728133094285e-02
3.164000000000000057e+01,9.774036657732710145e-03
3.167999999999999972e+01,1.449565093023326943e-02
3.171999999999999886e+01,5.161026965567277157e-03
3.176000000000000156e+01,1.965272707536837998e-02
3.180000000000000071e+01,3.482981849455656087e-02
3.183999999999999986e+01,2.960834020221081789e-02
3.187999999999999901e+01,2.438659468461428642e-02
3.192000000000000171e+01,3.802015561993084963e-02
3.196000000000000085e+01,3.176938784987568681e-02
3.200000000000000000e+01,3.666028120555283459e-02
3.203999999999999915e+01,2.355240200141897611e-02
3.207999999999999829e+01,2.141476832441917971e-02
3.211999999999999744e+01,2.801899347508882143e-02
3.215999999999999659e+01,2.930910322504970064e-02
3.220000000000000284e+01,2.134256775470486783e-02
3.224000000000000199e+01,2.091798899805923789e-02
3.228000000000000114e+01,1.895040777511868002e-02
3.232000000000000028e+01,6.012036281862512613e-03
3.235999999999999943e+01,1.689997921368593253e-02
3.239999999999999858e+01,2.967320398960174299e-02
3.243999999999999773e+01,1.776249160426512236e-02
3.247999999999999687e+01,9.965445832608022317e-03
3.252000000000000313e+01,3.045148402520487380e-02
3.256000000000000227e+01,1.956842495815539623e-02
3.260000000000000142e+01,2.702641847200693351e-02
3.264000000000000057e+01,2.865604592960003041e-02
3.267999999999999972e+01,2.002031813907714265e-03
3.271999999999999886e+01,4.014234690482702816e-02
3.275999999999999801e+01,1.245928480497626896e-02
3.279999999999999716e+01,2.094436051894099302e-02
3.284000000000000341e+01,1.931570915985384579e-02
3.288000000000000256e+01,2.128647504548144068e-02
3.292000000000000171e+01,2.000008505200184111e-02
3.296000000000000085e+01,5.857337063380908815e-03
3.300000000000000000e+01,2.154039412762317682e-02
3.303999999999999915e+01,6.711417772775324538e-03
3.307999999999999829e+01,2.565077436051020621e-02
3.311999999999999744e+01,1.373526761854357812e-02
3.315999999999999659e+01,9.704531418575312179e-03
3.320000000000000284e+01,9.273207316981937551e-03
3.324000000000000199e+01,1.813607325649949781e-03
3.328000000000000114e+01,1.029524861106115644e-02
3.332000000000000028e+01,1.157719840813558297e-02
3.335999999999999943e+01,1.354451442618974724e-02
3.339999999999999858e+01,2.356801143850058289e-02
3.343999999999999773e+01,1.816392805596159579e-02
3.347999999999999687e+01,1.121682290835278491e-02
3.352000000000000313e+01,1.883964068162625669e-02
3.356000000000000227e+01,7.778004201920780264e-03
3.360000000000000142e+01,2.345670550945274518e-02
3.364000000000000057e+01,2.045095127742077926e-02
3.367999999999999972e+01,1.453085756775062548e-02
3.371999999999999886e+01,2.815169861088423486e-02
3.375999999999999801e+01,1.880272438424542697e-02
3.379999999999999716e+01,1.305315260659404251e-02
3.384000000000000341e+01,2.530178484374981732e-02
3.388000000000000256e+01,2.075151511373234461e-02
3.392000000000000171e+01,2.717146131939416134e-02
3.396000000000000085e+01,1.490694683915212183e-02
3.400000000000000000e+01,1.806941912034864747e-02
3.403999999999999915e+01,1.608916007810231794e-02
3.407999999999999829e+01,5.537882828855849454e-03
3.411999999999999744e+01,2.275542087612373796e-02
3.415999999999999659e+01,6.889692811913080382e-03
3.420000000000000284e+01,2.462086536608197943e-02
3.424000000000000199e+01,1.166857089037271096e-02
3.428000000000000114e+01,1.397184436104125481e-02
3.432000000000000028e+01,2.056016916594777255e-02
3.435999999999999943e+01,1.977737144489935886e-02
3.439999999999999858e+01,1.436607954681530866e-02
3.443999999999999773e+01,1.461115154919770398e-02
3.447999999999999687e+01,3.182593140162776058e-02
3.452000000000000313e+01,2.161411164938378815e-02
3.456000000000000227e+01,1.911562561188757600e-02
3.460000000000000142e+01,2.690168732604520524e-02
3.464000000000000057e+01,1.360347705014126538e-02
3.467999999999999972e+01,2.618851563251102521e-02
3.471999999999999886e+01,2.111756717849900752e-02
3.475999999999999801e+01,3.010227876726212157e-02
3.479999999999999716e+01,2.485928827332324967e-02
3.484000000000000341e+01,1.944456863847561501e-02
3.488000000000000256e+01,3.391359372497579350e-02
3.492000000000000171e+01,2.267015589400939515e-02
3.496000000000000085e+01,2.462530332928954124e-02
3.500000000000000000e+01,2.435174730633199100e-02
3.503999999999999915e+01,3.384848902277111382e-02
3.507999999999999829e+01,2.843186690540783559e-02
3.511999999999999744e+01,2.352916839214124964e-02
3.515999999999999659e+01,2.188302183189070466e-02
3.520000000000000284e+01,1.886524015700628484e-02
3.524000000000000199e+01,1.841835190049995880e-02
3.528000000000000114e+01,2.585620009148965198e-02
3.532000000000000028e+01,3.072251105387527326e-02
3.535999999999999943e+01,2.701778322390087361e-02
3.539999999999999858e+01,1.782747357451231265e-02
3.543999999999999773e+01,2.200715578387353946e-02
3.547999999999999687e+01,3.664278590446690825e-02
3.552000000000000313e+01,1.853795666566344924e-02
3.556000000000000227e+01,3.094454855705624022e-02
3.560000000000000142e+01,2.072412421124840420e-02
3.564000000000000057e+01,3.021601805221773088e-02
3.567999999999999972e+01,1.519533693725570733e-02
3.571999999999999886e+01,2.708637382704200472e-02
3.575999999999999801e+01,3.160626567563595835e-02
3.579999999999999716e+01,1.847015311895076201e-02
3.584000000000000341e+01,4.750163040631474876e-02
3.588000000000000256e+01,3.607899850405355685e-02
3.592000000000000171e+01,2.157057678776112125e-02
3.596000000000000085e+01,3.517376940055464557e-02
3.600000000000000000e+01,4.654824247279816529e-02
3.603999999999999915e+01,4.060953590403392627e-02
3.607999999999999829e+01,4.786939658932631153e-02
3.611999999999999744e+01,3.781607634702602305e-02
3.615999999999999659e+01,1.902029013450251549e-02
3.620000000000000284e+01,4.136360210431637430e-02
3.624000000000000199e+01,5.616434700141469810e-02
3.628000000000000114e+01,5.056645078151200678e-02
3.632000000000000028e+01,4.445397299485175091e-02
3.635999999999999943e+01,3.439862675787652702e-02
3.639999999999999858e+01,4.251285767700187929e-02
3.643999999999999773e+01,5.131240528358487624e-02
3.647999999999999687e+01,3.817057974858516917e-02
3.652000000000000313e+01,5.279753091255009328e-02
3.656000000000000227e+01,5.096836563277099691e-02
3.660000000000000142e+01,4.691047116305446102e-02
3.664000000000000057e+01,4.405213310037271734e-02
3.667999999999999972e+01,4.616446566572462301e-02
3.671999999999999886e+01,5.650434014406918726e-02
3.675999999999999801e+01,5.707325313072367928e-02
3.679999999999999716e+01,4.204311737394542114e-02
3.684000000000000341e+01,4.415406582497091031e-02
3.688000000000000256e+01,5.517821086387209029e-02
3.692000000000000171e+01,5.488866302979401868e-02
3.696000000000000085e+01,4.037137837521914685e-02
3.700000000000000000e+01,3.733850305884110071e-02
3.703999999999999915e+01,3.567659202858611267e-02
3.707999999999999829e+01,3.744261638532063452e-02
3.711999999999999744e+01,4.743617622212289303e-02
3.715999999999999659e+01,5.348685474276027724e-02
3.720000000000000284e+01,5.388050818380791390e-02
3.724000000000000199e+01,4.193197773345699181e-02
3.728000000000000114e+01,3.546835119779191692e-02
3.732000000000000028e+01,4.768852995853976179e-02
3.735999999999999943e+01,4.876642308210418775e-02
3.739999999999999858e+01,6.270003360704633211e-02
3.743999999999999773e+01,5.897761335171697317e-02
3.747999999999999687e+01,6.365413709883609161e-02
3.752000000000000313e+01,5.581705813949585510e-02
3.756000000000000227e+01,6.546388043272093060e-02
3.760000000000000142e+01,5.642618350042492847e-02
3.764000000000000057e+01,6.281541478995039673e-02
3.767999999999999972e+01,6.988994282486603316e-02
3.771999999999999886e+01,7.165026604141594424e-02
3.775999999999999801e+01,8.198094306938012721e-02
3.779999999999999716e+01,7.945518426381102672e-02
3.784000000000000341e+01,8.224290605481963945e-02
3.788000000000000256e+01,1.013146237679608680e-01
3.792000000000000171e+01,1.140436475741944261e-01
3.796000000000000085e+01,1.039742028769568144e-01
3.800000000000000000e+01,1.187594677726363235e-01
3.803999999999999915e+01,1.416008390406428841e-01
3.807999999999999829e+01,1.474718264837509007e-01
3.811999999999999744e+01,1.783689359019118292e-01
3.815999999999999659e+01,2.003521328732116025e-01
3.820000000000000284e+01,2.473614505329791990e-01
3.824000000000000199e+01,3.103119297012204569e-01
3.828000000000000114e+01,4.022310574476490874e-01
3.832000000000000028e+01,5.058059876156355550e-01
3.835999999999999943e+01,5.942960868878214287e-01
3.839999999999999858e+01,6.569022529640804464e-01
3.843999999999999773e+01,6.910532705209213589e-01
3.847999999999999687e+01,6.940065099228398537e-01
3.852000000000000313e+01,7.437554824925677321e-01
3.856000000000000227e+01,8.207589560173031984e-01
3.860000000000000142e+01,9.311878450862302037e-01
3.864000000000000057e+01,9.821355919448804261e-01
3.867999999999999972e+01,1.000000000000000000e+00
3.871999999999999886e+01,9.319854605082180665e-01
3.875999999999999801e+01,8.338016242305460457e-01
3.879999999999999716e+01,7.327033661337961634e-01
3.884000000000000341e+01,6.041784389567829150e-01
3.888000000000000256e+01,5.049649793325957647e-01
3.892000000000000171e+01,3.937521374227518356e-01
3.896000000000000085e+01,3.235069349960497664e-01
3.900000000000000000e+01,2.827446125043098224e-01
3.903999999999999915e+01,2.222692617564395734e-01
3.907999999999999829e+01,1.905911324088936654e-01
3.911999999999999744e+01,1.751969790414129591e-01
3.915999999999999659e+01,1.634021419217251692e-01
3.920000000000000284e+01,1.560636919666040512e-01
3.924000000000000199e+01,1.495819279804790070e-01
3.928000000000000114e+01,1.348718907833557634e-01
3.932000000000000028e+01,1.345602689176897127e-01
3.935999999999999943e+01,1.282487586106126343e-01
3.939999999999999858e+01,1.181657452750040915e-01
3.943999999999999773e+01,1.135676011162867205e-01
3.947999999999999687e+01,1.249105985239755967e-01
3.952000000000000313e+01,1.293966333570172877e-01
3.956000000000000227e+01,1.217118612997087901e-01
3.960000000000000142e+01,1.104269973094196972e-01
3.964000000000000057e+01,1.217684304808832746e-01
3.967999999999999972e+01,1.449370585139729273e-01
3.971999999999999886e+01,1.326225306497416379e-01
3.975999999999999801e+01,1.381346972810148788e-01
3.979999999999999716e+01,1.559882997800763338e-01
3.984000000000000341e+01,1.618425051977534224e-01
3.988000000000000256e+01,1.757527873963027620e-01
3.992000000000000171e+01,2.030329894048422401e-01
3.996000000000000085e+01,2.159139920339346319e-01
4.000000000000000000e+01,2.341084405218097908e-01
4.003999999999999915e+01,2.658442212018110040e-01
4.007999999999999829e+01,3.227775066475460641e-01
4.011999999999999744e+01,3.625689611484519959e-01
4.015999999999999659e+01,3.895039418615673377e-01
4.020000000000000284e+01,4.315229810017577883e-01
4.024000000000000199e+01,4.478294716665797703e-01
4.028000000000000114e+01,4.768202191037065329e-01
4.032000000000000028e+01,4.963827764201375059e-01
4.035999999999999943e+01,5.166305873813614724e-01
4.039999999999999858e+01,4.976241166450008913e-01
4.043999999999999773e+01,4.650755103697493120e-01
4.047999999999999687e+01,4.602956171075051617e-01
4.052000000000000313e+01,4.097476963612958767e-01
4.056000000000000227e+01,3.780549431168205299e-01
4.060000000000000142e+01,3.412193530489329163e-01
4.064000000000000057e+01,3.126112418513734559e-01
4.067999999999999972e+01,2.552051174859896743e-01
4.071999999999999886e+01,2.277960883300304551e-01
4.075999999999999801e+01,2.272986961239649717e-01
4.079999999999999716e+01,1.815475148669266348e-01
4.084000000000000341e+01,1.579083685368262990e-01
4.088000000000000256e+01,1.532957988741332489e-01
4.092000000000000171e+01,1.289701707205625769e-01
4.096000000000000085e+01,1.327560764845158725e-01
4.100000000000000000e+01,1.092866927424240298e-01
4.103999999999999915e+01,9.575892455786770563e-02
4.107999999999999829e+01,9.080145679144846493e-02
4.111999999999999744e+01,8.892903081545008859e-02
4.115999999999999659e+01,7.659991533753419957e-02
4.120000000000000284e+01,8.398302862873847918e-02
4.124000000000000199e+01,7.336722140285761862e-02
4.128000000000000114e+01,6.583645339422768139e-02
4.132000000000000028e+01,6.893295368813870394e-02
4.135999999999999943e+01,6.585811906400070026e-02
4.139999999999999858e+01,5.884033493469325443e-02
4.143999999999999773e+01,5.507900176147999954e-02
4.147999999999999687e+01,4.754613210852551286e-02
4.152000000000000313e+01,5.475447102996738175e-02
4.156000000000000227e+01,4.979197089643429275e-02
4.160000000000000142e+01,5.151420538609016719e-02
4.164000000000000057e+01,5.512157311927180087e-02
4.167999999999999972e+01,5.204335785202468534e-02
4.171999999999999886e+01,4.845047417353300773e-02
4.175999999999999801e+01,3.748634895997460248e-02
4.179999999999999716e+01,4.092059919373856880e-02
4.184000000000000341e+01,3.355532036558601244e-02
4.188000000000000256e+01,4.281680175434291608e-02
4.192000000000000171e+01,4.127875279459830571e-02
4.196000000000000085e+01,2.928400146708615842e-02
4.200000000000000000e+01,2.928782200224857787e-02
4.203999999999999915e+01,3.151959797203823799e-02
4.207999999999999829e+01,4.626418745395711324e-02
4.211999999999999744e+01,2.758255418516427498e-02
4.215999999999999659e+01,2.621333387828643849e-02
4.220000000000000284e+01,3.307156735332928560e-02
4.224000000000000199e+01,3.975795267835160324e-02
4.228000000000000114e+01,2.690267195256464128e-02
4.232000000000000028e+01,2.998848711941675196e-02
4.235999999999999943e+01,2.467456522973529576e-02
4.239999999999999858e+01,3.684446675422703432e-02
4.243999999999999773e+01,3.547220057520300562e-02
4.247999999999999687e+01,3.941334037082712405e-02
4.252000000000000313e+01,3.461191191272119244e-02
4.256000000000000227e+01,3.409540227059898454e-02
4.260000000000000142e+01,3.700673924110180202e-02
4.264000000000000057e+01,2.757580547571903892e-02
4.267999999999999972e+01,4.094253429387241516e-02
4.271999999999999886e+01,1.882605896776780308e-02
4.275999999999999801e+01,2.482108861102490238e-02
4.279999999999999716e+01,2.961577522608699678e-02
4.284000000000000341e+01,2.069687339269507195e-02
4.288000000000000256e+01,3.628977404650932798e-02
4.292000000000000171e+01,3.045544092468873559e-02
4.296000000000000085e+01,2.976309174599313379e-02
4.300000000000000000e+01,2.564201026646794127e-02
4.303999999999999915e+01,1.929209602691343145e-02
4.307999999999999829e+01,2.905467976945374370e-02
4.311999999999999744e+01,1.739002651989680209e-02
4.315999999999999659e+01,3.109424281456472927e-02
4.320000000000000284e+01,3.331325092731830112e-02
4.324000000000000199e+01,3.090362269539463635e-02
4.328000000000000114e+01,3.449304482032217178e-02
4.332000000000000028e+01,4.065323041854362884e-02
4.335999999999999943e+01,3.258557626946891744e-02
4.339999999999999858e+01,4.800123037271841753e-02
4.343999999999999773e+01,3.564731279304081402e-02
4.347999999999999687e+01,2.586415611348704541e-02
4.352000000000000313e+01,2.807954685149297719e-02
4.356000000000000227e+01,2.892316802673324666e-02
4.360000000000000142e+01,3.062340505208757321e-02
4.364000000000000057e+01,3.540864334043550971e-02
4.367999999999999972e+01,3.093705178353130594e-02
4.371999999999999886e+01,3.794976149168458046e-02
4.375999999999999801e+01,2.164966648291487966e-02
4.379999999999999716e+01,3.980338926239191527e-02
4.384000000000000341e+01,4.390067888707606392e-02
4.388000000000000256e+01,4.319790756238980900e-02
4.392000000000000171e+01,2.912435904437865250e-02
4.396000000000000085e+01,3.356309472421283024e-02
4.400000000000000000e+01,3.765853963714336367e-02
4.403999999999999915e+01,5.632373828502965779e-02
4.407999999999999829e+01,5.836128523816953156e-02
4.411999999999999744e+01,5.251330976594571764e-02
4.415999999999999659e+01,5.403568499424410421e-02
4.420000000000000284e+01,5.075799412683208028e-02
4.424000000000000199e+01,7.096359800260192141e-02
4.428000000000000114e+01,6.682790292656698439e-02
4.432000000000000028e+01,7.349084221814909668e-02
4.435999999999999943e+01,7.329674109669197246e-02
4.439999999999999858e+01,8.698673067250521640e-02
4.443999999999999773e+01,9.450533579674716411e-02
4.447999999999999687e+01,9.808094188229753152e-02
4.452000000000000313e+01,1.211973090316776913e-01
4.456000000000000227e+01,1.259718736466690359e-01
4.460000000000000142e+01,1.304031378453693324e-01
4.464000000000000057e+01,1.240348279516783336e-01
4.467999999999999972e+01,1.382357624207266600e-01
4.471999999999999886e+01,1.507220800475005118e-01
4.475999999999999801e+01,1.560085222042836561e-01
4.479999999999999716e+01,1.631800467844853608e-01
4.484000000000000341e+01,1.871496982899651662e-01
4.488000000000000256e+01,2.013482577153781206e-01
4.492000000000000171e+01,2.062899673534714928e-01
4.496000000000000085e+01,2.321437454752832141e-01
4.500000000000000000e+01,2.255997404014029040e-01
4.503999999999999915e+01,2.221407140752789111e-01
4.507999999999999829e+01,2.418221403591678254e-01
4.511999999999999744e+01,2.244775950931297281e-01
4.515999999999999659e+01,2.079896405887983746e-01
4.520000000000000284e+01,1.954437338191195028e-01
4.524000000000000199e+01,1.957534183654891236e-01
4.528000000000000114e+01,1.545803566764174797e-01
4.532000000000000028e+01,1.533463463149014050e-01
4.535999999999999943e+01,1.430268934018615323e-01
4.539999999999999858e+01,1.116229954530785634e-01
4.543999999999999773e+01,1.043880301967555213e-01
4.547999999999999687e+01,1.084659235886068218e-01
4.552000000000000313e+01,7.757481074176512947e-02
4.556000000000000227e+01,8.113748737830020485e-02
4.560000000000000142e+01,7.132935980322557823e-02
4.564000000000000057e+01,6.426337270249329880e-02
4.567999999999999972e+01,5.428285313637396664e-02
4.571999999999999886e+01,5.372963092652837530e-02
4.575999999999999801e+01,6.328936267771693991e-02
4.579999999999999716e+01,4.645079928782708256e-02
4.584000000000000341e+01,4.812448986103516624e-02
4.588000000000000256e+01,5.699708916117487978e-02
4.592000000000000171e+01,3.861431983029241233e-02
4.596000000000000085e+01,4.097218858880258968e-02
4.600000000000000000e+01,2.550247459043384485e-02
4.603999999999999915e+01,3.283036913903160381e-02
4.607999999999999829e+01,2.918725212469501507e-02
4.611999999999999744e+01,3.548566896974696128e-02
4.615999999999999659e+01,3.784105975782241921e-02
4.620000000000000284e+01,2.099755007645048507e-02
4.624000000000000199e+01,3.500811839020494254e-02
4.628000000000000114e+01,1.987775485115907126e-02
4.632000000000000028e+01,2.137408012355565545e-02
4.635999999999999943e+01,1.944161905855294400e-02
4.639999999999999858e+01,1.476602826091153592e-02
4.643999999999999773e+01,1.917489461625243238e-02
4.647999999999999687e+01,2.015497270431660867e-02
4.652000000000000313e+01,1.393514701752026665e-02
4.656000000000000227e+01,2.245644885026572973e-02
4.660000000000000142e+01,1.400722983681101409e-02
4.664000000000000057e+01,1.824216531215415438e-02
4.667999999999999972e+01,1.322022269530796247e-02
4.671999999999999886e+01,1.574000392027746428e-02
4.675999999999999801e+01,1.637372118304191576e-02
4.679999999999999716e+01,1.837824576856041808e-02
4.684000000000000341e+01,2.655317776991123618e-02
4.688000000000000256e+01,3.541325855937815792e-02
4.692000000000000171e+01,2.130331243584143372e-02
4.696000000000000085e+01,1.559215785443165449e-02
4.700000000000000000e+01,1.879403710789607704e-02
4.703999999999999915e+01,1.462458991168425100e-02
4.707999999999999829e+01,2.382494737610585736e-02
4.711999999999999744e+01,2.273993380004118298e-02
4.715999999999999659e+01,1.754046377267441670e-02
4.720000000000000284e+01,1.388320894714994806e-02
4.724000000000000199e+01,1.571069785647987924e-02
4.728000000000000114e+01,2.250868692133189963e-02
4.732000000000000028e+01,2.896333182600319134e-02
4.735999999999999943e+01,2.993220256680391433e-02
4.739999999999999858e+01,2.267266950822978411e-02
4.743999999999999773e+01,1.609827623167683561e-02
4.747999999999999687e+01,1.449437989418346506e-02
4.752000000000000313e+01,2.488896664500021144e-02
4.756000000000000227e+01,1.402765931026581439e-02
4.760000000000000142e+01,2.853515011428920875e-02
4.764000000000000057e+01,2.024401673805734450e-02
4.767999999999999972e+01,2.446560681300520221e-02
4.771999999999999886e+01,2.508697436659577257e-02
4.775999999999999801e+01,2.142246150748349995e-02
4.779999999999999716e+01,1.295782465633629060e-02
4.784000000000000341e+01,2.129126648352981654e-02
4.788000000000000256e+01,1.796801055157371679e-02
4.792000000000000171e+01,2.132938760259224867e-02
4.796000000000000085e+01,1.474820872800856192e-02
4.800000000000000000e+01,2.770773495080751381e-02
4.803999999999999915e+01,1.375468707210853424e-02
4.807999999999999829e+01,2.431335805259111221e-02
4.811999999999999744e+01,2.012986979793078557e-02
4.815999999999999659e+01,2.160252479441062204e-02
4.820000000000000284e+01,2.101767835814239566e-02
4.824000000000000199e+01,2.917443150266768245e-02
4.828000000000000114e+01,2.378892302297272096e-02
4.832000000000000028e+01,9.317924388109305109e-03
4.835999999999999943e+01,7.016809644426696621e-03
4.839999999999999858e+01,1.140032016420880132e-02
4.843999999999999773e+01,1.406915401551426213e-02
4.847999999999999687e+01,1.742311092323597238e-02
4.852000000000000313e+01,1.203440308335323138e-02
4.856000000000000227e+01,1.744426142208293368e-02
4.860000000000000142e+01,3.382409960814579397e-02
4.864000000000000057e+01,1.266366669850231899e-02
4.867999999999999972e+01,1.927181492690459644e-02
4.871999999999999886e+01,1.593739500714726198e-02
4.875999999999999801e+01,1.980183749726183856e-02
4.879999999999999716e+01,2.846534138577043807e-02
4.884000000000000341e+01,1.381595885920919482e-02
4.888000000000000256e+01,2.144989626980750921e-02
4.892000000000000171e+01,1.862701937974400868e-02
4.896000000000000085e+01,1.563218626652058268e-02
4.900000000000000000e+01,1.006559591865941079e-02
4.903999999999999915e+01,1.101220622956972962e-02
4.907999999999999829e+01,1.470090169166769940e-02
4.911999999999999744e+01,1.136106587690619008e-02
4.915999999999999659e+01,1.761988640727699118e-02
4.920000000000000284e+01,1.256481657387227904e-02
4.924000000000000199e+01,2.636477464772990498e-02
4.928000000000000114e+01,1.890881097445906017e-02
4.932000000000000028e+01,7.852599048131011367e-03
4.935999999999999943e+01,2.319364282777043595e-02
4.939999999999999858e+01,1.710734861839061441e-02
4.943999999999999773e+01,2.833335029169147326e-02
4.947999999999999687e+01,2.498858516991780271e-02
4.952000000000000313e+01,1.924346876271715648e-02
4.956000000000000227e+01,2.052578758752526128e-02
4.960000000000000142e+01,2.232179714454645900e-02
4.964000000000000057e+01,3.628767000738868098e-02
4.967999999999999972e+01,2.471225688984643801e-02
4.971999999999999886e+01,3.730570763246702365e-02
4.975999999999999801e+01,4.029940212534953436e-02
4.979999999999999716e+01,4.534951294210187722e-02
4.984000000000000341e+01,4.508522402286219144e-02
4.988000000000000256e+01,4.893432188506616209e-02
4.992000000000000171e+01,4.524063266852100529e-02
4.996000000000000085e+01,5.543094473158928503e-02
5.000000000000000000e+01,3.459470768350941805e-02
5.003999999999999915e+01,3.621318622912002988e-02
5.007999999999999829e+01,4.005949090756621284e-02
5.011999999999999744e+01,2.762087537812549926e-02
5.015999999999999659e+01,3.677990195243151239e-02
5.020000000000000284e+01,3.016824996830537453e-02
5.024000000000000199e+01,3.572645164061279133e-02
5.028000000000000114e+01,2.568538777991626748e-02
5.032000000000000028e+01,2.335740417672403993e-02
5.035999999999999943e+01,2.034319889909480886e-02
5.039999999999999858e+01,1.475721387159043170e-02
5.043999999999999773e+01,2.236956515613659421e-02
5.047999999999999687e+01,3.272397907663306821e-02
5.052000000000000313e+01,2.576498048423823267e-02
5.056000000000000227e+01,1.846258562497041580e-02
5.060000000000000142e+01,2.675832487276847901e-02
5.064000000000000057e+01,1.928337848591690773e-02
5.067999999999999972e+01,1.969292087895038734e-02
5.071999999999999886e+01,2.010189305596742082e-02
5.075999999999999801e+01,2.033888006166219981e-02
5.079999999999999716e+01,1.406155170825234418e-02
5.084000000000000341e+01,2.441083947423284758e-02
5.088000000000000256e+01,1.538973719353067295e-02
5.092000000000000171e+01,2.470939286576627827e-02
5.096000000000000085e+01,1.774411482097259379e-02
5.100000000000000000e+01,2.277726389804172677e-02
5.103999999999999915e+01,2.232457962833072143e-02
5.107999999999999829e+01,1.330060375230875981e-02
5.111999999999999744e+01,1.661788169229860487e-02
5.115999999999999659e+01,9.992552243286618313e-03
5.120000000000000284e+01,6.109273850959983168e-03
5.124000000000000199e+01,6.510774680145410900e-03
5.128000000000000114e+01,5.368967479100285149e-03
5.132000000000000028e+01,2.445346923021354119e-02
5.135999999999999943e+01,1.199715706219417130e-02
5.139999999999999858e+01,1.136785127109942936e-02
5.143999999999999773e+01,1.399483561297482775e-02
5.147999999999999687e+01,1.919245219647495310e-02
5.152000000000000313e+01,1.719008459355254176e-02
5.156000000000000227e+01,1.244450427325937379e-02
5.160000000000000142e+01,1.781178399329598830e-02
5.164000000000000057e+01,3.106353705419774569e-02
5.167999999999999972e+01,1.637417160190492507e-02
5.171999999999999886e+01,1.128342132402466655e-02
5.175999999999999801e+01,1.613411420129096455e-02
5.179999999999999716e+01,1.567037582123291181e-02
5.184000000000000341e+01,1.777726389316712508e-02
5.188000000000000256e+01,1.422689079716548191e-02
5.192000000000000171e+01,1.513270029871669267e-02
5.196000000000000085e+01,1.483801945809135915e-02
5.200000000000000000e+01,1.334284763199701171e-02
5.203999999999999915e+01,1.613244216156477923e-02
5.207999999999999829e+01,2.646367433175374553e-02
5.211999999999999744e+01,2.222409724956345492e-02
5.215999999999999659e+01,1.609836936068116328e-02
5.220000000000000284e+01,7.743661397787860584e-03
5.224000000000000199e+01,2.645230702014830099e-03
5.228000000000000114e+01,2.342976581581726614e-02
5.232000000000000028e+01,1.010225689126847785e-02
5.235999999999999943e+01,1.717245450528647605e-02
5.239999999999999858e+01,1.515709634830143468e-02
5.243999999999999773e+01,1.982629848223890767e-02
5.247999999999999687e+01,1.746691530274719142e-02
5.252000000000000313e+01,1.716390470323558154e-02
5.256000000000000227e+01,1.634605136021290497e-02
5.260000000000000142e+01,1.587042619045289302e-02
5.264000000000000057e+01,1.676551442274255149e-02
5.267999999999999972e+01,9.432113941047804567e-03
5.271999999999999886e+01,1.615408466379749178e-02
5.275999999999999801e+01,7.276749969408482198e-03
5.279999999999999716e+01,8.683670328587687545e-03
5.284000000000000341e+01,1.180412949738045801e-02
5.288000000000000256e+01,2.640874261724904942e-02
5.292000000000000171e+01,1.461494608997487496e-02
5.296000000000000085e+01,1.379105929115176203e-02
5.300000000000000000e+01,9.538279368375065029e-03
5.303999999999999915e+01,1.488409339135861494e-02
5.307999999999999829e+01,1.320131245152548864e-02
5.311999999999999744e+01,2.094570985885436942e-02
5.315999999999999659e+01,1.463352422423876142e-02
5.320000000000000284e+01,2.237670207455763269e-02
5.324000000000000199e+01,1.469198110024107391e-02
5.328000000000000114e+01,1.712009314796949719e-02
5.332000000000000028e+01,1.337667793319251286e-02
5.335999999999999943e+01,1.563215096555771802e-02
5.339999999999999858e+01,9.144880768633886770e-03
5.343999999999999773e+01,1.637014157286312624e-02
5.347999999999999687e+01,2.050933015765527001e-02
5.352000000000000313e+01,1.470587339918823580e-02
5.356000000000000227e+01,1.815817359965250441e-02
5.360000000000000142e+01,1.955288552288166060e-02
5.364000000000000057e+01,1.580455090934487078e-02
5.367999999999999972e+01,1.239842710017337313e-02
5.371999999999999886e+01,1.807664336474995234e-02
5.375999999999999801e+01,1.295513886624614572e-02
5.379999999999999716e+01,1.006140067437576863e-02
5.384000000000000341e+01,1.830897237053487683e-02
5.388000000000000256e+01,1.849945036594794270e-02
5.392000000000000171e+01,1.800364943389186692e-02
5.396000000000000085e+01,1.887854067523309434e-02
5.400000000000000000e+01,2.095270913466578885e-02
5.403999999999999915e+01,1.548402425622221086e-02
5.407999999999999829e+01,2.578483183041061291e-02
5.411999999999999744e+01,1.877216899538307684e-02
5.415999999999999659e+01,2.187232502996554195e-02
5.420000000000000284e+01,1.177295285706484590e-02
5.424000000000000199e+01,1.795731349966590146e-02
5.428000000000000114e+01,1.642740263262242040e-02
5.432000000000000028e+01,1.249706328505244095e-02
5.435999999999999943e+01,1.593691059841818858e-02
5.439999999999999858e+01,1.183389878427518367e-02
5.443999999999999773e+01,1.527248665649614395e-02
5.447999999999999687e+01,1.956751540327217667e-02
5.452000000000000313e+01,2.403332713325784589e-02
5.456000000000000227e+01,1.787081954632644201e-02
5.460000000000000142e+01,2.079263788070820698e-02
5.464000000000000057e+01,1.240047836353499154e-02
5.467999999999999972e+01,1.446395797719580642e-02
5.471999999999999886e+01,1.001305918908741710e-02
5.475999999999999801e+01,1.790335567737372235e-02
5.479999999999999716e+01,1.019431394060404950e-02
5.484000000000000341e+01,2.391142473034582258e-02
5.488000000000000256e+01,2.048646720032750237e-02
5.492000000000000171e+01,1.568955741247462718e-02
5.496000000000000085e+01,1.929131050824947277e-02
5.500000000000000000e+01,2.734919666805497515e-02
5.503999999999999915e+01,2.477875579143354670e-02
5.507999999999999829e+01,1.449403053931767014e-02
5.511999999999999744e+01,2.117868119832156185e-02
5.515999999999999659e+01,1.449237389880914106e-02
5.520000000000000284e+01,1.671896855920919356e-02
5.524000000000000199e+01,2.614432141609674895e-02
5.528000000000000114e+01,2.425568612874940203e-02
5.532000000000000028e+01,1.945236334252339883e-02
5.535999999999999943e+01,2.287628269498691996e-02
5.539999999999999858e+01,2.149995582984113793e-02
5.543999999999999773e+01,2.457975495250861939e-02
5.547999999999999687e+01,2.354496381903475877e-02
5.552000000000000313e+01,1.513870985787555898e-02
5.556000000000000227e+01,2.181626729947297796e-02
5.560000000000000142e+01,1.889397457062791386e-02
5.564000000000000057e+01,3.122690626996776561e-02
5.567999999999999972e+01,1.784704118303554951e-02
5.571999999999999886e+01,1.012319776496171074e-02
5.575999999999999801e+01,9.769518492586226621e-03
5.579999999999999716e+01,1.815731721872246990e-02
5.584000000000000341e+01,2.311617714713797705e-02
5.588000000000000256e+01,8.361737993282308129e-03
5.592000000000000171e+01,3.131779363829855639e-02
5.596000000000000085e+01,2.701831918587609474e-02
5.600000000000000000e+01,2.906051914731753311e-02
5.603999999999999915e+01,3.178772058289346114e-02
5.607999999999999829e+01,2.542930706455668807e-02
5.611999999999999744e+01,1.632760749350458881e-02
5.615999999999999659e+01,3.362305426869553748e-02
5.620000000000000284e+01,2.691983901494442166e-02
5.624000000000000199e+01,2.775819449939488301e-02
5.628000000000000114e+01,2.122507493360253558e-02
5.632000000000000028e+01,2.309059637949304605e-02
5.635999999999999943e+01,2.889798608142966213e-02
5.639999999999999858e+01,2.921945623539160680e-02
5.643999999999999773e+01,2.765470675036445572e-02
5.647999999999999687e+01,1.871847899863211817e-02
5.652000000000000313e+01,2.726584757882177801e-02
5.656000000000000227e+01,3.752669514242296112e-02
5.660000000000000142e+01,2.430311718019680101e-02
5.664000000000000057e+01,3.130576261222705464e-02
5.667999999999999972e+01,3.247965536920875002e-02
5.671999999999999886e+01,3.039600948804795089e-02
5.675999999999999801e+01,2.968301074980969623e-02
5.679999999999999716e+01,2.965500126314847551e-02
5.684000000000000341e+01,3.768279580134116513e-02
5.688000000000000256e+01,3.216819040742696645e-02
5.692000000000000171e+01,2.442452903098724440e-02
5.696000000000000085e+01,3.159324223005353927e-02
5.700000000000000000e+01,2.419106769505605450e-02
5.703999999999999915e+01,2.261630791227783530e-02
5.707999999999999829e+01,2.069804700594976565e-02
5.711999999999999744e+01,1.946477020485879589e-02
5.715999999999999659e+01,2.457314916214937972e-02
5.720000000000000284e+01,2.042448084132408512e-02
5.724000000000000199e+01,2.655999616859983786e-02
5.728000000000000114e+01,3.355190733995600666e-02
5.732000000000000028e+01,2.545868269486860347e-02
5.735999999999999943e+01,3.913439867289188884e-02
5.739999999999999858e+01,2.298334671474802984e-02
5.743999999999999773e+01,2.808699115709011734e-02
5.747999999999999687e+01,3.644682859523543095e-02
5.752000000000000313e+01,2.903586975242183899e-02
5.756000000000000227e+01,2.402403105876023057e-02
5.760000000000000142e+01,2.278262636706411548e-02
5.764000000000000057e+01,3.062549870645142960e-02
5.767999999999999972e+01,2.492595824788195261e-02
5.771999999999999886e+01,3.311029427018159776e-02
5.775999999999999801e+01,3.306605988034989202e-02
5.779999999999999716e+01,3.336397003575639064e-02
5.784000000000000341e+01,3.623241014928068465e-02
5.788000000000000256e+01,4.030006508152433886e-02
5.792000000000000171e+01,2.893974592391059322e-02
5.796000000000000085e+01,3.866270049196712105e-02
5.800000000000000000e+01,3.107212225143556397e-02
5.803999999999999915e+01,3.976521571361858048e-02
5.807999999999999829e+01,3.388740407284041717e-02
5.811999999999999744e+01,3.606537587155625446e-02
5.815999999999999659e+01,3.584285743366594917e-02
5.820000000000000284e+01,3.116287637171812411e-02
5.824000000000000199e+01,3.419584819536036768e-02
5.828000000000000114e+01,3.671388528466461992e-02
5.832000000000000028e+01,3.803132974828546398e-02
5.835999999999999943e+01,3.969090975104950375e-02
5.839999999999999858e+01,4.323535345778344724e-02
5.843999999999999773e+01,4.369364517681082610e-02
5.847999999999999687e+01,2.889536811189906060e-02
5.852000000000000313e+01,3.363762695844348810e-02
5.856000000000000227e+01,3.872201812766863649e-02
5.860000000000000142e+01,4.466278391232183370e-02
5.864000000000000057e+01,3.706112145999824331e-02
5.867999999999999972e+01,4.831433509790787617e-02
5.871999999999999886e+01,3.916854673172621981e-02
5.875999999999999801e+01,4.442086105684853181e-02
5.879999999999999716e+01,4.692984622865829791e-02
5.884000000000000341e+01,3.983892912333338726e-02
5.888000000000000256e+01,4.320358360313046597e-02
5.892000000000000171e+01,3.508277708706220022e-02
5.896000000000000085e+01,3.518915481335877643e-02
5.900000000000000000e+01,4.095150145852916729e-02
5.903999999999999915e+01,4.414192940264519832e-02
5.907999999999999829e+01,3.893235139396430261e-02
5.911999999999999744e+01,3.955015468629294317e-02
5.915999999999999659e+01,4.788089606848417584e-02
5.920000000000000284e+01,2.724191212641209267e-02
5.924000000000000199e+01,3.368568224511388903e-02
5.928000000000000114e+01,3.155802888254295724e-02
5.932000000000000028e+01,2.651562369184379264e-02
5.935999999999999943e+01,4.187081246352458708e-02
5.939999999999999858e+01,3.185597324675766562e-02
5.943999999999999773e+01,3.263952523304422537e-02
5.947999999999999687e+01,1.816649235307925617e-02
5.952000000000000313e+01,2.906206591070824297e-02
5.956000000000000227e+01,3.155762579603030304e-02
5.960000000000000142e+01,3.388105834238850506e-02
5.964000000000000057e+01,2.900437611394748524e-02
5.967999999999999972e+01,3.132638067652692565e-02
5.971999999999999886e+01,3.004796973000017565e-02
5.975999999999999801e+01,2.088378483074378872e-02
5.979999999999999716e+01,2.800324332933215934e-02
5.984000000000000341e+01,2.209449722820859205e-02
5.988000000000000256e+01,2.921252131009325140e-02
5.992000000000000171e+01,2.244526794561482394e-02
5.996000000000000085e+01,2.321952549313584246e-02
