2.003999999999999915e+01,9.773895756071371288e-02
2.007999999999999829e+01,1.105314694044067514e-01
2.012000000000000099e+01,9.641581534818884081e-02
2.016000000000000014e+01,9.544291790205819415e-02
2.019999999999999929e+01,1.248221561022093001e-01
2.023999999999999844e+01,1.128999179360287014e-01
2.028000000000000114e+01,1.078624701644685935e-01
2.032000000000000028e+01,8.655536842479125137e-02
2.035999999999999943e+01,1.137484658356485712e-01
2.039999999999999858e+01,1.087141125660631980e-01
2.044000000000000128e+01,1.133806182608741164e-01
2.048000000000000043e+01,9.802268358542552684e-02
2.051999999999999957e+01,9.486878465458073451e-02
2.055999999999999872e+01,9.766096131910846634e-02
2.060000000000000142e+01,1.120313719503913258e-01
2.064000000000000057e+01,9.198402871187984220e-02
2.067999999999999972e+01,9.759531688514079539e-02
2.071999999999999886e+01,9.350777573101627660e-02
2.076000000000000156e+01,8.848254217894631346e-02
2.080000000000000071e+01,1.338348615479390269e-01
2.083999999999999986e+01,1.081603627522826766e-01
2.087999999999999901e+01,9.406407669155075757e-02
2.092000000000000171e+01,8.716543035134514950e-02
2.096000000000000085e+01,9.841584565174520127e-02
2.100000000000000000e+01,1.049737760858196756e-01
2.103999999999999915e+01,8.837824512791636611e-02
2.107999999999999829e+01,7.710295462323091265e-02
2.112000000000000099e+01,1.008731978401814222e-01
2.116000000000000014e+01,6.675830857137073082e-02
2.119999999999999929e+01,8.990469472016007768e-02
2.123999999999999844e+01,1.211873898919432341e-01
2.128000000000000114e+01,9.427204562280319666e-02
2.132000000000000028e+01,7.768328930105927732e-02
2.135999999999999943e+01,1.308717104966664879e-01
2.139999999999999858e+01,8.768854474370513241e-02
2.144000000000000128e+01,1.170986311441084421e-01
2.148000000000000043e+01,7.735923798479742153e-02
2.151999999999999957e+01,1.139678651822815941e-01
2.155999999999999872e+01,5.733387185677852466e-02
2.160000000000000142e+01,8.174136065891815517e-02
2.164000000000000057e+01,8.925329968841259898e-02
2.167999999999999972e+01,6.797956739152795358e-02
2.171999999999999886e+01,8.143842546369332858e-02
2.176000000000000156e+01,7.706303109644044302e-02
2.180000000000000071e+01,1.108620974458622149e-01
2.183999999999999986e+01,8.583728617908777114e-02
2.187999999999999901e+01,7.051322468443640967e-02
2.192000000000000171e+01,9.367651266290910606e-02
2.196000000000000085e+01,7.522529599514025944e-02
2.200000000000000000e+01,9.119375060878501249e-02
2.203999999999999915e+01,9.433429724407069172e-02
2.207999999999999829e+01,7.682448647273752707e-02
2.212000000000000099e+01,5.681239089839503625e-02
2.216000000000000014e+01,6.871677162654547810e-02
2.219999999999999929e+01,7.843175934125451443e-02
2.223999999999999844e+01,6.561899038203611312e-02
2.228000000000000114e+01,6.031665587311411947e-02
2.232000000000000028e+01,6.753111847426006287e-02
2.235999999999999943e+01,8.507209016171582427e-02
2.239999999999999858e+01,6.444040025248655434e-02
2.244000000000000128e+01,9.543773032967595160e-02
2.248000000000000043e+01,9.921381769714089638e-02
2.251999999999999957e+01,9.235224567946202778e-02
2.255999999999999872e+01,8.173676407124511045e-02
2.260000000000000142e+01,8.269936477384842721e-02
2.264000000000000057e+01,9.179816834029114192e-02
2.267999999999999972e+01,5.458894482727096042e-02
2.271999999999999886e+01,6.494104794336502673e-02
2.276000000000000156e+01,9.719685047939080613e-02
2.280000000000000071e+01,5.999017550697953449e-02
2.283999999999999986e+01,5.908049525532277357e-02
2.287999999999999901e+01,7.412944606393449820e-02
2.292000000000000171e+01,7.290854575171366869e-02
2.296000000000000085e+01,8.670757686610715276e-02
2.300000000000000000e+01,7.735299796570621611e-02
2.303999999999999915e+01,7.457010231892952090e-02
2.307999999999999829e+01,7.679439761362975847e-02
2.312000000000000099e+01,6.462621375673816004e-02
2.316000000000000014e+01,8.656471536501186836e-02
2.319999999999999929e+01,6.344674188650228919e-02
2.323999999999999844e+01,7.318385638369794000e-02
2.328000000000000114e+01,8.448627024291520404e-02
2.332000000000000028e+01,7.357374338980555983e-02
2.335999999999999943e+01,7.079736480439847990e-02
2.339999999999999858e+01,6.520570650037769977e-02
2.344000000000000128e+01,1.021689545364440482e-01
2.348000000000000043e+01,7.498893704975136132e-02
2.351999999999999957e+01,8.879933055787998797e-02
2.355999999999999872e+01,7.194652304821699818e-02
2.360000000000000142e+01,8.794877621619112684e-02
2.364000000000000057e+01,4.543991313343315186e-02
2.367999999999999972e+01,5.299548673138564092e-02
2.371999999999999886e+01,7.119036414541778102e-02
2.376000000000000156e+01,6.091231036670437943e-02
2.380000000000000071e+01,5.407690365430314894e-02
2.383999999999999986e+01,7.696756086277010966e-02
2.387999999999999901e+01,6.982078850010735305e-02
2.392000000000000171e+01,6.486506268117807339e-02
2.396000000000000085e+01,8.650641312570429842e-02
2.400000000000000000e+01,7.623293776491087137e-02
2.403999999999999915e+01,7.597294624363595816e-02
2.407999999999999829e+01,4.817869283208273817e-02
2.412000000000000099e+01,5.011048210956701998e-02
2.416000000000000014e+01,7.238137536880037692e-02
2.419999999999999929e+01,7.087277190806744176e-02
2.423999999999999844e+01,6.498433575419941544e-02
2.428000000000000114e+01,1.050926186587882172e-01
2.432000000000000028e+01,1.089054815118279812e-01
2.435999999999999943e+01,1.111545832746279605e-01
2.439999999999999858e+01,8.305331817994916765e-02
2.444000000000000128e+01,9.031023291385993634e-02
2.448000000000000043e+01,8.974542034206148267e-02
2.451999999999999957e+01,6.884296319920905904e-02
2.455999999999999872e+01,5.545076761888707156e-02
2.460000000000000142e+01,5.864286838634073795e-02
2.464000000000000057e+01,8.248693459392474059e-02
2.467999999999999972e+01,6.753237060544647896e-02
2.471999999999999886e+01,7.135237885602725705e-02
2.476000000000000156e+01,1.111563383818593570e-01
2.480000000000000071e+01,8.587823872459815489e-02
2.483999999999999986e+01,7.937470220704018198e-02
2.487999999999999901e+01,6.755259089903102587e-02
2.492000000000000171e+01,5.260218675809188310e-02
2.496000000000000085e+01,5.986821307136182269e-02
2.500000000000000000e+01,5.618349409032279834e-02
2.503999999999999915e+01,5.875740885116736284e-02
2.507999999999999829e+01,3.755176016343366591e-02
2.512000000000000099e+01,5.358162687610576458e-02
2.516000000000000014e+01,7.587011823130522525e-02
2.519999999999999929e+01,7.062426276890264309e-02
2.523999999999999844e+01,4.973417597639422788e-02
2.528000000000000114e+01,2.289968835063646221e-02
2.532000000000000028e+01,4.206184092224923149e-02
2.535999999999999943e+01,9.376602285847038254e-02
2.539999999999999858e+01,5.911104592003353642e-02
2.544000000000000128e+01,5.981417298221874262e-02
2.548000000000000043e+01,5.019231406428213693e-02
2.551999999999999957e+01,6.059655814625292819e-02
2.555999999999999872e+01,4.941148737286124581e-02
2.560000000000000142e+01,4.761398643574753925e-02
2.564000000000000057e+01,3.736887452087084283e-02
2.567999999999999972e+01,5.810127842662509562e-02
2.571999999999999886e+01,5.630566177712458681e-02
2.576000000000000156e+01,3.698838723214126212e-02
2.580000000000000071e+01,6.179032935226998202e-02
2.583999999999999986e+01,9.620014907604650806e-03
2.587999999999999901e+01,3.129420736335068731e-02
2.592000000000000171e+01,4.827554187917088013e-02
2.596000000000000085e+01,7.808629534706298947e-02
2.600000000000000000e+01,1.402829590418113240e-02
2.603999999999999915e+01,7.293975459072318812e-02
2.607999999999999829e+01,1.576670653805246902e-02
2.612000000000000099e+01,6.810850274892539524e-02
2.616000000000000014e+01,3.690716315813585835e-02
2.619999999999999929e+01,3.511881067840559589e-02
2.623999999999999844e+01,5.022752804438986723e-02
2.628000000000000114e+01,1.402157965733768011e-02
2.632000000000000028e+01,4.196027127641616117e-02
2.635999999999999943e+01,2.797122675039053624e-02
2.639999999999999858e+01,5.215629413238879325e-02
2.644000000000000128e+01,5.287459279557890635e-02
2.648000000000000043e+01,2.073918403267270907e-02
2.651999999999999957e+01,7.277386288186554752e-02
2.655999999999999872e+01,5.910055337913087958e-02
2.660000000000000142e+01,4.542780221053716039e-02
2.664000000000000057e+01,6.085510693289139517e-02
2.667999999999999972e+01,2.872248984069022612e-02
2.671999999999999886e+01,2.381253543836544737e-02
2.676000000000000156e+01,5.081870852988351617e-02
2.680000000000000071e+01,5.654837059516475833e-02
2.683999999999999986e+01,5.195294355428813765e-02
2.687999999999999901e+01,3.859691365316336026e-02
2.692000000000000171e+01,4.557977844859743832e-02
2.696000000000000085e+01,3.942146433626657342e-02
2.700000000000000000e+01,2.418964040852612449e-02
2.703999999999999915e+01,2.898380422218240632e-02
2.707999999999999829e+01,4.034934494447394576e-02
2.712000000000000099e+01,6.736029736064612361e-02
2.716000000000000014e+01,4.524680228580988534e-02
2.719999999999999929e+01,3.564973428056038979e-02
2.723999999999999844e+01,4.357545600466900676e-02
2.728000000000000114e+01,2.709565174705999210e-02
2.732000000000000028e+01,5.442205104024647189e-02
2.735999999999999943e+01,4.513990190905738803e-02
2.739999999999999858e+01,4.430649255638793166e-02
2.744000000000000128e+01,5.536369636298137803e-02
2.748000000000000043e+01,6.016343465899144649e-02
2.751999999999999957e+01,5.401223657421465318e-02
2.755999999999999872e+01,3.565850765230946240e-02
2.760000000000000142e+01,3.576623472911110574e-02
2.764000000000000057e+01,5.683859761794615717e-02
2.767999999999999972e+01,7.916302836993996395e-02
2.771999999999999886e+01,7.051104480399174312e-02
2.776000000000000156e+01,6.686589730463239623e-02
2.780000000000000071e+01,6.760178712713214855e-02
2.783999999999999986e+01,5.112875918778238271e-02
2.787999999999999901e+01,7.846189233556644105e-02
2.792000000000000171e+01,6.856063888370163284e-02
2.796000000000000085e+01,8.619485195083941009e-02
2.800000000000000000e+01,1.222904906854972579e-01
2.803999999999999915e+01,1.377353200788495324e-01
2.807999999999999829e+01,1.146941593168558787e-01
2.812000000000000099e+01,1.132433936810823549e-01
2.816000000000000014e+01,1.462118322264423231e-01
2.819999999999999929e+01,1.156624430526479175e-01
2.823999999999999844e+01,1.511349354301201597e-01
2.828000000000000114e+01,1.468698310634301563e-01
2.832000000000000028e+01,1.554339666948088006e-01
2.835999999999999943e+01,1.517955108266851871e-01
2.839999999999999858e+01,1.403350304072196186e-01
2.844000000000000128e+01,1.157332588545973567e-01
2.848000000000000043e+01,9.050610736792590039e-02
2.851999999999999957e+01,8.905960566692740221e-02
2.855999999999999872e+01,1.054486914581754947e-01
2.860000000000000142e+01,9.680635546317759021e-02
2.864000000000000057e+01,1.144478430009415043e-01
2.867999999999999972e+01,7.013595570115477296e-02
2.871999999999999886e+01,8.402346716006930949e-02
2.876000000000000156e+01,7.350534041187407885e-02
2.880000000000000071e+01,6.768107301337605852e-02
2.883999999999999986e+01,3.338348921605736180e-02
2.887999999999999901e+01,4.695966280337843246e-02
2.892000000000000171e+01,3.613018605111512072e-02
2.896000000000000085e+01,4.438785788313396458e-02
2.900000000000000000e+01,3.668811541608348742e-02
2.903999999999999915e+01,4.713682189966129227e-02
2.907999999999999829e+01,3.098958092054001842e-02
2.912000000000000099e+01,3.142629354678114217e-02
2.916000000000000014e+01,3.780842964787375221e-02
2.919999999999999929e+01,3.542978696783349868e-02
2.923999999999999844e+01,4.775770165896563862e-02
2.928000000000000114e+01,9.709416680575851111e-03
2.932000000000000028e+01,2.109934500154820800e-02
2.935999999999999943e+01,3.561860092952796875e-02
2.939999999999999858e+01,2.541927226469301374e-02
2.944000000000000128e+01,2.210403941029550137e-02
2.948000000000000043e+01,2.661159290063384517e-02
2.951999999999999957e+01,2.767760689358590015e-02
2.955999999999999872e+01,6.841104863499270113e-03
2.960000000000000142e+01,1.698182140841069526e-02
2.964000000000000057e+01,3.025184432849827368e-02
2.967999999999999972e+01,1.942905713555175343e-02
2.971999999999999886e+01,1.580324237701739160e-02
2.976000000000000156e+01,1.968729487558236804e-02
2.980000000000000071e+01,2.670064161684875328e-02
2.983999999999999986e+01,1.806940821935874505e-02
2.987999999999999901e+01,1.600933941219471329e-02
2.992000000000000171e+01,4.148458850121711228e-02
2.996000000000000085e+01,0.000000000000000000e+00
3.000000000000000000e+01,4.800449877825067879e-02
3.003999999999999915e+01,2.028801393746612960e-02
3.007999999999999829e+01,4.545156118065109968e-02
3.012000000000000099e+01,1.272929651948550255e-02
3.016000000000000014e+01,1.348739081610130994e-02
3.019999999999999929e+01,1.080389405231279958e-02
3.023999999999999844e+01,3.409120164073266290e-02
3.028000000000000114e+01,3.328565361933776695e-02
3.032000000000000028e+01,1.464520407112251087e-02
3.035999999999999943e+01,2.134975406414802573e-02
3.039999999999999858e+01,2.868036995664935071e-02
3.044000000000000128e+01,5.009165651515064960e-02
3.048000000000000043e+01,1.173971673639933287e-02
3.051999999999999957e+01,2.689357138892285032e-02
3.055999999999999872e+01,1.388687707432718736e-02
3.060000000000000142e+01,4.656352472962770744e-02
3.064000000000000057e+01,3.042835886839860560e-02
3.067999999999999972e+01,1.554503338642564646e-02
3.071999999999999886e+01,6.619538273672944230e-04
3.076000000000000156e+01,2.238816628736642333e-02
3.080000000000000071e+01,4.505331217145992079e-02
3.083999999999999986e+01,2.109691436406993525e-02
3.087999999999999901e+01,3.312400376476969110e-02
3.092000000000000171e+01,5.203507675051529530e-02
3.096000000000000085e+01,3.684051117764729905e-02
3.100000000000000000e+01,3.197179953744964248e-02
3.103999999999999915e+01,5.244803587547493262e-02
3.107999999999999829e+01,2.160924248621981514e-02
3.112000000000000099e+01,5.115995085918329660e-02
3.116000000000000014e+01,6.882075327014107458e-02
3.119999999999999929e+01,3.203753829640562656e-02
3.123999999999999844e+01,4.876006315780846700e-02
3.128000000000000114e+01,6.454409791104726013e-02
3.132000000000000028e+01,5.279332177952290872e-02
3.135999999999999943e+01,6.732616292868895402e-02
3.139999999999999858e+01,7.966891344711217460e-02
3.144000000000000128e+01,7.480247322300281887e-02
3.148000000000000043e+01,7.838446339930538187e-02
3.151999999999999957e+01,8.134084312453747356e-02
3.155999999999999872e+01,1.177774756483963292e-01
3.160000000000000142e+01,1.385693945762760115e-01
3.164000000000000057e+01,1.383973333263614769e-01
3.167999999999999972e+01,1.713926179199122268e-01
3.171999999999999886e+01,1.643371470652865152e-01
3.176000000000000156e+01,1.945166881133621462e-01
3.180000000000000071e+01,1.943453011769992467e-01
3.183999999999999986e+01,2.439248343093262938e-01
3.187999999999999901e+01,2.362442177916912744e-01
3.192000000000000171e+01,2.129188634131274904e-01
3.196000000000000085e+01,2.093062258465546166e-01
3.200000000000000000e+01,1.988099843153740831e-01
3.203999999999999915e+01,2.011427007022226487e-01
3.207999999999999829e+01,1.828243014027772506e-01
3.211999999999999744e+01,1.785864453783463091e-01
3.215999999999999659e+01,1.524458761781611882e-01
3.220000000000000284e+01,1.516501669957568410e-01
3.224000000000000199e+01,1.308291257061948709e-01
3.228000000000000114e+01,1.059405399224448846e-01
3.232000000000000028e+01,8.699713799716891904e-02
3.235999999999999943e+01,1.275044502400149993e-01
3.239999999999999858e+01,9.510668061207339097e-02
3.243999999999999773e+01,9.399881206350760299e-02
3.247999999999999687e+01,9.914901309674677143e-02
3.252000000000000313e+01,7.363533369360522607e-02
3.256000000000000227e+01,8.222762697273432175e-02
3.260000000000000142e+01,7.799121153016749797e-02
3.264000000000000057e+01,7.281620285340084653e-02
3.267999999999999972e+01,8.578936711346041299e-02
3.271999999999999886e+01,5.683431296254232851e-02
3.275999999999999801e+01,5.604015706799397867e-02
3.279999999999999716e+01,6.212984220191219292e-02
3.284000000000000341e+01,6.352614466636928581e-02
3.288000000000000256e+01,3.582302867540562707e-02
3.292000000000000171e+01,7.852200934209989380e-02
3.296000000000000085e+01,9.337315691035873166e-02
3.300000000000000000e+01,2.377640898173062900e-01
3.303999999999999915e+01,2.857825531381432138e-01
3.307999999999999829e+01,1.301045792984117100e-01
3.311999999999999744e+01,6.141227330844428733e-02
3.315999999999999659e+01,6.093176078678308460e-02
3.320000000000000284e+01,5.732232757662070882e-02
3.324000000000000199e+01,4.338731996130833213e-02
3.328000000000000114e+01,4.791333764184741578e-02
3.332000000000000028e+01,5.212650623677993894e-02
3.335999999999999943e+01,6.384926910812868672e-02
3.339999999999999858e+01,2.456972418711790909e-02
3.343999999999999773e+01,6.445337645578025354e-02
3.347999999999999687e+01,4.019300492200816866e-02
3.352000000000000313e+01,5.567069468015980321e-02
3.356000000000000227e+01,5.081005438243087202e-02
3.360000000000000142e+01,4.939131803693245365e-02
3.364000000000000057e+01,6.080141828471540000e-02
3.367999999999999972e+01,6.094721719562571499e-02
3.371999999999999886e+01,6.422201310360470261e-02
3.375999999999999801e+01,8.627069576581639088e-02
3.379999999999999716e+01,7.702960522023760692e-02
3.384000000000000341e+01,6.997880900495445644e-02
3.388000000000000256e+01,6.417961051943125994e-02
3.392000000000000171e+01,9.154758802272598694e-02
3.396000000000000085e+01,9.576112443670237173e-02
3.400000000000000000e+01,1.306386479268139555e-01
3.403999999999999915e+01,7.946925524443369804e-02
3.407999999999999829e+01,1.162241511843856573e-01
3.411999999999999744e+01,1.094862332751770917e-01
3.415999999999999659e+01,1.362283710118798175e-01
3.420000000000000284e+01,1.266743395167146125e-01
3.424000000000000199e+01,1.324522819644954885e-01
3.428000000000000114e+01,1.376044046760153128e-01
3.432000000000000028e+01,1.424436024739612339e-01
3.435999999999999943e+01,1.610502758364690257e-01
3.439999999999999858e+01,1.402317862434585005e-01
3.443999999999999773e+01,1.300517875907160337e-01
3.447999999999999687e+01,1.530389224631294176e-01
3.452000000000000313e+01,1.556876544848136423e-01
3.456000000000000227e+01,1.295497385158972670e-01
3.460000000000000142e+01,1.553528183211199398e-01
3.464000000000000057e+01,1.248342327586072914e-01
3.467999999999999972e+01,1.475082283272189376e-01
3.471999999999999886e+01,1.316957302427799459e-01
3.475999999999999801e+01,1.487374465958603842e-01
3.479999999999999716e+01,1.207218082577341534e-01
3.484000000000000341e+01,1.067865069425508046e-01
3.488000000000000256e+01,1.119379053100821170e-01
3.492000000000000171e+01,1.199053118253154970e-01
3.496000000000000085e+01,9.689575502812169949e-02
3.500000000000000000e+01,1.042372116232900270e-01
3.503999999999999915e+01,1.062593230158572211e-01
3.507999999999999829e+01,9.732992476820291616e-02
3.511999999999999744e+01,1.137451651206641406e-01
3.515999999999999659e+01,1.101348519483025118e-01
3.520000000000000284e+01,1.130952999614798088e-01
3.524000000000000199e+01,1.047913283461553158e-01
3.528000000000000114e+01,7.333281554859528983e-02
3.532000000000000028e+01,1.044537710264298036e-01
3.535999999999999943e+01,1.092912006977351108e-01
3.539999999999999858e+01,1.022384028964522101e-01
3.543999999999999773e+01,1.098916923329431167e-01
3.547999999999999687e+01,1.309994745508664127e-01
3.552000000000000313e+01,1.098659281836972673e-01
3.556000000000000227e+01,1.344153476797051994e-01
3.560000000000000142e+01,1.232942874963020990e-01
3.564000000000000057e+01,1.393952136173052803e-01
3.567999999999999972e+01,1.620668645264229102e-01
3.571999999999999886e+01,1.675290001493068559e-01
3.575999999999999801e+01,1.467075796344744498e-01
3.579999999999999716e+01,1.728206982073296205e-01
3.584000000000000341e+01,1.895467387897362965e-01
3.588000000000000256e+01,2.425687852962008506e-01
3.592000000000000171e+01,2.264402572870999608e-01
3.596000000000000085e+01,2.247048792294239206e-01
3.600000000000000000e+01,2.755361864983437159e-01
3.603999999999999915e+01,2.863164107422674909e-01
3.607999999999999829e+01,3.164961415311506321e-01
3.611999999999999744e+01,3.253986545771394567e-01
3.615999999999999659e+01,3.374299795999562979e-01
3.620000000000000284e+01,3.748058613286835983e-01
3.624000000000000199e+01,3.787014998387401299e-01
3.628000000000000114e+01,4.035611190071907717e-01
3.632000000000000028e+01,3.868051446397862136e-01
3.635999999999999943e+01,4.019645698177360393e-01
3.639999999999999858e+01,3.933435731745156261e-01
3.643999999999999773e+01,3.840965930066243539e-01
3.647999999999999687e+01,3.582658356348553674e-01
3.652000000000000313e+01,3.571538149924359251e-01
3.656000000000000227e+01,3.285065861267035814e-01
3.660000000000000142e+01,3.508615078117581776e-01
3.664000000000000057e+01,3.100108596454180243e-01
3.667999999999999972e+01,2.794856347088927051e-01
3.671999999999999886e+01,2.805628841638478921e-01
3.675999999999999801e+01,2.365826303047800783e-01
3.679999999999999716e+01,2.464205925331566238e-01
3.684000000000000341e+01,2.334167931434741050e-01
3.688000000000000256e+01,2.216643639996488946e-01
3.692000000000000171e+01,2.158567699056472555e-01
3.696000000000000085e+01,1.997233193264565665e-01
3.700000000000000000e+01,1.873444127402121850e-01
3.703999999999999915e+01,2.184580748011135387e-01
3.707999999999999829e+01,1.926240907624275356e-01
3.711999999999999744e+01,1.833734537053637592e-01
3.715999999999999659e+01,1.750612678065206484e-01
3.720000000000000284e+01,1.698778150234193929e-01
3.724000000000000199e+01,1.668843987555241326e-01
3.728000000000000114e+01,1.657681181139105675e-01
3.732000000000000028e+01,1.752901100280183089e-01
3.735999999999999943e+01,1.610316073261068015e-01
3.739999999999999858e+01,1.689885917784882396e-01
3.743999999999999773e+01,1.550424626834471242e-01
3.747999999999999687e+01,1.723858524948254645e-01
3.752000000000000313e+01,1.762743647992962848e-01
3.756000000000000227e+01,1.657693029963240305e-01
3.760000000000000142e+01,1.884311381352491710e-01
3.764000000000000057e+01,1.760481346173206618e-01
3.767999999999999972e+01,1.755549677802676900e-01
3.771999999999999886e+01,1.875774303025829481e-01
3.775999999999999801e+01,2.027285834769780026e-01
3.779999999999999716e+01,2.106827950287478990e-01
3.784000000000000341e+01,1.973596584135191845e-01
3.788000000000000256e+01,2.312838010196114347e-01
3.792000000000000171e+01,2.636431543082238815e-01
3.796000000000000085e+01,2.963151023810718376e-01
3.800000000000000000e+01,3.155321365495880048e-01
3.803999999999999915e+01,3.713579107095578147e-01
3.807999999999999829e+01,3.761810222022802797e-01
3.811999999999999744e+01,4.470252660659502220e-01
3.815999999999999659e+01,5.231884552411527611e-01
3.820000000000000284e+01,5.946578553089880703e-01
3.824000000000000199e+01,6.683172160640619142e-01
3.828000000000000114e+01,7.576211422728987843e-01
3.832000000000000028e+01,8.616309373349625433e-01
3.835999999999999943e+01,9.174541292001991977e-01
3.839999999999999858e+01,9.632642532437787342e-01
3.843999999999999773e+01,1.000000000000000000e+00
3.847999999999999687e+01,9.663333866978361941e-01
3.852000000000000313e+01,9.082603951075995941e-01
3.856000000000000227e+01,8.088845379826661297e-01
3.860000000000000142e+01,6.854151943592281526e-01
3.864000000000000057e+01,6.116962551743008181e-01
3.867999999999999972e+01,5.445478132935854809e-01
3.871999999999999886e+01,4.955470863487725364e-01
3.875999999999999801e+01,4.140046186662274530e-01
3.879999999999999716e+01,3.599967955275171216e-01
3.884000000000000341e+01,3.529232809594730069e-01
3.888000000000000256e+01,3.273884200655951537e-01
3.892000000000000171e+01,3.024789790169096215e-01
3.896000000000000085e+01,2.841400140406051822e-01
3.900000000000000000e+01,2.501557743413616586e-01
3.903999999999999915e+01,2.690508873074982654e-01
3.907999999999999829e+01,2.309982025181126220e-01
3.911999999999999744e+01,2.527086171555938954e-01
3.915999999999999659e+01,2.303000400593471497e-01
3.920000000000000284e+01,2.454388085615287207e-01
3.924000000000000199e+01,2.270971063611370022e-01
3.928000000000000114e+01,2.140742645449540960e-01
3.932000000000000028e+01,2.176346028888647699e-01
3.935999999999999943e+01,2.343362419458881185e-01
3.939999999999999858e+01,2.228766617165594821e-01
3.943999999999999773e+01,2.157972361715478904e-01
3.947999999999999687e+01,2.299944464912398734e-01
3.952000000000000313e+01,2.222883855413366749e-01
3.956000000000000227e+01,2.152076959067266149e-01
3.960000000000000142e+01,2.187651059400718967e-01
3.964000000000000057e+01,2.401572632917837735e-01
3.967999999999999972e+01,2.518491536178460444e-01
3.971999999999999886e+01,2.910756187260128969e-01
3.975999999999999801e+01,2.824282723340031387e-01
3.979999999999999716e+01,2.853577040117721841e-01
3.984000000000000341e+01,3.192635777861517199e-01
3.988000000000000256e+01,3.475368414947617723e-01
3.992000000000000171e+01,3.679872071138440837e-01
3.996000000000000085e+01,4.050207043631207093e-01
4.000000000000000000e+01,4.777240994136178198e-01
4.003999999999999915e+01,5.291499794755879504e-01
4.007999999999999829e+01,5.223763945308453893e-01
4.011999999999999744e+01,5.662917953666385396e-01
4.015999999999999659e+01,6.305450869367006383e-01
4.020000000000000284e+01,7.170136533427462489e-01
4.024000000000000199e+01,7.700016732182513035e-01
4.028000000000000114e+01,7.657289064888670449e-01
4.032000000000000028e+01,8.277900031647077439e-01
4.035999999999999943e+01,7.646914724595950119e-01
4.039999999999999858e+01,7.813814068931129730e-01
4.043999999999999773e+01,7.379944618870160067e-01
4.047999999999999687e+01,6.758331513745315933e-01
4.052000000000000313e+01,6.340097042982475450e-01
4.056000000000000227e+01,6.463170860520556227e-01
4.060000000000000142e+01,5.647546078067636754e-01
4.064000000000000057e+01,5.257457316605174125e-01
4.067999999999999972e+01,4.670237812748730399e-01
4.071999999999999886e+01,4.492909376430088142e-01
4.075999999999999801e+01,4.193545622448447974e-01
4.079999999999999716e+01,3.881660770004602967e-01
4.084000000000000341e+01,4.132986843449766301e-01
4.088000000000000256e+01,3.652126689417350414e-01
4.092000000000000171e+01,3.418450566247859257e-01
4.096000000000000085e+01,3.597794307187101026e-01
4.100000000000000000e+01,3.489266684899230420e-01
4.103999999999999915e+01,3.333799018023408944e-01
4.107999999999999829e+01,3.294098161247393519e-01
4.111999999999999744e+01,3.104200906805186788e-01
4.115999999999999659e+01,3.374258043186628142e-01
4.120000000000000284e+01,3.243800436594984626e-01
4.124000000000000199e+01,2.747246820837692116e-01
4.128000000000000114e+01,2.782614011745784821e-01
4.132000000000000028e+01,2.642752824867302675e-01
4.135999999999999943e+01,2.656205978466992246e-01
4.139999999999999858e+01,2.650879621520558782e-01
4.143999999999999773e+01,2.492227645700385019e-01
4.147999999999999687e+01,2.499405833597047599e-01
4.152000000000000313e+01,2.178035542706430461e-01
4.156000000000000227e+01,2.047527183334728884e-01
4.160000000000000142e+01,2.233039867473016749e-01
4.164000000000000057e+01,1.802137954489262950e-01
4.167999999999999972e+01,1.931317351881533806e-01
4.171999999999999886e+01,1.703787311808080684e-01
4.175999999999999801e+01,1.742214536990965013e-01
4.179999999999999716e+01,1.596026084738858541e-01
4.184000000000000341e+01,1.559345909177891343e-01
4.188000000000000256e+01,1.657205808441324646e-01
4.192000000000000171e+01,1.498483432440907981e-01
4.196000000000000085e+01,1.452398220696123343e-01
4.200000000000000000e+01,1.212310244186245028e-01
4.203999999999999915e+01,1.472852712468634417e-01
4.207999999999999829e+01,1.423620148675463770e-01
4.211999999999999744e+01,1.364994464048973899e-01
4.215999999999999659e+01,1.209364228632393845e-01
4.220000000000000284e+01,1.282143182132415571e-01
4.224000000000000199e+01,1.423753387756969691e-01
4.228000000000000114e+01,1.114784374537485800e-01
4.232000000000000028e+01,1.218834194166377172e-01
4.235999999999999943e+01,1.019366726517513394e-01
4.239999999999999858e+01,1.164080502777407600e-01
4.243999999999999773e+01,1.039695695235794137e-01
4.247999999999999687e+01,1.103043143037738122e-01
4.252000000000000313e+01,9.348396890724798569e-02
4.256000000000000227e+01,1.135849186155682977e-01
4.260000000000000142e+01,9.144400287678609851e-02
4.264000000000000057e+01,9.902772549308277994e-02
4.267999999999999972e+01,1.062978892739968040e-01
4.271999999999999886e+01,9.197743699162538866e-02
4.275999999999999801e+01,8.391427477955269720e-02
4.279999999999999716e+01,8.993084599980136207e-02
4.284000000000000341e+01,8.468242129899497539e-02
4.288000000000000256e+01,8.318809472268594296e-02
4.292000000000000171e+01,8.513496538195004792e-02
4.296000000000000085e+01,9.114882595527989961e-02
4.300000000000000000e+01,7.432045781027064868e-02
4.303999999999999915e+01,6.938151990823096527e-02
4.307999999999999829e+01,5.536785287706351422e-02
4.311999999999999744e+01,8.609788488222176739e-02
4.315999999999999659e+01,8.491163821820220392e-02
4.320000000000000284e+01,6.745400264216873387e-02
4.324000000000000199e+01,7.440169637573749994e-02
4.328000000000000114e+01,6.194901657299852621e-02
4.332000000000000028e+01,8.047251498554293392e-02
4.335999999999999943e+01,8.585359091165516154e-02
4.339999999999999858e+01,8.654048342496914459e-02
4.343999999999999773e+01,7.909131307850394976e-02
4.347999999999999687e+01,7.633488892717277263e-02
4.352000000000000313e+01,6.012313230112884682e-02
4.356000000000000227e+01,8.677765421227098819e-02
4.360000000000000142e+01,9.058990190829357969e-02
4.364000000000000057e+01,9.064664156022265995e-02
4.367999999999999972e+01,9.789929508813738357e-02
4.371999999999999886e+01,9.388688596638543327e-02
4.375999999999999801e+01,8.956083611504610242e-02
4.379999999999999716e+01,8.147926608713838836e-02
4.384000000000000341e+01,9.874167343946943509e-02
4.388000000000000256e+01,8.721672608454250630e-02
4.392000000000000171e+01,8.194898083947206591e-02
4.396000000000000085e+01,7.355149899696980520e-02
4.400000000000000000e+01,9.738173522995563491e-02
4.403999999999999915e+01,9.743097031609920800e-02
4.407999999999999829e+01,1.006084168215679309e-01
4.411999999999999744e+01,1.022206038761583752e-01
4.415999999999999659e+01,1.175995233812285740e-01
4.420000000000000284e+01,1.048168596257026963e-01
4.424000000000000199e+01,1.226974064679244580e-01
4.428000000000000114e+01,1.324418267548743144e-01
4.432000000000000028e+01,1.212213053654020017e-01
4.435999999999999943e+01,1.303383562327346534e-01
4.439999999999999858e+01,1.457125728124993302e-01
4.443999999999999773e+01,1.682826456389943937e-01
4.447999999999999687e+01,1.714522539356205799e-01
4.452000000000000313e+01,1.724307767385699630e-01
4.456000000000000227e+01,2.046982815859288984e-01
4.460000000000000142e+01,1.750112044144941092e-01
4.464000000000000057e+01,1.856871410395952438e-01
4.467999999999999972e+01,1.994912435872410739e-01
4.471999999999999886e+01,1.610405885467122433e-01
4.475999999999999801e+01,1.861073795329815928e-01
4.479999999999999716e+01,1.789448696364006053e-01
4.484000000000000341e+01,1.674009649905539021e-01
4.488000000000000256e+01,1.549175389761847377e-01
4.492000000000000171e+01,1.608942556201249929e-01
4.496000000000000085e+01,1.424641056438814835e-01
4.500000000000000000e+01,1.234073230555651213e-01
4.503999999999999915e+01,1.331363032677886915e-01
4.507999999999999829e+01,1.012490256911614261e-01
4.511999999999999744e+01,1.141052954949248049e-01
4.515999999999999659e+01,1.160092913125541220e-01
4.520000000000000284e+01,9.162901517645356819e-02
4.524000000000000199e+01,9.478289525207672650e-02
4.528000000000000114e+01,8.604579867479258959e-02
4.532000000000000028e+01,8.387869590401599018e-02
4.535999999999999943e+01,7.107220183731752239e-02
4.539999999999999858e+01,7.641291617569820338e-02
4.543999999999999773e+01,6.204019533355555061e-02
4.547999999999999687e+01,5.830512829091927252e-02
4.552000000000000313e+01,6.552060987047605978e-02
4.556000000000000227e+01,6.710305068140776097e-02
4.560000000000000142e+01,7.337807693218224847e-02
4.564000000000000057e+01,7.527164777131689632e-02
4.567999999999999972e+01,5.901625451024428842e-02
4.571999999999999886e+01,5.402429256157696008e-02
4.575999999999999801e+01,5.466359748769444860e-02
4.579999999999999716e+01,5.154723058130866731e-02
4.584000000000000341e+01,6.532644729247383264e-02
4.588000000000000256e+01,3.967963054305381765e-02
4.592000000000000171e+01,3.593475703783789027e-02
4.596000000000000085e+01,5.033704947403935814e-02
4.600000000000000000e+01,4.596455783347270369e-02
4.603999999999999915e+01,5.567155394261254914e-02
4.607999999999999829e+01,5.348751273647125992e-02
4.611999999999999744e+01,5.192834541415607824e-02
4.615999999999999659e+01,4.442319397062961112e-02
4.620000000000000284e+01,5.944576025108756767e-02
4.624000000000000199e+01,4.067442717739382096e-02
4.628000000000000114e+01,5.068876287756010623e-02
4.632000000000000028e+01,4.224118809181433981e-02
4.635999999999999943e+01,5.475682961854980851e-02
4.639999999999999858e+01,4.536867817927364016e-02
4.643999999999999773e+01,6.633067266041084431e-02
4.647999999999999687e+01,6.100829812801990965e-02
4.652000000000000313e+01,4.379485291604191810e-02
4.656000000000000227e+01,3.690608175355961779e-02
4.660000000000000142e+01,5.598687439773696040e-02
4.664000000000000057e+01,5.222516230977331669e-02
4.667999999999999972e+01,3.782395883297055839e-02
4.671999999999999886e+01,4.782782078444305224e-02
4.675999999999999801e+01,3.060859892313932962e-02
4.679999999999999716e+01,5.625540991640696348e-02
4.684000000000000341e+01,4.998566319357625187e-02
4.688000000000000256e+01,4.590522200434468680e-02
4.692000000000000171e+01,5.621709969201389712e-02
4.696000000000000085e+01,5.526366904740177832e-02
4.700000000000000000e+01,7.777658903181694505e-02
4.703999999999999915e+01,5.397963476748034173e-02
4.707999999999999829e+01,6.053277789365794220e-02
4.711999999999999744e+01,5.926247696894162281e-02
4.715999999999999659e+01,6.049435820179908940e-02
4.720000000000000284e+01,6.078654214524956134e-02
4.724000000000000199e+01,6.983885929614949695e-02
4.728000000000000114e+01,7.138061811948626101e-02
4.732000000000000028e+01,5.164430992669257620e-02
4.735999999999999943e+01,5.318404007421824453e-02
4.739999999999999858e+01,6.317099344091299529e-02
4.743999999999999773e+01,6.627317205918105414e-02
4.747999999999999687e+01,6.342926646332069929e-02
4.752000000000000313e+01,7.435183853596942505e-02
4.756000000000000227e+01,6.305763182635835962e-02
4.760000000000000142e+01,6.709438599804724845e-02
4.764000000000000057e+01,6.643663524635544382e-02
4.767999999999999972e+01,5.889409154752484055e-02
4.771999999999999886e+01,7.606943530480760052e-02
4.775999999999999801e+01,6.007656016103923857e-02
4.779999999999999716e+01,7.161764710939784451e-02
4.784000000000000341e+01,5.530977263916393716e-02
4.788000000000000256e+01,4.338141286520120349e-02
4.792000000000000171e+01,7.025132889301262396e-02
4.796000000000000085e+01,7.333994652834904815e-02
4.800000000000000000e+01,7.955647833737793106e-02
4.803999999999999915e+01,5.635954428319268211e-02
4.807999999999999829e+01,6.038365323349764724e-02
4.811999999999999744e+01,4.156514522626978542e-02
4.815999999999999659e+01,6.029330339888128859e-02
4.820000000000000284e+01,5.492724712449992275e-02
4.824000000000000199e+01,7.021136675021527607e-02
4.828000000000000114e+01,4.951114734208569845e-02
4.832000000000000028e+01,5.697064630715106825e-02
4.835999999999999943e+01,4.784546723208437519e-02
4.839999999999999858e+01,3.746760201824405473e-02
4.843999999999999773e+01,4.680120397148997136e-02
4.847999999999999687e+01,6.364325368228299085e-02
4.852000000000000313e+01,5.701686039274489470e-02
4.856000000000000227e+01,5.383123666904303384e-02
4.860000000000000142e+01,3.844148668777608302e-02
4.864000000000000057e+01,4.276318870800197014e-02
4.867999999999999972e+01,5.021275333890225928e-02
4.871999999999999886e+01,5.328062900802270352e-02
4.875999999999999801e+01,4.320567271968642209e-02
4.879999999999999716e+01,5.096476916553408648e-02
4.884000000000000341e+01,4.996159756896671050e-02
4.888000000000000256e+01,4.395092916653331461e-02
4.892000000000000171e+01,3.293276092511526754e-02
4.896000000000000085e+01,5.195164966182694993e-02
4.900000000000000000e+01,2.215733268052515192e-02
4.903999999999999915e+01,5.932201359618265168e-02
4.907999999999999829e+01,5.361854198789676312e-02
4.911999999999999744e+01,6.168142672337181831e-02
4.915999999999999659e+01,4.252104565894868765e-02
4.920000000000000284e+01,4.839133768105258887e-02
4.924000000000000199e+01,4.675092275277700771e-02
4.928000000000000114e+01,6.576060486351188727e-02
4.932000000000000028e+01,5.535672405123425593e-02
4.935999999999999943e+01,4.714196071919621311e-02
4.939999999999999858e+01,6.520944673131429115e-02
4.943999999999999773e+01,3.759267221916984258e-02
4.947999999999999687e+01,5.471911447747760532e-02
4.952000000000000313e+01,4.055459151234538234e-02
4.956000000000000227e+01,5.204651004728323704e-02
4.960000000000000142e+01,5.039553292927144434e-02
4.964000000000000057e+01,5.187234562708540470e-02
4.967999999999999972e+01,5.866723009824584972e-02
4.971999999999999886e+01,5.482239266354588941e-02
4.975999999999999801e+01,6.630835232173594440e-02
4.979999999999999716e+01,5.745475047785287420e-02
4.984000000000000341e+01,6.487063322803943155e-02
4.988000000000000256e+01,7.228530903728282164e-02
4.992000000000000171e+01,6.499257564959894096e-02
4.996000000000000085e+01,5.582124211990063117e-02
5.000000000000000000e+01,5.947750463793485820e-02
5.003999999999999915e+01,6.500993521738517023e-02
5.007999999999999829e+01,5.270596590937667858e-02
5.011999999999999744e+01,5.667145996360688220e-02
5.015999999999999659e+01,7.878380148179089937e-02
5.020000000000000284e+01,6.459876052062664409e-02
5.024000000000000199e+01,5.416725959011884500e-02
5.028000000000000114e+01,4.529901066650918878e-02
5.032000000000000028e+01,4.738094639084863141e-02
5.035999999999999943e+01,5.259061733487711138e-02
5.039999999999999858e+01,4.903790194486113557e-02
5.043999999999999773e+01,5.674825995924375616e-02
5.047999999999999687e+01,5.757361270817850513e-02
5.052000000000000313e+01,4.494310218662788542e-02
5.056000000000000227e+01,5.640446805815153147e-02
5.060000000000000142e+01,4.815200747683938409e-02
5.064000000000000057e+01,4.490464801821929253e-02
5.067999999999999972e+01,5.229454805367423492e-02
5.071999999999999886e+01,5.905738174108217386e-02
5.075999999999999801e+01,5.643200608476605512e-02
5.079999999999999716e+01,3.002511668454713178e-02
5.084000000000000341e+01,4.210338381263158819e-02
5.088000000000000256e+01,5.167718532536021842e-02
5.092000000000000171e+01,4.623060395738822631e-02
5.096000000000000085e+01,3.984404018685136495e-02
5.100000000000000000e+01,3.689806096190991619e-02
5.103999999999999915e+01,5.241176032811651481e-02
5.107999999999999829e+01,4.977608612309126351e-02
5.111999999999999744e+01,5.277127235494493557e-02
5.115999999999999659e+01,3.949446608416325860e-02
5.120000000000000284e+01,5.218687481139038659e-02
5.124000000000000199e+01,6.018450563455391561e-02
5.128000000000000114e+01,4.533927988380723195e-02
5.132000000000000028e+01,4.238285652045903351e-02
5.135999999999999943e+01,6.007637247394886221e-02
5.139999999999999858e+01,3.834343639647277979e-02
5.143999999999999773e+01,4.696026709957257933e-02
5.147999999999999687e+01,5.056940384409088635e-02
5.152000000000000313e+01,4.854504788529758613e-02
5.156000000000000227e+01,3.963560476685143441e-02
5.160000000000000142e+01,5.356636775717070476e-02
5.164000000000000057e+01,4.715742972195668264e-02
5.167999999999999972e+01,4.825669679479365620e-02
5.171999999999999886e+01,5.185780024967258373e-02
5.175999999999999801e+01,5.045118851413903094e-02
5.179999999999999716e+01,4.247236927604609857e-02
5.184000000000000341e+01,4.763390441803113523e-02
5.188000000000000256e+01,4.465873671219105362e-02
5.192000000000000171e+01,5.513681517599718779e-02
5.196000000000000085e+01,5.747818472574086485e-02
5.200000000000000000e+01,5.856659515602779392e-02
5.203999999999999915e+01,5.777624772212776316e-02
5.207999999999999829e+01,5.604583295833927281e-02
5.211999999999999744e+01,4.836898213865300361e-02
5.215999999999999659e+01,5.195507429926120996e-02
5.220000000000000284e+01,5.710427287706990040e-02
5.224000000000000199e+01,5.286514988576269253e-02
5.228000000000000114e+01,6.114055219861637414e-02
5.232000000000000028e+01,4.845040621130753539e-02
5.235999999999999943e+01,4.295551591322618878e-02
5.239999999999999858e+01,3.652053402030664558e-02
5.243999999999999773e+01,5.104830740582587401e-02
5.247999999999999687e+01,3.678807396356641862e-02
5.252000000000000313e+01,5.225172969606663165e-02
5.256000000000000227e+01,6.114312029675212506e-02
5.260000000000000142e+01,5.532689848155715462e-02
5.264000000000000057e+01,5.232534114247969909e-02
5.267999999999999972e+01,6.058668735315357601e-02
5.271999999999999886e+01,5.820808417406440199e-02
5.275999999999999801e+01,4.675401785112175829e-02
5.279999999999999716e+01,5.375949666210443068e-02
5.284000000000000341e+01,5.168950626299619044e-02
5.288000000000000256e+01,4.899228572743098004e-02
5.292000000000000171e+01,5.724505268709929179e-02
5.296000000000000085e+01,6.049001346279412467e-02
5.300000000000000000e+01,6.091745001203632826e-02
5.303999999999999915e+01,6.196923571556935822e-02
5.307999999999999829e+01,5.112945330804846006e-02
5.311999999999999744e+01,4.998805180694491229e-02
5.315999999999999659e+01,5.604184533269487151e-02
5.320000000000000284e+01,5.458463162931392193e-02
5.324000000000000199e+01,3.779396126854198124e-02
5.328000000000000114e+01,5.667218171358185536e-02
5.332000000000000028e+01,6.178142871402163283e-02
5.335999999999999943e+01,6.907948988283088565e-02
5.339999999999999858e+01,6.198277582919139994e-02
5.343999999999999773e+01,7.428425194699483924e-02
5.347999999999999687e+01,5.372997328357870250e-02
5.352000000000000313e+01,5.132228730214547646e-02
5.356000000000000227e+01,6.799988453699354340e-02
5.360000000000000142e+01,5.964416428640711282e-02
5.364000000000000057e+01,6.161258122330625503e-02
5.367999999999999972e+01,6.264080950556873140e-02
5.371999999999999886e+01,5.396770613751766810e-02
5.375999999999999801e+01,6.907333865723915001e-02
5.379999999999999716e+01,5.445217068884779937e-02
5.384000000000000341e+01,5.390989901201641982e-02
5.388000000000000256e+01,6.244015490073575453e-02
5.392000000000000171e+01,5.469820900162924993e-02
5.396000000000000085e+01,8.262510234531655895e-02
5.400000000000000000e+01,5.735784084987373410e-02
5.403999999999999915e+01,6.118855755906853905e-02
5.407999999999999829e+01,7.284019524499801834e-02
5.411999999999999744e+01,7.385177738200994491e-02
5.415999999999999659e+01,5.733954810926122220e-02
5.420000000000000284e+01,6.366732779256237262e-02
5.424000000000000199e+01,6.436140852048032046e-02
5.428000000000000114e+01,5.222513657636627254e-02
5.432000000000000028e+01,4.822266526608034315e-02
5.435999999999999943e+01,4.140256660330599719e-02
5.439999999999999858e+01,7.807372021416099372e-02
5.443999999999999773e+01,5.904750277513482609e-02
5.447999999999999687e+01,6.849343446482937525e-02
5.452000000000000313e+01,8.075388807406244651e-02
5.456000000000000227e+01,5.390054789175783428e-02
5.460000000000000142e+01,6.584497698040432667e-02
5.464000000000000057e+01,6.370743467572803631e-02
5.467999999999999972e+01,6.469730001392101637e-02
5.471999999999999886e+01,7.163065066411551662e-02
5.475999999999999801e+01,5.697247228229541244e-02
5.479999999999999716e+01,5.451573026235245062e-02
5.484000000000000341e+01,5.894115802247176100e-02
5.488000000000000256e+01,6.117471471117092580e-02
5.492000000000000171e+01,7.216782224852891225e-02
5.496000000000000085e+01,7.564978909953307129e-02
5.500000000000000000e+01,5.754020871981046364e-02
5.503999999999999915e+01,4.599988509875112264e-02
5.507999999999999829e+01,5.855109512835270785e-02
5.511999999999999744e+01,4.732046383723182564e-02
5.515999999999999659e+01,5.454919872603282427e-02
5.520000000000000284e+01,7.178905465488445714e-02
5.524000000000000199e+01,5.742461376851615285e-02
5.528000000000000114e+01,6.245822353013059242e-02
5.532000000000000028e+01,5.028083177734770509e-02
5.535999999999999943e+01,6.814001170370234672e-02
5.539999999999999858e+01,5.908835051944705957e-02
5.543999999999999773e+01,5.097375435816627054e-02
5.547999999999999687e+01,6.726355937216506320e-02
5.552000000000000313e+01,4.913296563686225110e-02
5.556000000000000227e+01,6.166472412671470532e-02
5.560000000000000142e+01,6.543370197709158509e-02
5.564000000000000057e+01,6.388177256873635301e-02
5.567999999999999972e+01,6.138950284980949218e-02
5.571999999999999886e+01,5.795688978719217010e-02
5.575999999999999801e+01,6.484825315676927271e-02
5.579999999999999716e+01,6.923477783739033498e-02
5.584000000000000341e+01,7.643572434463277721e-02
5.588000000000000256e+01,8.269631537571002500e-02
5.592000000000000171e+01,8.238438649300161565e-02
5.596000000000000085e+01,7.675152608661153786e-02
5.600000000000000000e+01,8.488450032756575392e-02
5.603999999999999915e+01,7.768380559282003772e-02
5.607999999999999829e+01,7.298461663017777323e-02
5.611999999999999744e+01,7.235141968554854863e-02
5.615999999999999659e+01,8.079057741870411535e-02
5.620000000000000284e+01,7.671213474593585602e-02
5.624000000000000199e+01,8.671240637760531389e-02
5.628000000000000114e+01,9.076592650903210491e-02
5.632000000000000028e+01,9.575644493482195208e-02
5.635999999999999943e+01,9.573889936154872382e-02
5.639999999999999858e+01,9.916152886284629320e-02
5.643999999999999773e+01,9.788898615464909636e-02
5.647999999999999687e+01,1.031855910128418041e-01
5.652000000000000313e+01,1.047257111627192538e-01
5.656000000000000227e+01,1.272282741798092531e-01
5.660000000000000142e+01,1.272004750740074741e-01
5.664000000000000057e+01,1.206001014582834263e-01
5.667999999999999972e+01,1.553005222377832617e-01
5.671999999999999886e+01,1.221003827032155903e-01
5.675999999999999801e+01,1.280107465069948158e-01
5.679999999999999716e+01,1.289130129474051756e-01
5.684000000000000341e+01,1.373230932235541824e-01
5.688000000000000256e+01,1.288349515494822406e-01
5.692000000000000171e+01,1.206579669613814659e-01
5.696000000000000085e+01,1.331304970535005794e-01
5.700000000000000000e+01,1.205694518450956543e-01
5.703999999999999915e+01,1.183322860090866707e-01
5.707999999999999829e+01,1.048290444617649836e-01
5.711999999999999744e+01,9.507882124868312357e-02
5.715999999999999659e+01,1.066038932618390278e-01
5.720000000000000284e+01,1.103047568781881926e-01
5.724000000000000199e+01,1.021137369391385274e-01
5.728000000000000114e+01,9.924021248088221725e-02
5.732000000000000028e+01,9.323593836354784892e-02
5.735999999999999943e+01,9.536523436302031531e-02
5.739999999999999858e+01,9.092189822331521454e-02
5.743999999999999773e+01,1.033732660967377204e-01
5.747999999999999687e+01,9.830057081154745802e-02
5.752000000000000313e+01,9.698086352941007182e-02
5.756000000000000227e+01,8.814981840820330927e-02
5.760000000000000142e+01,8.995550805153637586e-02
5.764000000000000057e+01,9.082070876148144734e-02
5.767999999999999972e+01,8.824223465847454151e-02
5.771999999999999886e+01,8.378457198842523268e-02
5.775999999999999801e+01,8.933783623882959879e-02
5.779999999999999716e+01,9.864406726045595042e-02
5.784000000000000341e+01,9.856155207634814674e-02
5.788000000000000256e+01,8.408392196049697953e-02
5.792000000000000171e+01,9.307181443226786310e-02
5.796000000000000085e+01,7.327128453899797722e-02
5.800000000000000000e+01,7.505888403227868599e-02
5.803999999999999915e+01,7.590596426098440708e-02
5.807999999999999829e+01,7.925439860585856144e-02
5.811999999999999744e+01,9.292663042892378156e-02
5.815999999999999659e+01,9.439401107905427690e-02
5.820000000000000284e+01,8.866290321602196545e-02
5.824000000000000199e+01,6.196579815125935475e-02
5.828000000000000114e+01,8.501760826372507796e-02
5.832000000000000028e+01,9.680324863819841918e-02
5.835999999999999943e+01,1.017032862228396672e-01
5.839999999999999858e+01,9.815322870550188816e-02
5.843999999999999773e+01,8.145960521598161197e-02
5.847999999999999687e+01,1.041892524965098155e-01
5.852000000000000313e+01,9.155957997641672730e-02
5.856000000000000227e+01,7.705065519378852257e-02
5.860000000000000142e+01,9.476834139832268633e-02
5.864000000000000057e+01,7.806539227029636596e-02
5.867999999999999972e+01,6.918301531035415952e-02
5.871999999999999886e+01,7.907263243857501345e-02
5.875999999999999801e+01,9.396673496639162959e-02
5.879999999999999716e+01,7.975945357786910772e-02
5.884000000000000341e+01,7.274693651334455946e-02
5.888000000000000256e+01,8.012583142322916852e-02
5.892000000000000171e+01,7.655140895414645763e-02
5.896000000000000085e+01,7.892015028648287356e-02
5.900000000000000000e+01,6.751948747136377049e-02
5.903999999999999915e+01,7.676818161429202481e-02
5.907999999999999829e+01,7.475064838997251548e-02
5.911999999999999744e+01,6.365716975592614069e-02
5.915999999999999659e+01,7.196144755734840137e-02
5.920000000000000284e+01,8.026381170117016794e-02
5.924000000000000199e+01,6.415822640143213629e-02
5.928000000000000114e+01,6.432140987975007440e-02
5.932000000000000028e+01,6.323107917788887977e-02
5.935999999999999943e+01,6.401620982078638777e-02
5.939999999999999858e+01,6.949287947757473716e-02
5.943999999999999773e+01,6.839676230613181418e-02
5.947999999999999687e+01,5.165381745497486105e-02
5.952000000000000313e+01,6.964059667569535983e-02
5.956000000000000227e+01,5.758724078340452662e-02
5.960000000000000142e+01,6.117683369260886600e-02
5.964000000000000057e+01,5.193566749187528142e-02
5.967999999999999972e+01,5.990193330542779859e-02
5.971999999999999886e+01,7.224681601211584148e-02
5.975999999999999801e+01,7.739309191401168297e-02
5.979999999999999716e+01,6.564092444802140103e-02
5.984000000000000341e+01,6.296083261289533994e-02
5.988000000000000256e+01,8.312031903096357699e-02
5.992000000000000171e+01,6.134952451733739071e-02
5.996000000000000085e+01,6.054091505583417826e-02
