2.003999999999999915e+01,2.011987354248308962e-02
2.007999999999999829e+01,2.443404490071534804e-02
2.012000000000000099e+01,1.189846594118694652e-02
2.016000000000000014e+01,2.445530293195356461e-02
2.019999999999999929e+01,2.428334257695845613e-02
2.023999999999999844e+01,3.326943527222608887e-02
2.028000000000000114e+01,2.604681045501640660e-02
2.032000000000000028e+01,1.589410074979613618e-02
2.035999999999999943e+01,2.469815655258986511e-02
2.039999999999999858e+01,1.949133416194164664e-02
2.044000000000000128e+01,1.327753584790668066e-02
2.048000000000000043e+01,2.061746922220501418e-02
2.051999999999999957e+01,3.043034215149062818e-02
2.055999999999999872e+01,2.467552685732806242e-02
2.060000000000000142e+01,2.734613978622952093e-02
2.064000000000000057e+01,3.248968875386220451e-02
2.067999999999999972e+01,2.389708167786679799e-02
2.071999999999999886e+01,2.455409037191358043e-02
2.076000000000000156e+01,2.795876194284687907e-02
2.080000000000000071e+01,1.991669357399120446e-02
2.083999999999999986e+01,2.396311778783974042e-02
2.087999999999999901e+01,2.544574784369780726e-02
2.092000000000000171e+01,2.317408436703074365e-02
2.096000000000000085e+01,3.198356532396982171e-02
2.100000000000000000e+01,2.888841655667412356e-02
2.103999999999999915e+01,1.984112790530578180e-02
2.107999999999999829e+01,1.958556055119235056e-02
2.112000000000000099e+01,2.903748117028654568e-02
2.116000000000000014e+01,2.594372988317786635e-02
2.119999999999999929e+01,1.643995009963604079e-02
2.123999999999999844e+01,1.307216016569740825e-02
2.128000000000000114e+01,2.151811956711242174e-02
2.132000000000000028e+01,2.675923442397157986e-02
2.135999999999999943e+01,1.579160012204867264e-02
2.139999999999999858e+01,2.524592941078147509e-02
2.144000000000000128e+01,2.545134284165089314e-02
2.148000000000000043e+01,2.400871238128761409e-02
2.151999999999999957e+01,2.879364035073375336e-02
2.155999999999999872e+01,2.826745069262417975e-02
2.160000000000000142e+01,2.288802615889266520e-02
2.164000000000000057e+01,2.034781550097360808e-02
2.167999999999999972e+01,1.863212828109780256e-02
2.171999999999999886e+01,1.883988474482568495e-02
2.176000000000000156e+01,0.000000000000000000e+00
2.180000000000000071e+01,2.163738299701013085e-02
2.183999999999999986e+01,1.909882249228275763e-02
2.187999999999999901e+01,2.196361880536229841e-02
2.192000000000000171e+01,2.235616727103591564e-02
2.196000000000000085e+01,2.045962028682594275e-02
2.200000000000000000e+01,2.332538911054012412e-02
2.203999999999999915e+01,3.122820292450458751e-02
2.207999999999999829e+01,2.072440364685923173e-02
2.212000000000000099e+01,1.104511491431824088e-02
2.216000000000000014e+01,2.407718712290624757e-02
2.219999999999999929e+01,2.135836948293882639e-02
2.223999999999999844e+01,2.486708917524431406e-02
2.228000000000000114e+01,2.819297009147084254e-02
2.232000000000000028e+01,1.622584156690490970e-02
2.235999999999999943e+01,1.506508609854618347e-02
2.239999999999999858e+01,2.700012213440457567e-02
2.244000000000000128e+01,2.034538096027730530e-02
2.248000000000000043e+01,2.971688605991815169e-02
2.251999999999999957e+01,2.837421509853014709e-02
2.255999999999999872e+01,2.996230783979512285e-02
2.260000000000000142e+01,1.671526685968916653e-02
2.264000000000000057e+01,2.471434419882694369e-02
2.267999999999999972e+01,2.465496754790483941e-02
2.271999999999999886e+01,1.598767502601453061e-02
2.276000000000000156e+01,1.885935811790829392e-02
2.280000000000000071e+01,1.953349793092975031e-02
2.283999999999999986e+01,1.810167007779735562e-02
2.287999999999999901e+01,2.756777682856628026e-02
2.292000000000000171e+01,2.558708151902222214e-02
2.296000000000000085e+01,2.562137034323958007e-02
2.300000000000000000e+01,2.519806893943008635e-02
2.303999999999999915e+01,2.678974932521124841e-02
2.307999999999999829e+01,2.993852640447865893e-02
2.312000000000000099e+01,3.821589361249544403e-02
2.316000000000000014e+01,2.744557858897106808e-02
2.319999999999999929e+01,2.858053342550719370e-02
2.323999999999999844e+01,3.667561057061261703e-02
2.328000000000000114e+01,3.762798399241588237e-02
2.332000000000000028e+01,4.233528991048463030e-02
2.335999999999999943e+01,4.539449684930882412e-02
2.339999999999999858e+01,4.360041616866981717e-02
2.344000000000000128e+01,5.242952332832587214e-02
2.348000000000000043e+01,6.244940832139923848e-02
2.351999999999999957e+01,9.609638225273753331e-02
2.355999999999999872e+01,1.033695194473764900e-01
2.360000000000000142e+01,1.360097021473820056e-01
2.364000000000000057e+01,1.571114849047342554e-01
2.367999999999999972e+01,2.028476965448517688e-01
2.371999999999999886e+01,2.200122239246373179e-01
2.376000000000000156e+01,2.411148244773568539e-01
2.380000000000000071e+01,2.088284297437418557e-01
2.383999999999999986e+01,1.914693200153472497e-01
2.387999999999999901e+01,1.571687730083624890e-01
2.392000000000000171e+01,1.223190320305840156e-01
2.396000000000000085e+01,9.607777439030701361e-02
2.400000000000000000e+01,8.155860959877558880e-02
2.403999999999999915e+01,6.090406344716204484e-02
2.407999999999999829e+01,6.689862372314392402e-02
2.412000000000000099e+01,5.036555581499144868e-02
2.416000000000000014e+01,4.244096538391362722e-02
2.419999999999999929e+01,3.671447632155875468e-02
2.423999999999999844e+01,3.565866064554412684e-02
2.428000000000000114e+01,4.220397429750624707e-02
2.432000000000000028e+01,3.711929129656028892e-02
2.435999999999999943e+01,3.725473887452139532e-02
2.439999999999999858e+01,2.658437851863791959e-02
2.444000000000000128e+01,3.285597485237808091e-02
2.448000000000000043e+01,2.136192526301371186e-02
2.451999999999999957e+01,3.633381563869819003e-02
2.455999999999999872e+01,2.694652924123320734e-02
2.460000000000000142e+01,1.902471821320703485e-02
2.464000000000000057e+01,2.392390269820636808e-02
2.467999999999999972e+01,2.754125666435963335e-02
2.471999999999999886e+01,2.978520215477761801e-02
2.476000000000000156e+01,2.332959521307039277e-02
2.480000000000000071e+01,2.420037200781879547e-02
2.483999999999999986e+01,2.543769572184820943e-02
2.487999999999999901e+01,2.328691700611716306e-02
2.492000000000000171e+01,2.965301671303516989e-02
2.496000000000000085e+01,2.677009741857837299e-02
2.500000000000000000e+01,2.462002749427625453e-02
2.503999999999999915e+01,3.190260032440539462e-02
2.507999999999999829e+01,2.206054714377601519e-02
2.512000000000000099e+01,1.405026123469110995e-02
2.516000000000000014e+01,3.296378046130842010e-02
2.519999999999999929e+01,2.248138099720110167e-02
2.523999999999999844e+01,2.692622551532650871e-02
2.528000000000000114e+01,2.221361844019799012e-02
2.532000000000000028e+01,3.151248515509345871e-02
2.535999999999999943e+01,2.231306588257596021e-02
2.539999999999999858e+01,3.005557516963348538e-02
2.544000000000000128e+01,2.680909247901954243e-02
2.548000000000000043e+01,1.806822372687715700e-02
2.551999999999999957e+01,1.875998366414160026e-02
2.555999999999999872e+01,2.293188010648001748e-02
2.560000000000000142e+01,2.985129760337658020e-02
2.564000000000000057e+01,1.479250308571797637e-02
2.567999999999999972e+01,1.466093965735320442e-02
2.571999999999999886e+01,2.103154194424652901e-02
2.576000000000000156e+01,2.502136064834346516e-02
2.580000000000000071e+01,1.893794467403865991e-02
2.583999999999999986e+01,1.551046593697616438e-02
2.587999999999999901e+01,1.519680718908942435e-02
2.592000000000000171e+01,2.248422971367981457e-02
2.596000000000000085e+01,1.713426289702054198e-02
2.600000000000000000e+01,2.359790710964271634e-02
2.603999999999999915e+01,2.475030242114905493e-02
2.607999999999999829e+01,2.407136548199896239e-02
2.612000000000000099e+01,1.560860410785942440e-02
2.616000000000000014e+01,1.465534018888106638e-02
2.619999999999999929e+01,2.514937429954215362e-02
2.623999999999999844e+01,1.796928770014666679e-02
2.628000000000000114e+01,3.038683063375875390e-02
2.632000000000000028e+01,4.243826284106309160e-02
2.635999999999999943e+01,2.381166737991417121e-02
2.639999999999999858e+01,1.654078730317400450e-02
2.644000000000000128e+01,2.657811245100496350e-02
2.648000000000000043e+01,1.280566527441200954e-02
2.651999999999999957e+01,1.853926381351071739e-02
2.655999999999999872e+01,1.108599472125649035e-02
2.660000000000000142e+01,2.304719221571941215e-02
2.664000000000000057e+01,1.477010730476552118e-02
2.667999999999999972e+01,2.416752772508566974e-02
2.671999999999999886e+01,1.067093663650797025e-02
2.676000000000000156e+01,2.199183774973054173e-02
2.680000000000000071e+01,1.060187857949214212e-02
2.683999999999999986e+01,2.119052893796526116e-02
2.687999999999999901e+01,2.564371471829572646e-02
2.692000000000000171e+01,2.167201512830311400e-02
2.696000000000000085e+01,2.713290203264436332e-02
2.700000000000000000e+01,2.462678514651079828e-02
2.703999999999999915e+01,2.587549175270434029e-02
2.707999999999999829e+01,1.357100835122007458e-02
2.712000000000000099e+01,1.079068354053207279e-02
2.716000000000000014e+01,2.321227680639107241e-02
2.719999999999999929e+01,2.244698368753139314e-02
2.723999999999999844e+01,2.653542961821777832e-02
2.728000000000000114e+01,2.448839924990796682e-02
2.732000000000000028e+01,2.940137163746095461e-02
2.735999999999999943e+01,2.735467431861285034e-02
2.739999999999999858e+01,3.803731485409670571e-02
2.744000000000000128e+01,3.809721194685641160e-02
2.748000000000000043e+01,3.431104650028828085e-02
2.751999999999999957e+01,3.501230475945341092e-02
2.755999999999999872e+01,2.499923927483450187e-02
2.760000000000000142e+01,2.606712365765230174e-02
2.764000000000000057e+01,2.081636762309801644e-02
2.767999999999999972e+01,2.536448412455636486e-02
2.771999999999999886e+01,2.240345966202258315e-02
2.776000000000000156e+01,1.330694483546821655e-02
2.780000000000000071e+01,2.316697750905115719e-02
2.783999999999999986e+01,2.451052106954394391e-02
2.787999999999999901e+01,2.035960824338678768e-02
2.792000000000000171e+01,1.510992352907710064e-02
2.796000000000000085e+01,1.169192286825134451e-02
2.800000000000000000e+01,1.633282645548303838e-02
2.803999999999999915e+01,1.621188324615385062e-02
2.807999999999999829e+01,1.838050449807156206e-02
2.812000000000000099e+01,1.175789807789011203e-02
2.816000000000000014e+01,1.978771972329880502e-02
2.819999999999999929e+01,1.096755428970265338e-02
2.823999999999999844e+01,1.579246994468403581e-02
2.828000000000000114e+01,7.979928277464930220e-03
2.832000000000000028e+01,1.207250644338033092e-02
2.835999999999999943e+01,1.753887301790708550e-02
2.839999999999999858e+01,1.512977156377524023e-02
2.844000000000000128e+01,2.499209356573707172e-02
2.848000000000000043e+01,2.551371663800863082e-02
2.851999999999999957e+01,2.731754664574634686e-02
2.855999999999999872e+01,3.260142525215609793e-02
2.860000000000000142e+01,3.550443705770891384e-02
2.864000000000000057e+01,2.769309347317302009e-02
2.867999999999999972e+01,1.823349502203989309e-02
2.871999999999999886e+01,3.597232774542356154e-02
2.876000000000000156e+01,3.622011948698061756e-02
2.880000000000000071e+01,3.216392608637401451e-02
2.883999999999999986e+01,2.362059280191071073e-02
2.887999999999999901e+01,2.029725765070904131e-02
2.892000000000000171e+01,1.560039095480941426e-02
2.896000000000000085e+01,2.024447536417194743e-02
2.900000000000000000e+01,2.186664375819733289e-02
2.903999999999999915e+01,1.973428068636969707e-02
2.907999999999999829e+01,9.085392166805796033e-03
2.912000000000000099e+01,9.700562545042560811e-03
2.916000000000000014e+01,1.434522464949386164e-02
2.919999999999999929e+01,1.248804705563654263e-02
2.923999999999999844e+01,1.319513028696216346e-02
2.928000000000000114e+01,2.141161955079092308e-02
2.932000000000000028e+01,1.589169960055421618e-02
2.935999999999999943e+01,4.968856681313100349e-03
2.939999999999999858e+01,2.371699820084042717e-02
2.944000000000000128e+01,2.057839314250738474e-02
2.948000000000000043e+01,1.048005625724912279e-02
2.951999999999999957e+01,8.715309435216101949e-03
2.955999999999999872e+01,8.965353352860364750e-03
2.960000000000000142e+01,1.672479392632489695e-02
2.964000000000000057e+01,1.596769264285809523e-02
2.967999999999999972e+01,3.672014431848912887e-03
2.971999999999999886e+01,7.860254271177122970e-03
2.976000000000000156e+01,9.942323673584399502e-03
2.980000000000000071e+01,1.367286964394145640e-02
2.983999999999999986e+01,1.346570713713083831e-02
2.987999999999999901e+01,1.005344925949746074e-02
2.992000000000000171e+01,2.001149288844522936e-02
2.996000000000000085e+01,1.009746396810668606e-02
3.000000000000000000e+01,1.098958423567188147e-02
3.003999999999999915e+01,1.032498657054155798e-02
3.007999999999999829e+01,7.828939446218843162e-03
3.012000000000000099e+01,1.027812376610014178e-02
3.016000000000000014e+01,1.172004734585270665e-02
3.019999999999999929e+01,9.865289393295846587e-03
3.023999999999999844e+01,9.933725470161329160e-03
3.028000000000000114e+01,1.192535440436379851e-02
3.032000000000000028e+01,1.071187507480459919e-02
3.035999999999999943e+01,3.179675626069027646e-03
3.039999999999999858e+01,4.896808302718892378e-03
3.044000000000000128e+01,4.874057756212032445e-03
3.048000000000000043e+01,1.639005661101506500e-02
3.051999999999999957e+01,2.112944673428120146e-02
3.055999999999999872e+01,1.323131272648144820e-02
3.060000000000000142e+01,1.531511926207081674e-02
3.064000000000000057e+01,1.840634025819082656e-02
3.067999999999999972e+01,2.058186206187619105e-02
3.071999999999999886e+01,1.991857102016155248e-02
3.076000000000000156e+01,1.678277310017687804e-02
3.080000000000000071e+01,1.932480097737555511e-02
3.083999999999999986e+01,2.104270175860198724e-02
3.087999999999999901e+01,1.552609933550426653e-02
3.092000000000000171e+01,2.539445838253739929e-02
3.096000000000000085e+01,2.683781367862621281e-02
3.100000000000000000e+01,2.379396579824897412e-02
3.103999999999999915e+01,2.322274921440974776e-02
3.107999999999999829e+01,1.734013604669953218e-02
3.112000000000000099e+01,1.960791248919264637e-02
3.116000000000000014e+01,2.169258995265726728e-02
3.119999999999999929e+01,1.974794230324812896e-02
3.123999999999999844e+01,2.348110755808341388e-02
3.128000000000000114e+01,1.878925968529146506e-02
3.132000000000000028e+01,2.178991163825704305e-02
3.135999999999999943e+01,2.872841406793863808e-02
3.139999999999999858e+01,3.401858192921866642e-02
3.144000000000000128e+01,2.868588913923869610e-02
3.148000000000000043e+01,4.441590206803058827e-02
3.151999999999999957e+01,3.825910747052344019e-02
3.155999999999999872e+01,3.576542713489418851e-02
3.160000000000000142e+01,5.122083831845127000e-02
3.164000000000000057e+01,4.011902243445902849e-02
3.167999999999999972e+01,4.687471894067873207e-02
3.171999999999999886e+01,4.722007869201601954e-02
3.176000000000000156e+01,5.058750935117767994e-02
3.180000000000000071e+01,5.459601334117935439e-02
3.183999999999999986e+01,5.778036093307480081e-02
3.187999999999999901e+01,6.041528130919002204e-02
3.192000000000000171e+01,5.105367519696385470e-02
3.196000000000000085e+01,5.890853577672539032e-02
3.200000000000000000e+01,6.300877815631741874e-02
3.203999999999999915e+01,6.243863331561647079e-02
3.207999999999999829e+01,5.967067327224005041e-02
3.211999999999999744e+01,4.930186655067814172e-02
3.215999999999999659e+01,4.973914572441062720e-02
3.220000000000000284e+01,4.440711157186306990e-02
3.224000000000000199e+01,3.916667714839375952e-02
3.228000000000000114e+01,3.758933588926582220e-02
3.232000000000000028e+01,3.885089555915965248e-02
3.235999999999999943e+01,3.351894615119768023e-02
3.239999999999999858e+01,3.972568988444846044e-02
3.243999999999999773e+01,3.109701156333009864e-02
3.247999999999999687e+01,2.301780986279687927e-02
3.252000000000000313e+01,2.528679958477079992e-02
3.256000000000000227e+01,2.251907971012690607e-02
3.260000000000000142e+01,2.112502400304631239e-02
3.264000000000000057e+01,2.220355270908937195e-02
3.267999999999999972e+01,1.696329331500523105e-02
3.271999999999999886e+01,2.307856411584334813e-02
3.275999999999999801e+01,1.527417133366751160e-02
3.279999999999999716e+01,2.029053495910413188e-02
3.284000000000000341e+01,2.164383255538252296e-02
3.288000000000000256e+01,1.951721652002491939e-02
3.292000000000000171e+01,1.336122497212318370e-02
3.296000000000000085e+01,1.013569238468125210e-02
3.300000000000000000e+01,1.680045323070310584e-02
3.303999999999999915e+01,1.961898861753234163e-02
3.307999999999999829e+01,1.456191884171607887e-02
3.311999999999999744e+01,1.252688012282198241e-02
3.315999999999999659e+01,1.745167303532843897e-02
3.320000000000000284e+01,1.697343045863614758e-02
3.324000000000000199e+01,2.034140648584420452e-02
3.328000000000000114e+01,1.729900004684088027e-02
3.332000000000000028e+01,1.856069379158625104e-02
3.335999999999999943e+01,1.451092414359519620e-02
3.339999999999999858e+01,1.641363446165068976e-02
3.343999999999999773e+01,1.785844863740080127e-02
3.347999999999999687e+01,9.229803094360463853e-03
3.352000000000000313e+01,1.964911422805500074e-02
3.356000000000000227e+01,2.539799360221297805e-02
3.360000000000000142e+01,1.915029726044444741e-02
3.364000000000000057e+01,2.563175592769201608e-02
3.367999999999999972e+01,2.029979010444999538e-02
3.371999999999999886e+01,2.385075198429346607e-02
3.375999999999999801e+01,2.465438872505352694e-02
3.379999999999999716e+01,3.168522406541793984e-02
3.384000000000000341e+01,3.715923012497771016e-02
3.388000000000000256e+01,3.768806469390667546e-02
3.392000000000000171e+01,4.719139789029811599e-02
3.396000000000000085e+01,3.618150383524076225e-02
3.400000000000000000e+01,3.405452927867137075e-02
3.403999999999999915e+01,3.110333385930103695e-02
3.407999999999999829e+01,4.252966268247639070e-02
3.411999999999999744e+01,4.324147553986886633e-02
3.415999999999999659e+01,4.056491404369772652e-02
3.420000000000000284e+01,3.431682345226998859e-02
3.424000000000000199e+01,4.546828631357213713e-02
3.428000000000000114e+01,4.663784279918049142e-02
3.432000000000000028e+01,4.185487026837712149e-02
3.435999999999999943e+01,4.329907992798310429e-02
3.439999999999999858e+01,5.820503660541383878e-02
3.443999999999999773e+01,5.113252340951055658e-02
3.447999999999999687e+01,5.349237635589380868e-02
3.452000000000000313e+01,4.861761943818525972e-02
3.456000000000000227e+01,5.143526740732020514e-02
3.460000000000000142e+01,4.564465139613550770e-02
3.464000000000000057e+01,4.315075225704086137e-02
3.467999999999999972e+01,3.809265459050717451e-02
3.471999999999999886e+01,4.310795352737448183e-02
3.475999999999999801e+01,3.511929812499804682e-02
3.479999999999999716e+01,4.251549050047270101e-02
3.484000000000000341e+01,3.535092085086817548e-02
3.488000000000000256e+01,3.450509493936710498e-02
3.492000000000000171e+01,3.704755448016233688e-02
3.496000000000000085e+01,3.656792336490199968e-02
3.500000000000000000e+01,4.515433601560327886e-02
3.503999999999999915e+01,3.396010404698154850e-02
3.507999999999999829e+01,3.567813846191063981e-02
3.511999999999999744e+01,2.677320439372671626e-02
3.515999999999999659e+01,2.766692368159341664e-02
3.520000000000000284e+01,2.599642920491147813e-02
3.524000000000000199e+01,1.452715379209467209e-02
3.528000000000000114e+01,2.027424778818085957e-02
3.532000000000000028e+01,2.373185485787369930e-02
3.535999999999999943e+01,3.103561841094294380e-02
3.539999999999999858e+01,3.348574271894148163e-02
3.543999999999999773e+01,2.925069091370790034e-02
3.547999999999999687e+01,4.067519731528576599e-02
3.552000000000000313e+01,3.579896285506095621e-02
3.556000000000000227e+01,3.861510397954565771e-02
3.560000000000000142e+01,3.428818037843772704e-02
3.564000000000000057e+01,3.875255143551427361e-02
3.567999999999999972e+01,4.129373215664446095e-02
3.571999999999999886e+01,4.859682666042089427e-02
3.575999999999999801e+01,5.040523387673178507e-02
3.579999999999999716e+01,3.591289202664255109e-02
3.584000000000000341e+01,5.109134590957901956e-02
3.588000000000000256e+01,5.702046081183777954e-02
3.592000000000000171e+01,5.333392842211826662e-02
3.596000000000000085e+01,5.880498845311557532e-02
3.600000000000000000e+01,6.464226839157884152e-02
3.603999999999999915e+01,6.287858678749147501e-02
3.607999999999999829e+01,6.660942269571264174e-02
3.611999999999999744e+01,7.079805177994744070e-02
3.615999999999999659e+01,6.427210512204616089e-02
3.620000000000000284e+01,7.899187944645208459e-02
3.624000000000000199e+01,7.200786150809433683e-02
3.628000000000000114e+01,8.526221757503119059e-02
3.632000000000000028e+01,8.816830035070569171e-02
3.635999999999999943e+01,7.852826582774112552e-02
3.639999999999999858e+01,8.702033574332761201e-02
3.643999999999999773e+01,8.351574672492712015e-02
3.647999999999999687e+01,8.596354742200049137e-02
3.652000000000000313e+01,8.227560106835994647e-02
3.656000000000000227e+01,8.325796709876927271e-02
3.660000000000000142e+01,8.323288368330705733e-02
3.664000000000000057e+01,8.082669787783089421e-02
3.667999999999999972e+01,6.294392828331096812e-02
3.671999999999999886e+01,7.097728045898275828e-02
3.675999999999999801e+01,5.639105728674312368e-02
3.679999999999999716e+01,6.085269468023895428e-02
3.684000000000000341e+01,5.240189357085617283e-02
3.688000000000000256e+01,5.347496506344226463e-02
3.692000000000000171e+01,4.630601173397314724e-02
3.696000000000000085e+01,4.252528408044706915e-02
3.700000000000000000e+01,2.876257034942278357e-02
3.703999999999999915e+01,3.056779232907716817e-02
3.707999999999999829e+01,3.099924365862050807e-02
3.711999999999999744e+01,3.216318921645502232e-02
3.715999999999999659e+01,3.708166172902096352e-02
3.720000000000000284e+01,3.568121369581422897e-02
3.724000000000000199e+01,3.345645103297786166e-02
3.728000000000000114e+01,3.013264221401508111e-02
3.732000000000000028e+01,2.973916459820801633e-02
3.735999999999999943e+01,2.641510278602772141e-02
3.739999999999999858e+01,2.254145201028776718e-02
3.743999999999999773e+01,1.949186287095995215e-02
3.747999999999999687e+01,1.570952885429412541e-02
3.752000000000000313e+01,2.529727364799129810e-02
3.756000000000000227e+01,2.362094096774196295e-02
3.760000000000000142e+01,2.688962055173461582e-02
3.764000000000000057e+01,1.339961322938158089e-02
3.767999999999999972e+01,1.749221213002525102e-02
3.771999999999999886e+01,1.544902881739416978e-02
3.775999999999999801e+01,1.624458703017607822e-02
3.779999999999999716e+01,1.960415524187420974e-02
3.784000000000000341e+01,2.149835374903569588e-02
3.788000000000000256e+01,2.137772067075231763e-02
3.792000000000000171e+01,1.567076022759025453e-02
3.796000000000000085e+01,8.132119424420205731e-03
3.800000000000000000e+01,1.982445759403252128e-02
3.803999999999999915e+01,1.292656144036941242e-02
3.807999999999999829e+01,1.793349913101337928e-02
3.811999999999999744e+01,1.790356430517467748e-02
3.815999999999999659e+01,1.750717181576216808e-02
3.820000000000000284e+01,1.564539907304474467e-02
3.824000000000000199e+01,1.140247705689903523e-02
3.828000000000000114e+01,1.366135272120894487e-02
3.832000000000000028e+01,1.482115175517313352e-02
3.835999999999999943e+01,1.854494437885851818e-02
3.839999999999999858e+01,1.494243666136856052e-02
3.843999999999999773e+01,2.562574864431642341e-02
3.847999999999999687e+01,1.890931161349941950e-02
3.852000000000000313e+01,2.638711515414573702e-02
3.856000000000000227e+01,1.957877802018590310e-02
3.860000000000000142e+01,1.698280956990366047e-02
3.864000000000000057e+01,1.493613723906135789e-02
3.867999999999999972e+01,1.581975626047262690e-02
3.871999999999999886e+01,1.725266905715309995e-02
3.875999999999999801e+01,1.932645124182124849e-02
3.879999999999999716e+01,1.508126599730234309e-02
3.884000000000000341e+01,1.349163706228414042e-02
3.888000000000000256e+01,1.153552936615567098e-02
3.892000000000000171e+01,1.635593095152852727e-02
3.896000000000000085e+01,1.732993360907568101e-02
3.900000000000000000e+01,1.921952897650977196e-02
3.903999999999999915e+01,2.001002661606167757e-02
3.907999999999999829e+01,1.796146644437371723e-02
3.911999999999999744e+01,1.005181339083489021e-02
3.915999999999999659e+01,2.760032668626192023e-02
3.920000000000000284e+01,1.932400566843736275e-02
3.924000000000000199e+01,1.526003458092463523e-02
3.928000000000000114e+01,1.183691764428994146e-02
3.932000000000000028e+01,2.059332857172763154e-02
3.935999999999999943e+01,2.504544492646697609e-02
3.939999999999999858e+01,2.079757986583992760e-02
3.943999999999999773e+01,1.883894639421797301e-02
3.947999999999999687e+01,1.779589156745866457e-02
3.952000000000000313e+01,2.435351950415457975e-02
3.956000000000000227e+01,1.580078640087614547e-02
3.960000000000000142e+01,2.785263715902281875e-02
3.964000000000000057e+01,2.442781739380918068e-02
3.967999999999999972e+01,2.704687036204463102e-02
3.971999999999999886e+01,2.005016469019270040e-02
3.975999999999999801e+01,2.395089900222088092e-02
3.979999999999999716e+01,3.288815789860020239e-02
3.984000000000000341e+01,2.112886367737540697e-02
3.988000000000000256e+01,2.035858270857843905e-02
3.992000000000000171e+01,2.114490498533181870e-02
3.996000000000000085e+01,2.770036143652533991e-02
4.000000000000000000e+01,2.866942957440151221e-02
4.003999999999999915e+01,3.064563673274912567e-02
4.007999999999999829e+01,2.914171928409621526e-02
4.011999999999999744e+01,3.523846701761818023e-02
4.015999999999999659e+01,3.089525215487955515e-02
4.020000000000000284e+01,2.929913053554327254e-02
4.024000000000000199e+01,3.338055810124580108e-02
4.028000000000000114e+01,3.343239449069820152e-02
4.032000000000000028e+01,3.769654916415778045e-02
4.035999999999999943e+01,3.097127467210715815e-02
4.039999999999999858e+01,4.329375525810976594e-02
4.043999999999999773e+01,4.123846329669059174e-02
4.047999999999999687e+01,4.650909561426662397e-02
4.052000000000000313e+01,4.921535827994127921e-02
4.056000000000000227e+01,5.567604827309190901e-02
4.060000000000000142e+01,6.744796976329790750e-02
4.064000000000000057e+01,7.519028952848555436e-02
4.067999999999999972e+01,7.881142961176566819e-02
4.071999999999999886e+01,8.343968879006614936e-02
4.075999999999999801e+01,9.145606229620056871e-02
4.079999999999999716e+01,1.015784739708303075e-01
4.084000000000000341e+01,1.055650120095273092e-01
4.088000000000000256e+01,1.116575858725489256e-01
4.092000000000000171e+01,1.177499283373222017e-01
4.096000000000000085e+01,1.169737793714762247e-01
4.100000000000000000e+01,1.149153216759578877e-01
4.103999999999999915e+01,1.265015700017024514e-01
4.107999999999999829e+01,1.406517322153637839e-01
4.111999999999999744e+01,1.455524019051654960e-01
4.115999999999999659e+01,1.521927920754790609e-01
4.120000000000000284e+01,1.581003283645163182e-01
4.124000000000000199e+01,1.749968380550792346e-01
4.128000000000000114e+01,2.032486271142976697e-01
4.132000000000000028e+01,2.221593410044258587e-01
4.135999999999999943e+01,2.562715568807987787e-01
4.139999999999999858e+01,2.930392540532094636e-01
4.143999999999999773e+01,3.464736794245550922e-01
4.147999999999999687e+01,4.154759104051045093e-01
4.152000000000000313e+01,5.003206761771840094e-01
4.156000000000000227e+01,5.942312934932262314e-01
4.160000000000000142e+01,7.062738628767230020e-01
4.164000000000000057e+01,8.168509512075738943e-01
4.167999999999999972e+01,9.187279913141932486e-01
4.171999999999999886e+01,1.000000000000000000e+00
4.175999999999999801e+01,9.899696982243705312e-01
4.179999999999999716e+01,9.511840288362187756e-01
4.184000000000000341e+01,8.596498730448628445e-01
4.188000000000000256e+01,7.117957350708684627e-01
4.192000000000000171e+01,5.853703040405827673e-01
4.196000000000000085e+01,4.611424539731205363e-01
4.200000000000000000e+01,3.631968780997981150e-01
4.203999999999999915e+01,2.813685521353074259e-01
4.207999999999999829e+01,2.249983069575513250e-01
4.211999999999999744e+01,1.814485450915192533e-01
4.215999999999999659e+01,1.466898868337581652e-01
4.220000000000000284e+01,1.157771846327771970e-01
4.224000000000000199e+01,1.013480336194163695e-01
4.228000000000000114e+01,9.598471305248194863e-02
4.232000000000000028e+01,8.375286120402611334e-02
4.235999999999999943e+01,7.033023755979951608e-02
4.239999999999999858e+01,5.681576236536250990e-02
4.243999999999999773e+01,5.905221821968839602e-02
4.247999999999999687e+01,6.476831478698165390e-02
4.252000000000000313e+01,4.273636727705860949e-02
4.256000000000000227e+01,4.542987221041552837e-02
4.260000000000000142e+01,4.079695373363443484e-02
4.264000000000000057e+01,4.092574626873261845e-02
4.267999999999999972e+01,3.849010585932004236e-02
4.271999999999999886e+01,4.109090447202741470e-02
4.275999999999999801e+01,4.195145885928762419e-02
4.279999999999999716e+01,3.585189111519829913e-02
4.284000000000000341e+01,4.064967310441650050e-02
4.288000000000000256e+01,3.857890740291824300e-02
4.292000000000000171e+01,3.742361954694180259e-02
4.296000000000000085e+01,3.956480476930079870e-02
4.300000000000000000e+01,3.877524053125100401e-02
4.303999999999999915e+01,3.478019530629559292e-02
4.307999999999999829e+01,3.426477321302717066e-02
4.311999999999999744e+01,2.889548566221393847e-02
4.315999999999999659e+01,2.654793497489791113e-02
4.320000000000000284e+01,2.868734853585466413e-02
4.324000000000000199e+01,3.055173236320088415e-02
4.328000000000000114e+01,2.573071034858468928e-02
4.332000000000000028e+01,3.125756329342885276e-02
4.335999999999999943e+01,2.698539736881043136e-02
4.339999999999999858e+01,2.985591659134844908e-02
4.343999999999999773e+01,1.670019323359424324e-02
4.347999999999999687e+01,1.847117938714936888e-02
4.352000000000000313e+01,2.170708651376875020e-02
4.356000000000000227e+01,2.338587954284144371e-02
4.360000000000000142e+01,1.984448591012974786e-02
4.364000000000000057e+01,3.077191317636689821e-02
4.367999999999999972e+01,2.045321409598268789e-02
4.371999999999999886e+01,2.368756572233851262e-02
4.375999999999999801e+01,1.803865460641625867e-02
4.379999999999999716e+01,2.337864187855673986e-02
4.384000000000000341e+01,1.791225158336843745e-02
4.388000000000000256e+01,1.986326272472367649e-02
4.392000000000000171e+01,1.851719030849161701e-02
4.396000000000000085e+01,1.396560994739074607e-02
4.400000000000000000e+01,1.225258826638696633e-02
4.403999999999999915e+01,1.420231515662915417e-02
4.407999999999999829e+01,1.880744481319012243e-02
4.411999999999999744e+01,1.599452973556567820e-02
4.415999999999999659e+01,1.913377933302634268e-02
4.420000000000000284e+01,1.888436038349840251e-02
4.424000000000000199e+01,1.744411455018787457e-02
4.428000000000000114e+01,2.149814595168735021e-02
4.432000000000000028e+01,1.209005896152335474e-02
4.435999999999999943e+01,1.385400751983468202e-02
4.439999999999999858e+01,2.505003154326361850e-02
4.443999999999999773e+01,1.115368198868948481e-02
4.447999999999999687e+01,2.005961613641813954e-02
4.452000000000000313e+01,1.504554210803748029e-02
4.456000000000000227e+01,1.808988708437589757e-02
4.460000000000000142e+01,2.058443212179016102e-02
4.464000000000000057e+01,1.730929931437789893e-02
4.467999999999999972e+01,2.117681414739058104e-02
4.471999999999999886e+01,1.240638993112046229e-02
4.475999999999999801e+01,1.233541635276928262e-02
4.479999999999999716e+01,1.931551011378317487e-02
4.484000000000000341e+01,1.988488267591708922e-02
4.488000000000000256e+01,2.100336851217501910e-02
4.492000000000000171e+01,1.800055042547742817e-02
4.496000000000000085e+01,2.003410572411969126e-02
4.500000000000000000e+01,1.721374047720529085e-02
4.503999999999999915e+01,1.622455880332679748e-02
4.507999999999999829e+01,1.724971310000640926e-02
4.511999999999999744e+01,1.772505222065223762e-02
4.515999999999999659e+01,1.481169466426084623e-02
4.520000000000000284e+01,1.510316776462100781e-02
4.524000000000000199e+01,1.200594184377327088e-02
4.528000000000000114e+01,1.660080669089293928e-02
4.532000000000000028e+01,9.290329185879879145e-03
4.535999999999999943e+01,1.727281324337954713e-02
4.539999999999999858e+01,1.829509898398132273e-02
4.543999999999999773e+01,1.611183341255604390e-02
4.547999999999999687e+01,1.969754026779142742e-02
4.552000000000000313e+01,1.403362566977769260e-02
4.556000000000000227e+01,1.331449009101964669e-02
4.560000000000000142e+01,1.186237170159587691e-02
4.564000000000000057e+01,2.048332993627027462e-02
4.567999999999999972e+01,1.866416382690464643e-02
4.571999999999999886e+01,1.730250959306668321e-02
4.575999999999999801e+01,1.722255712590534463e-02
4.579999999999999716e+01,1.906534274696186637e-02
4.584000000000000341e+01,1.614575999347298702e-02
4.588000000000000256e+01,2.027721293304450903e-02
4.592000000000000171e+01,1.772318267301994238e-02
4.596000000000000085e+01,1.672557867365659715e-02
4.600000000000000000e+01,1.673493905404628904e-02
4.603999999999999915e+01,3.057201251463664490e-02
4.607999999999999829e+01,3.717413737846663596e-02
4.611999999999999744e+01,3.104670538522252485e-02
4.615999999999999659e+01,2.867353662750419391e-02
4.620000000000000284e+01,3.188616562930247228e-02
4.624000000000000199e+01,2.813857170041035929e-02
4.628000000000000114e+01,4.096598736332102142e-02
4.632000000000000028e+01,3.410400466364138516e-02
4.635999999999999943e+01,3.319412217435212947e-02
4.639999999999999858e+01,2.871235310377195579e-02
4.643999999999999773e+01,3.622674969646273030e-02
4.647999999999999687e+01,3.842929845241951220e-02
4.652000000000000313e+01,3.715153389563311676e-02
4.656000000000000227e+01,3.523233518293619748e-02
4.660000000000000142e+01,2.800128511724919375e-02
4.664000000000000057e+01,2.553182885490559023e-02
4.667999999999999972e+01,3.460064729930176219e-02
4.671999999999999886e+01,2.874204847005202082e-02
4.675999999999999801e+01,2.334093104211065403e-02
4.679999999999999716e+01,2.608974376691211572e-02
4.684000000000000341e+01,2.215304633415427979e-02
4.688000000000000256e+01,2.288635888742383481e-02
4.692000000000000171e+01,3.012121595071160993e-02
4.696000000000000085e+01,2.325283977107560351e-02
4.700000000000000000e+01,2.654907714943939220e-02
4.703999999999999915e+01,1.967988068727240594e-02
4.707999999999999829e+01,1.702280442668701113e-02
4.711999999999999744e+01,1.976834539804733434e-02
4.715999999999999659e+01,2.791650242926803707e-02
4.720000000000000284e+01,2.736444948847744502e-02
4.724000000000000199e+01,2.479729069426812871e-02
4.728000000000000114e+01,2.671697659562503879e-02
4.732000000000000028e+01,2.076064007194881531e-02
4.735999999999999943e+01,2.634255832956130042e-02
4.739999999999999858e+01,1.827911437533007860e-02
4.743999999999999773e+01,2.266969070625488025e-02
4.747999999999999687e+01,2.000843098703938838e-02
4.752000000000000313e+01,2.577181067744173729e-02
4.756000000000000227e+01,2.658961802402059343e-02
4.760000000000000142e+01,2.804803572772295722e-02
4.764000000000000057e+01,1.860838773118365930e-02
4.767999999999999972e+01,2.437005653140249598e-02
4.771999999999999886e+01,2.463668759063359845e-02
4.775999999999999801e+01,2.563550110345052743e-02
4.779999999999999716e+01,2.910645480904027957e-02
4.784000000000000341e+01,2.259510480199970750e-02
4.788000000000000256e+01,2.716411041511907279e-02
4.792000000000000171e+01,2.660437956603917825e-02
4.796000000000000085e+01,2.595263424688406401e-02
4.800000000000000000e+01,2.639937148801784969e-02
4.803999999999999915e+01,2.803616690215902235e-02
4.807999999999999829e+01,2.573471936820894562e-02
4.811999999999999744e+01,2.242548482780415756e-02
4.815999999999999659e+01,2.580091203237907735e-02
4.820000000000000284e+01,3.357158018975316821e-02
4.824000000000000199e+01,3.309989182491570453e-02
4.828000000000000114e+01,3.207829568930106040e-02
4.832000000000000028e+01,3.874870124316660142e-02
4.835999999999999943e+01,4.029035744189394391e-02
4.839999999999999858e+01,4.219787020162612395e-02
4.843999999999999773e+01,4.236497229979026280e-02
4.847999999999999687e+01,4.985776425987790278e-02
4.852000000000000313e+01,5.341230037893538590e-02
4.856000000000000227e+01,5.843160978830198166e-02
4.860000000000000142e+01,5.649062711394207958e-02
4.864000000000000057e+01,4.942088687984646372e-02
4.867999999999999972e+01,5.407251631783027007e-02
4.871999999999999886e+01,5.084808230779345323e-02
4.875999999999999801e+01,3.443613015902978469e-02
4.879999999999999716e+01,4.558832793714817644e-02
4.884000000000000341e+01,3.686789994169104717e-02
4.888000000000000256e+01,3.153534834074014914e-02
4.892000000000000171e+01,3.307058978475475863e-02
4.896000000000000085e+01,2.288353578647666156e-02
4.900000000000000000e+01,2.075477069144286354e-02
4.903999999999999915e+01,2.283806836580810906e-02
4.907999999999999829e+01,2.812608300464514502e-02
4.911999999999999744e+01,2.132549037363279387e-02
4.915999999999999659e+01,2.523890871683373907e-02
4.920000000000000284e+01,2.466459058473058005e-02
4.924000000000000199e+01,1.712996161553519137e-02
4.928000000000000114e+01,2.333137400282263643e-02
4.932000000000000028e+01,1.808521075346056217e-02
4.935999999999999943e+01,1.705110089681465338e-02
4.939999999999999858e+01,2.242688609609093733e-02
4.943999999999999773e+01,1.498144037040451994e-02
4.947999999999999687e+01,2.090572300155892418e-02
4.952000000000000313e+01,2.206752942631494060e-02
4.956000000000000227e+01,1.571955492847300698e-02
4.960000000000000142e+01,2.722856772660237068e-02
4.964000000000000057e+01,2.170381163836712993e-02
4.967999999999999972e+01,1.004292288333494786e-02
4.971999999999999886e+01,1.797897681929033070e-02
4.975999999999999801e+01,1.547478685849913368e-02
4.979999999999999716e+01,1.562583205582043430e-02
4.984000000000000341e+01,2.090468442887168099e-02
4.988000000000000256e+01,2.169578040116775311e-02
4.992000000000000171e+01,2.312741874963646777e-02
4.996000000000000085e+01,2.309333225170496703e-02
5.000000000000000000e+01,1.646521978627460067e-02
5.003999999999999915e+01,1.688802111702733880e-02
5.007999999999999829e+01,2.509434935030828429e-02
5.011999999999999744e+01,1.837316068268786753e-02
5.015999999999999659e+01,1.366615913078507785e-02
5.020000000000000284e+01,2.031417557250290301e-02
5.024000000000000199e+01,1.908608402695645065e-02
5.028000000000000114e+01,1.712487253675732193e-02
5.032000000000000028e+01,1.882622560040292381e-02
5.035999999999999943e+01,1.906184209679467542e-02
5.039999999999999858e+01,2.396736543570231887e-02
5.043999999999999773e+01,2.667453558475492426e-02
5.047999999999999687e+01,2.077297643560066867e-02
5.052000000000000313e+01,1.972447418231382602e-02
5.056000000000000227e+01,2.096487767830244528e-02
5.060000000000000142e+01,1.835854116962609348e-02
5.064000000000000057e+01,2.087998839497250472e-02
5.067999999999999972e+01,2.944498603029438791e-02
5.071999999999999886e+01,2.711182771480208017e-02
5.075999999999999801e+01,2.258030683277188408e-02
5.079999999999999716e+01,2.555756140132198900e-02
5.084000000000000341e+01,1.772823328760562631e-02
5.088000000000000256e+01,2.198651752048923561e-02
5.092000000000000171e+01,1.699502206860036002e-02
5.096000000000000085e+01,2.116067950541891327e-02
5.100000000000000000e+01,2.523423339367500406e-02
5.103999999999999915e+01,1.465497377747790146e-02
5.107999999999999829e+01,2.651149733028420816e-02
5.111999999999999744e+01,2.105947827515618903e-02
5.115999999999999659e+01,1.945315272968799539e-02
5.120000000000000284e+01,2.279144093943992824e-02
5.124000000000000199e+01,1.861989899900885759e-02
5.128000000000000114e+01,2.305603986177950926e-02
5.132000000000000028e+01,1.320566615471468683e-02
5.135999999999999943e+01,2.469214599441007726e-02
5.139999999999999858e+01,2.271629998333355230e-02
5.143999999999999773e+01,1.451269294890052131e-02
5.147999999999999687e+01,1.958717888223659304e-02
5.152000000000000313e+01,1.165721937256369682e-02
5.156000000000000227e+01,2.213365043550238540e-02
5.160000000000000142e+01,2.564970150831270487e-02
5.164000000000000057e+01,2.312113926694732077e-02
5.167999999999999972e+01,2.095833747558741370e-02
5.171999999999999886e+01,1.641399141803343009e-02
5.175999999999999801e+01,1.956154625061875402e-02
5.179999999999999716e+01,1.785498128313649235e-02
5.184000000000000341e+01,1.440790602683069722e-02
5.188000000000000256e+01,1.627173173950915638e-02
5.192000000000000171e+01,1.776869659125049003e-02
5.196000000000000085e+01,2.475971363741299308e-02
5.200000000000000000e+01,2.158515150446027250e-02
5.203999999999999915e+01,1.566272858941534715e-02
5.207999999999999829e+01,1.495962399812410248e-02
5.211999999999999744e+01,2.295575438104585989e-02
5.215999999999999659e+01,2.142733839013758607e-02
5.220000000000000284e+01,1.696790335918807111e-02
5.224000000000000199e+01,1.919301052051173781e-02
5.228000000000000114e+01,1.528190882949016782e-02
5.232000000000000028e+01,1.842165412578627287e-02
5.235999999999999943e+01,1.606622571919307310e-02
5.239999999999999858e+01,1.893010625967071064e-02
5.243999999999999773e+01,1.831350001877208103e-02
5.247999999999999687e+01,1.778790043176033814e-02
5.252000000000000313e+01,2.229845270595572429e-02
5.256000000000000227e+01,1.792548437909417119e-02
5.260000000000000142e+01,2.170227625259844514e-02
5.264000000000000057e+01,1.943442550979311220e-02
5.267999999999999972e+01,1.753230591485926276e-02
5.271999999999999886e+01,1.837691270061057175e-02
5.275999999999999801e+01,1.812201973320174894e-02
5.279999999999999716e+01,1.704235619495890475e-02
5.284000000000000341e+01,1.495476734418899577e-02
5.288000000000000256e+01,2.083377691957983072e-02
5.292000000000000171e+01,1.901975354759499054e-02
5.296000000000000085e+01,1.656410848604224911e-02
5.300000000000000000e+01,2.180032797998274555e-02
5.303999999999999915e+01,1.888562708627248080e-02
5.307999999999999829e+01,2.054917772055524922e-02
5.311999999999999744e+01,1.149765564850991489e-02
5.315999999999999659e+01,1.572417731664863677e-02
5.320000000000000284e+01,2.104902917397964701e-02
5.324000000000000199e+01,2.353440830185390270e-02
5.328000000000000114e+01,2.061616355367946324e-02
5.332000000000000028e+01,1.907097583285266920e-02
5.335999999999999943e+01,2.320295285306709157e-02
5.339999999999999858e+01,2.303022389862242544e-02
5.343999999999999773e+01,1.809490387341426351e-02
5.347999999999999687e+01,1.270110049113616114e-02
5.352000000000000313e+01,2.049375351547008672e-02
5.356000000000000227e+01,2.123439233268923504e-02
5.360000000000000142e+01,1.620509075796157036e-02
5.364000000000000057e+01,2.271385994712130096e-02
5.367999999999999972e+01,1.750019538791602533e-02
5.371999999999999886e+01,2.144360284352845800e-02
5.375999999999999801e+01,1.760237595316885978e-02
5.379999999999999716e+01,1.962145448051918692e-02
5.384000000000000341e+01,1.614531593782196975e-02
5.388000000000000256e+01,1.147806803877078445e-02
5.392000000000000171e+01,2.256141479998462207e-02
5.396000000000000085e+01,1.871713214010269077e-02
5.400000000000000000e+01,1.908476691103534739e-02
5.403999999999999915e+01,2.119174475099443525e-02
5.407999999999999829e+01,1.990976453888139430e-02
5.411999999999999744e+01,1.972608755799744318e-02
5.415999999999999659e+01,1.377245377597162597e-02
5.420000000000000284e+01,2.411886715843619342e-02
5.424000000000000199e+01,2.045341076324556223e-02
5.428000000000000114e+01,1.614629399967019291e-02
5.432000000000000028e+01,1.476901030297326188e-02
5.435999999999999943e+01,2.227404951331688615e-02
5.439999999999999858e+01,2.272704990275320122e-02
5.443999999999999773e+01,2.198892452664053324e-02
5.447999999999999687e+01,1.905232758005163951e-02
5.452000000000000313e+01,2.325808994088954598e-02
5.456000000000000227e+01,1.977077129885203635e-02
5.460000000000000142e+01,1.500074541812032244e-02
5.464000000000000057e+01,1.709834497414788879e-02
5.467999999999999972e+01,2.304153489632371904e-02
5.471999999999999886e+01,2.174952305130177857e-02
5.475999999999999801e+01,2.430309922825739724e-02
5.479999999999999716e+01,1.760678202816074248e-02
5.484000000000000341e+01,2.409688255585929959e-02
5.488000000000000256e+01,1.932239809665110483e-02
5.492000000000000171e+01,1.848507375588285054e-02
5.496000000000000085e+01,2.717109223450138444e-02
5.500000000000000000e+01,1.900633833692488492e-02
5.503999999999999915e+01,1.606081602878555933e-02
5.507999999999999829e+01,2.501962942867594006e-02
5.511999999999999744e+01,2.436223293561598502e-02
5.515999999999999659e+01,1.839273426329926520e-02
5.520000000000000284e+01,2.130553388423057221e-02
5.524000000000000199e+01,2.321033786751332956e-02
5.528000000000000114e+01,2.328295397782794221e-02
5.532000000000000028e+01,1.584562038525296618e-02
5.535999999999999943e+01,2.214414999218634883e-02
5.539999999999999858e+01,1.974222934960995907e-02
5.543999999999999773e+01,1.962907146189531160e-02
5.547999999999999687e+01,2.299517335940652954e-02
5.552000000000000313e+01,2.553642498427932325e-02
5.556000000000000227e+01,1.864460739287043811e-02
5.560000000000000142e+01,2.411499419640067074e-02
5.564000000000000057e+01,2.390695761643459732e-02
5.567999999999999972e+01,2.186672144264678944e-02
5.571999999999999886e+01,2.376362194559174593e-02
5.575999999999999801e+01,2.456093478897468721e-02
5.579999999999999716e+01,2.004612669973512146e-02
5.584000000000000341e+01,2.532936599841593625e-02
5.588000000000000256e+01,2.694886414677203842e-02
5.592000000000000171e+01,2.957503599771228037e-02
5.596000000000000085e+01,2.459966260759344561e-02
5.600000000000000000e+01,1.925730880383087068e-02
5.603999999999999915e+01,2.646030007167610512e-02
5.607999999999999829e+01,1.699564088662920691e-02
5.611999999999999744e+01,2.905084933979248246e-02
5.615999999999999659e+01,2.746043889441859495e-02
5.620000000000000284e+01,2.403781361811330175e-02
5.624000000000000199e+01,2.922272580642526485e-02
5.628000000000000114e+01,3.028600119953992614e-02
5.632000000000000028e+01,3.015809573909375430e-02
5.635999999999999943e+01,2.856427789859000352e-02
5.639999999999999858e+01,2.614558399956991991e-02
5.643999999999999773e+01,3.663853059051926792e-02
5.647999999999999687e+01,2.762493467880488759e-02
5.652000000000000313e+01,3.161455369769300416e-02
5.656000000000000227e+01,4.512746865255360534e-02
5.660000000000000142e+01,4.407898396790001921e-02
5.664000000000000057e+01,3.661943231918572683e-02
5.667999999999999972e+01,3.639375347009263933e-02
5.671999999999999886e+01,3.314534635050900291e-02
5.675999999999999801e+01,4.051915072411673563e-02
5.679999999999999716e+01,3.131686033209971770e-02
5.684000000000000341e+01,3.530092906360994542e-02
5.688000000000000256e+01,3.672014876030723490e-02
5.692000000000000171e+01,3.310194506040341905e-02
5.696000000000000085e+01,3.708391309473851871e-02
5.700000000000000000e+01,3.383061255301043208e-02
5.703999999999999915e+01,3.817748140135057006e-02
5.707999999999999829e+01,3.373227398779204966e-02
5.711999999999999744e+01,3.148420331670639949e-02
5.715999999999999659e+01,3.207430570963494543e-02
5.720000000000000284e+01,3.367104429841613622e-02
5.724000000000000199e+01,2.546835730411537227e-02
5.728000000000000114e+01,2.651421479383922475e-02
5.732000000000000028e+01,2.838355139355203116e-02
5.735999999999999943e+01,2.951956058950373427e-02
5.739999999999999858e+01,2.461078769098814720e-02
5.743999999999999773e+01,3.059893671462425926e-02
5.747999999999999687e+01,1.955308712316546765e-02
5.752000000000000313e+01,2.874498915967603832e-02
5.756000000000000227e+01,2.694695803397227293e-02
5.760000000000000142e+01,2.194301928229245788e-02
5.764000000000000057e+01,2.380661806097002578e-02
5.767999999999999972e+01,1.999173367979803495e-02
5.771999999999999886e+01,2.496749696569265306e-02
5.775999999999999801e+01,2.051012657061087111e-02
5.779999999999999716e+01,1.770041228372806058e-02
5.784000000000000341e+01,2.148349931236440136e-02
5.788000000000000256e+01,2.151120980160432794e-02
5.792000000000000171e+01,2.217922824994525768e-02
5.796000000000000085e+01,2.302966956128276593e-02
5.800000000000000000e+01,2.030788438657537762e-02
5.803999999999999915e+01,2.097370719882713647e-02
5.807999999999999829e+01,2.621763502840217253e-02
5.811999999999999744e+01,1.094762766697191317e-02
5.815999999999999659e+01,2.488987809091833953e-02
5.820000000000000284e+01,2.051603381498014189e-02
5.824000000000000199e+01,2.401705412096082765e-02
5.828000000000000114e+01,1.927542371130495924e-02
5.832000000000000028e+01,2.121815733694778008e-02
5.835999999999999943e+01,2.004653785179653577e-02
5.839999999999999858e+01,2.015624975434861590e-02
5.843999999999999773e+01,2.594297754310143783e-02
5.847999999999999687e+01,2.284601126216426192e-02
5.852000000000000313e+01,2.505975138404185898e-02
5.856000000000000227e+01,2.544120752195189530e-02
5.860000000000000142e+01,2.344091779498621089e-02
5.864000000000000057e+01,2.409560419526879035e-02
5.867999999999999972e+01,2.017069955121351954e-02
5.871999999999999886e+01,2.018284367748915051e-02
5.875999999999999801e+01,1.964477294662372517e-02
5.879999999999999716e+01,2.240271114829180468e-02
5.884000000000000341e+01,2.635039105992047909e-02
5.888000000000000256e+01,2.141436518100556935e-02
5.892000000000000171e+01,2.050695899679854869e-02
5.896000000000000085e+01,1.822514103178943592e-02
5.900000000000000000e+01,2.528339393593830378e-02
5.903999999999999915e+01,1.695598464013185411e-02
5.907999999999999829e+01,2.126540812224975152e-02
5.911999999999999744e+01,2.172784194552133258e-02
5.915999999999999659e+01,2.374631524128584248e-02
5.920000000000000284e+01,1.788841800266578047e-02
5.924000000000000199e+01,2.036323996784970489e-02
5.928000000000000114e+01,2.421094431966285682e-02
5.932000000000000028e+01,2.558530492426002584e-02
5.935999999999999943e+01,1.798436888848549409e-02
5.939999999999999858e+01,2.640859729169330733e-02
5.943999999999999773e+01,2.411756779908636947e-02
5.947999999999999687e+01,2.164260949101718193e-02
5.952000000000000313e+01,2.163944795471078181e-02
5.956000000000000227e+01,2.346704452445516273e-02
5.960000000000000142e+01,2.291286592718983633e-02
5.964000000000000057e+01,2.107583240847512446e-02
5.967999999999999972e+01,2.372528023886552942e-02
5.971999999999999886e+01,1.813203515854647924e-02
5.975999999999999801e+01,2.050518690570649755e-02
5.979999999999999716e+01,2.379332187836709703e-02
5.984000000000000341e+01,2.286813895542966907e-02
5.988000000000000256e+01,2.990934934371525591e-02
5.992000000000000171e+01,3.227935556821306951e-02
5.996000000000000085e+01,2.961184931762254890e-02
