2.003999999999999915e+01,2.107557774909517984e-02
2.007999999999999829e+01,3.764609191323534804e-02
2.012000000000000099e+01,2.719188708957604242e-02
2.016000000000000014e+01,4.253364098162232959e-02
2.019999999999999929e+01,2.777970587664425894e-02
2.023999999999999844e+01,3.559721099591853927e-02
2.028000000000000114e+01,3.481581426515272665e-02
2.032000000000000028e+01,3.603036077561278666e-02
2.035999999999999943e+01,2.480729301567479589e-02
2.039999999999999858e+01,3.354534055274162319e-02
2.044000000000000128e+01,4.259029747949458905e-02
2.048000000000000043e+01,3.059892458412569183e-02
2.051999999999999957e+01,3.979705429652199283e-02
2.055999999999999872e+01,2.227755997972259011e-02
2.060000000000000142e+01,3.823144648409380897e-02
2.064000000000000057e+01,2.792835404124812196e-02
2.067999999999999972e+01,5.631929045056777161e-02
2.071999999999999886e+01,4.002742968081231256e-02
2.076000000000000156e+01,3.617280693782184975e-02
2.080000000000000071e+01,4.291284025253058049e-02
2.083999999999999986e+01,3.997912978871455414e-02
2.087999999999999901e+01,3.812006911986576263e-02
2.092000000000000171e+01,4.009953074370810333e-02
2.096000000000000085e+01,4.499622358453359006e-02
2.100000000000000000e+01,3.822304164849212038e-02
2.103999999999999915e+01,4.465483887389676276e-02
2.107999999999999829e+01,4.433031238897656989e-02
2.112000000000000099e+01,5.659657077189731572e-02
2.116000000000000014e+01,3.815294185248752079e-02
2.119999999999999929e+01,4.949752744556611822e-02
2.123999999999999844e+01,4.702255841650908319e-02
2.128000000000000114e+01,4.546868887669271164e-02
2.132000000000000028e+01,5.589140936406186699e-02
2.135999999999999943e+01,4.834876566213457821e-02
2.139999999999999858e+01,4.832980563812951796e-02
2.144000000000000128e+01,5.307065642962302543e-02
2.148000000000000043e+01,4.675582418495426162e-02
2.151999999999999957e+01,4.335822060436814174e-02
2.155999999999999872e+01,4.640946059671993001e-02
2.160000000000000142e+01,3.855856548808571371e-02
2.164000000000000057e+01,5.097587698805784023e-02
2.167999999999999972e+01,4.128201381982268825e-02
2.171999999999999886e+01,4.202925403300959012e-02
2.176000000000000156e+01,2.158661010664698551e-02
2.180000000000000071e+01,4.091282930223289621e-02
2.183999999999999986e+01,5.332917284061690355e-02
2.187999999999999901e+01,4.071691963674345383e-02
2.192000000000000171e+01,4.407351426268920486e-02
2.196000000000000085e+01,3.299635705529328084e-02
2.200000000000000000e+01,5.354999250010099299e-02
2.203999999999999915e+01,3.725179734182460650e-02
2.207999999999999829e+01,3.262309178163037837e-02
2.212000000000000099e+01,4.242774831724214352e-02
2.216000000000000014e+01,3.641671576772511493e-02
2.219999999999999929e+01,1.689322118412408397e-02
2.223999999999999844e+01,3.667794226994234436e-02
2.228000000000000114e+01,3.128051630777650693e-02
2.232000000000000028e+01,3.002870322050302243e-02
2.235999999999999943e+01,3.875734515037201205e-02
2.239999999999999858e+01,2.752448788090157070e-02
2.244000000000000128e+01,3.348886392851042199e-02
2.248000000000000043e+01,4.774466114172214865e-02
2.251999999999999957e+01,3.405443753277575397e-02
2.255999999999999872e+01,2.880918320695842472e-02
2.260000000000000142e+01,2.724889503290444173e-02
2.264000000000000057e+01,4.887423007100594879e-02
2.267999999999999972e+01,4.485677079094397418e-02
2.271999999999999886e+01,3.039781675077390943e-02
2.276000000000000156e+01,3.359674001556174627e-02
2.280000000000000071e+01,4.278385575375749650e-02
2.283999999999999986e+01,2.540688555103168267e-02
2.287999999999999901e+01,9.258104507997818797e-03
2.292000000000000171e+01,1.568075147176392972e-02
2.296000000000000085e+01,3.024126893070614927e-02
2.300000000000000000e+01,1.854479668377932017e-02
2.303999999999999915e+01,2.680942769875498469e-02
2.307999999999999829e+01,1.680158971893006351e-02
2.312000000000000099e+01,2.583356374294965702e-02
2.316000000000000014e+01,2.319565314320022609e-02
2.319999999999999929e+01,3.238077551795832953e-02
2.323999999999999844e+01,2.390762209742096356e-02
2.328000000000000114e+01,2.096201351541203059e-02
2.332000000000000028e+01,2.523298289407097800e-02
2.335999999999999943e+01,3.487794826433195106e-02
2.339999999999999858e+01,2.701818559212359680e-02
2.344000000000000128e+01,2.468596702904359355e-02
2.348000000000000043e+01,1.667225319022065666e-02
2.351999999999999957e+01,2.493447685166814282e-02
2.355999999999999872e+01,2.828294728380422243e-02
2.360000000000000142e+01,1.704410992402089625e-02
2.364000000000000057e+01,4.730231025883974323e-03
2.367999999999999972e+01,2.174390988785429232e-02
2.371999999999999886e+01,3.476512568447099466e-02
2.376000000000000156e+01,2.398612402618908665e-02
2.380000000000000071e+01,2.042369814037460832e-02
2.383999999999999986e+01,1.977849034234068631e-02
2.387999999999999901e+01,1.805823991185297531e-02
2.392000000000000171e+01,3.752747658937743286e-02
2.396000000000000085e+01,2.106616480437419059e-02
2.400000000000000000e+01,1.642788234687759391e-02
2.403999999999999915e+01,1.808488367439036251e-02
2.407999999999999829e+01,1.728490511766236221e-02
2.412000000000000099e+01,1.126407381426972748e-02
2.416000000000000014e+01,2.904305272263651636e-02
2.419999999999999929e+01,2.025793949018069029e-02
2.423999999999999844e+01,2.636682413565766270e-02
2.428000000000000114e+01,2.264840083828049619e-02
2.432000000000000028e+01,1.754783593814647144e-02
2.435999999999999943e+01,7.072868715021385366e-03
2.439999999999999858e+01,2.515771355857132283e-02
2.444000000000000128e+01,1.606427123829311243e-02
2.448000000000000043e+01,1.403385310830530114e-02
2.451999999999999957e+01,1.277097121497904400e-02
2.455999999999999872e+01,1.872466162946958418e-02
2.460000000000000142e+01,1.730781835792662149e-02
2.464000000000000057e+01,2.264690158282144442e-02
2.467999999999999972e+01,1.616254477241960488e-02
2.471999999999999886e+01,1.336314444922895479e-02
2.476000000000000156e+01,2.085128516663138296e-02
2.480000000000000071e+01,2.050824583957119862e-02
2.483999999999999986e+01,2.446435638157738041e-02
2.487999999999999901e+01,2.104993196110001991e-02
2.492000000000000171e+01,2.193465704498904698e-02
2.496000000000000085e+01,2.972885564874186079e-02
2.500000000000000000e+01,1.940412498711863859e-02
2.503999999999999915e+01,1.522112506952758883e-02
2.507999999999999829e+01,2.439663437825545858e-02
2.512000000000000099e+01,2.881193182824683466e-02
2.516000000000000014e+01,2.032894767915691819e-02
2.519999999999999929e+01,1.414898148904097062e-02
2.523999999999999844e+01,1.395719664898062082e-02
2.528000000000000114e+01,1.960004449439958080e-02
2.532000000000000028e+01,2.155751894491607715e-02
2.535999999999999943e+01,1.860123196036958873e-02
2.539999999999999858e+01,2.485764372323112648e-02
2.544000000000000128e+01,2.742868154414024665e-02
2.548000000000000043e+01,2.523950586516244404e-02
2.551999999999999957e+01,1.168753176821613581e-02
2.555999999999999872e+01,2.331729784081485596e-02
2.560000000000000142e+01,1.559974405497645440e-02
2.564000000000000057e+01,1.970521212029340344e-02
2.567999999999999972e+01,1.352272041382593208e-02
2.571999999999999886e+01,1.378905331589257675e-02
2.576000000000000156e+01,9.909365370527389860e-03
2.580000000000000071e+01,1.278559863344894479e-02
2.583999999999999986e+01,4.759677466280593482e-03
2.587999999999999901e+01,1.224194062959908617e-02
2.592000000000000171e+01,1.864915186061187960e-02
2.596000000000000085e+01,2.121743829689530861e-02
2.600000000000000000e+01,2.209647850726785892e-02
2.603999999999999915e+01,1.453013909142144774e-02
2.607999999999999829e+01,1.525520442967460109e-02
2.612000000000000099e+01,1.014521397485619418e-02
2.616000000000000014e+01,1.470856424947415177e-02
2.619999999999999929e+01,5.387858593097729276e-04
2.623999999999999844e+01,1.815332927447143099e-02
2.628000000000000114e+01,1.304248312226635557e-02
2.632000000000000028e+01,1.453400732557127983e-02
2.635999999999999943e+01,1.187950794619382563e-02
2.639999999999999858e+01,1.260286043087354389e-02
2.644000000000000128e+01,1.071567379043398063e-02
2.648000000000000043e+01,1.527730829387796696e-02
2.651999999999999957e+01,1.292904580516567210e-02
2.655999999999999872e+01,1.702960409563674879e-02
2.660000000000000142e+01,1.145639234917782655e-02
2.664000000000000057e+01,4.193931459207422656e-03
2.667999999999999972e+01,1.612481482615459039e-02
2.671999999999999886e+01,1.162579439116376290e-02
2.676000000000000156e+01,1.618591802145340902e-02
2.680000000000000071e+01,1.798195240324732339e-02
2.683999999999999986e+01,1.210034592295301803e-02
2.687999999999999901e+01,1.635272233647353662e-02
2.692000000000000171e+01,1.354165145211106216e-02
2.696000000000000085e+01,2.101811157908960170e-02
2.700000000000000000e+01,1.344660296771673508e-02
2.703999999999999915e+01,1.232391294732671991e-02
2.707999999999999829e+01,1.642165347775909404e-02
2.712000000000000099e+01,2.113336990987424446e-02
2.716000000000000014e+01,1.248615017872741623e-02
2.719999999999999929e+01,0.000000000000000000e+00
2.723999999999999844e+01,1.699493983445301420e-02
2.728000000000000114e+01,1.141803402501470263e-02
2.732000000000000028e+01,1.244349401233542721e-02
2.735999999999999943e+01,1.961067416738616551e-02
2.739999999999999858e+01,2.140343814084310486e-02
2.744000000000000128e+01,2.150694932378780649e-02
2.748000000000000043e+01,1.823217422938070917e-02
2.751999999999999957e+01,2.647331545122460356e-02
2.755999999999999872e+01,1.429228850389546897e-02
2.760000000000000142e+01,1.343298930011751135e-03
2.764000000000000057e+01,3.902485663213282278e-03
2.767999999999999972e+01,2.304468789673404239e-02
2.771999999999999886e+01,2.115052730277635490e-02
2.776000000000000156e+01,1.065743075932185958e-02
2.780000000000000071e+01,1.029831291563126743e-02
2.783999999999999986e+01,1.531317064033859560e-02
2.787999999999999901e+01,2.516182934920042479e-03
2.792000000000000171e+01,1.490092464039430298e-02
2.796000000000000085e+01,1.761189010903738139e-02
2.800000000000000000e+01,2.155102139656777521e-02
2.803999999999999915e+01,2.334025171165634779e-02
2.807999999999999829e+01,1.038860532939511055e-02
2.812000000000000099e+01,1.540190878163975007e-02
2.816000000000000014e+01,1.749756830326090057e-02
2.819999999999999929e+01,1.621493826522966974e-02
2.823999999999999844e+01,1.616047295198543010e-02
2.828000000000000114e+01,3.361260298583390246e-03
2.832000000000000028e+01,3.048442952630036479e-02
2.835999999999999943e+01,1.768476969510118443e-02
2.839999999999999858e+01,1.240876163056797883e-02
2.844000000000000128e+01,1.097124157691900352e-02
2.848000000000000043e+01,1.751801837191492572e-02
2.851999999999999957e+01,7.327786194768467175e-03
2.855999999999999872e+01,7.117980770508908726e-03
2.860000000000000142e+01,1.965247459685994305e-02
2.864000000000000057e+01,3.095835560887647345e-02
2.867999999999999972e+01,1.401109075237678102e-02
2.871999999999999886e+01,3.284039693338523802e-02
2.876000000000000156e+01,2.034558723665094368e-02
2.880000000000000071e+01,1.061442453406641687e-02
2.883999999999999986e+01,2.913595669285020187e-02
2.887999999999999901e+01,1.403014519344649574e-02
2.892000000000000171e+01,2.210992827724253193e-02
2.896000000000000085e+01,1.867334877874081769e-02
2.900000000000000000e+01,1.416170330698054286e-02
2.903999999999999915e+01,1.195305828859101124e-02
2.907999999999999829e+01,1.803580434804829755e-02
2.912000000000000099e+01,9.991862897960128789e-03
2.916000000000000014e+01,1.208189394773457638e-02
2.919999999999999929e+01,2.768396392400067352e-02
2.923999999999999844e+01,2.132837325012894650e-02
2.928000000000000114e+01,8.523518448627523045e-03
2.932000000000000028e+01,2.366425935584135637e-02
2.935999999999999943e+01,1.408346638579375740e-02
2.939999999999999858e+01,2.507794161289806853e-02
2.944000000000000128e+01,2.808766716070932104e-02
2.948000000000000043e+01,3.201845481600387733e-02
2.951999999999999957e+01,2.596836215836325484e-02
2.955999999999999872e+01,2.007158883237425764e-02
2.960000000000000142e+01,2.615136778711332072e-02
2.964000000000000057e+01,3.161672329767232364e-02
2.967999999999999972e+01,3.846378545064352977e-02
2.971999999999999886e+01,2.657770289202907379e-02
2.976000000000000156e+01,2.805010822477943533e-02
2.980000000000000071e+01,3.428228626187078409e-02
2.983999999999999986e+01,4.204971869420041225e-02
2.987999999999999901e+01,2.463496943203899447e-02
2.992000000000000171e+01,3.194129501658970333e-02
2.996000000000000085e+01,3.679061391144430870e-02
3.000000000000000000e+01,2.751324128505269750e-02
3.003999999999999915e+01,3.927177938489143094e-02
3.007999999999999829e+01,3.797846497436800639e-02
3.012000000000000099e+01,5.633912458533810869e-02
3.016000000000000014e+01,2.756016826700357497e-02
3.019999999999999929e+01,4.085326401050477785e-02
3.023999999999999844e+01,6.228419706147547696e-02
3.028000000000000114e+01,5.070197400091272510e-02
3.032000000000000028e+01,5.508856047666149669e-02
3.035999999999999943e+01,5.563620209917701648e-02
3.039999999999999858e+01,6.570361663979883138e-02
3.044000000000000128e+01,6.609724363788715973e-02
3.048000000000000043e+01,7.186483416927114121e-02
3.051999999999999957e+01,7.686444876254794334e-02
3.055999999999999872e+01,7.817866607306764304e-02
3.060000000000000142e+01,7.242941930950108631e-02
3.064000000000000057e+01,6.591219606077734772e-02
3.067999999999999972e+01,7.858829883396752092e-02
3.071999999999999886e+01,6.915318572784233397e-02
3.076000000000000156e+01,5.680041683834145816e-02
3.080000000000000071e+01,6.440871583483601115e-02
3.083999999999999986e+01,6.925290716548099246e-02
3.087999999999999901e+01,5.920266055204739808e-02
3.092000000000000171e+01,5.606186028832213508e-02
3.096000000000000085e+01,5.691308502965524568e-02
3.100000000000000000e+01,5.085439235562810856e-02
3.103999999999999915e+01,4.617740012411179068e-02
3.107999999999999829e+01,5.608727762421966689e-02
3.112000000000000099e+01,4.726400403049071247e-02
3.116000000000000014e+01,3.997597881444880930e-02
3.119999999999999929e+01,5.142063180309149051e-02
3.123999999999999844e+01,3.891148475515247840e-02
3.128000000000000114e+01,4.359953072493487347e-02
3.132000000000000028e+01,4.014926996274615495e-02
3.135999999999999943e+01,4.314780809773646753e-02
3.139999999999999858e+01,4.138610574503464451e-02
3.144000000000000128e+01,4.453771710254857130e-02
3.148000000000000043e+01,3.601940590748608367e-02
3.151999999999999957e+01,3.241440805793927016e-02
3.155999999999999872e+01,3.003755979812650079e-02
3.160000000000000142e+01,3.948370621931369950e-02
3.164000000000000057e+01,3.050379614056626318e-02
3.167999999999999972e+01,1.922042001329751434e-02
3.171999999999999886e+01,2.175616828892068533e-02
3.176000000000000156e+01,2.091361077573823321e-02
3.180000000000000071e+01,2.483081684939498004e-02
3.183999999999999986e+01,2.214519864279334074e-02
3.187999999999999901e+01,2.606192544504656525e-02
3.192000000000000171e+01,9.710012684199166577e-03
3.196000000000000085e+01,2.376045931258570845e-02
3.200000000000000000e+01,1.646742663758737554e-02
3.203999999999999915e+01,1.055608984634892611e-02
3.207999999999999829e+01,1.969226367466268141e-02
3.211999999999999744e+01,1.654431810389404497e-02
3.215999999999999659e+01,2.260904046337746873e-02
3.220000000000000284e+01,1.239738252119417135e-02
3.224000000000000199e+01,2.153259197149984608e-02
3.228000000000000114e+01,1.592690557770186366e-02
3.232000000000000028e+01,1.400614102460843655e-02
3.235999999999999943e+01,8.860616429685098244e-03
3.239999999999999858e+01,1.507743742208204375e-02
3.243999999999999773e+01,1.561272229232795947e-02
3.247999999999999687e+01,2.228970398949932027e-02
3.252000000000000313e+01,1.760385535744585228e-02
3.256000000000000227e+01,1.215002148743341351e-02
3.260000000000000142e+01,1.191659300393835448e-02
3.264000000000000057e+01,1.675002124238438375e-02
3.267999999999999972e+01,1.929000381984287242e-03
3.271999999999999886e+01,8.911620441493756789e-03
3.275999999999999801e+01,2.249658149815729133e-02
3.279999999999999716e+01,5.218053706403479389e-03
3.284000000000000341e+01,1.465671771875126303e-02
3.288000000000000256e+01,2.291252969334335587e-03
3.292000000000000171e+01,7.276522243513579638e-03
3.296000000000000085e+01,2.132090731871779526e-02
3.300000000000000000e+01,2.676633255657047405e-02
3.303999999999999915e+01,5.801173836468804558e-03
3.307999999999999829e+01,7.714493770710546816e-03
3.311999999999999744e+01,1.454111975646659068e-02
3.315999999999999659e+01,1.845007901784470952e-02
3.320000000000000284e+01,8.539429134426323661e-03
3.324000000000000199e+01,1.413693002908802954e-02
3.328000000000000114e+01,5.300627485347818822e-03
3.332000000000000028e+01,2.226022366415094517e-02
3.335999999999999943e+01,1.526601014182043213e-02
3.339999999999999858e+01,1.241735898342240067e-02
3.343999999999999773e+01,3.426521697443478485e-03
3.347999999999999687e+01,3.955443288618058599e-03
3.352000000000000313e+01,1.185444482342764075e-02
3.356000000000000227e+01,1.253642030802199631e-02
3.360000000000000142e+01,6.922660453409109488e-03
3.364000000000000057e+01,8.525431513154759985e-03
3.367999999999999972e+01,2.026215446720894264e-02
3.371999999999999886e+01,5.127644916679215820e-03
3.375999999999999801e+01,2.346645619415823128e-02
3.379999999999999716e+01,1.493403460235322687e-02
3.384000000000000341e+01,1.100781881530920811e-02
3.388000000000000256e+01,4.931675432718186751e-03
3.392000000000000171e+01,3.217530366650945411e-02
3.396000000000000085e+01,3.680583643068874051e-03
3.400000000000000000e+01,1.787209228711585454e-02
3.403999999999999915e+01,1.333043652577343106e-02
3.407999999999999829e+01,2.276144289089718220e-02
3.411999999999999744e+01,1.115605725253663791e-02
3.415999999999999659e+01,7.381394086889428267e-03
3.420000000000000284e+01,9.961564202160795925e-04
3.424000000000000199e+01,1.395777702852974735e-02
3.428000000000000114e+01,1.402107446195387935e-02
3.432000000000000028e+01,1.132024836507534125e-02
3.435999999999999943e+01,2.044240436704428468e-02
3.439999999999999858e+01,1.681978512929983155e-02
3.443999999999999773e+01,8.590460027486798711e-03
3.447999999999999687e+01,1.003443772630264151e-02
3.452000000000000313e+01,1.239945455649725872e-02
3.456000000000000227e+01,1.399647703123115677e-02
3.460000000000000142e+01,1.513260193260684665e-02
3.464000000000000057e+01,1.442589273823753453e-02
3.467999999999999972e+01,2.431377632610482939e-02
3.471999999999999886e+01,2.483494982443740923e-02
3.475999999999999801e+01,2.873393707566968339e-02
3.479999999999999716e+01,2.326621387266716509e-02
3.484000000000000341e+01,3.714534620940121434e-02
3.488000000000000256e+01,2.077517414442128785e-02
3.492000000000000171e+01,1.315701198086196601e-02
3.496000000000000085e+01,1.137343837407321472e-02
3.500000000000000000e+01,2.525155600418922675e-02
3.503999999999999915e+01,2.254618342133335104e-02
3.507999999999999829e+01,3.028185331498743638e-02
3.511999999999999744e+01,2.557984165108014712e-02
3.515999999999999659e+01,2.609822370328787958e-02
3.520000000000000284e+01,2.922667509141334274e-02
3.524000000000000199e+01,2.851615937960107552e-02
3.528000000000000114e+01,3.179764897904316379e-02
3.532000000000000028e+01,2.340919852030533960e-02
3.535999999999999943e+01,3.083598613954832354e-02
3.539999999999999858e+01,3.212057869605868671e-02
3.543999999999999773e+01,3.110168806314425258e-02
3.547999999999999687e+01,4.221287138772897990e-02
3.552000000000000313e+01,3.919733802676240997e-02
3.556000000000000227e+01,4.370542379180533676e-02
3.560000000000000142e+01,4.698486501360765732e-02
3.564000000000000057e+01,4.473630400748235952e-02
3.567999999999999972e+01,4.678684345356381308e-02
3.571999999999999886e+01,4.269518637811230144e-02
3.575999999999999801e+01,4.981231109035173105e-02
3.579999999999999716e+01,6.199627811887935269e-02
3.584000000000000341e+01,5.851804218079229708e-02
3.588000000000000256e+01,5.288986952965642196e-02
3.592000000000000171e+01,5.754918704345339531e-02
3.596000000000000085e+01,4.746759193694349843e-02
3.600000000000000000e+01,7.408382557359295684e-02
3.603999999999999915e+01,6.093074362234573993e-02
3.607999999999999829e+01,6.144321771561017664e-02
3.611999999999999744e+01,7.454640829545212954e-02
3.615999999999999659e+01,6.216029158739473648e-02
3.620000000000000284e+01,7.081005752366219264e-02
3.624000000000000199e+01,7.270343063894098290e-02
3.628000000000000114e+01,6.860815316201271385e-02
3.632000000000000028e+01,6.604810053961684968e-02
3.635999999999999943e+01,8.037812081203508929e-02
3.639999999999999858e+01,7.397883565146967655e-02
3.643999999999999773e+01,7.679219890970240270e-02
3.647999999999999687e+01,8.329046504423588682e-02
3.652000000000000313e+01,8.472137038581992186e-02
3.656000000000000227e+01,7.478942698082552409e-02
3.660000000000000142e+01,7.391658278300282381e-02
3.664000000000000057e+01,6.490540760065428849e-02
3.667999999999999972e+01,8.291850368125650017e-02
3.671999999999999886e+01,8.649778064135373035e-02
3.675999999999999801e+01,7.932840187202767901e-02
3.679999999999999716e+01,7.169811550009141943e-02
3.684000000000000341e+01,8.802113001717946916e-02
3.688000000000000256e+01,8.944967923768341878e-02
3.692000000000000171e+01,8.826764155735873640e-02
3.696000000000000085e+01,7.986856232706579517e-02
3.700000000000000000e+01,8.774535914508113654e-02
3.703999999999999915e+01,9.562189271306502369e-02
3.707999999999999829e+01,9.996654775746224852e-02
3.711999999999999744e+01,1.038502937404489207e-01
3.715999999999999659e+01,1.022060305662067514e-01
3.720000000000000284e+01,1.119240910972805064e-01
3.724000000000000199e+01,1.237915662177411225e-01
3.728000000000000114e+01,1.299774831516962992e-01
3.732000000000000028e+01,1.423050748482226346e-01
3.735999999999999943e+01,1.503330443335803013e-01
3.739999999999999858e+01,1.571323610699456863e-01
3.743999999999999773e+01,1.602462491593477367e-01
3.747999999999999687e+01,1.705766506575048802e-01
3.752000000000000313e+01,1.893519532398776350e-01
3.756000000000000227e+01,1.884727844766999061e-01
3.760000000000000142e+01,2.335043460962591133e-01
3.764000000000000057e+01,2.524323997520624419e-01
3.767999999999999972e+01,3.000737534165551224e-01
3.771999999999999886e+01,3.091741716922601357e-01
3.775999999999999801e+01,3.675633862302810639e-01
3.779999999999999716e+01,4.059910313641984514e-01
3.784000000000000341e+01,4.593126123770366886e-01
3.788000000000000256e+01,5.149371535438873604e-01
3.792000000000000171e+01,5.879124059405798075e-01
3.796000000000000085e+01,6.808486935826112418e-01
3.800000000000000000e+01,7.688711621669681584e-01
3.803999999999999915e+01,8.419991601665900438e-01
3.807999999999999829e+01,9.598094985029379522e-01
3.811999999999999744e+01,9.728995037874550444e-01
3.815999999999999659e+01,9.932060193807767945e-01
3.820000000000000284e+01,1.000000000000000000e+00
3.824000000000000199e+01,9.768517578645589117e-01
3.828000000000000114e+01,9.229935503809717501e-01
3.832000000000000028e+01,8.456421560315255936e-01
3.835999999999999943e+01,7.658337166988755662e-01
3.839999999999999858e+01,7.081359893568826003e-01
3.843999999999999773e+01,6.215708777240595007e-01
3.847999999999999687e+01,5.735461653154092510e-01
3.852000000000000313e+01,5.121624649560867493e-01
3.856000000000000227e+01,4.553849488842207638e-01
3.860000000000000142e+01,3.953826443239195076e-01
3.864000000000000057e+01,3.803697745118964080e-01
3.867999999999999972e+01,3.380250041372058201e-01
3.871999999999999886e+01,3.053535172340402504e-01
3.875999999999999801e+01,2.949462891626078442e-01
3.879999999999999716e+01,2.747116869552581608e-01
3.884000000000000341e+01,2.593903647233675169e-01
3.888000000000000256e+01,2.452971587111544005e-01
3.892000000000000171e+01,2.328927141829476855e-01
3.896000000000000085e+01,2.246338066720183491e-01
3.900000000000000000e+01,2.231307601938638252e-01
3.903999999999999915e+01,2.007448477653969166e-01
3.907999999999999829e+01,2.086077137856312824e-01
3.911999999999999744e+01,2.209232130581956222e-01
3.915999999999999659e+01,1.986900309152551392e-01
3.920000000000000284e+01,2.318875777590819476e-01
3.924000000000000199e+01,2.409777396140934669e-01
3.928000000000000114e+01,2.497605310430190129e-01
3.932000000000000028e+01,2.783508030351560247e-01
3.935999999999999943e+01,3.170750010278964859e-01
3.939999999999999858e+01,3.272389073178583185e-01
3.943999999999999773e+01,3.507612573704761982e-01
3.947999999999999687e+01,3.325181458841521831e-01
3.952000000000000313e+01,3.222592809178629891e-01
3.956000000000000227e+01,2.806762508393214617e-01
3.960000000000000142e+01,2.926813661373309228e-01
3.964000000000000057e+01,2.612319858625088975e-01
3.967999999999999972e+01,2.244081334246318948e-01
3.971999999999999886e+01,2.049349840108449783e-01
3.975999999999999801e+01,1.939067254696715814e-01
3.979999999999999716e+01,1.755078639494511150e-01
3.984000000000000341e+01,1.686248625816704760e-01
3.988000000000000256e+01,1.592848093013848609e-01
3.992000000000000171e+01,1.652993278644969144e-01
3.996000000000000085e+01,1.445961339586457339e-01
4.000000000000000000e+01,1.380191236736816873e-01
4.003999999999999915e+01,1.366624848581282914e-01
4.007999999999999829e+01,1.394513779540513254e-01
4.011999999999999744e+01,1.321057939320532670e-01
4.015999999999999659e+01,1.273702566345683018e-01
4.020000000000000284e+01,1.367609020462203506e-01
4.024000000000000199e+01,1.185125428191009661e-01
4.028000000000000114e+01,1.242174687989027609e-01
4.032000000000000028e+01,1.093466199576436371e-01
4.035999999999999943e+01,1.188897014052845980e-01
4.039999999999999858e+01,1.149202378495751964e-01
4.043999999999999773e+01,1.104898500974023923e-01
4.047999999999999687e+01,1.089766045753950696e-01
4.052000000000000313e+01,9.871081645200313615e-02
4.056000000000000227e+01,1.176189606547769079e-01
4.060000000000000142e+01,1.087345500954026295e-01
4.064000000000000057e+01,1.086021233613937709e-01
4.067999999999999972e+01,9.879586240324228497e-02
4.071999999999999886e+01,1.043441696414877384e-01
4.075999999999999801e+01,1.023683210420589101e-01
4.079999999999999716e+01,9.532509213822680516e-02
4.084000000000000341e+01,9.012416444782571368e-02
4.088000000000000256e+01,1.062661950312478037e-01
4.092000000000000171e+01,8.478856653123729992e-02
4.096000000000000085e+01,9.064228674717632328e-02
4.100000000000000000e+01,1.040196012895198835e-01
4.103999999999999915e+01,8.899016513495973391e-02
4.107999999999999829e+01,8.977594098232528907e-02
4.111999999999999744e+01,8.426594720867668087e-02
4.115999999999999659e+01,9.687439230564841297e-02
4.120000000000000284e+01,8.337931320971102289e-02
4.124000000000000199e+01,8.447105752848863003e-02
4.128000000000000114e+01,9.400768579057841579e-02
4.132000000000000028e+01,9.755564048435658164e-02
4.135999999999999943e+01,8.252394588491501759e-02
4.139999999999999858e+01,7.056293780381447944e-02
4.143999999999999773e+01,9.023263375279999554e-02
4.147999999999999687e+01,7.566073467443129585e-02
4.152000000000000313e+01,6.984081540972721103e-02
4.156000000000000227e+01,7.384771515192196933e-02
4.160000000000000142e+01,6.495625834917054253e-02
4.164000000000000057e+01,7.725420787336538531e-02
4.167999999999999972e+01,8.678800031485092714e-02
4.171999999999999886e+01,7.037181467510318644e-02
4.175999999999999801e+01,8.005858624649374311e-02
4.179999999999999716e+01,8.375668206137219796e-02
4.184000000000000341e+01,5.689834478117780647e-02
4.188000000000000256e+01,6.550942158087694200e-02
4.192000000000000171e+01,7.381311591938757855e-02
4.196000000000000085e+01,6.921845207180180037e-02
4.200000000000000000e+01,5.878866003818004893e-02
4.203999999999999915e+01,5.526826366095662774e-02
4.207999999999999829e+01,7.048049588920805852e-02
4.211999999999999744e+01,5.774661794378366936e-02
4.215999999999999659e+01,5.530020171668654366e-02
4.220000000000000284e+01,6.283415006111398027e-02
4.224000000000000199e+01,6.698974484102633575e-02
4.228000000000000114e+01,6.715279194516834971e-02
4.232000000000000028e+01,6.839039110465838789e-02
4.235999999999999943e+01,6.701737856371481339e-02
4.239999999999999858e+01,7.025053280462453809e-02
4.243999999999999773e+01,7.379049614270062618e-02
4.247999999999999687e+01,6.734952008642973442e-02
4.252000000000000313e+01,6.443987088937784546e-02
4.256000000000000227e+01,6.352606354693168811e-02
4.260000000000000142e+01,7.643133100816768000e-02
4.264000000000000057e+01,5.847306476287739835e-02
4.267999999999999972e+01,7.229904537704831546e-02
4.271999999999999886e+01,6.524214326470353931e-02
4.275999999999999801e+01,7.307915460222501325e-02
4.279999999999999716e+01,6.602167365535709098e-02
4.284000000000000341e+01,8.506714499617648584e-02
4.288000000000000256e+01,6.956391796293780183e-02
4.292000000000000171e+01,7.678557624370739576e-02
4.296000000000000085e+01,7.970758678430331368e-02
4.300000000000000000e+01,7.679446458011243704e-02
4.303999999999999915e+01,8.401525160032165263e-02
4.307999999999999829e+01,8.186929041983868893e-02
4.311999999999999744e+01,7.634497166313981842e-02
4.315999999999999659e+01,8.110811006601732764e-02
4.320000000000000284e+01,7.113030284323137997e-02
4.324000000000000199e+01,8.218834617116391184e-02
4.328000000000000114e+01,7.650931323979083543e-02
4.332000000000000028e+01,8.357451245421498864e-02
4.335999999999999943e+01,7.774134710029145801e-02
4.339999999999999858e+01,6.515175628472276437e-02
4.343999999999999773e+01,9.448060869090155189e-02
4.347999999999999687e+01,6.960655426280307201e-02
4.352000000000000313e+01,7.098899750466765302e-02
4.356000000000000227e+01,7.083566295118172429e-02
4.360000000000000142e+01,7.743816846021651934e-02
4.364000000000000057e+01,7.651650500237434926e-02
4.367999999999999972e+01,8.357906910016327240e-02
4.371999999999999886e+01,8.035359118630151787e-02
4.375999999999999801e+01,8.173427385439185899e-02
4.379999999999999716e+01,7.543723834397876582e-02
4.384000000000000341e+01,7.574249331975980992e-02
4.388000000000000256e+01,8.771713851285339869e-02
4.392000000000000171e+01,8.019083184896705352e-02
4.396000000000000085e+01,8.986166039784063142e-02
4.400000000000000000e+01,6.928314296919201032e-02
4.403999999999999915e+01,7.634305717999274876e-02
4.407999999999999829e+01,8.969816381843477571e-02
4.411999999999999744e+01,8.938716001274678302e-02
4.415999999999999659e+01,8.892231201649467009e-02
4.420000000000000284e+01,7.924425919597563595e-02
4.424000000000000199e+01,8.630269486508726495e-02
4.428000000000000114e+01,9.075051008096356175e-02
4.432000000000000028e+01,9.489093189464926914e-02
4.435999999999999943e+01,9.350331172809955849e-02
4.439999999999999858e+01,9.057990993684862657e-02
4.443999999999999773e+01,1.088459017080413982e-01
4.447999999999999687e+01,1.002406119224904940e-01
4.452000000000000313e+01,1.039189033655568695e-01
4.456000000000000227e+01,1.059078639722955129e-01
4.460000000000000142e+01,1.039042663269617583e-01
4.464000000000000057e+01,1.089636009675002681e-01
4.467999999999999972e+01,1.111052163668505149e-01
4.471999999999999886e+01,1.120181456471518733e-01
4.475999999999999801e+01,1.152340037172595727e-01
4.479999999999999716e+01,1.258198903082921594e-01
4.484000000000000341e+01,1.225861146906676996e-01
4.488000000000000256e+01,1.276436581226259859e-01
4.492000000000000171e+01,1.339292902394061957e-01
4.496000000000000085e+01,1.271630020116109316e-01
4.500000000000000000e+01,1.286880322863482307e-01
4.503999999999999915e+01,1.332837324855732641e-01
4.507999999999999829e+01,1.369578418890517180e-01
4.511999999999999744e+01,1.228200272695386119e-01
4.515999999999999659e+01,1.330961210569213404e-01
4.520000000000000284e+01,1.307809388523071825e-01
4.524000000000000199e+01,1.336861044115991437e-01
4.528000000000000114e+01,1.218503148630256522e-01
4.532000000000000028e+01,1.153884211958845080e-01
4.535999999999999943e+01,9.848492955851481656e-02
4.539999999999999858e+01,9.877856656930375512e-02
4.543999999999999773e+01,8.970544462074830916e-02
4.547999999999999687e+01,8.462428148418811580e-02
4.552000000000000313e+01,8.015701036829415982e-02
4.556000000000000227e+01,8.505589457761646155e-02
4.560000000000000142e+01,6.968607686012574798e-02
4.564000000000000057e+01,6.706048071213023543e-02
4.567999999999999972e+01,5.506812451069012515e-02
4.571999999999999886e+01,5.612708647849781046e-02
4.575999999999999801e+01,5.718574544396617249e-02
4.579999999999999716e+01,5.271635586459781642e-02
4.584000000000000341e+01,5.054989015158487670e-02
4.588000000000000256e+01,4.208763311790358203e-02
4.592000000000000171e+01,3.469991172806707880e-02
4.596000000000000085e+01,4.005641044892544606e-02
4.600000000000000000e+01,4.387712025108118225e-02
4.603999999999999915e+01,3.986655318090517180e-02
4.607999999999999829e+01,3.524148772068436131e-02
4.611999999999999744e+01,3.522257208376349674e-02
4.615999999999999659e+01,2.675818509855551475e-02
4.620000000000000284e+01,3.241995346997904315e-02
4.624000000000000199e+01,3.762077120418395870e-02
4.628000000000000114e+01,1.748578399815677725e-02
4.632000000000000028e+01,2.452857259094798001e-02
4.635999999999999943e+01,2.420072829928613528e-02
4.639999999999999858e+01,3.124290523454762922e-02
4.643999999999999773e+01,1.678798855583489569e-02
4.647999999999999687e+01,2.413665006861926560e-02
4.652000000000000313e+01,1.259854180057664447e-02
4.656000000000000227e+01,1.841110537476786310e-02
4.660000000000000142e+01,2.176658640164806993e-02
4.664000000000000057e+01,9.766912191856422232e-03
4.667999999999999972e+01,1.972436374403804121e-02
4.671999999999999886e+01,2.676408675517952945e-02
4.675999999999999801e+01,1.460994192694109635e-02
4.679999999999999716e+01,2.118840418687328517e-02
4.684000000000000341e+01,2.930204334327835350e-02
4.688000000000000256e+01,1.469019902204815424e-02
4.692000000000000171e+01,1.788967034858047339e-02
4.696000000000000085e+01,1.141527882201446610e-02
4.700000000000000000e+01,1.906703900507925042e-02
4.703999999999999915e+01,1.197783605687712492e-02
4.707999999999999829e+01,8.880584626668814457e-03
4.711999999999999744e+01,1.069657542546214972e-02
4.715999999999999659e+01,1.051612657072282728e-02
4.720000000000000284e+01,1.340633779356930136e-02
4.724000000000000199e+01,5.087200064604009697e-03
4.728000000000000114e+01,7.976791606519229375e-03
4.732000000000000028e+01,7.948651872143752337e-03
4.735999999999999943e+01,1.053052603927493412e-02
4.739999999999999858e+01,1.649015633669437611e-02
4.743999999999999773e+01,8.630112572704465995e-03
4.747999999999999687e+01,6.451051807697451637e-03
4.752000000000000313e+01,6.882004214797028847e-03
4.756000000000000227e+01,1.161200291614253484e-02
4.760000000000000142e+01,2.325137192723142690e-02
4.764000000000000057e+01,1.016912372709226006e-02
4.767999999999999972e+01,1.382334833448067325e-02
4.771999999999999886e+01,1.394564591317278869e-02
4.775999999999999801e+01,1.652440708764483721e-02
4.779999999999999716e+01,1.050414095525206877e-02
4.784000000000000341e+01,9.704210734012955891e-03
4.788000000000000256e+01,1.166784052595631026e-02
4.792000000000000171e+01,8.717606037416341866e-03
4.796000000000000085e+01,1.451932200418517942e-02
4.800000000000000000e+01,1.080071885898106071e-02
4.803999999999999915e+01,1.107406285536988340e-02
4.807999999999999829e+01,1.257548113092784269e-02
4.811999999999999744e+01,9.777228143157576726e-03
4.815999999999999659e+01,6.518015765366882118e-03
4.820000000000000284e+01,9.400428550937403940e-03
4.824000000000000199e+01,1.197543006401382421e-02
4.828000000000000114e+01,1.209334137107760838e-02
4.832000000000000028e+01,1.666384398996300503e-02
4.835999999999999943e+01,1.647402880474094222e-02
4.839999999999999858e+01,5.689053308461376572e-03
4.843999999999999773e+01,1.931797126637454370e-02
4.847999999999999687e+01,1.513494988389317390e-02
4.852000000000000313e+01,6.038061485677930981e-03
4.856000000000000227e+01,8.610541969820993680e-03
4.860000000000000142e+01,7.036897484661642707e-03
4.864000000000000057e+01,1.360100642595525426e-02
4.867999999999999972e+01,2.338931718010959712e-02
4.871999999999999886e+01,4.617293743927008282e-03
4.875999999999999801e+01,1.010561382091059932e-02
4.879999999999999716e+01,1.513297159027320732e-02
4.884000000000000341e+01,8.643876149369972978e-03
4.888000000000000256e+01,9.217693665235216632e-03
4.892000000000000171e+01,9.944742255334700770e-03
4.896000000000000085e+01,5.604373341623544724e-03
4.900000000000000000e+01,1.016949862434661511e-02
4.903999999999999915e+01,1.058849693191687286e-02
4.907999999999999829e+01,1.730266487337390330e-02
4.911999999999999744e+01,1.751984572272583755e-03
4.915999999999999659e+01,1.122938837196869009e-02
4.920000000000000284e+01,1.487163116262234241e-02
4.924000000000000199e+01,1.897420053316256627e-02
4.928000000000000114e+01,7.107408703023292314e-03
4.932000000000000028e+01,1.182353372183386590e-02
4.935999999999999943e+01,8.708366733259705061e-03
4.939999999999999858e+01,1.726256479769312444e-02
4.943999999999999773e+01,1.046159486095221344e-02
4.947999999999999687e+01,1.809386229259250453e-02
4.952000000000000313e+01,1.221354314507423072e-02
4.956000000000000227e+01,1.477807019441070187e-02
4.960000000000000142e+01,1.780292218248337444e-02
4.964000000000000057e+01,1.683519294237906944e-02
4.967999999999999972e+01,9.418106576126602028e-03
4.971999999999999886e+01,1.367038380408142940e-02
4.975999999999999801e+01,1.178040050564068721e-02
4.979999999999999716e+01,2.002429561444394115e-02
4.984000000000000341e+01,1.030269670072513771e-02
4.988000000000000256e+01,1.977433628090303347e-02
4.992000000000000171e+01,1.527274201174300128e-02
4.996000000000000085e+01,1.860179818703215290e-02
5.000000000000000000e+01,1.502085033069387038e-02
5.003999999999999915e+01,1.128603147833615213e-02
5.007999999999999829e+01,8.011535376514229700e-03
5.011999999999999744e+01,2.654060087233615917e-02
5.015999999999999659e+01,1.389900141537244935e-02
5.020000000000000284e+01,2.521064194252097337e-02
5.024000000000000199e+01,3.268324698846823695e-02
5.028000000000000114e+01,2.695035895505885903e-02
5.032000000000000028e+01,2.720553793823249356e-02
5.035999999999999943e+01,2.208619607089161441e-02
5.039999999999999858e+01,2.065169362203888095e-02
5.043999999999999773e+01,3.165429389622435863e-02
5.047999999999999687e+01,2.192752455021348620e-02
5.052000000000000313e+01,2.847656961819865912e-02
5.056000000000000227e+01,1.967044157920854255e-02
5.060000000000000142e+01,2.499044883834595013e-02
5.064000000000000057e+01,1.741205834142902503e-02
5.067999999999999972e+01,2.564883608242910645e-02
5.071999999999999886e+01,2.021947329154321141e-02
5.075999999999999801e+01,2.784140569380049932e-02
5.079999999999999716e+01,2.179719719947169690e-02
5.084000000000000341e+01,2.389073210234393327e-02
5.088000000000000256e+01,1.953490440856687008e-02
5.092000000000000171e+01,2.254907733615916718e-02
5.096000000000000085e+01,3.446873552503390559e-02
5.100000000000000000e+01,2.089901877414596792e-02
5.103999999999999915e+01,3.174318362469844695e-02
5.107999999999999829e+01,2.323991245984090986e-02
5.111999999999999744e+01,2.318148038018669199e-02
5.115999999999999659e+01,3.033949934557527220e-02
5.120000000000000284e+01,2.045330898189841318e-02
5.124000000000000199e+01,2.715002671436964402e-02
5.128000000000000114e+01,2.847221940227552192e-02
5.132000000000000028e+01,1.520697792968694721e-02
5.135999999999999943e+01,2.497368025970170963e-02
5.139999999999999858e+01,2.875166306919569106e-02
5.143999999999999773e+01,2.454479590687675544e-02
5.147999999999999687e+01,1.465630582378971494e-02
5.152000000000000313e+01,1.781910746919514177e-02
5.156000000000000227e+01,1.775706154475339624e-02
5.160000000000000142e+01,2.015146171048824361e-02
5.164000000000000057e+01,1.824617456609158722e-02
5.167999999999999972e+01,1.849023618271877431e-02
5.171999999999999886e+01,1.597009494677764305e-02
5.175999999999999801e+01,1.652059300051813423e-02
5.179999999999999716e+01,1.952753623268499439e-02
5.184000000000000341e+01,1.715995186738604114e-02
5.188000000000000256e+01,1.387074570683434309e-02
5.192000000000000171e+01,1.825863257335369125e-02
5.196000000000000085e+01,2.126425183324131760e-02
5.200000000000000000e+01,1.904889124848926571e-02
5.203999999999999915e+01,1.867578081915810193e-02
5.207999999999999829e+01,2.198750214961357752e-02
5.211999999999999744e+01,2.053888853505822856e-02
5.215999999999999659e+01,1.970413667106308067e-02
5.220000000000000284e+01,1.165227378173595320e-02
5.224000000000000199e+01,1.864782960754282626e-02
5.228000000000000114e+01,1.243788323649126261e-02
5.232000000000000028e+01,1.267664021119981228e-02
5.235999999999999943e+01,1.306861257803945166e-02
5.239999999999999858e+01,1.745251221031813432e-02
5.243999999999999773e+01,1.661542999210668947e-02
5.247999999999999687e+01,1.808124137014468016e-02
5.252000000000000313e+01,1.279058571072936440e-02
5.256000000000000227e+01,2.147250793206350455e-02
5.260000000000000142e+01,1.418505381766519205e-02
5.264000000000000057e+01,1.672436819920575593e-02
5.267999999999999972e+01,1.127882695608227112e-02
5.271999999999999886e+01,1.228198723521858535e-02
5.275999999999999801e+01,1.374545804743826545e-02
5.279999999999999716e+01,1.459439983480708553e-02
5.284000000000000341e+01,1.052945491263805079e-02
5.288000000000000256e+01,1.598418042785503326e-02
5.292000000000000171e+01,1.683211583328676764e-02
5.296000000000000085e+01,1.844745782450431595e-02
5.300000000000000000e+01,1.146374880335229024e-02
5.303999999999999915e+01,1.261777315014927202e-02
5.307999999999999829e+01,1.331081567787139631e-02
5.311999999999999744e+01,1.477126406197923174e-02
5.315999999999999659e+01,1.039653338439105491e-02
5.320000000000000284e+01,1.446663230980433507e-02
5.324000000000000199e+01,1.515832752444264304e-02
5.328000000000000114e+01,2.414130349515603360e-02
5.332000000000000028e+01,2.452522699469958031e-02
5.335999999999999943e+01,1.968816444970217933e-02
5.339999999999999858e+01,1.500431255573493779e-02
5.343999999999999773e+01,1.554077104391634635e-02
5.347999999999999687e+01,2.267947607193310580e-02
5.352000000000000313e+01,1.584493083910873748e-02
5.356000000000000227e+01,2.267586196383034741e-02
5.360000000000000142e+01,1.937225451866862735e-02
5.364000000000000057e+01,1.483992029039999695e-02
5.367999999999999972e+01,1.476015293904813473e-02
5.371999999999999886e+01,1.222327058207881879e-02
5.375999999999999801e+01,1.674927893517357338e-02
5.379999999999999716e+01,1.252268414667173299e-02
5.384000000000000341e+01,1.259510702346022283e-02
5.388000000000000256e+01,2.234074426111010148e-02
5.392000000000000171e+01,2.394797173901854273e-02
5.396000000000000085e+01,1.680259534593023241e-02
5.400000000000000000e+01,2.255495089340586387e-02
5.403999999999999915e+01,1.464115077394251632e-02
5.407999999999999829e+01,2.223540642819046495e-02
5.411999999999999744e+01,1.815963631974147965e-02
5.415999999999999659e+01,2.344998233125100348e-02
5.420000000000000284e+01,2.136965971770039135e-02
5.424000000000000199e+01,1.944254392582926358e-02
5.428000000000000114e+01,1.644024691547689085e-02
5.432000000000000028e+01,1.789051386444073105e-02
5.435999999999999943e+01,2.010818101693916116e-02
5.439999999999999858e+01,1.879389068828522455e-02
5.443999999999999773e+01,1.747925778733416119e-02
5.447999999999999687e+01,2.414880320750449616e-02
5.452000000000000313e+01,2.452251791939864811e-02
5.456000000000000227e+01,2.489588951194559793e-02
5.460000000000000142e+01,2.235149664049525947e-02
5.464000000000000057e+01,1.949966332054504231e-02
5.467999999999999972e+01,1.864361660313959904e-02
5.471999999999999886e+01,2.224013202155004573e-02
5.475999999999999801e+01,1.754468536864197195e-02
5.479999999999999716e+01,1.914438227356544953e-02
5.484000000000000341e+01,2.197212264050203354e-02
5.488000000000000256e+01,2.264983967812268448e-02
5.492000000000000171e+01,2.424850284860368202e-02
5.496000000000000085e+01,2.339004536061605258e-02
5.500000000000000000e+01,1.224349443826756867e-02
5.503999999999999915e+01,1.982951303998213913e-02
5.507999999999999829e+01,2.096614989829373443e-02
5.511999999999999744e+01,1.718888965311543907e-02
5.515999999999999659e+01,1.955322284239212338e-02
5.520000000000000284e+01,1.608236767012096932e-02
5.524000000000000199e+01,2.351310851662049076e-02
5.528000000000000114e+01,2.710479090581426401e-02
5.532000000000000028e+01,1.518773000615206668e-02
5.535999999999999943e+01,1.985355842058419626e-02
5.539999999999999858e+01,2.068032783066044503e-02
5.543999999999999773e+01,2.273513796749926721e-02
5.547999999999999687e+01,2.294701900422422072e-02
5.552000000000000313e+01,2.162306772293792756e-02
5.556000000000000227e+01,2.367683537253251896e-02
5.560000000000000142e+01,1.928121890817365708e-02
5.564000000000000057e+01,1.841686949222187675e-02
5.567999999999999972e+01,1.908765667338510955e-02
5.571999999999999886e+01,2.590003473610272625e-02
5.575999999999999801e+01,2.211721893535616851e-02
5.579999999999999716e+01,2.555083302704818857e-02
5.584000000000000341e+01,1.823570440834969622e-02
5.588000000000000256e+01,2.688926880428976415e-02
5.592000000000000171e+01,2.003408717612335105e-02
5.596000000000000085e+01,1.824565595982697436e-02
5.600000000000000000e+01,2.828010819100847811e-02
5.603999999999999915e+01,2.649097742446503492e-02
5.607999999999999829e+01,2.362665723368881712e-02
5.611999999999999744e+01,2.797876547655087434e-02
5.615999999999999659e+01,3.432665357500641612e-02
5.620000000000000284e+01,2.086643687056838337e-02
5.624000000000000199e+01,1.876845707282903675e-02
5.628000000000000114e+01,2.235142015706470878e-02
5.632000000000000028e+01,2.409145031183574162e-02
5.635999999999999943e+01,2.659887155263960731e-02
5.639999999999999858e+01,2.327109896139450268e-02
5.643999999999999773e+01,1.917523226921891491e-02
5.647999999999999687e+01,3.289063764314722332e-02
5.652000000000000313e+01,2.864051854209739845e-02
5.656000000000000227e+01,2.300811086416172657e-02
5.660000000000000142e+01,2.873793845177449735e-02
5.664000000000000057e+01,3.400676799115921745e-02
5.667999999999999972e+01,3.390104786872374237e-02
5.671999999999999886e+01,2.964916575992853146e-02
5.675999999999999801e+01,3.061757889822893514e-02
5.679999999999999716e+01,3.005015388331689491e-02
5.684000000000000341e+01,3.547076616193199639e-02
5.688000000000000256e+01,3.720586117146621602e-02
5.692000000000000171e+01,3.725156899851158471e-02
5.696000000000000085e+01,3.852531062301812331e-02
5.700000000000000000e+01,4.179482827376739679e-02
5.703999999999999915e+01,3.876850372818817225e-02
5.707999999999999829e+01,4.280505475762008682e-02
5.711999999999999744e+01,3.854963295708135895e-02
5.715999999999999659e+01,3.782547127564842016e-02
5.720000000000000284e+01,4.385708765772382278e-02
5.724000000000000199e+01,3.683672771376262506e-02
5.728000000000000114e+01,4.348182716879404192e-02
5.732000000000000028e+01,4.490592252663094114e-02
5.735999999999999943e+01,3.727030154926535416e-02
5.739999999999999858e+01,3.792594254592120129e-02
5.743999999999999773e+01,3.581735461395350872e-02
5.747999999999999687e+01,3.493679810889651488e-02
5.752000000000000313e+01,3.021717293493173320e-02
5.756000000000000227e+01,3.409590597004079349e-02
5.760000000000000142e+01,2.722588827135769343e-02
5.764000000000000057e+01,3.494261922387477404e-02
5.767999999999999972e+01,3.344608390016278604e-02
5.771999999999999886e+01,3.271693346258231633e-02
5.775999999999999801e+01,2.953064960203069869e-02
5.779999999999999716e+01,2.265884427834734607e-02
5.784000000000000341e+01,2.914539883630342873e-02
5.788000000000000256e+01,3.317481942423819441e-02
5.792000000000000171e+01,2.123483942388578252e-02
5.796000000000000085e+01,2.603128536710166280e-02
5.800000000000000000e+01,3.128801795554617821e-02
5.803999999999999915e+01,2.855987048442184054e-02
5.807999999999999829e+01,2.828813956276824554e-02
5.811999999999999744e+01,2.279540089691942106e-02
5.815999999999999659e+01,2.759005100938341851e-02
5.820000000000000284e+01,2.885272631744163763e-02
5.824000000000000199e+01,2.950084780104402643e-02
5.828000000000000114e+01,1.955376393312996050e-02
5.832000000000000028e+01,2.235084382974965658e-02
5.835999999999999943e+01,3.297853587731092162e-02
5.839999999999999858e+01,2.855811604174237489e-02
5.843999999999999773e+01,3.212185647464165655e-02
5.847999999999999687e+01,2.401555126869007323e-02
5.852000000000000313e+01,2.865340891552205921e-02
5.856000000000000227e+01,3.344445369022953918e-02
5.860000000000000142e+01,2.211254629447288039e-02
5.864000000000000057e+01,2.859190111791813996e-02
5.867999999999999972e+01,3.230702135988874207e-02
5.871999999999999886e+01,2.895854933569781339e-02
5.875999999999999801e+01,3.436197853230595761e-02
5.879999999999999716e+01,2.732761822013136596e-02
5.884000000000000341e+01,2.428515581503996532e-02
5.888000000000000256e+01,2.508104265245542086e-02
5.892000000000000171e+01,2.833334220999080000e-02
5.896000000000000085e+01,2.697882412288548151e-02
5.900000000000000000e+01,2.777362142674743087e-02
5.903999999999999915e+01,3.302096117262127983e-02
5.907999999999999829e+01,2.644470406216745464e-02
5.911999999999999744e+01,2.862034653136241377e-02
5.915999999999999659e+01,2.803175223088227516e-02
5.920000000000000284e+01,3.128150571410868996e-02
5.924000000000000199e+01,2.992444027624417691e-02
5.928000000000000114e+01,3.271281922183873897e-02
5.932000000000000028e+01,3.872535147518445242e-02
5.935999999999999943e+01,2.523686148443636881e-02
5.939999999999999858e+01,2.280349703028156441e-02
5.943999999999999773e+01,3.296074275263315145e-02
5.947999999999999687e+01,2.929825952621454427e-02
5.952000000000000313e+01,3.484831950262333444e-02
5.956000000000000227e+01,3.272058945461451401e-02
5.960000000000000142e+01,3.028539634670130917e-02
5.964000000000000057e+01,2.907822481879688073e-02
5.967999999999999972e+01,2.618165352625110437e-02
5.971999999999999886e+01,2.942665488025616657e-02
5.975999999999999801e+01,3.159645003382510753e-02
5.979999999999999716e+01,2.869877826672369292e-02
5.984000000000000341e+01,3.209622708134928643e-02
5.988000000000000256e+01,3.334362977290445534e-02
5.992000000000000171e+01,3.228743767681282323e-02
5.996000000000000085e+01,3.629797775758757117e-02
