2.003999999999999915e+01,5.778855889384316297e-02
2.007999999999999829e+01,5.961125124004597320e-02
2.012000000000000099e+01,2.954092743629396431e-02
2.016000000000000014e+01,5.405618484211593966e-02
2.019999999999999929e+01,5.771824632321599646e-02
2.023999999999999844e+01,6.138010669806368003e-02
2.028000000000000114e+01,4.193991796167963193e-02
2.032000000000000028e+01,7.054319276773618475e-02
2.035999999999999943e+01,6.132465638195679775e-02
2.039999999999999858e+01,7.827438192861486954e-02
2.044000000000000128e+01,6.639770521455384822e-02
2.048000000000000043e+01,5.901852995233850679e-02
2.051999999999999957e+01,6.513226545457809213e-02
2.055999999999999872e+01,6.961026776333753552e-02
2.060000000000000142e+01,5.446171710892201701e-02
2.064000000000000057e+01,6.057483899211794920e-02
2.067999999999999972e+01,6.341669750206641032e-02
2.071999999999999886e+01,5.705849950434469658e-02
2.076000000000000156e+01,6.991756160564407963e-02
2.080000000000000071e+01,7.398544869511200495e-02
2.083999999999999986e+01,6.517333780302835000e-02
2.087999999999999901e+01,8.661830685370487670e-02
2.092000000000000171e+01,8.353013278339622982e-02
2.096000000000000085e+01,7.982842735174357218e-02
2.100000000000000000e+01,9.841059667133023048e-02
2.103999999999999915e+01,8.080647734900638091e-02
2.107999999999999829e+01,6.442879568556426906e-02
2.112000000000000099e+01,7.053942875829689874e-02
2.116000000000000014e+01,1.071115802327562982e-01
2.119999999999999929e+01,1.021819721746403675e-01
2.123999999999999844e+01,9.602550669650135318e-02
2.128000000000000114e+01,1.019308568285874211e-01
2.132000000000000028e+01,1.033382907070839185e-01
2.135999999999999943e+01,1.168075394328213779e-01
2.139999999999999858e+01,1.439741316595989362e-01
2.144000000000000128e+01,1.331144612648423042e-01
2.148000000000000043e+01,1.353388102199072351e-01
2.151999999999999957e+01,1.271364482609918245e-01
2.155999999999999872e+01,1.140272855007112979e-01
2.160000000000000142e+01,1.092999949693141543e-01
2.164000000000000057e+01,1.160211932264790663e-01
2.167999999999999972e+01,7.960509833787240974e-02
2.171999999999999886e+01,1.030900391453435372e-01
2.176000000000000156e+01,7.914442232641960562e-02
2.180000000000000071e+01,9.588237427591847495e-02
2.183999999999999986e+01,8.134061705953796184e-02
2.187999999999999901e+01,9.071825523686187498e-02
2.192000000000000171e+01,7.535829962648693536e-02
2.196000000000000085e+01,6.020256763511060843e-02
2.200000000000000000e+01,4.565994114006397681e-02
2.203999999999999915e+01,6.893870531272773550e-02
2.207999999999999829e+01,6.707099191290151474e-02
2.212000000000000099e+01,5.048329815907399987e-02
2.216000000000000014e+01,5.577058583439217093e-02
2.219999999999999929e+01,6.800865211033252367e-02
2.223999999999999844e+01,4.140268361725111396e-02
2.228000000000000114e+01,5.486695592645293718e-02
2.232000000000000028e+01,3.480266206834511239e-02
2.235999999999999943e+01,7.382163328479572628e-02
2.239999999999999858e+01,7.276992142978778999e-02
2.244000000000000128e+01,3.696299548652551975e-02
2.248000000000000043e+01,5.942156895569981195e-02
2.251999999999999957e+01,6.756904051477474749e-02
2.255999999999999872e+01,2.746818229996706925e-02
2.260000000000000142e+01,2.682423844727179277e-02
2.264000000000000057e+01,3.865097949289292983e-02
2.267999999999999972e+01,4.925084938477528734e-02
2.271999999999999886e+01,4.615293884733190355e-02
2.276000000000000156e+01,4.714362575786159443e-02
2.280000000000000071e+01,7.225814041718887915e-02
2.283999999999999986e+01,5.300870409100521402e-02
2.287999999999999901e+01,4.438998020948295431e-02
2.292000000000000171e+01,3.720211756761738348e-02
2.296000000000000085e+01,6.068019728974528154e-02
2.300000000000000000e+01,5.982955518271053375e-02
2.303999999999999915e+01,5.161880460616614236e-02
2.307999999999999829e+01,4.994994197859490420e-02
2.312000000000000099e+01,2.947226687149205604e-02
2.316000000000000014e+01,2.575853542094753285e-02
2.319999999999999929e+01,3.063110206901391991e-02
2.323999999999999844e+01,3.775229142244558578e-02
2.328000000000000114e+01,3.935334018211759932e-02
2.332000000000000028e+01,4.238524636652540173e-02
2.335999999999999943e+01,4.889242088829066912e-02
2.339999999999999858e+01,4.149736736595303899e-02
2.344000000000000128e+01,4.902628466502660654e-02
2.348000000000000043e+01,3.508865136879151664e-02
2.351999999999999957e+01,4.650148573096443000e-02
2.355999999999999872e+01,2.254577193487001738e-02
2.360000000000000142e+01,3.988693312828783810e-02
2.364000000000000057e+01,1.858848732987168281e-02
2.367999999999999972e+01,2.734265364035717502e-02
2.371999999999999886e+01,4.652308325475860290e-02
2.376000000000000156e+01,6.529439593278002496e-02
2.380000000000000071e+01,5.155933397534088330e-02
2.383999999999999986e+01,3.250856721266414534e-02
2.387999999999999901e+01,1.468421140442215111e-02
2.392000000000000171e+01,2.895687671024325602e-02
2.396000000000000085e+01,5.467800867808454701e-02
2.400000000000000000e+01,3.869291327949197362e-02
2.403999999999999915e+01,3.967619427404316113e-02
2.407999999999999829e+01,3.616153269204971932e-02
2.412000000000000099e+01,4.429977737551952371e-02
2.416000000000000014e+01,2.790484803714405812e-02
2.419999999999999929e+01,4.422026053062100975e-02
2.423999999999999844e+01,5.092670068630007763e-02
2.428000000000000114e+01,5.640625442855627669e-02
2.432000000000000028e+01,4.430363102298627564e-02
2.435999999999999943e+01,4.262726481745842538e-02
2.439999999999999858e+01,4.074621670108844601e-02
2.444000000000000128e+01,4.806477824530811654e-02
2.448000000000000043e+01,3.616563208044203809e-02
2.451999999999999957e+01,1.486195203674474906e-02
2.455999999999999872e+01,4.793937010907854679e-02
2.460000000000000142e+01,3.685726153966036728e-02
2.464000000000000057e+01,2.986373248808666531e-02
2.467999999999999972e+01,2.941207612580176364e-02
2.471999999999999886e+01,4.838208322423162566e-02
2.476000000000000156e+01,5.058767349606765884e-02
2.480000000000000071e+01,3.153114171276701072e-02
2.483999999999999986e+01,3.843838838686926968e-02
2.487999999999999901e+01,3.900771468988230989e-02
2.492000000000000171e+01,4.979885172263683046e-02
2.496000000000000085e+01,4.096339420957757771e-02
2.500000000000000000e+01,2.865219099271225020e-02
2.503999999999999915e+01,2.451838606699813586e-02
2.507999999999999829e+01,2.631312662741799174e-02
2.512000000000000099e+01,4.957393812774512493e-02
2.516000000000000014e+01,2.560860070426017321e-02
2.519999999999999929e+01,3.046921411650867217e-02
2.523999999999999844e+01,1.488546579485295132e-02
2.528000000000000114e+01,3.037651996947172972e-02
2.532000000000000028e+01,2.746762294131623039e-02
2.535999999999999943e+01,3.355388567002071804e-02
2.539999999999999858e+01,2.676010692707406560e-02
2.544000000000000128e+01,3.877466138975008830e-02
2.548000000000000043e+01,2.053167761782258294e-02
2.551999999999999957e+01,4.154113922967255651e-02
2.555999999999999872e+01,4.067514814980201232e-02
2.560000000000000142e+01,2.386249674964893014e-02
2.564000000000000057e+01,9.298445165335230550e-03
2.567999999999999972e+01,2.110704628591308224e-02
2.571999999999999886e+01,1.431125125938402347e-02
2.576000000000000156e+01,2.162164041007881218e-02
2.580000000000000071e+01,2.300298267418891124e-02
2.583999999999999986e+01,2.561071719962087004e-02
2.587999999999999901e+01,2.310716859312941449e-02
2.592000000000000171e+01,1.835451228498215931e-02
2.596000000000000085e+01,3.711233019952205059e-02
2.600000000000000000e+01,1.743495974360543752e-02
2.603999999999999915e+01,3.823667648853749240e-02
2.607999999999999829e+01,4.799831544115529258e-02
2.612000000000000099e+01,4.631099396114392308e-02
2.616000000000000014e+01,3.440135844347985000e-02
2.619999999999999929e+01,3.271352144780978466e-02
2.623999999999999844e+01,2.121225191032574328e-02
2.628000000000000114e+01,2.913263095536412078e-02
2.632000000000000028e+01,2.744401782501541473e-02
2.635999999999999943e+01,1.819082343190157880e-02
2.639999999999999858e+01,2.447489501801748679e-02
2.644000000000000128e+01,1.787891521368783695e-02
2.648000000000000043e+01,4.460657888439492624e-02
2.651999999999999957e+01,3.596566616641911490e-02
2.655999999999999872e+01,3.693322514877440260e-02
2.660000000000000142e+01,2.440740782648135113e-02
2.664000000000000057e+01,2.230782595918094288e-02
2.667999999999999972e+01,2.041242269481127053e-02
2.671999999999999886e+01,2.996545976950688514e-02
2.676000000000000156e+01,2.766064804887707895e-02
2.680000000000000071e+01,3.373765896315719659e-02
2.683999999999999986e+01,2.816126144853923693e-02
2.687999999999999901e+01,4.323315357053068159e-02
2.692000000000000171e+01,3.581625664183584606e-02
2.696000000000000085e+01,3.678118082208271800e-02
2.700000000000000000e+01,1.403066841219088520e-02
2.703999999999999915e+01,4.525234820699675781e-02
2.707999999999999829e+01,3.497221238988863085e-02
2.712000000000000099e+01,1.998966387342481985e-02
2.716000000000000014e+01,2.749537248782840324e-02
2.719999999999999929e+01,3.132087328694886652e-02
2.723999999999999844e+01,3.555498847752211478e-02
2.728000000000000114e+01,3.856218864276501901e-02
2.732000000000000028e+01,2.787156450709032604e-02
2.735999999999999943e+01,3.537593187718332532e-02
2.739999999999999858e+01,8.125037854001331342e-03
2.744000000000000128e+01,3.464189109118476911e-02
2.748000000000000043e+01,2.067913054859004535e-02
2.751999999999999957e+01,4.187997372694006459e-02
2.755999999999999872e+01,2.955220076251499628e-02
2.760000000000000142e+01,3.541941701490484290e-02
2.764000000000000057e+01,3.249539302031387300e-02
2.767999999999999972e+01,2.752668566782580373e-02
2.771999999999999886e+01,4.136628977591054468e-02
2.776000000000000156e+01,5.254788637487996933e-02
2.780000000000000071e+01,2.795201211859647469e-02
2.783999999999999986e+01,3.749753288426371095e-02
2.787999999999999901e+01,2.946084254930775304e-02
2.792000000000000171e+01,2.285496576749573849e-02
2.796000000000000085e+01,2.135984248674084596e-02
2.800000000000000000e+01,1.741115053732913281e-02
2.803999999999999915e+01,4.780829283181929623e-02
2.807999999999999829e+01,2.954817044769413037e-02
2.812000000000000099e+01,2.743862102687261509e-02
2.816000000000000014e+01,3.657305708198933802e-02
2.819999999999999929e+01,3.364518947865348386e-02
2.823999999999999844e+01,2.989927995299962796e-02
2.828000000000000114e+01,2.431312247647854363e-02
2.832000000000000028e+01,3.201536024404116887e-02
2.835999999999999943e+01,3.337964445070188552e-02
2.839999999999999858e+01,4.087688360906328172e-02
2.844000000000000128e+01,3.283631762002597182e-02
2.848000000000000043e+01,4.523958487850270049e-02
2.851999999999999957e+01,3.433628330896348890e-02
2.855999999999999872e+01,2.404602467104914945e-02
2.860000000000000142e+01,3.624400943028642519e-02
2.864000000000000057e+01,4.251292021699983048e-02
2.867999999999999972e+01,2.915520097913390507e-02
2.871999999999999886e+01,5.872983693508256053e-02
2.876000000000000156e+01,5.314031626820200915e-02
2.880000000000000071e+01,5.409262899692396376e-02
2.883999999999999986e+01,4.420927873978824224e-02
2.887999999999999901e+01,3.228123367999233967e-02
2.892000000000000171e+01,4.733913381246191571e-02
2.896000000000000085e+01,3.295722703816066079e-02
2.900000000000000000e+01,3.390812031669146465e-02
2.903999999999999915e+01,5.816501731360626537e-02
2.907999999999999829e+01,5.073325383574878167e-02
2.912000000000000099e+01,4.616338037215191731e-02
2.916000000000000014e+01,5.161083607072240037e-02
2.919999999999999929e+01,4.969812454999984752e-02
2.923999999999999844e+01,5.780274142846043850e-02
2.928000000000000114e+01,5.916051371287790045e-02
2.932000000000000028e+01,4.825153052765263073e-02
2.935999999999999943e+01,5.942190123240625316e-02
2.939999999999999858e+01,5.668998666924189578e-02
2.944000000000000128e+01,6.724645666838227620e-02
2.948000000000000043e+01,7.350937371895581440e-02
2.951999999999999957e+01,6.954994468653999395e-02
2.955999999999999872e+01,6.007031516610465693e-02
2.960000000000000142e+01,7.941659451727169083e-02
2.964000000000000057e+01,8.935829115861863847e-02
2.967999999999999972e+01,9.582419746158363227e-02
2.971999999999999886e+01,9.983651869173169879e-02
2.976000000000000156e+01,1.228615730557667679e-01
2.980000000000000071e+01,1.082691673252414027e-01
2.983999999999999986e+01,1.081917891185681796e-01
2.987999999999999901e+01,1.267182606424828994e-01
2.992000000000000171e+01,1.425867040567088129e-01
2.996000000000000085e+01,1.660191754503232142e-01
3.000000000000000000e+01,1.763671203712836866e-01
3.003999999999999915e+01,2.083855304380346218e-01
3.007999999999999829e+01,2.222083850338624211e-01
3.012000000000000099e+01,2.454352362478128546e-01
3.016000000000000014e+01,2.817460240277991357e-01
3.019999999999999929e+01,3.021101076159112830e-01
3.023999999999999844e+01,3.788996464422897947e-01
3.028000000000000114e+01,4.072363407373990052e-01
3.032000000000000028e+01,4.382304724725943346e-01
3.035999999999999943e+01,4.990727114780991180e-01
3.039999999999999858e+01,5.382438927607503532e-01
3.044000000000000128e+01,5.896812434213468679e-01
3.048000000000000043e+01,6.270118573843271870e-01
3.051999999999999957e+01,6.332671205270536952e-01
3.055999999999999872e+01,6.791836632443758459e-01
3.060000000000000142e+01,6.891182672725864045e-01
3.064000000000000057e+01,6.665464314301873250e-01
3.067999999999999972e+01,6.079926561356925330e-01
3.071999999999999886e+01,5.723359862780905694e-01
3.076000000000000156e+01,5.082616979936306345e-01
3.080000000000000071e+01,4.507292240301679076e-01
3.083999999999999986e+01,4.212048825944069708e-01
3.087999999999999901e+01,3.724627724108238169e-01
3.092000000000000171e+01,3.359868270272808877e-01
3.096000000000000085e+01,2.978750492623113977e-01
3.100000000000000000e+01,2.401366193462209087e-01
3.103999999999999915e+01,2.283971394385737874e-01
3.107999999999999829e+01,2.041864461462200853e-01
3.112000000000000099e+01,1.998062375346675579e-01
3.116000000000000014e+01,1.823414913871899690e-01
3.119999999999999929e+01,1.411612685929029831e-01
3.123999999999999844e+01,1.447533471231306212e-01
3.128000000000000114e+01,1.219722135612165692e-01
3.132000000000000028e+01,1.126838877608899725e-01
3.135999999999999943e+01,1.017597257642158248e-01
3.139999999999999858e+01,7.775102394266408812e-02
3.144000000000000128e+01,9.381247556170448088e-02
3.148000000000000043e+01,7.982077285173763692e-02
3.151999999999999957e+01,6.439767354886608008e-02
3.155999999999999872e+01,7.739158216566104087e-02
3.160000000000000142e+01,6.380783450896611309e-02
3.164000000000000057e+01,6.392133269133329354e-02
3.167999999999999972e+01,5.054140611955536266e-02
3.171999999999999886e+01,5.024540123562119126e-02
3.176000000000000156e+01,5.015352650512088645e-02
3.180000000000000071e+01,5.231019284067640190e-02
3.183999999999999986e+01,5.017328371963100664e-02
3.187999999999999901e+01,4.292503424284709046e-02
3.192000000000000171e+01,4.078750049940212813e-02
3.196000000000000085e+01,4.253403533133563036e-02
3.200000000000000000e+01,4.448469802775054105e-02
3.203999999999999915e+01,3.580410834835087014e-02
3.207999999999999829e+01,3.591417320572681815e-02
3.211999999999999744e+01,2.580186718312681843e-02
3.215999999999999659e+01,3.981329964017259193e-02
3.220000000000000284e+01,2.826927574840381457e-02
3.224000000000000199e+01,3.410243230272066300e-02
3.228000000000000114e+01,3.359759790990967526e-02
3.232000000000000028e+01,3.268356494140900459e-02
3.235999999999999943e+01,3.238253866278353182e-02
3.239999999999999858e+01,2.942346062195893078e-02
3.243999999999999773e+01,2.237524253156329690e-02
3.247999999999999687e+01,2.513988081007925701e-02
3.252000000000000313e+01,3.178858232308423570e-02
3.256000000000000227e+01,1.513067647737110187e-02
3.260000000000000142e+01,2.811641540899819519e-02
3.264000000000000057e+01,3.394639544242290113e-02
3.267999999999999972e+01,3.446058636085565924e-02
3.271999999999999886e+01,3.640554505338033930e-02
3.275999999999999801e+01,2.669703885617566094e-02
3.279999999999999716e+01,4.867658682296462785e-02
3.284000000000000341e+01,3.528749812531864483e-02
3.288000000000000256e+01,3.661784908753661777e-02
3.292000000000000171e+01,2.547696911641131323e-02
3.296000000000000085e+01,3.334879175980492300e-02
3.300000000000000000e+01,2.813605931863690651e-02
3.303999999999999915e+01,3.314506016431382346e-02
3.307999999999999829e+01,3.345159146831182262e-02
3.311999999999999744e+01,3.416668108442384028e-02
3.315999999999999659e+01,3.099706491351839066e-02
3.320000000000000284e+01,1.862727320940723783e-02
3.324000000000000199e+01,1.218594916704127291e-02
3.328000000000000114e+01,3.804599809899781443e-02
3.332000000000000028e+01,1.729314367098777963e-02
3.335999999999999943e+01,2.332175096020844968e-02
3.339999999999999858e+01,2.015018080876295956e-02
3.343999999999999773e+01,1.820493043514012643e-02
3.347999999999999687e+01,2.954802609311993691e-02
3.352000000000000313e+01,2.760212057772940680e-02
3.356000000000000227e+01,1.522938931923587848e-02
3.360000000000000142e+01,2.779814732431805033e-02
3.364000000000000057e+01,2.748678527037631825e-02
3.367999999999999972e+01,7.139863246519945715e-03
3.371999999999999886e+01,2.808971969467426513e-02
3.375999999999999801e+01,2.757292750404993081e-02
3.379999999999999716e+01,1.867371857548391634e-02
3.384000000000000341e+01,2.469838128038287159e-02
3.388000000000000256e+01,3.644706441374186839e-02
3.392000000000000171e+01,7.511631217683116708e-03
3.396000000000000085e+01,2.396179679291020673e-02
3.400000000000000000e+01,3.325619049920355841e-02
3.403999999999999915e+01,3.294151840213423166e-02
3.407999999999999829e+01,2.056448656727351970e-02
3.411999999999999744e+01,2.147579466014181218e-02
3.415999999999999659e+01,1.604909387575348401e-02
3.420000000000000284e+01,1.287091126789480407e-02
3.424000000000000199e+01,2.502547873740278844e-02
3.428000000000000114e+01,2.941094827929809086e-02
3.432000000000000028e+01,3.747602275912650244e-02
3.435999999999999943e+01,2.673217756014283769e-02
3.439999999999999858e+01,2.518784703021572854e-02
3.443999999999999773e+01,4.388285177606809917e-02
3.447999999999999687e+01,4.233784779275241023e-02
3.452000000000000313e+01,3.629480166345361997e-02
3.456000000000000227e+01,3.822462190077463573e-02
3.460000000000000142e+01,4.567401457028661543e-02
3.464000000000000057e+01,5.210086314933282808e-02
3.467999999999999972e+01,4.074099464468713960e-02
3.471999999999999886e+01,4.185169582774343061e-02
3.475999999999999801e+01,5.379743728171842987e-02
3.479999999999999716e+01,7.351160168394917094e-02
3.484000000000000341e+01,5.642602244126016658e-02
3.488000000000000256e+01,7.245956543085528556e-02
3.492000000000000171e+01,6.702644871840089669e-02
3.496000000000000085e+01,6.874843003999957236e-02
3.500000000000000000e+01,9.275415259060233730e-02
3.503999999999999915e+01,9.529321429467924043e-02
3.507999999999999829e+01,1.213426632412442641e-01
3.511999999999999744e+01,1.075257489312740622e-01
3.515999999999999659e+01,1.323478646772507372e-01
3.520000000000000284e+01,1.318189365919168188e-01
3.524000000000000199e+01,1.595025401995646130e-01
3.528000000000000114e+01,1.851413879658161399e-01
3.532000000000000028e+01,1.670294891092554135e-01
3.535999999999999943e+01,1.857166482364786264e-01
3.539999999999999858e+01,2.221898399307342675e-01
3.543999999999999773e+01,2.198188709635746640e-01
3.547999999999999687e+01,2.270562886240077294e-01
3.552000000000000313e+01,2.312267425070348714e-01
3.556000000000000227e+01,2.360101725605691092e-01
3.560000000000000142e+01,2.313889630619602733e-01
3.564000000000000057e+01,2.269718467120514782e-01
3.567999999999999972e+01,2.493361699528316711e-01
3.571999999999999886e+01,2.688379686381568989e-01
3.575999999999999801e+01,2.940637698218134810e-01
3.579999999999999716e+01,2.888274932164930364e-01
3.584000000000000341e+01,3.120081837111842726e-01
3.588000000000000256e+01,2.816249480304270913e-01
3.592000000000000171e+01,2.792497964278745082e-01
3.596000000000000085e+01,2.419148606633259035e-01
3.600000000000000000e+01,2.160282767316751562e-01
3.603999999999999915e+01,1.758304619455945961e-01
3.607999999999999829e+01,1.583252603470541586e-01
3.611999999999999744e+01,1.218066811546377887e-01
3.615999999999999659e+01,1.194294176338153296e-01
3.620000000000000284e+01,1.180740064384490778e-01
3.624000000000000199e+01,9.545636408120530825e-02
3.628000000000000114e+01,8.755812895699686960e-02
3.632000000000000028e+01,8.333947969611650575e-02
3.635999999999999943e+01,7.564497638767338217e-02
3.639999999999999858e+01,6.611014768546652487e-02
3.643999999999999773e+01,6.659257871386461969e-02
3.647999999999999687e+01,6.707465375021727516e-02
3.652000000000000313e+01,7.389404742478553056e-02
3.656000000000000227e+01,6.681108754434966768e-02
3.660000000000000142e+01,4.316803904506932854e-02
3.664000000000000057e+01,5.693735971005983026e-02
3.667999999999999972e+01,7.356849828730394059e-02
3.671999999999999886e+01,6.525746079536032251e-02
3.675999999999999801e+01,5.796827028798352127e-02
3.679999999999999716e+01,6.110521833660549629e-02
3.684000000000000341e+01,6.792174728915820192e-02
3.688000000000000256e+01,5.940483172889017560e-02
3.692000000000000171e+01,5.436305518015725757e-02
3.696000000000000085e+01,7.385385359084073453e-02
3.700000000000000000e+01,6.574473857954366007e-02
3.703999999999999915e+01,8.032822759997619577e-02
3.707999999999999829e+01,6.874289034132374798e-02
3.711999999999999744e+01,6.635704181026488846e-02
3.715999999999999659e+01,8.932153084880747884e-02
3.720000000000000284e+01,8.243725213438370114e-02
3.724000000000000199e+01,1.006988690971657163e-01
3.728000000000000114e+01,1.015826264380920857e-01
3.732000000000000028e+01,7.936417215215163523e-02
3.735999999999999943e+01,1.150021931047634227e-01
3.739999999999999858e+01,1.218136500440053088e-01
3.743999999999999773e+01,1.390512394353722314e-01
3.747999999999999687e+01,1.360487914856635949e-01
3.752000000000000313e+01,1.751608502838615244e-01
3.756000000000000227e+01,1.866729903191894635e-01
3.760000000000000142e+01,2.039091153042122129e-01
3.764000000000000057e+01,2.381134869750639871e-01
3.767999999999999972e+01,2.882638993031960140e-01
3.771999999999999886e+01,3.316673865424515366e-01
3.775999999999999801e+01,4.249541411582939410e-01
3.779999999999999716e+01,5.421601393339844366e-01
3.784000000000000341e+01,6.847164685939106654e-01
3.788000000000000256e+01,7.593979735449859492e-01
3.792000000000000171e+01,8.884604491937304616e-01
3.796000000000000085e+01,9.580301860765066957e-01
3.800000000000000000e+01,1.000000000000000000e+00
3.803999999999999915e+01,9.988323647474522948e-01
3.807999999999999829e+01,8.968748814433590288e-01
3.811999999999999744e+01,8.167922273530632271e-01
3.815999999999999659e+01,7.203539108951423353e-01
3.820000000000000284e+01,6.206441639704336488e-01
3.824000000000000199e+01,5.381070991385836777e-01
3.828000000000000114e+01,4.304234022299428530e-01
3.832000000000000028e+01,3.754851431687588614e-01
3.835999999999999943e+01,3.211598335736349785e-01
3.839999999999999858e+01,2.817583521218764431e-01
3.843999999999999773e+01,2.421520548555480823e-01
3.847999999999999687e+01,2.289182882166387878e-01
3.852000000000000313e+01,2.093464711178338322e-01
3.856000000000000227e+01,1.967252765893815203e-01
3.860000000000000142e+01,1.765393840615809562e-01
3.864000000000000057e+01,1.414289124941300047e-01
3.867999999999999972e+01,1.547706116230678774e-01
3.871999999999999886e+01,1.313125301023521097e-01
3.875999999999999801e+01,1.387246813856614081e-01
3.879999999999999716e+01,1.277367529033581472e-01
3.884000000000000341e+01,1.206328273797920014e-01
3.888000000000000256e+01,1.294749310687428878e-01
3.892000000000000171e+01,9.967728203587726543e-02
3.896000000000000085e+01,8.419013241725328833e-02
3.900000000000000000e+01,8.648898103137271642e-02
3.903999999999999915e+01,9.389847747323699922e-02
3.907999999999999829e+01,8.127236244375293794e-02
3.911999999999999744e+01,7.477910012608651735e-02
3.915999999999999659e+01,7.073874980934063972e-02
3.920000000000000284e+01,9.491089341785856337e-02
3.924000000000000199e+01,7.042566591146488808e-02
3.928000000000000114e+01,7.435737269676213901e-02
3.932000000000000028e+01,7.971978430995455001e-02
3.935999999999999943e+01,7.015761001663872731e-02
3.939999999999999858e+01,6.775049141175279455e-02
3.943999999999999773e+01,7.720057409026671869e-02
3.947999999999999687e+01,6.784168825897959887e-02
3.952000000000000313e+01,6.870447391281700456e-02
3.956000000000000227e+01,8.326442987028043197e-02
3.960000000000000142e+01,8.187759198522605308e-02
3.964000000000000057e+01,7.272160505261741903e-02
3.967999999999999972e+01,8.032940422032935901e-02
3.971999999999999886e+01,7.035487936575604562e-02
3.975999999999999801e+01,8.941060761320261674e-02
3.979999999999999716e+01,8.577298284009492180e-02
3.984000000000000341e+01,7.988611760608009538e-02
3.988000000000000256e+01,9.628294705903288342e-02
3.992000000000000171e+01,7.117783844110707470e-02
3.996000000000000085e+01,9.104938911182923478e-02
4.000000000000000000e+01,8.659205581924550588e-02
4.003999999999999915e+01,8.765424307592697972e-02
4.007999999999999829e+01,9.014712791215361010e-02
4.011999999999999744e+01,8.977744622879421654e-02
4.015999999999999659e+01,1.243668065854640348e-01
4.020000000000000284e+01,1.274718415419687501e-01
4.024000000000000199e+01,1.371186007873351209e-01
4.028000000000000114e+01,1.498315847400772949e-01
4.032000000000000028e+01,1.472110913716780101e-01
4.035999999999999943e+01,1.963138107475816130e-01
4.039999999999999858e+01,2.392829028628721544e-01
4.043999999999999773e+01,2.628296939243170427e-01
4.047999999999999687e+01,3.194955538091518443e-01
4.052000000000000313e+01,3.493792312183466864e-01
4.056000000000000227e+01,4.542924082172826172e-01
4.060000000000000142e+01,4.929662640011958641e-01
4.064000000000000057e+01,5.682346862825241596e-01
4.067999999999999972e+01,5.797170801387823147e-01
4.071999999999999886e+01,6.104165437295031582e-01
4.075999999999999801e+01,5.871431523439164524e-01
4.079999999999999716e+01,5.509895726122195914e-01
4.084000000000000341e+01,5.089068025529082107e-01
4.088000000000000256e+01,4.410640522315847911e-01
4.092000000000000171e+01,3.818074310078711786e-01
4.096000000000000085e+01,3.448344941708385569e-01
4.100000000000000000e+01,2.996835130566974370e-01
4.103999999999999915e+01,2.400168122722025899e-01
4.107999999999999829e+01,2.245089955769311862e-01
4.111999999999999744e+01,1.908055181189169391e-01
4.115999999999999659e+01,1.722302836107243440e-01
4.120000000000000284e+01,1.348460641885703970e-01
4.124000000000000199e+01,1.336475232826273285e-01
4.128000000000000114e+01,1.254975822055993950e-01
4.132000000000000028e+01,1.165294744583363074e-01
4.135999999999999943e+01,9.549893754171930038e-02
4.139999999999999858e+01,1.135162534271042384e-01
4.143999999999999773e+01,1.018892022507714989e-01
4.147999999999999687e+01,7.451978043120352502e-02
4.152000000000000313e+01,8.476712236328139138e-02
4.156000000000000227e+01,9.112967839500070444e-02
4.160000000000000142e+01,8.461203845076790964e-02
4.164000000000000057e+01,8.586275621964152560e-02
4.167999999999999972e+01,7.975318774368653219e-02
4.171999999999999886e+01,7.691427137080313059e-02
4.175999999999999801e+01,7.530159542538532313e-02
4.179999999999999716e+01,7.143966032594734061e-02
4.184000000000000341e+01,5.510640922042751161e-02
4.188000000000000256e+01,6.412345066844120367e-02
4.192000000000000171e+01,6.741573261796475480e-02
4.196000000000000085e+01,6.559657807574018062e-02
4.200000000000000000e+01,6.459477941320593275e-02
4.203999999999999915e+01,6.175260156652161159e-02
4.207999999999999829e+01,6.258995464830278965e-02
4.211999999999999744e+01,5.300040034767133229e-02
4.215999999999999659e+01,5.077031654192618731e-02
4.220000000000000284e+01,4.526876412018293605e-02
4.224000000000000199e+01,4.487782900681651366e-02
4.228000000000000114e+01,4.734865839680944127e-02
4.232000000000000028e+01,3.530375590870139801e-02
4.235999999999999943e+01,3.716043814918374572e-02
4.239999999999999858e+01,4.330997165442891650e-02
4.243999999999999773e+01,3.412600761945128874e-02
4.247999999999999687e+01,4.497686105092937175e-02
4.252000000000000313e+01,3.538318794391564354e-02
4.256000000000000227e+01,3.560227506980393614e-02
4.260000000000000142e+01,3.990977042358317267e-02
4.264000000000000057e+01,3.031485423555883504e-02
4.267999999999999972e+01,4.382137054770061241e-02
4.271999999999999886e+01,3.115900679037110141e-02
4.275999999999999801e+01,3.710036992317293503e-02
4.279999999999999716e+01,5.285449099992414745e-02
4.284000000000000341e+01,5.020849378036060934e-02
4.288000000000000256e+01,4.183772790649657042e-02
4.292000000000000171e+01,4.614189464386508899e-02
4.296000000000000085e+01,5.003676132864504078e-02
4.300000000000000000e+01,3.287377350879377991e-02
4.303999999999999915e+01,4.617209541448979299e-02
4.307999999999999829e+01,2.982603461729202779e-02
4.311999999999999744e+01,2.942596259444854936e-02
4.315999999999999659e+01,4.599408461152423161e-02
4.320000000000000284e+01,5.929072847529931467e-02
4.324000000000000199e+01,3.537866632199061084e-02
4.328000000000000114e+01,4.213235273468804443e-02
4.332000000000000028e+01,4.909005904960207084e-02
4.335999999999999943e+01,4.562084615584845182e-02
4.339999999999999858e+01,5.584876694247908197e-02
4.343999999999999773e+01,5.278759194569824370e-02
4.347999999999999687e+01,6.076581518396952097e-02
4.352000000000000313e+01,6.608588060523741536e-02
4.356000000000000227e+01,6.936111121624410902e-02
4.360000000000000142e+01,6.772933082373801261e-02
4.364000000000000057e+01,6.568824389327755642e-02
4.367999999999999972e+01,8.327308072568705144e-02
4.371999999999999886e+01,8.736437797482904388e-02
4.375999999999999801e+01,9.799736594152774760e-02
4.379999999999999716e+01,1.161942498913479949e-01
4.384000000000000341e+01,9.268471725465235456e-02
4.388000000000000256e+01,1.014764564968723831e-01
4.392000000000000171e+01,1.190587373542061483e-01
4.396000000000000085e+01,1.390938844334082269e-01
4.400000000000000000e+01,1.550397812118220198e-01
4.403999999999999915e+01,1.554477240609175581e-01
4.407999999999999829e+01,1.595351787638735197e-01
4.411999999999999744e+01,1.738442610803623001e-01
4.415999999999999659e+01,1.642333020171894697e-01
4.420000000000000284e+01,1.601418238281032413e-01
4.424000000000000199e+01,1.717918826021811451e-01
4.428000000000000114e+01,1.544108706168363099e-01
4.432000000000000028e+01,1.728066255139877883e-01
4.435999999999999943e+01,1.713711597122448971e-01
4.439999999999999858e+01,1.462200913712991546e-01
4.443999999999999773e+01,1.376283226037025575e-01
4.447999999999999687e+01,1.186096239456593954e-01
4.452000000000000313e+01,1.063370498862344499e-01
4.456000000000000227e+01,1.014239234321696881e-01
4.460000000000000142e+01,7.913286754319469318e-02
4.464000000000000057e+01,7.830769642598177371e-02
4.467999999999999972e+01,9.567735162845658614e-02
4.471999999999999886e+01,8.135819719274742234e-02
4.475999999999999801e+01,6.642528440789373378e-02
4.479999999999999716e+01,6.171399275120711958e-02
4.484000000000000341e+01,6.558879280590448890e-02
4.488000000000000256e+01,6.844095110815824612e-02
4.492000000000000171e+01,5.146188337062821555e-02
4.496000000000000085e+01,5.778866751762597176e-02
4.500000000000000000e+01,6.002619182653297358e-02
4.503999999999999915e+01,4.590798815117348025e-02
4.507999999999999829e+01,5.141569488646055563e-02
4.511999999999999744e+01,5.099417047447794143e-02
4.515999999999999659e+01,4.750559034549305809e-02
4.520000000000000284e+01,5.280753962387457756e-02
4.524000000000000199e+01,5.258913886933301585e-02
4.528000000000000114e+01,5.502803287683177141e-02
4.532000000000000028e+01,6.012422126487891594e-02
4.535999999999999943e+01,4.906911974613422517e-02
4.539999999999999858e+01,5.007560379787770466e-02
4.543999999999999773e+01,5.394382221510451297e-02
4.547999999999999687e+01,5.883380445162017525e-02
4.552000000000000313e+01,6.311002109064142718e-02
4.556000000000000227e+01,7.270126450360640813e-02
4.560000000000000142e+01,6.205239313259915124e-02
4.564000000000000057e+01,6.571395746665270599e-02
4.567999999999999972e+01,5.383755223021187419e-02
4.571999999999999886e+01,5.872487548878430746e-02
4.575999999999999801e+01,4.521205260211866306e-02
4.579999999999999716e+01,6.011610182393148372e-02
4.584000000000000341e+01,5.048677025518014116e-02
4.588000000000000256e+01,3.922146400844853803e-02
4.592000000000000171e+01,5.105755936102292225e-02
4.596000000000000085e+01,5.369335748441124434e-02
4.600000000000000000e+01,3.343130232655826262e-02
4.603999999999999915e+01,3.974614682352856088e-02
4.607999999999999829e+01,3.829178085271630477e-02
4.611999999999999744e+01,3.642808469143945377e-02
4.615999999999999659e+01,3.129288214644643240e-02
4.620000000000000284e+01,3.903702205974509537e-02
4.624000000000000199e+01,3.308315722636243073e-02
4.628000000000000114e+01,1.895119775891390690e-02
4.632000000000000028e+01,2.976060624055286777e-02
4.635999999999999943e+01,2.850753786632526099e-02
4.639999999999999858e+01,2.623181324295425360e-02
4.643999999999999773e+01,2.170678521247928344e-02
4.647999999999999687e+01,2.024792275810454942e-02
4.652000000000000313e+01,1.285981580423660106e-02
4.656000000000000227e+01,2.591536966345291820e-02
4.660000000000000142e+01,1.954856371904001300e-02
4.664000000000000057e+01,1.481683391887913225e-02
4.667999999999999972e+01,1.458235569323766169e-02
4.671999999999999886e+01,1.557407059004123351e-02
4.675999999999999801e+01,1.124986208663318957e-02
4.679999999999999716e+01,1.673837337796444183e-02
4.684000000000000341e+01,2.263531212961884809e-02
4.688000000000000256e+01,2.137635617188283696e-02
4.692000000000000171e+01,2.073026804089719149e-02
4.696000000000000085e+01,2.355922316692925580e-02
4.700000000000000000e+01,1.187240178028452046e-02
4.703999999999999915e+01,1.510932613471120851e-02
4.707999999999999829e+01,1.323476516640094067e-02
4.711999999999999744e+01,1.606189270560832993e-02
4.715999999999999659e+01,3.555477688524888175e-03
4.720000000000000284e+01,1.353712867476603195e-02
4.724000000000000199e+01,2.229167427111814967e-02
4.728000000000000114e+01,1.837041084905127394e-02
4.732000000000000028e+01,1.158651223882013227e-02
4.735999999999999943e+01,9.504299847154002237e-03
4.739999999999999858e+01,2.459468218665575301e-02
4.743999999999999773e+01,2.619148946412456352e-02
4.747999999999999687e+01,1.879242614511886234e-02
4.752000000000000313e+01,1.834389994223515480e-02
4.756000000000000227e+01,8.695061250481367007e-03
4.760000000000000142e+01,2.092096135889694869e-02
4.764000000000000057e+01,6.977934474312778163e-03
4.767999999999999972e+01,1.225191094456559195e-02
4.771999999999999886e+01,2.468086375289133688e-02
4.775999999999999801e+01,1.278085858844351178e-02
4.779999999999999716e+01,2.214226692847044708e-02
4.784000000000000341e+01,1.514792057978380305e-02
4.788000000000000256e+01,1.612631356084723300e-02
4.792000000000000171e+01,2.017085838429518926e-02
4.796000000000000085e+01,7.041882856907744591e-03
4.800000000000000000e+01,9.245526173604131509e-03
4.803999999999999915e+01,0.000000000000000000e+00
4.807999999999999829e+01,1.446917821336247273e-02
4.811999999999999744e+01,1.851139182049713755e-02
4.815999999999999659e+01,1.805543319284219281e-02
4.820000000000000284e+01,1.984785921948155341e-02
4.824000000000000199e+01,2.041317031892937034e-02
4.828000000000000114e+01,2.220465966263028904e-02
4.832000000000000028e+01,2.154238653968711115e-02
4.835999999999999943e+01,1.556417475684830284e-02
4.839999999999999858e+01,1.060769894437490340e-02
4.843999999999999773e+01,1.239731034429374101e-02
4.847999999999999687e+01,2.031968518687858258e-02
4.852000000000000313e+01,1.413515127890954508e-02
4.856000000000000227e+01,3.370972847411581041e-02
4.860000000000000142e+01,2.404875257934105046e-02
4.864000000000000057e+01,1.684059827185877684e-02
4.867999999999999972e+01,3.212049585249332484e-02
4.871999999999999886e+01,2.756913115159452879e-02
4.875999999999999801e+01,2.608391028174613865e-02
4.879999999999999716e+01,2.398489253205098384e-02
4.884000000000000341e+01,1.329887347397268153e-02
4.888000000000000256e+01,3.961622458475947545e-02
4.892000000000000171e+01,3.036034454187527473e-02
4.896000000000000085e+01,3.480154515197331211e-02
4.900000000000000000e+01,3.351791873947933265e-02
4.903999999999999915e+01,2.364728911114166374e-02
4.907999999999999829e+01,2.399823979131631216e-02
4.911999999999999744e+01,2.312206715147322247e-02
4.915999999999999659e+01,3.860070793949993417e-02
4.920000000000000284e+01,3.649693429161338792e-02
4.924000000000000199e+01,2.151289180278354377e-02
4.928000000000000114e+01,3.412792371497372357e-02
4.932000000000000028e+01,3.468045054088192414e-02
4.935999999999999943e+01,3.952576225192731135e-02
4.939999999999999858e+01,3.476186166664322480e-02
4.943999999999999773e+01,2.100207179177170785e-02
4.947999999999999687e+01,2.645926810459268280e-02
4.952000000000000313e+01,2.067172194131674037e-02
4.956000000000000227e+01,2.899013296746432225e-02
4.960000000000000142e+01,2.217941929571427828e-02
4.964000000000000057e+01,4.582995240331491638e-02
4.967999999999999972e+01,2.981842452066676280e-02
4.971999999999999886e+01,3.241055714852434516e-02
4.975999999999999801e+01,2.968673776426273767e-02
4.979999999999999716e+01,2.266917163344676564e-02
4.984000000000000341e+01,3.691299955100834501e-02
4.988000000000000256e+01,2.969002508847444141e-02
4.992000000000000171e+01,4.004850358192887927e-02
4.996000000000000085e+01,3.854891201463906542e-02
5.000000000000000000e+01,5.217747908741655893e-02
5.003999999999999915e+01,4.781474145412389215e-02
5.007999999999999829e+01,3.159393261561072030e-02
5.011999999999999744e+01,3.336345708444807961e-02
5.015999999999999659e+01,3.717690638505533052e-02
5.020000000000000284e+01,5.407410112415549780e-02
5.024000000000000199e+01,5.277554812031363951e-02
5.028000000000000114e+01,4.963653734494889030e-02
5.032000000000000028e+01,5.467468375772741029e-02
5.035999999999999943e+01,5.419243130659381208e-02
5.039999999999999858e+01,5.268748445710658840e-02
5.043999999999999773e+01,6.733289769833059046e-02
5.047999999999999687e+01,6.521364881353967913e-02
5.052000000000000313e+01,8.905793346822254986e-02
5.056000000000000227e+01,8.284888182216587627e-02
5.060000000000000142e+01,9.647012907025695472e-02
5.064000000000000057e+01,1.084553562428077073e-01
5.067999999999999972e+01,1.192134452171487446e-01
5.071999999999999886e+01,1.115713407412311509e-01
5.075999999999999801e+01,1.288705618687777665e-01
5.079999999999999716e+01,1.484181428536320568e-01
5.084000000000000341e+01,1.561076453849158940e-01
5.088000000000000256e+01,1.642055368458206766e-01
5.092000000000000171e+01,1.639208482901643726e-01
5.096000000000000085e+01,1.642489890305562916e-01
5.100000000000000000e+01,1.819541312972382807e-01
5.103999999999999915e+01,1.657215512264590684e-01
5.107999999999999829e+01,1.725903235425047810e-01
5.111999999999999744e+01,1.620811042404277091e-01
5.115999999999999659e+01,1.644511800916217681e-01
5.120000000000000284e+01,1.363590312793798165e-01
5.124000000000000199e+01,1.336170857515196209e-01
5.128000000000000114e+01,1.449810810089226798e-01
5.132000000000000028e+01,1.361049069289829716e-01
5.135999999999999943e+01,1.061707986125628583e-01
5.139999999999999858e+01,1.060845969016067508e-01
5.143999999999999773e+01,9.884245699116067652e-02
5.147999999999999687e+01,1.012085511114666908e-01
5.152000000000000313e+01,9.151211916342509578e-02
5.156000000000000227e+01,8.017965836552476411e-02
5.160000000000000142e+01,6.169125784216612091e-02
5.164000000000000057e+01,6.528199871768598783e-02
5.167999999999999972e+01,6.376121039887716613e-02
5.171999999999999886e+01,5.201786426896285592e-02
5.175999999999999801e+01,5.765151241698870249e-02
5.179999999999999716e+01,5.347148424974761116e-02
5.184000000000000341e+01,5.174424715043095258e-02
5.188000000000000256e+01,5.533197654930608472e-02
5.192000000000000171e+01,4.747049945314676250e-02
5.196000000000000085e+01,3.695078404515079323e-02
5.200000000000000000e+01,3.890147352026906979e-02
5.203999999999999915e+01,3.778504166174365825e-02
5.207999999999999829e+01,4.055248648806981937e-02
5.211999999999999744e+01,4.393274954717318187e-02
5.215999999999999659e+01,4.015706753992871053e-02
5.220000000000000284e+01,3.842529090835698768e-02
5.224000000000000199e+01,4.875503461212413181e-02
5.228000000000000114e+01,4.354674579920010669e-02
5.232000000000000028e+01,3.956459669982687749e-02
5.235999999999999943e+01,4.294182081485419661e-02
5.239999999999999858e+01,4.141194999810646205e-02
5.243999999999999773e+01,5.092139196218002650e-02
5.247999999999999687e+01,4.795941644327281900e-02
5.252000000000000313e+01,4.561025534222182265e-02
5.256000000000000227e+01,4.080729133636398082e-02
5.260000000000000142e+01,3.436828856185283887e-02
5.264000000000000057e+01,3.447089181365196181e-02
5.267999999999999972e+01,4.581724668673114315e-02
5.271999999999999886e+01,4.612326969375667857e-02
5.275999999999999801e+01,5.051760402967946095e-02
5.279999999999999716e+01,5.695583801889356201e-02
5.284000000000000341e+01,6.339355998579275508e-02
5.288000000000000256e+01,6.287977114889770069e-02
5.292000000000000171e+01,6.440988082081763877e-02
5.296000000000000085e+01,6.777944749064887531e-02
5.300000000000000000e+01,6.971741270631721943e-02
5.303999999999999915e+01,7.635700996867229862e-02
5.307999999999999829e+01,7.379624209624728592e-02
5.311999999999999744e+01,8.166145713104373816e-02
5.315999999999999659e+01,9.709047887981009373e-02
5.320000000000000284e+01,8.123949237288981273e-02
5.324000000000000199e+01,8.624098522869559635e-02
5.328000000000000114e+01,7.079784892463437951e-02
5.332000000000000028e+01,7.416277992620116943e-02
5.335999999999999943e+01,6.198966811079002770e-02
5.339999999999999858e+01,7.066903413213657115e-02
5.343999999999999773e+01,7.117023723233120713e-02
5.347999999999999687e+01,5.592895524166023591e-02
5.352000000000000313e+01,5.458915154328333741e-02
5.356000000000000227e+01,5.140885879103132550e-02
5.360000000000000142e+01,3.861931368577916496e-02
5.364000000000000057e+01,5.608653608125610535e-02
5.367999999999999972e+01,3.348277707845137563e-02
5.371999999999999886e+01,4.563348966044222799e-02
5.375999999999999801e+01,2.037095476351525117e-02
5.379999999999999716e+01,3.926718264132359609e-02
5.384000000000000341e+01,3.485660020661598968e-02
5.388000000000000256e+01,3.739649423078624663e-02
5.392000000000000171e+01,5.240677482644980067e-02
5.396000000000000085e+01,4.595021412982369657e-02
5.400000000000000000e+01,2.722666258292828767e-02
5.403999999999999915e+01,4.203093279242324509e-02
5.407999999999999829e+01,4.068382992984834884e-02
5.411999999999999744e+01,3.442961573133801467e-02
5.415999999999999659e+01,2.592602449774820961e-02
5.420000000000000284e+01,2.069296634169444371e-02
5.424000000000000199e+01,3.140579090519090427e-02
5.428000000000000114e+01,3.598485583031510449e-02
5.432000000000000028e+01,3.811010106498005645e-02
5.435999999999999943e+01,4.187034881592152646e-02
5.439999999999999858e+01,2.191489865463477904e-02
5.443999999999999773e+01,5.000258662302616702e-02
5.447999999999999687e+01,4.129034363387615314e-02
5.452000000000000313e+01,3.809748309385068560e-02
5.456000000000000227e+01,2.713533120971713120e-02
5.460000000000000142e+01,3.539011668228710106e-02
5.464000000000000057e+01,3.015125842424590946e-02
5.467999999999999972e+01,2.736516414818996115e-02
5.471999999999999886e+01,3.582280203731698365e-02
5.475999999999999801e+01,3.855555796898935822e-02
5.479999999999999716e+01,3.535899043230360250e-02
5.484000000000000341e+01,4.626832972808399280e-02
5.488000000000000256e+01,3.059979072197152941e-02
5.492000000000000171e+01,3.046824569122073834e-02
5.496000000000000085e+01,4.280707731316867048e-02
5.500000000000000000e+01,4.574108435930428207e-02
5.503999999999999915e+01,4.070135435401530527e-02
5.507999999999999829e+01,3.259447402168291069e-02
5.511999999999999744e+01,4.227343818077702181e-02
5.515999999999999659e+01,4.070760607338798354e-02
5.520000000000000284e+01,4.098120960035264715e-02
5.524000000000000199e+01,2.939669270961571199e-02
5.528000000000000114e+01,3.518913652551410032e-02
5.532000000000000028e+01,4.179880918423291986e-02
5.535999999999999943e+01,4.779462239840040483e-02
5.539999999999999858e+01,4.152343141007509147e-02
5.543999999999999773e+01,3.893164393185347127e-02
5.547999999999999687e+01,3.879261280577504106e-02
5.552000000000000313e+01,5.235059976797425824e-02
5.556000000000000227e+01,4.341952453114275579e-02
5.560000000000000142e+01,4.532329080784514713e-02
5.564000000000000057e+01,4.272881351073502115e-02
5.567999999999999972e+01,4.565370759947857265e-02
5.571999999999999886e+01,5.307576704552657842e-02
5.575999999999999801e+01,4.557308417330476619e-02
5.579999999999999716e+01,4.072759573070074829e-02
5.584000000000000341e+01,4.467253521856424936e-02
5.588000000000000256e+01,4.616364013777646963e-02
5.592000000000000171e+01,5.215190850683272539e-02
5.596000000000000085e+01,5.650410606189915780e-02
5.600000000000000000e+01,5.901579129207224633e-02
5.603999999999999915e+01,5.294040654528398004e-02
5.607999999999999829e+01,6.403753374587760339e-02
5.611999999999999744e+01,3.976580225363336718e-02
5.615999999999999659e+01,4.391084406341336233e-02
5.620000000000000284e+01,5.827739827611167628e-02
5.624000000000000199e+01,4.504385556912861299e-02
5.628000000000000114e+01,4.489400031383913164e-02
5.632000000000000028e+01,4.719689339935873029e-02
5.635999999999999943e+01,4.888591750302448413e-02
5.639999999999999858e+01,4.403227949041382122e-02
5.643999999999999773e+01,3.876921286237647313e-02
5.647999999999999687e+01,3.105230594330645952e-02
5.652000000000000313e+01,3.846349548109125049e-02
5.656000000000000227e+01,4.546525525897301273e-02
5.660000000000000142e+01,3.979111713077624485e-02
5.664000000000000057e+01,3.759192993850867665e-02
5.667999999999999972e+01,3.457442958303899583e-02
5.671999999999999886e+01,3.421411488286879576e-02
5.675999999999999801e+01,3.630654432709458368e-02
5.679999999999999716e+01,3.512736591070521330e-02
5.684000000000000341e+01,2.801884456986059729e-02
5.688000000000000256e+01,4.319385578184064406e-02
5.692000000000000171e+01,4.160414344757742272e-02
5.696000000000000085e+01,3.796946850319903033e-02
5.700000000000000000e+01,3.228983056721342060e-02
5.703999999999999915e+01,4.132940186986256564e-02
5.707999999999999829e+01,3.728418842970507296e-02
5.711999999999999744e+01,3.058068746522984993e-02
5.715999999999999659e+01,4.432074621843213463e-02
5.720000000000000284e+01,4.170496101376917897e-02
5.724000000000000199e+01,4.379076779912226963e-02
5.728000000000000114e+01,4.444493231065762412e-02
5.732000000000000028e+01,4.571186546099693243e-02
5.735999999999999943e+01,3.634730475102167929e-02
5.739999999999999858e+01,3.699980386979027924e-02
5.743999999999999773e+01,4.480718662405111519e-02
5.747999999999999687e+01,4.648077922057161637e-02
5.752000000000000313e+01,4.447387483079646986e-02
5.756000000000000227e+01,4.369306017910690176e-02
5.760000000000000142e+01,4.270724697813105264e-02
5.764000000000000057e+01,4.110755258755412200e-02
5.767999999999999972e+01,4.645829841410542560e-02
5.771999999999999886e+01,4.199531146455877384e-02
5.775999999999999801e+01,4.264279380445362699e-02
5.779999999999999716e+01,5.535174345228526666e-02
5.784000000000000341e+01,4.148278656780848839e-02
5.788000000000000256e+01,4.642185349886020218e-02
5.792000000000000171e+01,4.134274461694208147e-02
5.796000000000000085e+01,4.219186763465049977e-02
5.800000000000000000e+01,3.404501972346182792e-02
5.803999999999999915e+01,4.409287071359903332e-02
5.807999999999999829e+01,4.187369194127273098e-02
5.811999999999999744e+01,3.740509836614890754e-02
5.815999999999999659e+01,4.295355737141900998e-02
5.820000000000000284e+01,5.259027582266056350e-02
5.824000000000000199e+01,3.646684844431827971e-02
5.828000000000000114e+01,3.710702977246953943e-02
5.832000000000000028e+01,4.244879279035018022e-02
5.835999999999999943e+01,4.799443226941738083e-02
5.839999999999999858e+01,3.329983488703987943e-02
5.843999999999999773e+01,4.088875517929514702e-02
5.847999999999999687e+01,4.029946448239368761e-02
5.852000000000000313e+01,4.420731243834960522e-02
5.856000000000000227e+01,4.320800671274686172e-02
5.860000000000000142e+01,4.323033967702372138e-02
5.864000000000000057e+01,4.856757466732724432e-02
5.867999999999999972e+01,4.879321370218437509e-02
5.871999999999999886e+01,3.961399268246382221e-02
5.875999999999999801e+01,4.781169917956573645e-02
5.879999999999999716e+01,5.498663116497280734e-02
5.884000000000000341e+01,4.866787936309802109e-02
5.888000000000000256e+01,6.217934748650618543e-02
5.892000000000000171e+01,5.483725040083814450e-02
5.896000000000000085e+01,5.587666923043086570e-02
5.900000000000000000e+01,6.039101648791889848e-02
5.903999999999999915e+01,5.079835466243037140e-02
5.907999999999999829e+01,5.735597052535915119e-02
5.911999999999999744e+01,4.980657654232731324e-02
5.915999999999999659e+01,5.574972480238044731e-02
5.920000000000000284e+01,6.271450602993158818e-02
5.924000000000000199e+01,5.904777546703943170e-02
5.928000000000000114e+01,5.722044162630661457e-02
5.932000000000000028e+01,7.154338318503859762e-02
5.935999999999999943e+01,6.235502065593317295e-02
5.939999999999999858e+01,5.398384805745397308e-02
5.943999999999999773e+01,5.481195131397580828e-02
5.947999999999999687e+01,5.829721390284214183e-02
5.952000000000000313e+01,5.442202010140271412e-02
5.956000000000000227e+01,5.606616068108298545e-02
5.960000000000000142e+01,5.975413606039724906e-02
5.964000000000000057e+01,6.160156439903703707e-02
5.967999999999999972e+01,6.283509209197843393e-02
5.971999999999999886e+01,5.568595584009660565e-02
5.975999999999999801e+01,5.814497465010186328e-02
5.979999999999999716e+01,5.733235698758441107e-02
5.984000000000000341e+01,6.060798312986225705e-02
5.988000000000000256e+01,6.040753090722186108e-02
5.992000000000000171e+01,6.449976285580395763e-02
5.996000000000000085e+01,6.900029713529996778e-02
