2.003999999999999915e+01,2.716355745420231775e-03
2.007999999999999829e+01,3.372375806498015011e-03
2.012000000000000099e+01,4.653778557699194893e-03
2.016000000000000014e+01,3.933462384671538963e-03
2.019999999999999929e+01,3.213028658054125665e-03
2.023999999999999844e+01,4.806828950175008087e-03
2.028000000000000114e+01,5.775011444992354630e-03
2.032000000000000028e+01,4.553825213894511538e-03
2.035999999999999943e+01,4.020572192249130712e-03
2.039999999999999858e+01,2.111101128742698570e-03
2.044000000000000128e+01,3.329015007524021609e-03
2.048000000000000043e+01,4.296611730187101415e-03
2.051999999999999957e+01,5.076441416901443168e-03
2.055999999999999872e+01,4.667703502095051776e-03
2.060000000000000142e+01,5.447299598433669003e-03
2.064000000000000057e+01,6.289329059669842605e-03
2.067999999999999972e+01,4.253940069761718429e-03
2.071999999999999886e+01,3.406885330493943532e-03
2.076000000000000156e+01,7.125867099936069107e-03
2.080000000000000071e+01,5.340328963544294788e-03
2.083999999999999986e+01,3.804874712222153840e-03
2.087999999999999901e+01,6.772907168767510269e-03
2.092000000000000171e+01,5.487420765729027726e-03
2.096000000000000085e+01,8.267570947857440233e-03
2.100000000000000000e+01,4.730051098920241663e-03
2.103999999999999915e+01,6.696818922581435941e-03
2.107999999999999829e+01,6.161469335442535007e-03
2.112000000000000099e+01,3.749502820712632013e-03
2.116000000000000014e+01,4.840222927268900480e-03
2.119999999999999929e+01,4.992576870963790978e-03
2.123999999999999844e+01,3.893814529940401673e-03
2.128000000000000114e+01,4.296137758890921678e-03
2.132000000000000028e+01,3.885195145150871499e-03
2.135999999999999943e+01,3.724337454293549701e-03
2.139999999999999858e+01,5.064565572905471366e-03
2.144000000000000128e+01,4.528177402580625503e-03
2.148000000000000043e+01,2.803223466865904095e-03
2.151999999999999957e+01,4.768606991936531932e-03
2.155999999999999872e+01,4.982474548241199591e-03
2.160000000000000142e+01,7.197828635875885665e-03
2.164000000000000057e+01,6.410666107653423262e-03
2.167999999999999972e+01,2.933737245094270463e-03
2.171999999999999886e+01,3.772646645856742812e-03
2.176000000000000156e+01,4.799091727481961077e-03
2.180000000000000071e+01,4.324221480682820425e-03
2.183999999999999986e+01,5.600638082853411429e-03
2.187999999999999901e+01,4.062188669170733145e-03
2.192000000000000171e+01,3.336775659055282728e-03
2.196000000000000085e+01,6.864651350914361197e-03
2.200000000000000000e+01,3.011508321760713973e-03
2.203999999999999915e+01,4.912855122350824610e-03
2.207999999999999829e+01,4.312086507935236970e-03
2.212000000000000099e+01,4.149054454219343671e-03
2.216000000000000014e+01,6.675560493193434530e-03
2.219999999999999929e+01,4.823450146525038590e-03
2.223999999999999844e+01,6.286378455587567256e-03
2.228000000000000114e+01,5.935242192518369597e-03
2.232000000000000028e+01,3.269641114447337672e-03
2.235999999999999943e+01,6.421080545112006766e-03
2.239999999999999858e+01,4.756053706928933464e-03
2.244000000000000128e+01,5.280165197556385172e-03
2.248000000000000043e+01,3.489812192509102098e-03
2.251999999999999957e+01,3.763497595260444865e-03
2.255999999999999872e+01,4.162170235172326684e-03
2.260000000000000142e+01,5.749180877818059129e-03
2.264000000000000057e+01,6.085078029857703824e-03
2.267999999999999972e+01,4.106511085381489394e-03
2.271999999999999886e+01,4.692383270564660577e-03
2.276000000000000156e+01,3.714392002948379776e-03
2.280000000000000071e+01,5.738690307019196808e-03
2.283999999999999986e+01,3.071623301067271695e-03
2.287999999999999901e+01,5.533547397949046751e-03
2.292000000000000171e+01,6.243958240345274038e-03
2.296000000000000085e+01,6.078556472816021294e-03
2.300000000000000000e+01,3.411041126411913128e-03
2.303999999999999915e+01,4.121116072711997202e-03
2.307999999999999829e+01,5.519129657025353616e-03
2.312000000000000099e+01,4.665230063310135157e-03
2.316000000000000014e+01,5.687720033688740441e-03
2.319999999999999929e+01,3.957896663000439082e-03
2.323999999999999844e+01,6.794114750592193837e-03
2.328000000000000114e+01,6.752919576105121530e-03
2.332000000000000028e+01,6.398862873218193886e-03
2.335999999999999943e+01,2.792092825889565429e-03
2.339999999999999858e+01,5.127465443598296438e-03
2.344000000000000128e+01,5.273475562270424355e-03
2.348000000000000043e+01,2.291872656671652304e-03
2.351999999999999957e+01,2.312560759731939215e-03
2.355999999999999872e+01,5.710840193309507304e-03
2.360000000000000142e+01,5.481106519409620695e-03
2.364000000000000057e+01,3.875161270022570506e-03
2.367999999999999972e+01,5.646807590648107028e-03
2.371999999999999886e+01,5.792042334099113676e-03
2.376000000000000156e+01,3.435165015479013911e-03
2.380000000000000071e+01,4.143129304678151367e-03
2.383999999999999986e+01,6.414734313422639465e-03
2.387999999999999901e+01,5.871477297902678166e-03
2.392000000000000171e+01,2.763558499300995674e-03
2.396000000000000085e+01,2.345181385819244610e-03
2.400000000000000000e+01,2.802394867494839570e-03
2.403999999999999915e+01,4.197749064497290072e-03
2.407999999999999829e+01,5.342793290241379736e-03
2.412000000000000099e+01,4.736326656453212873e-03
2.416000000000000014e+01,4.692700735460809611e-03
2.419999999999999929e+01,7.088416817228044078e-03
2.423999999999999844e+01,5.293170705786637287e-03
2.428000000000000114e+01,4.999016151702350558e-03
2.432000000000000028e+01,2.703150975893741769e-03
2.435999999999999943e+01,2.471327880145471854e-03
2.439999999999999858e+01,3.803146621587413789e-03
2.444000000000000128e+01,5.134856271607922060e-03
2.448000000000000043e+01,4.777605820919898771e-03
2.451999999999999957e+01,4.170046277123049504e-03
2.455999999999999872e+01,4.938478768830321941e-03
2.460000000000000142e+01,5.581702407767795242e-03
2.464000000000000057e+01,4.973816547687988539e-03
2.467999999999999972e+01,4.053071873488731970e-03
2.471999999999999886e+01,5.696770320537682640e-03
2.476000000000000156e+01,5.026008822323168972e-03
2.480000000000000071e+01,5.543589717590214488e-03
2.483999999999999986e+01,4.997711634012077381e-03
2.487999999999999901e+01,2.199923885003526522e-03
2.492000000000000171e+01,4.406031229573816911e-03
2.496000000000000085e+01,2.358627777569663898e-03
2.500000000000000000e+01,2.312717642596536036e-03
2.503999999999999915e+01,2.579449815367321121e-03
2.507999999999999829e+01,6.348876432938359467e-03
2.512000000000000099e+01,1.548839789958226859e-03
2.516000000000000014e+01,4.942750776772177924e-03
2.519999999999999929e+01,4.521001728366495775e-03
2.523999999999999844e+01,5.162495870916456592e-03
2.528000000000000114e+01,2.238530299261292256e-03
2.532000000000000028e+01,4.255910579164994510e-03
2.535999999999999943e+01,6.148083523102653575e-03
2.539999999999999858e+01,5.913447920098473601e-03
2.544000000000000128e+01,5.866355342480495533e-03
2.548000000000000043e+01,3.004403933869121031e-03
2.551999999999999957e+01,3.582597807869805206e-03
2.555999999999999872e+01,5.161485471142608812e-03
2.560000000000000142e+01,4.551014946294703982e-03
2.564000000000000057e+01,6.317339257812660050e-03
2.567999999999999972e+01,5.268805137496121796e-03
2.571999999999999886e+01,5.408615246791992522e-03
2.576000000000000156e+01,5.173018657088648831e-03
2.580000000000000071e+01,3.686314883489535434e-03
2.583999999999999986e+01,5.076806668117077835e-03
2.587999999999999901e+01,5.278741468850134920e-03
2.592000000000000171e+01,6.016669855940454462e-04
2.596000000000000085e+01,3.055191043026016847e-03
2.600000000000000000e+01,7.572760453621161028e-03
2.603999999999999915e+01,4.584219125537528777e-03
2.607999999999999829e+01,4.347773753995719248e-03
2.612000000000000099e+01,2.484921595185948882e-03
2.616000000000000014e+01,1.622764423124919281e-03
2.619999999999999929e+01,5.827054939597313063e-03
2.623999999999999844e+01,5.214886851072505179e-03
2.628000000000000114e+01,4.102213020686077370e-03
2.632000000000000028e+01,2.739233689620776055e-03
2.635999999999999943e+01,6.067402124389585823e-03
2.639999999999999858e+01,5.329712757541128255e-03
2.644000000000000128e+01,6.656069622005370522e-03
2.648000000000000043e+01,3.291068441138538751e-03
2.651999999999999957e+01,4.992515587459345379e-03
2.655999999999999872e+01,5.067556824661711284e-03
2.660000000000000142e+01,4.954843160345376307e-03
2.664000000000000057e+01,3.716124069276061353e-03
2.667999999999999972e+01,3.165350801079906337e-03
2.671999999999999886e+01,4.178224000317013256e-03
2.676000000000000156e+01,5.378642859388931864e-03
2.680000000000000071e+01,3.263805199214192716e-03
2.683999999999999986e+01,4.526565415762400825e-03
2.687999999999999901e+01,2.098769030701098243e-03
2.692000000000000171e+01,4.174471408105529316e-03
2.696000000000000085e+01,4.999068916735736542e-03
2.700000000000000000e+01,3.196460748993271411e-03
2.703999999999999915e+01,5.084201058821309800e-03
2.707999999999999829e+01,2.906084924172291830e-03
2.712000000000000099e+01,2.979666498989400319e-03
2.716000000000000014e+01,3.803744894998713124e-03
2.719999999999999929e+01,3.251618820548975945e-03
2.723999999999999844e+01,5.951991340464472813e-03
2.728000000000000114e+01,3.085306846956119287e-03
2.732000000000000028e+01,3.783871309165223653e-03
2.735999999999999943e+01,5.420583112738644460e-03
2.739999999999999858e+01,5.368340643323211633e-03
2.744000000000000128e+01,3.814794101763909189e-03
2.748000000000000043e+01,2.636444778024619063e-03
2.751999999999999957e+01,5.085894849499412312e-03
2.755999999999999872e+01,6.409341330352096196e-03
2.760000000000000142e+01,5.731083735686110653e-03
2.764000000000000057e+01,6.241174202557829391e-03
2.767999999999999972e+01,4.561910632561221902e-03
2.771999999999999886e+01,4.821595767818705885e-03
2.776000000000000156e+01,4.768428236003533459e-03
2.780000000000000071e+01,5.403208762351258132e-03
2.783999999999999986e+01,3.973735651833257450e-03
2.787999999999999901e+01,3.357310839817174205e-03
2.792000000000000171e+01,4.554735051538597902e-03
2.796000000000000085e+01,1.225535666386147091e-04
2.800000000000000000e+01,4.572375823303929422e-03
2.803999999999999915e+01,2.641992058958551274e-03
2.807999999999999829e+01,1.211906790585315103e-03
2.812000000000000099e+01,4.472972800644335091e-03
2.816000000000000014e+01,2.917584037631421826e-03
2.819999999999999929e+01,3.363694978191645278e-03
2.823999999999999844e+01,1.745553080203897942e-03
2.828000000000000114e+01,5.256413062339671330e-03
2.832000000000000028e+01,4.075918671406098676e-03
2.835999999999999943e+01,3.333173294929359619e-03
2.839999999999999858e+01,5.279978464899728365e-03
2.844000000000000128e+01,2.347779380282867621e-03
2.848000000000000043e+01,2.855731485829523120e-03
2.851999999999999957e+01,5.552834054616748172e-03
2.855999999999999872e+01,4.684483455404528027e-03
2.860000000000000142e+01,3.753482026937901821e-03
2.864000000000000057e+01,4.448680938167533239e-03
2.867999999999999972e+01,4.455728776428944521e-03
2.871999999999999886e+01,4.775426266957703489e-03
2.876000000000000156e+01,3.781472440804420874e-03
2.880000000000000071e+01,4.726469475363194624e-03
2.883999999999999986e+01,5.045865796618592344e-03
2.887999999999999901e+01,4.364361242375959342e-03
2.892000000000000171e+01,3.807856618546350946e-03
2.896000000000000085e+01,4.377152650365315027e-03
2.900000000000000000e+01,5.884599296651421216e-03
2.903999999999999915e+01,1.762442401774106738e-03
2.907999999999999829e+01,3.019489145006789763e-03
2.912000000000000099e+01,5.902737185917053368e-03
2.916000000000000014e+01,4.532482812589416765e-03
2.919999999999999929e+01,4.475679694914238768e-03
2.923999999999999844e+01,5.982528074074223295e-03
2.928000000000000114e+01,4.549425125584121397e-03
2.932000000000000028e+01,5.305474236970104257e-03
2.935999999999999943e+01,1.182520929899707855e-03
2.939999999999999858e+01,2.688972060944477740e-03
2.944000000000000128e+01,2.506472990420988319e-03
2.948000000000000043e+01,3.637425734372391143e-03
2.951999999999999957e+01,2.453928033041721021e-03
2.955999999999999872e+01,3.522132910915540347e-03
2.960000000000000142e+01,3.589438350263312628e-03
2.964000000000000057e+01,4.845095842737603443e-03
2.967999999999999972e+01,3.723753168919192221e-03
2.971999999999999886e+01,3.603112586877636227e-03
2.976000000000000156e+01,2.606672966312620614e-03
2.980000000000000071e+01,4.362336726644649477e-03
2.983999999999999986e+01,3.803550680348813905e-03
2.987999999999999901e+01,3.432316520766370057e-03
2.992000000000000171e+01,2.372933763000770017e-03
2.996000000000000085e+01,2.752103858366850356e-03
3.000000000000000000e+01,3.944326483319017355e-03
3.003999999999999915e+01,4.510950789921098700e-03
3.007999999999999829e+01,4.014126575640718057e-03
3.012000000000000099e+01,3.579754646388909941e-03
3.016000000000000014e+01,4.333735808076715802e-03
3.019999999999999929e+01,3.523868365675493237e-03
3.023999999999999844e+01,2.713903407460426225e-03
3.028000000000000114e+01,2.716991537653893826e-03
3.032000000000000028e+01,4.346283360478233465e-03
3.035999999999999943e+01,2.722875809421751881e-03
3.039999999999999858e+01,7.604575257003168449e-03
3.044000000000000128e+01,3.979372101997432319e-03
3.048000000000000043e+01,4.607474653134625668e-03
3.051999999999999957e+01,4.547429803565318854e-03
3.055999999999999872e+01,3.361387350757127739e-03
3.060000000000000142e+01,1.487197656905983600e-03
3.064000000000000057e+01,2.677863222107871102e-03
3.067999999999999972e+01,2.054480979851104356e-03
3.071999999999999886e+01,1.118251978073139200e-03
3.076000000000000156e+01,3.559628676532216110e-03
3.080000000000000071e+01,3.123607121286441860e-03
3.083999999999999986e+01,4.188690215809153655e-03
3.087999999999999901e+01,5.128576991150999090e-03
3.092000000000000171e+01,2.377915227892734608e-03
3.096000000000000085e+01,3.755460048083241343e-03
3.100000000000000000e+01,4.507408465886300099e-03
3.103999999999999915e+01,4.008260157756316291e-03
3.107999999999999829e+01,2.883515606902445089e-03
3.112000000000000099e+01,3.572626466328185889e-03
3.116000000000000014e+01,3.636141242693578628e-03
3.119999999999999929e+01,4.512710943598356207e-03
3.123999999999999844e+01,3.387583833676138540e-03
3.128000000000000114e+01,2.137261202890814501e-03
3.132000000000000028e+01,4.264545389987387664e-03
3.135999999999999943e+01,3.576982481361722435e-03
3.139999999999999858e+01,4.890925662851312861e-03
3.144000000000000128e+01,4.390822553686006720e-03
3.148000000000000043e+01,5.454375411935352171e-03
3.151999999999999957e+01,1.638930162644261805e-03
3.155999999999999872e+01,3.140143460695567820e-03
3.160000000000000142e+01,3.202611029445497429e-03
3.164000000000000057e+01,3.827934239533406415e-03
3.167999999999999972e+01,3.139611960658965622e-03
3.171999999999999886e+01,2.200994958395480552e-03
3.176000000000000156e+01,3.138784684057759154e-03
3.180000000000000071e+01,4.264130128358697459e-03
3.183999999999999986e+01,3.200129838296086101e-03
3.187999999999999901e+01,2.824085749237581315e-03
3.192000000000000171e+01,3.135997941014957106e-03
3.196000000000000085e+01,4.010766412784506040e-03
3.200000000000000000e+01,4.322490518298768500e-03
3.203999999999999915e+01,3.758420135700826174e-03
3.207999999999999829e+01,4.883106998669659894e-03
3.211999999999999744e+01,4.193748928123791110e-03
3.215999999999999659e+01,3.066446891325209836e-03
3.220000000000000284e+01,0.000000000000000000e+00
3.224000000000000199e+01,6.065765473759338056e-03
3.228000000000000114e+01,3.249331775166837237e-03
3.232000000000000028e+01,4.123257091939341520e-03
3.235999999999999943e+01,4.621788881955750557e-03
3.239999999999999858e+01,2.493125772889321235e-03
3.243999999999999773e+01,3.867171797670014219e-03
3.247999999999999687e+01,3.427173607421993284e-03
3.252000000000000313e+01,2.611782209744977455e-03
3.256000000000000227e+01,4.235749499668899597e-03
3.260000000000000142e+01,2.419371765278280437e-03
3.264000000000000057e+01,3.355103079840830033e-03
3.267999999999999972e+01,3.915441506301498530e-03
3.271999999999999886e+01,3.912737003478842547e-03
3.275999999999999801e+01,2.533839126814064428e-03
3.279999999999999716e+01,1.905449327621993802e-03
3.284000000000000341e+01,4.467019258906137005e-03
3.288000000000000256e+01,2.775094200307587876e-03
3.292000000000000171e+01,3.272328386445025415e-03
3.296000000000000085e+01,3.581820364316212930e-03
3.300000000000000000e+01,3.453370052401997115e-03
3.303999999999999915e+01,4.450728538977563251e-03
3.307999999999999829e+01,2.820893483610473814e-03
3.311999999999999744e+01,5.319269322608090149e-03
3.315999999999999659e+01,4.439851295273777518e-03
3.320000000000000284e+01,4.998992587445037772e-03
3.324000000000000199e+01,3.181140818351703078e-03
3.328000000000000114e+01,3.302248851129382500e-03
3.332000000000000028e+01,2.610114990749445776e-03
3.335999999999999943e+01,3.606740930553136923e-03
3.339999999999999858e+01,5.416426185643913663e-03
3.343999999999999773e+01,2.659867366808198186e-03
3.347999999999999687e+01,3.093269555757111391e-03
3.352000000000000313e+01,4.402281339826188966e-03
3.356000000000000227e+01,4.210001266013193785e-03
3.360000000000000142e+01,3.579780099891430485e-03
3.364000000000000057e+01,2.198867719604003304e-03
3.367999999999999972e+01,1.631015213426097090e-03
3.371999999999999886e+01,3.815273911659323655e-03
3.375999999999999801e+01,5.436491756235423134e-03
3.379999999999999716e+01,2.929316527735175389e-03
3.384000000000000341e+01,2.486202299426283104e-03
3.388000000000000256e+01,3.168898546074490168e-03
3.392000000000000171e+01,4.414454984471924935e-03
3.396000000000000085e+01,6.535621896139051992e-03
3.400000000000000000e+01,2.964645125445306614e-03
3.403999999999999915e+01,4.209931528962215265e-03
3.407999999999999829e+01,2.202525982953530952e-03
3.411999999999999744e+01,4.010583125415266570e-03
3.415999999999999659e+01,1.877898034299852262e-03
3.420000000000000284e+01,3.810875952669364429e-03
3.424000000000000199e+01,2.366062160164912088e-03
3.428000000000000114e+01,2.985310246001363944e-03
3.432000000000000028e+01,2.040717950421769983e-03
3.435999999999999943e+01,3.723138055886264768e-03
3.439999999999999858e+01,3.216217536220893156e-03
3.443999999999999773e+01,1.583307156998959783e-03
3.447999999999999687e+01,6.017661636891970256e-03
3.452000000000000313e+01,5.010073633588130182e-03
3.456000000000000227e+01,4.315146937991000582e-03
3.460000000000000142e+01,5.246432477024840293e-03
3.464000000000000057e+01,3.300327426204369575e-03
3.467999999999999972e+01,5.357336302512404752e-03
3.471999999999999886e+01,4.411854667954209948e-03
3.475999999999999801e+01,4.154334982288026071e-03
3.479999999999999716e+01,4.584777325345641870e-03
3.484000000000000341e+01,2.575679760071985375e-03
3.488000000000000256e+01,2.380445109264935338e-03
3.492000000000000171e+01,2.060022202286434026e-03
3.496000000000000085e+01,3.991312651802242720e-03
3.500000000000000000e+01,4.984264480419569113e-03
3.503999999999999915e+01,3.037276477162617356e-03
3.507999999999999829e+01,3.842402392597211221e-03
3.511999999999999744e+01,2.833489361900328081e-03
3.515999999999999659e+01,2.387438997737757838e-03
3.520000000000000284e+01,3.129751783318638746e-03
3.524000000000000199e+01,3.371576709355854698e-03
3.528000000000000114e+01,3.050363815343442881e-03
3.532000000000000028e+01,3.417113987867917944e-03
3.535999999999999943e+01,2.845526257979902329e-03
3.539999999999999858e+01,3.337201996318744229e-03
3.543999999999999773e+01,4.516841040689800225e-03
3.547999999999999687e+01,2.256140808634233153e-03
3.552000000000000313e+01,4.311306381863154805e-03
3.556000000000000227e+01,4.302233725759206998e-03
3.560000000000000142e+01,1.791072637790015135e-03
3.564000000000000057e+01,5.972679127434633861e-03
3.567999999999999972e+01,1.334643270766154664e-03
3.571999999999999886e+01,2.888974828673156886e-03
3.575999999999999801e+01,3.942819564849586560e-03
3.579999999999999716e+01,3.307726792710222533e-03
3.584000000000000341e+01,3.860998447622737955e-03
3.588000000000000256e+01,5.039684246379269421e-03
3.592000000000000171e+01,6.843784268811600908e-03
3.596000000000000085e+01,4.707145650096725836e-03
3.600000000000000000e+01,4.321822140800459303e-03
3.603999999999999915e+01,4.249162892986635062e-03
3.607999999999999829e+01,5.114668389864394406e-03
3.611999999999999744e+01,5.479687783497576292e-03
3.615999999999999659e+01,5.531871274731161268e-03
3.620000000000000284e+01,4.332968338330881082e-03
3.624000000000000199e+01,5.010481071015339231e-03
3.628000000000000114e+01,5.750458382821951181e-03
3.632000000000000028e+01,3.425398336695666644e-03
3.635999999999999943e+01,4.728155328606073286e-03
3.639999999999999858e+01,6.218477219809440647e-03
3.643999999999999773e+01,5.394362476628072715e-03
3.647999999999999687e+01,6.196463720171161565e-03
3.652000000000000313e+01,4.996878690681751979e-03
3.656000000000000227e+01,4.923109484878457863e-03
3.660000000000000142e+01,6.788306706983631388e-03
3.664000000000000057e+01,5.588467209810109131e-03
3.667999999999999972e+01,3.700492606023674490e-03
3.671999999999999886e+01,5.440335758759919614e-03
3.675999999999999801e+01,8.368545174678904824e-03
3.679999999999999716e+01,5.729716577136828061e-03
3.684000000000000341e+01,5.780455370546724696e-03
3.688000000000000256e+01,7.082110706972421545e-03
3.692000000000000171e+01,8.196031738477747158e-03
3.696000000000000085e+01,7.683567617126537026e-03
3.700000000000000000e+01,7.171019471531723220e-03
3.703999999999999915e+01,6.095437018485448839e-03
3.707999999999999829e+01,7.459222274030856761e-03
3.711999999999999744e+01,1.063687491462235110e-02
3.715999999999999659e+01,6.433539090444416117e-03
3.720000000000000284e+01,1.123732544981583849e-02
3.724000000000000199e+01,8.910323665432344151e-03
3.728000000000000114e+01,8.397189585422036584e-03
3.732000000000000028e+01,9.260073007252542926e-03
3.735999999999999943e+01,1.074837352670280320e-02
3.739999999999999858e+01,1.298719130428005290e-02
3.743999999999999773e+01,1.347452480630662378e-02
3.747999999999999687e+01,1.389922520173316606e-02
3.752000000000000313e+01,1.457404277208014694e-02
3.756000000000000227e+01,1.662487832325859963e-02
3.760000000000000142e+01,1.848798092665688772e-02
3.764000000000000057e+01,1.960040029906714651e-02
3.767999999999999972e+01,2.371513894058537020e-02
3.771999999999999886e+01,2.589074374436212481e-02
3.775999999999999801e+01,2.956746700880470702e-02
3.779999999999999716e+01,3.906126159704871592e-02
3.784000000000000341e+01,4.561512194164282774e-02
3.788000000000000256e+01,5.792350372936417441e-02
3.792000000000000171e+01,7.654935740308420333e-02
3.796000000000000085e+01,1.064341362293158288e-01
3.800000000000000000e+01,1.620894496462458034e-01
3.803999999999999915e+01,2.949314308913255078e-01
3.807999999999999829e+01,5.214732906935489742e-01
3.811999999999999744e+01,7.825426909732491332e-01
3.815999999999999659e+01,9.685519611385434713e-01
3.820000000000000284e+01,1.000000000000000000e+00
3.824000000000000199e+01,8.718828044104316444e-01
3.828000000000000114e+01,6.760863837058056491e-01
3.832000000000000028e+01,4.556451657183163140e-01
3.835999999999999943e+01,2.828044471178814412e-01
3.839999999999999858e+01,1.698865859308668069e-01
3.843999999999999773e+01,1.068835757830663979e-01
3.847999999999999687e+01,8.222365929183070299e-02
3.852000000000000313e+01,6.169196447224954694e-02
3.856000000000000227e+01,4.678969237226038302e-02
3.860000000000000142e+01,4.020649480621763666e-02
3.864000000000000057e+01,3.274751592430581032e-02
3.867999999999999972e+01,2.904145879134919367e-02
3.871999999999999886e+01,2.571062130894178829e-02
3.875999999999999801e+01,2.400600436367009149e-02
3.879999999999999716e+01,1.854830456632053370e-02
3.884000000000000341e+01,1.878257808772312853e-02
3.888000000000000256e+01,1.889167125630013960e-02
3.892000000000000171e+01,1.687398286107576889e-02
3.896000000000000085e+01,1.735821596687430954e-02
3.900000000000000000e+01,1.427701674076707963e-02
3.903999999999999915e+01,1.426068953838594347e-02
3.907999999999999829e+01,1.336858189828526826e-02
3.911999999999999744e+01,1.328954498941571812e-02
3.915999999999999659e+01,1.314787832688075857e-02
3.920000000000000284e+01,1.062923049801591142e-02
3.924000000000000199e+01,1.136310521304924673e-02
3.928000000000000114e+01,1.047059940546908249e-02
3.932000000000000028e+01,9.077613881186455402e-03
3.935999999999999943e+01,8.810449768814300128e-03
3.939999999999999858e+01,8.105356139740971591e-03
3.943999999999999773e+01,7.024883114135990585e-03
3.947999999999999687e+01,7.070231739936802540e-03
3.952000000000000313e+01,6.927851249882716576e-03
3.956000000000000227e+01,6.284991522116829994e-03
3.960000000000000142e+01,8.644454895384174123e-03
3.964000000000000057e+01,6.562786649325856245e-03
3.967999999999999972e+01,6.169890816871850467e-03
3.971999999999999886e+01,6.527516872787878996e-03
3.975999999999999801e+01,7.260364654879305352e-03
3.979999999999999716e+01,5.366032306766535531e-03
3.984000000000000341e+01,6.661673659690867805e-03
3.988000000000000256e+01,8.457637058961393547e-03
3.992000000000000171e+01,8.377021051575899921e-03
3.996000000000000085e+01,6.607475838379374411e-03
4.000000000000000000e+01,5.901203274064002226e-03
4.003999999999999915e+01,7.759404406567244408e-03
4.007999999999999829e+01,4.175674152490579071e-03
4.011999999999999744e+01,5.908619529756491649e-03
4.015999999999999659e+01,5.514785818006099835e-03
4.020000000000000284e+01,4.870674307203274288e-03
4.024000000000000199e+01,6.290636569676052482e-03
4.028000000000000114e+01,5.458719901952374665e-03
4.032000000000000028e+01,5.064576118386703539e-03
4.035999999999999943e+01,5.295855419824016183e-03
4.039999999999999858e+01,3.838206393599839176e-03
4.043999999999999773e+01,6.258582709604506612e-03
4.047999999999999687e+01,4.488029244101769330e-03
4.052000000000000313e+01,5.344500473736695130e-03
4.056000000000000227e+01,5.450294300103290801e-03
4.060000000000000142e+01,4.555210641682379616e-03
4.064000000000000057e+01,3.347300022020837512e-03
4.067999999999999972e+01,5.391914820201433936e-03
4.071999999999999886e+01,4.246400961269077359e-03
4.075999999999999801e+01,5.039861832749941567e-03
4.079999999999999716e+01,4.394595336238021205e-03
4.084000000000000341e+01,4.624953044061353748e-03
4.088000000000000256e+01,5.167984673012087499e-03
4.092000000000000171e+01,5.210539778531416560e-03
4.096000000000000085e+01,5.002818601802070005e-03
4.100000000000000000e+01,3.856770778940714697e-03
4.103999999999999915e+01,3.711447640248969389e-03
4.107999999999999829e+01,4.566849265558611121e-03
4.111999999999999744e+01,4.921774766595735096e-03
4.115999999999999659e+01,5.964674989609107872e-03
4.120000000000000284e+01,3.879997553828581566e-03
4.124000000000000199e+01,3.421545604753909071e-03
4.128000000000000114e+01,4.902069423905555841e-03
4.132000000000000028e+01,4.443466590175620262e-03
4.135999999999999943e+01,5.485989401971399886e-03
4.139999999999999858e+01,6.403336890343512382e-03
4.143999999999999773e+01,3.817806956885961937e-03
4.147999999999999687e+01,5.172854481621186676e-03
4.152000000000000313e+01,4.713875833309183125e-03
4.156000000000000227e+01,4.067172140562887693e-03
4.160000000000000142e+01,4.546294330306547074e-03
4.164000000000000057e+01,4.900241675617201566e-03
4.167999999999999972e+01,5.191564296664359819e-03
4.171999999999999886e+01,4.607111748889229814e-03
4.175999999999999801e+01,3.522184354150003412e-03
4.179999999999999716e+01,3.750733362072827468e-03
4.184000000000000341e+01,4.479608328098890445e-03
4.188000000000000256e+01,4.895658807669402493e-03
4.192000000000000171e+01,6.062235566357656973e-03
4.196000000000000085e+01,4.914386707446335642e-03
4.200000000000000000e+01,3.954113924276679917e-03
4.203999999999999915e+01,5.495768789176729875e-03
4.207999999999999829e+01,3.972397791919689454e-03
4.211999999999999744e+01,4.137804078005327159e-03
4.215999999999999659e+01,3.802736315444634526e-03
4.220000000000000284e+01,5.093895955552436849e-03
4.224000000000000199e+01,5.509281464651042022e-03
4.228000000000000114e+01,5.862043446962804383e-03
4.232000000000000028e+01,4.213130731849661428e-03
4.235999999999999943e+01,5.066146303460432668e-03
4.239999999999999858e+01,3.729837216296641791e-03
4.243999999999999773e+01,5.145656736871265582e-03
4.247999999999999687e+01,6.498853129817926989e-03
4.252000000000000313e+01,4.224074175717408910e-03
4.256000000000000227e+01,5.702224714254426098e-03
4.260000000000000142e+01,5.178701114188973345e-03
4.264000000000000057e+01,5.843555512577400940e-03
4.267999999999999972e+01,5.507536577430694781e-03
4.271999999999999886e+01,3.982994267567426666e-03
4.275999999999999801e+01,4.585080800719417045e-03
4.279999999999999716e+01,6.438095691990134914e-03
4.284000000000000341e+01,5.538836439596194622e-03
4.288000000000000256e+01,5.953055745322269679e-03
4.292000000000000171e+01,5.679152398192559466e-03
4.296000000000000085e+01,6.593627688170937244e-03
4.300000000000000000e+01,7.070180646308031093e-03
4.303999999999999915e+01,4.606809738926141533e-03
4.307999999999999829e+01,6.334219644359034319e-03
4.311999999999999744e+01,6.310156610353504641e-03
4.315999999999999659e+01,4.409520636065847668e-03
4.320000000000000284e+01,6.011615270373198323e-03
4.324000000000000199e+01,6.737937769465762207e-03
4.328000000000000114e+01,7.026338495539476668e-03
4.332000000000000028e+01,8.002718254505372317e-03
4.335999999999999943e+01,7.227625553023508606e-03
4.339999999999999858e+01,9.267213415580422345e-03
4.343999999999999773e+01,7.929027928571967532e-03
4.347999999999999687e+01,9.280423084590384494e-03
4.352000000000000313e+01,8.692695978474919427e-03
4.356000000000000227e+01,1.041924943302346106e-02
4.360000000000000142e+01,9.768830502737526136e-03
4.364000000000000057e+01,1.005659140534893338e-02
4.367999999999999972e+01,1.278373318879513602e-02
4.371999999999999886e+01,1.338410298825314614e-02
4.375999999999999801e+01,1.204535100456793732e-02
4.379999999999999716e+01,1.571053179506006967e-02
4.384000000000000341e+01,1.262023785606681235e-02
4.388000000000000256e+01,1.609762785935786242e-02
4.392000000000000171e+01,1.826139680221016207e-02
4.396000000000000085e+01,2.136334621661403060e-02
4.400000000000000000e+01,2.340187489159365614e-02
4.403999999999999915e+01,2.975628637602616838e-02
4.407999999999999829e+01,3.285802586887721227e-02
4.411999999999999744e+01,3.846169716105032887e-02
4.415999999999999659e+01,4.562904972731125774e-02
4.420000000000000284e+01,6.023978743923901619e-02
4.424000000000000199e+01,8.360746122375785350e-02
4.428000000000000114e+01,1.089141167638862234e-01
4.432000000000000028e+01,1.563634171685449048e-01
4.435999999999999943e+01,1.906145897267443878e-01
4.439999999999999858e+01,2.166090877049977048e-01
4.443999999999999773e+01,2.229628038416685276e-01
4.447999999999999687e+01,2.072362866434168949e-01
4.452000000000000313e+01,1.780614417566822594e-01
4.456000000000000227e+01,1.481984774901946578e-01
4.460000000000000142e+01,1.132063410598065645e-01
4.464000000000000057e+01,8.390618952377823514e-02
4.467999999999999972e+01,6.517692610828489108e-02
4.471999999999999886e+01,4.563444355169021804e-02
4.475999999999999801e+01,3.672539931563182508e-02
4.479999999999999716e+01,2.963023779232061214e-02
4.484000000000000341e+01,2.547485978766761069e-02
4.488000000000000256e+01,2.131941348563097180e-02
4.492000000000000171e+01,1.778939936941984629e-02
4.496000000000000085e+01,1.763701929372641503e-02
4.500000000000000000e+01,1.429451910292010505e-02
4.503999999999999915e+01,1.195275157946106177e-02
4.507999999999999829e+01,1.073681688385652068e-02
4.511999999999999744e+01,1.314871670944773967e-02
4.515999999999999659e+01,1.136969609384939212e-02
4.520000000000000284e+01,9.653157859859363282e-03
4.524000000000000199e+01,8.186752208322640653e-03
4.528000000000000114e+01,8.158929985487985148e-03
4.532000000000000028e+01,6.379639213962609232e-03
4.535999999999999943e+01,6.351682232491548570e-03
4.539999999999999858e+01,6.573858152800890128e-03
4.543999999999999773e+01,6.358116611007311181e-03
4.547999999999999687e+01,7.143108614710539858e-03
4.552000000000000313e+01,6.927232952934764265e-03
4.556000000000000227e+01,6.148339987875924353e-03
4.560000000000000142e+01,5.682130364094118216e-03
4.564000000000000057e+01,4.652903596692795768e-03
4.567999999999999972e+01,5.500111338675468114e-03
4.571999999999999886e+01,6.034502258053128093e-03
4.575999999999999801e+01,4.942525587565083957e-03
4.579999999999999716e+01,5.539333544943159625e-03
4.584000000000000341e+01,5.385474636847391132e-03
4.588000000000000256e+01,3.292498176692566000e-03
4.592000000000000171e+01,4.702257753693552499e-03
4.596000000000000085e+01,4.923500422351866079e-03
4.600000000000000000e+01,3.706026101148349964e-03
4.603999999999999915e+01,4.427537048152551009e-03
4.607999999999999829e+01,5.148982092726418422e-03
4.611999999999999744e+01,4.181510225582828720e-03
4.615999999999999659e+01,5.715974229181920371e-03
4.620000000000000284e+01,4.810920996674268937e-03
4.624000000000000199e+01,5.469553189506802006e-03
4.628000000000000114e+01,4.126518588260305945e-03
4.632000000000000028e+01,2.720868523236392566e-03
4.635999999999999943e+01,3.942254808789515466e-03
4.639999999999999858e+01,2.223723934692888558e-03
4.643999999999999773e+01,4.695980579280262419e-03
4.647999999999999687e+01,2.539469134762559113e-03
4.652000000000000313e+01,2.071743755082937604e-03
4.656000000000000227e+01,3.042604358722238080e-03
4.660000000000000142e+01,5.326950944836771756e-03
4.664000000000000057e+01,6.047481737722413923e-03
4.667999999999999972e+01,2.764745244039219264e-03
4.671999999999999886e+01,3.422596666511520860e-03
4.675999999999999801e+01,5.894334713488045760e-03
4.679999999999999716e+01,4.237705632715586986e-03
4.684000000000000341e+01,3.769462932733535273e-03
4.688000000000000256e+01,4.239406532022729941e-03
4.692000000000000171e+01,3.208084937243211362e-03
4.696000000000000085e+01,3.865550285451326788e-03
4.700000000000000000e+01,3.271950760605223368e-03
4.703999999999999915e+01,3.303787652668789977e-03
4.707999999999999829e+01,2.584960154043588077e-03
4.711999999999999744e+01,3.367269796719917895e-03
4.715999999999999659e+01,2.147914401616294374e-03
4.720000000000000284e+01,3.680697114232491223e-03
4.724000000000000199e+01,3.962415432785132766e-03
4.728000000000000114e+01,3.618569840483360726e-03
4.732000000000000028e+01,3.712511102900482775e-03
4.735999999999999943e+01,3.180888614126740985e-03
4.739999999999999858e+01,3.274703260748654341e-03
4.743999999999999773e+01,2.242553993141370352e-03
4.747999999999999687e+01,3.274492948361229332e-03
4.752000000000000313e+01,3.430668310366395343e-03
4.756000000000000227e+01,3.274030522028268959e-03
4.760000000000000142e+01,3.054779824529566673e-03
4.764000000000000057e+01,3.898817023781337744e-03
4.767999999999999972e+01,3.679440828132302718e-03
4.771999999999999886e+01,3.772752204844449439e-03
4.775999999999999801e+01,3.740900951385395072e-03
4.779999999999999716e+01,3.146036865222765887e-03
4.784000000000000341e+01,3.426810953956276138e-03
4.788000000000000256e+01,3.832622813364855874e-03
4.792000000000000171e+01,2.612071393823669953e-03
4.796000000000000085e+01,4.331309719819256485e-03
4.800000000000000000e+01,3.423384281124843692e-03
4.803999999999999915e+01,2.890697093783554071e-03
4.807999999999999829e+01,4.359549286408323163e-03
4.811999999999999744e+01,4.389688720255410966e-03
4.815999999999999659e+01,2.856015394481123924e-03
4.820000000000000284e+01,4.324682333572007521e-03
4.824000000000000199e+01,4.792487035744700391e-03
4.828000000000000114e+01,4.009229419480029276e-03
4.832000000000000028e+01,3.413560492377705827e-03
4.835999999999999943e+01,2.755280172918570230e-03
4.839999999999999858e+01,4.661490235119338833e-03
4.843999999999999773e+01,3.877987370441905723e-03
4.847999999999999687e+01,3.219523473916187286e-03
4.852000000000000313e+01,3.123948907738135182e-03
4.856000000000000227e+01,2.152612823971566686e-03
4.860000000000000142e+01,2.932616996633208989e-03
4.864000000000000057e+01,2.899409851707629264e-03
4.867999999999999972e+01,2.178091549702077748e-03
4.871999999999999886e+01,2.269863138554016353e-03
4.875999999999999801e+01,5.113775948565053853e-03
4.879999999999999716e+01,2.828524977012145461e-03
4.884000000000000341e+01,2.232064700540368086e-03
4.888000000000000256e+01,4.637946046073964518e-03
4.892000000000000171e+01,3.290764736969159585e-03
4.896000000000000085e+01,2.318823515348334991e-03
4.900000000000000000e+01,3.661173711513113389e-03
4.903999999999999915e+01,3.502262944693337356e-03
4.907999999999999829e+01,2.405041657760403993e-03
4.911999999999999744e+01,4.122512350810300999e-03
4.915999999999999659e+01,4.588922481721914581e-03
4.920000000000000284e+01,4.367222493366648348e-03
4.924000000000000199e+01,5.709213917734805126e-03
4.928000000000000114e+01,3.673443647976962646e-03
4.932000000000000028e+01,2.763514668241936513e-03
4.935999999999999943e+01,3.667477502076610472e-03
4.939999999999999858e+01,3.445480333439128202e-03
4.943999999999999773e+01,4.474424774995276570e-03
4.947999999999999687e+01,3.501708809014500868e-03
4.952000000000000313e+01,4.780735258294697629e-03
4.956000000000000227e+01,4.058101459701530037e-03
4.960000000000000142e+01,3.210308703198882195e-03
4.964000000000000057e+01,3.113057633346848294e-03
4.967999999999999972e+01,4.266748652679088621e-03
4.971999999999999886e+01,2.355429057723554698e-03
4.975999999999999801e+01,2.883502478032853780e-03
4.979999999999999716e+01,3.974467783306650202e-03
4.984000000000000341e+01,3.501623681893684895e-03
4.988000000000000256e+01,2.715971060380463400e-03
4.992000000000000171e+01,3.556561249068604033e-03
4.996000000000000085e+01,2.833342270565307117e-03
5.000000000000000000e+01,4.799716947668447066e-03
5.003999999999999915e+01,3.138131286098391239e-03
5.007999999999999829e+01,2.977688673381321226e-03
5.011999999999999744e+01,4.568589350699974773e-03
5.015999999999999659e+01,3.907630816270967096e-03
5.020000000000000284e+01,4.122315166812908632e-03
5.024000000000000199e+01,4.399491957767011699e-03
5.028000000000000114e+01,3.863460704236726211e-03
5.032000000000000028e+01,3.577572171795356370e-03
5.035999999999999943e+01,3.854576641963366329e-03
5.039999999999999858e+01,2.442672742414005171e-03
5.043999999999999773e+01,3.407613174931939035e-03
5.047999999999999687e+01,1.745394792330006231e-03
5.052000000000000313e+01,2.209820740107973532e-03
5.056000000000000227e+01,3.862640493031570515e-03
5.060000000000000142e+01,4.639702799787247603e-03
5.064000000000000057e+01,3.602757135140749988e-03
5.067999999999999972e+01,2.628304789055947461e-03
5.071999999999999886e+01,4.468547616225031736e-03
5.075999999999999801e+01,3.931832348447632415e-03
5.079999999999999716e+01,3.520160679064990045e-03
5.084000000000000341e+01,2.107631961829632868e-03
5.088000000000000256e+01,4.197849180890363477e-03
5.092000000000000171e+01,2.472457696563774496e-03
5.096000000000000085e+01,2.623511259415681023e-03
5.100000000000000000e+01,2.962158860158968683e-03
5.103999999999999915e+01,3.801150780314093824e-03
5.107999999999999829e+01,2.951235687892055787e-03
5.111999999999999744e+01,3.164615437585037178e-03
5.115999999999999659e+01,3.565589544496509163e-03
5.120000000000000284e+01,3.966507967445027059e-03
5.124000000000000199e+01,2.303219455117066442e-03
5.128000000000000114e+01,2.829126830310499125e-03
5.132000000000000028e+01,4.230679325764620351e-03
5.135999999999999943e+01,3.943325367464015074e-03
5.139999999999999858e+01,3.155515801657449854e-03
5.143999999999999773e+01,3.180801555269170515e-03
5.147999999999999687e+01,3.518782385429068682e-03
5.152000000000000313e+01,3.231207766902859189e-03
5.156000000000000227e+01,3.318878424926112458e-03
5.160000000000000142e+01,3.906894520006080028e-03
5.164000000000000057e+01,4.369755728597164712e-03
5.167999999999999972e+01,3.018611041412256474e-03
5.171999999999999886e+01,3.731563039222810137e-03
5.175999999999999801e+01,2.880709462271864411e-03
5.179999999999999716e+01,1.842151277821411698e-03
5.184000000000000341e+01,3.117890179212698398e-03
5.188000000000000256e+01,3.705524310066125523e-03
5.192000000000000171e+01,3.980353992239900329e-03
5.196000000000000085e+01,3.692179144214850425e-03
5.200000000000000000e+01,4.154550692915229444e-03
5.203999999999999915e+01,3.928817790404858998e-03
5.207999999999999829e+01,2.889880435840048133e-03
5.211999999999999744e+01,2.726589798171467471e-03
5.215999999999999659e+01,2.625795432840304176e-03
5.220000000000000284e+01,2.587497419678346129e-03
5.224000000000000199e+01,2.486595757841897607e-03
5.228000000000000114e+01,4.512341938983512914e-03
5.232000000000000028e+01,3.285432573889610769e-03
5.235999999999999943e+01,3.559670808059960979e-03
5.239999999999999858e+01,4.021505874233871798e-03
5.243999999999999773e+01,4.233087569878957353e-03
5.247999999999999687e+01,3.631465611787365946e-03
5.252000000000000313e+01,4.405891491611664025e-03
5.256000000000000227e+01,4.116913716011885022e-03
5.260000000000000142e+01,3.765333010223603696e-03
5.264000000000000057e+01,3.788999736442752193e-03
5.267999999999999972e+01,4.187913974501095843e-03
5.271999999999999886e+01,4.711875642879475266e-03
5.275999999999999801e+01,4.672834377694561232e-03
5.279999999999999716e+01,4.195890339453610049e-03
5.284000000000000341e+01,3.593793809677068522e-03
5.288000000000000256e+01,3.867345513600503170e-03
5.292000000000000171e+01,1.951593554506603125e-03
5.296000000000000085e+01,3.538591682961170909e-03
5.300000000000000000e+01,4.562587356843100968e-03
5.303999999999999915e+01,4.710830454295496239e-03
5.307999999999999829e+01,5.296871902242593008e-03
5.311999999999999744e+01,4.756960772072750532e-03
5.315999999999999659e+01,2.965997062942283061e-03
5.320000000000000284e+01,2.676182629543368864e-03
5.324000000000000199e+01,3.762417471032315254e-03
5.328000000000000114e+01,4.035450255420119405e-03
5.332000000000000028e+01,4.370981627266869000e-03
5.335999999999999943e+01,4.268611343702437451e-03
5.339999999999999858e+01,3.853439565234084534e-03
5.343999999999999773e+01,3.313116492706799469e-03
5.347999999999999687e+01,4.836893617773134826e-03
5.352000000000000313e+01,4.609218559662930578e-03
5.356000000000000227e+01,2.317341196519290096e-03
5.360000000000000142e+01,3.590765238570276050e-03
5.364000000000000057e+01,3.112737336940052217e-03
5.367999999999999972e+01,4.823910112737809369e-03
5.371999999999999886e+01,4.408330862491498595e-03
5.375999999999999801e+01,3.117000472787616761e-03
5.379999999999999716e+01,3.827220878993833116e-03
5.384000000000000341e+01,3.474040184392832888e-03
5.388000000000000256e+01,3.871409638610748185e-03
5.392000000000000171e+01,3.205378151684989702e-03
5.396000000000000085e+01,4.103047497632289833e-03
5.400000000000000000e+01,3.812215981423990128e-03
5.403999999999999915e+01,3.896634691335297551e-03
5.407999999999999829e+01,3.292953021456461113e-03
5.411999999999999744e+01,2.439021333983422066e-03
5.415999999999999659e+01,4.524891765972514218e-03
5.420000000000000284e+01,4.421461089561114395e-03
5.424000000000000199e+01,4.568180957752732835e-03
5.428000000000000114e+01,3.964250804975347556e-03
5.432000000000000028e+01,2.922420912749425313e-03
5.435999999999999943e+01,3.882142934078478946e-03
5.439999999999999858e+01,2.902764407516861787e-03
5.443999999999999773e+01,2.486287026405823494e-03
5.447999999999999687e+01,4.008811758007348007e-03
5.452000000000000313e+01,4.593036826617329267e-03
5.456000000000000227e+01,4.864462715444902927e-03
5.460000000000000142e+01,4.385239221957690052e-03
5.464000000000000057e+01,3.468116627676157398e-03
5.467999999999999972e+01,3.676846020875488511e-03
5.471999999999999886e+01,3.822976714970468745e-03
5.475999999999999801e+01,3.093358265402303044e-03
5.479999999999999716e+01,4.490392688214112603e-03
5.484000000000000341e+01,3.197726957231960924e-03
5.488000000000000256e+01,4.031714258293351595e-03
5.492000000000000171e+01,4.865653299747006028e-03
5.496000000000000085e+01,4.073243112643545362e-03
5.500000000000000000e+01,4.469235592012906801e-03
5.503999999999999915e+01,5.428130414309497928e-03
5.507999999999999829e+01,4.135175844166937356e-03
5.511999999999999744e+01,3.592773897628367095e-03
5.515999999999999659e+01,2.362273726757625671e-03
5.520000000000000284e+01,3.758827549286521824e-03
5.524000000000000199e+01,3.716682823093950868e-03
5.528000000000000114e+01,4.362540999494748072e-03
5.532000000000000028e+01,4.132651149877255778e-03
5.535999999999999943e+01,4.340564201165728921e-03
5.539999999999999858e+01,3.485079265086264873e-03
5.543999999999999773e+01,4.380948236668793898e-03
5.547999999999999687e+01,4.776369743586561176e-03
5.552000000000000313e+01,3.482893099254355529e-03
5.556000000000000227e+01,4.003320642417208287e-03
5.560000000000000142e+01,5.024101605814418163e-03
5.564000000000000057e+01,3.167533891039982404e-03
5.567999999999999972e+01,3.875471087308779688e-03
5.571999999999999886e+01,4.333161459254420388e-03
5.575999999999999801e+01,3.852554642993584813e-03
5.579999999999999716e+01,4.873102291529779299e-03
5.584000000000000341e+01,4.767702790509848951e-03
5.588000000000000256e+01,4.099306582805180461e-03
5.592000000000000171e+01,4.056364514664560772e-03
5.596000000000000085e+01,4.701426706257507207e-03
5.600000000000000000e+01,2.969541260866686780e-03
5.603999999999999915e+01,4.490211888720180809e-03
5.607999999999999829e+01,4.196885402293103369e-03
5.611999999999999744e+01,4.779213615939897214e-03
5.615999999999999659e+01,4.923645762399874934e-03
5.620000000000000284e+01,4.692731961842549517e-03
5.624000000000000199e+01,4.149022334437428745e-03
5.628000000000000114e+01,4.168217524744604642e-03
5.632000000000000028e+01,4.124817209218489995e-03
5.635999999999999943e+01,4.269021629041811275e-03
5.639999999999999858e+01,4.913581065735018322e-03
5.643999999999999773e+01,4.870044832712894754e-03
5.647999999999999687e+01,4.451163211495907761e-03
5.652000000000000313e+01,4.094786564279981680e-03
5.656000000000000227e+01,3.800914970896894420e-03
5.660000000000000142e+01,4.132498874218061731e-03
5.664000000000000057e+01,4.088737708671454259e-03
5.667999999999999972e+01,3.607081513751131743e-03
5.671999999999999886e+01,3.813431095368116554e-03
5.675999999999999801e+01,4.395036331665514232e-03
5.679999999999999716e+01,3.162645890654304601e-03
5.684000000000000341e+01,4.744962837158782538e-03
5.688000000000000256e+01,5.201334709733325228e-03
5.692000000000000171e+01,3.093110660441748209e-03
5.696000000000000085e+01,4.299994560863084833e-03
5.700000000000000000e+01,3.067382779757341169e-03
5.703999999999999915e+01,4.962228987014850878e-03
5.707999999999999829e+01,4.480129712746561653e-03
5.711999999999999744e+01,3.872886488942772418e-03
5.715999999999999659e+01,3.765999798812638341e-03
5.720000000000000284e+01,3.971819601174706935e-03
5.724000000000000199e+01,3.114245088430553973e-03
5.728000000000000114e+01,3.132327590881805145e-03
5.732000000000000028e+01,4.276267349711163068e-03
5.735999999999999943e+01,4.419363073267373876e-03
5.739999999999999858e+01,4.875165688474676455e-03
5.743999999999999773e+01,5.768775355840321910e-03
5.747999999999999687e+01,4.410540420673409422e-03
5.752000000000000313e+01,6.304864512526551883e-03
5.756000000000000227e+01,4.383593153067263590e-03
5.760000000000000142e+01,4.088579931510422788e-03
5.764000000000000057e+01,4.168824120933076714e-03
5.767999999999999972e+01,4.937076002855674342e-03
5.771999999999999886e+01,5.892935334408108163e-03
5.775999999999999801e+01,4.409300501237205933e-03
5.779999999999999716e+01,5.052324527829527880e-03
5.784000000000000341e+01,4.069005073752649491e-03
5.788000000000000256e+01,3.148193307957228380e-03
5.792000000000000171e+01,4.916991004460000841e-03
5.796000000000000085e+01,4.121194854722845351e-03
5.800000000000000000e+01,4.576357399179479049e-03
5.803999999999999915e+01,4.968927870569206720e-03
5.807999999999999829e+01,4.673405945346453295e-03
5.811999999999999744e+01,5.253542711786390179e-03
5.815999999999999659e+01,3.769486353847188373e-03
5.820000000000000284e+01,5.037590057366338886e-03
5.824000000000000199e+01,4.679351078534047317e-03
5.828000000000000114e+01,4.633820747651931984e-03
5.832000000000000028e+01,4.150398660498939851e-03
5.835999999999999943e+01,4.417535663323821429e-03
5.839999999999999858e+01,5.435231835958369805e-03
5.843999999999999773e+01,6.077586532155093701e-03
5.847999999999999687e+01,4.530648661951421595e-03
5.852000000000000313e+01,3.609170120377255559e-03
5.856000000000000227e+01,4.439051713343650056e-03
5.860000000000000142e+01,6.144592955954075383e-03
5.864000000000000057e+01,5.035341548113818691e-03
5.867999999999999972e+01,4.864299989918869846e-03
5.871999999999999886e+01,4.255367473770802454e-03
5.875999999999999801e+01,5.210145370308956470e-03
5.879999999999999716e+01,6.039782670246231396e-03
5.884000000000000341e+01,3.866977597878507294e-03
5.888000000000000256e+01,4.446333944109343884e-03
5.892000000000000171e+01,4.963099973572353274e-03
5.896000000000000085e+01,4.729225322384217507e-03
5.900000000000000000e+01,5.433561159495607640e-03
5.903999999999999915e+01,5.137056314268452495e-03
5.907999999999999829e+01,5.278361794302476734e-03
5.911999999999999744e+01,5.044327155038888337e-03
5.915999999999999659e+01,5.310653041037762846e-03
5.920000000000000284e+01,4.388488443011990224e-03
5.924000000000000199e+01,2.090183319780151809e-03
5.928000000000000114e+01,5.233692147987299356e-03
5.932000000000000028e+01,4.811809198831136676e-03
5.935999999999999943e+01,6.141287980851061444e-03
5.939999999999999858e+01,5.344026072939181589e-03
5.943999999999999773e+01,5.109675289449935529e-03
5.947999999999999687e+01,5.125485508526428369e-03
5.952000000000000313e+01,5.016156567974016690e-03
5.956000000000000227e+01,5.594839072015041388e-03
5.960000000000000142e+01,4.985031890349190219e-03
5.964000000000000057e+01,5.438536554966761673e-03
5.967999999999999972e+01,5.391602137256104599e-03
5.971999999999999886e+01,4.218728313671631786e-03
5.975999999999999801e+01,3.358566091813067027e-03
5.979999999999999716e+01,3.499165995227294500e-03
5.984000000000000341e+01,5.641328749149867282e-03
5.988000000000000256e+01,6.032052013148375171e-03
5.992000000000000171e+01,4.921536028405532927e-03
5.996000000000000085e+01,4.874332528600309675e-03
