2.003999999999999915e+01,1.928253707173879089e-02
2.007999999999999829e+01,2.110028478529660592e-02
2.012000000000000099e+01,3.111623828166262470e-02
2.016000000000000014e+01,1.355751378622157589e-02
2.019999999999999929e+01,2.757978868732830977e-02
2.023999999999999844e+01,2.343639689982456378e-02
2.028000000000000114e+01,2.404434035338502348e-02
2.032000000000000028e+01,3.042836202449746702e-02
2.035999999999999943e+01,2.684466611699607569e-02
2.039999999999999858e+01,3.136601002623334855e-02
2.044000000000000128e+01,2.293856067803639806e-02
2.048000000000000043e+01,2.112561224754903530e-02
2.051999999999999957e+01,2.890823723473546353e-02
2.055999999999999872e+01,2.653682224774036105e-02
2.060000000000000142e+01,3.348150291297054271e-02
2.064000000000000057e+01,2.654579953530312661e-02
2.067999999999999972e+01,1.895822497576830912e-02
2.071999999999999886e+01,1.155720511337996435e-02
2.076000000000000156e+01,2.120443620990993677e-02
2.080000000000000071e+01,1.930024274349138869e-02
2.083999999999999986e+01,2.587371163295290946e-02
2.087999999999999901e+01,2.145470513265008289e-02
2.092000000000000171e+01,2.057595578593067812e-02
2.096000000000000085e+01,1.997691332738211686e-02
2.100000000000000000e+01,1.285700263958733207e-02
2.103999999999999915e+01,2.297165259085351408e-02
2.107999999999999829e+01,2.647227364489892001e-02
2.112000000000000099e+01,2.894837766632260903e-02
2.116000000000000014e+01,3.263576876519306419e-02
2.119999999999999929e+01,3.380810393241288903e-02
2.123999999999999844e+01,2.333584433214077811e-02
2.128000000000000114e+01,2.022333284709878706e-02
2.132000000000000028e+01,1.794947000608058951e-02
2.135999999999999943e+01,1.306738844619981590e-02
2.139999999999999858e+01,2.364984556280876407e-02
2.144000000000000128e+01,8.148127559602416289e-03
2.148000000000000043e+01,1.845154502345143499e-02
2.151999999999999957e+01,1.860089708226865882e-02
2.155999999999999872e+01,1.623518367286635317e-02
2.160000000000000142e+01,1.983183167068961611e-02
2.164000000000000057e+01,2.212447321463640801e-02
2.167999999999999972e+01,2.255415595266616405e-02
2.171999999999999886e+01,1.841928091178823140e-02
2.176000000000000156e+01,1.298039623817751412e-02
2.180000000000000071e+01,2.067707592644483020e-02
2.183999999999999986e+01,1.113963202872087117e-02
2.187999999999999901e+01,2.461255653975573388e-02
2.192000000000000171e+01,2.392558745388160060e-02
2.196000000000000085e+01,2.361145731444632551e-02
2.200000000000000000e+01,2.907336088857505330e-02
2.203999999999999915e+01,1.674218428619687199e-02
2.207999999999999829e+01,2.807348063564248791e-02
2.212000000000000099e+01,3.446757441504481878e-02
2.216000000000000014e+01,1.608169368381170625e-02
2.219999999999999929e+01,2.657516145481599035e-02
2.223999999999999844e+01,1.526972615553011219e-02
2.228000000000000114e+01,1.886985492869952194e-02
2.232000000000000028e+01,2.498545973268909495e-02
2.235999999999999943e+01,1.312165878574774250e-02
2.239999999999999858e+01,2.231188294904498659e-02
2.244000000000000128e+01,1.883273652018078656e-02
2.248000000000000043e+01,3.957500373937453131e-02
2.251999999999999957e+01,2.528984655029781897e-02
2.255999999999999872e+01,1.752597663001814049e-02
2.260000000000000142e+01,2.541293069513924155e-02
2.264000000000000057e+01,1.848786224905502734e-02
2.267999999999999972e+01,3.550472650672398950e-02
2.271999999999999886e+01,1.302255071865426189e-02
2.276000000000000156e+01,2.258709925521623293e-02
2.280000000000000071e+01,1.529013296988444848e-02
2.283999999999999986e+01,1.423497088980753278e-02
2.287999999999999901e+01,2.352058809979310286e-02
2.292000000000000171e+01,3.038426236325825897e-02
2.296000000000000085e+01,2.122484450498738143e-02
2.300000000000000000e+01,1.793459241854844163e-02
2.303999999999999915e+01,2.619617651727749325e-02
2.307999999999999829e+01,1.657149434067485896e-02
2.312000000000000099e+01,2.045497575347903635e-02
2.316000000000000014e+01,2.079860527720667207e-02
2.319999999999999929e+01,1.750922330350189460e-02
2.323999999999999844e+01,1.803951267170333939e-02
2.328000000000000114e+01,1.521626406944580172e-02
2.332000000000000028e+01,2.878908876934712854e-02
2.335999999999999943e+01,2.363721283795279168e-02
2.339999999999999858e+01,3.283192001726659148e-02
2.344000000000000128e+01,1.994821669151644258e-02
2.348000000000000043e+01,3.454644972914892170e-02
2.351999999999999957e+01,4.206479648913127173e-02
2.355999999999999872e+01,4.567064656890160168e-02
2.360000000000000142e+01,6.241201332770571208e-02
2.364000000000000057e+01,7.831511339538008154e-02
2.367999999999999972e+01,9.561575088199303352e-02
2.371999999999999886e+01,9.251482432347619966e-02
2.376000000000000156e+01,7.376341864579587237e-02
2.380000000000000071e+01,7.625231808917141973e-02
2.383999999999999986e+01,5.908491869845653582e-02
2.387999999999999901e+01,4.760034467048685630e-02
2.392000000000000171e+01,4.701547367491373808e-02
2.396000000000000085e+01,2.547008098407634730e-02
2.400000000000000000e+01,2.479235392125309426e-02
2.403999999999999915e+01,3.697065623544638219e-02
2.407999999999999829e+01,2.762948238309736668e-02
2.412000000000000099e+01,1.800898041661524659e-02
2.416000000000000014e+01,2.357346836671738236e-02
2.419999999999999929e+01,2.671597946249877620e-02
2.423999999999999844e+01,1.737538938074834061e-02
2.428000000000000114e+01,1.800290730745593773e-02
2.432000000000000028e+01,1.909636021183236387e-02
2.435999999999999943e+01,1.841994186457165950e-02
2.439999999999999858e+01,2.044526154542938845e-02
2.444000000000000128e+01,2.340230576878448571e-02
2.448000000000000043e+01,1.704363311395199615e-02
2.451999999999999957e+01,1.664724451417552709e-02
2.455999999999999872e+01,1.904574825277937505e-02
2.460000000000000142e+01,1.818383760224207002e-02
2.464000000000000057e+01,1.322308456431230475e-02
2.467999999999999972e+01,1.217512327075011801e-02
2.471999999999999886e+01,2.519423447426600432e-02
2.476000000000000156e+01,2.265599861688642053e-02
2.480000000000000071e+01,1.760261146216757222e-02
2.483999999999999986e+01,1.618253616713044921e-02
2.487999999999999901e+01,1.681207634362786446e-02
2.492000000000000171e+01,2.219282884541307066e-02
2.496000000000000085e+01,2.030733982579880151e-02
2.500000000000000000e+01,2.345253665844567251e-02
2.503999999999999915e+01,1.709568468076839987e-02
2.507999999999999829e+01,1.753952886211713677e-02
2.512000000000000099e+01,1.490926197675469800e-02
2.516000000000000014e+01,3.063134917456436512e-02
2.519999999999999929e+01,2.474077198776939226e-02
2.523999999999999844e+01,2.360139864931207199e-02
2.528000000000000114e+01,1.696578773850760183e-02
2.532000000000000028e+01,2.076405002975807365e-02
2.535999999999999943e+01,2.623928088217008722e-02
2.539999999999999858e+01,2.277140468011090713e-02
2.544000000000000128e+01,1.948995814018435885e-02
2.548000000000000043e+01,2.272972151688513326e-02
2.551999999999999957e+01,3.081383987332929342e-02
2.555999999999999872e+01,7.131002496270827384e-03
2.560000000000000142e+01,9.998459835430923565e-03
2.564000000000000057e+01,2.348609899716985402e-02
2.567999999999999972e+01,2.560850141994513648e-02
2.571999999999999886e+01,1.291879974087031986e-02
2.576000000000000156e+01,1.094243525425502017e-02
2.580000000000000071e+01,5.426148943724893800e-03
2.583999999999999986e+01,2.003221112885017474e-02
2.587999999999999901e+01,1.759035980396316673e-02
2.592000000000000171e+01,1.598703526694238500e-02
2.596000000000000085e+01,1.587434629932774760e-02
2.600000000000000000e+01,1.492332812307643058e-02
2.603999999999999915e+01,1.853717550531362029e-02
2.607999999999999829e+01,2.000847187735908111e-02
2.612000000000000099e+01,2.241144828791389113e-02
2.616000000000000014e+01,2.211292027661761195e-02
2.619999999999999929e+01,1.445495934700333565e-02
2.623999999999999844e+01,1.518135917599928823e-02
2.628000000000000114e+01,2.224263063177350438e-02
2.632000000000000028e+01,1.225597692172906115e-02
2.635999999999999943e+01,1.372791289975840677e-02
2.639999999999999858e+01,1.883311941233777043e-02
2.644000000000000128e+01,1.592677680772774940e-02
2.648000000000000043e+01,2.364059377370256870e-02
2.651999999999999957e+01,2.101389578482637521e-02
2.655999999999999872e+01,1.419514599812003210e-02
2.660000000000000142e+01,2.256132149125357131e-02
2.664000000000000057e+01,1.853749077846653451e-02
2.667999999999999972e+01,1.553848381826319382e-02
2.671999999999999886e+01,1.533431197702701462e-02
2.676000000000000156e+01,1.783181564640236652e-02
2.680000000000000071e+01,2.209940827940077776e-02
2.683999999999999986e+01,1.611963602933503062e-02
2.687999999999999901e+01,1.684735370671400223e-02
2.692000000000000171e+01,2.288518202086440786e-02
2.696000000000000085e+01,1.243401950771772131e-02
2.700000000000000000e+01,1.847199136054082994e-02
2.703999999999999915e+01,1.202678786251874625e-02
2.707999999999999829e+01,1.070537366531916154e-02
2.712000000000000099e+01,1.441458916058632050e-02
2.716000000000000014e+01,1.467700535363764512e-02
2.719999999999999929e+01,5.903108260636566809e-03
2.723999999999999844e+01,2.740580438896334306e-02
2.728000000000000114e+01,2.384891472924226957e-02
2.732000000000000028e+01,2.588160075631588258e-02
2.735999999999999943e+01,2.260431120834057589e-02
2.739999999999999858e+01,1.914076520623067199e-02
2.744000000000000128e+01,2.126679171205922425e-02
2.748000000000000043e+01,2.162286431598718639e-02
2.751999999999999957e+01,6.514675294062031823e-03
2.755999999999999872e+01,1.795672906703619717e-02
2.760000000000000142e+01,3.966554380064392892e-03
2.764000000000000057e+01,1.121658309074727647e-02
2.767999999999999972e+01,1.259767645700941331e-02
2.771999999999999886e+01,2.143150588861795353e-02
2.776000000000000156e+01,1.666423831140013273e-02
2.780000000000000071e+01,2.689554712798527050e-02
2.783999999999999986e+01,1.765676824607773088e-02
2.787999999999999901e+01,1.587072119104152371e-02
2.792000000000000171e+01,1.445735519924864175e-02
2.796000000000000085e+01,2.766992716783582898e-02
2.800000000000000000e+01,2.690876157493620954e-02
2.803999999999999915e+01,2.437762724547335239e-02
2.807999999999999829e+01,2.249864538698965674e-02
2.812000000000000099e+01,3.580454854283277033e-02
2.816000000000000014e+01,2.395768405027824677e-02
2.819999999999999929e+01,3.502786199798116340e-02
2.823999999999999844e+01,4.134699235144417839e-02
2.828000000000000114e+01,5.064723359621658982e-02
2.832000000000000028e+01,6.413964580626023426e-02
2.835999999999999943e+01,6.719833577025288718e-02
2.839999999999999858e+01,8.823665979334997800e-02
2.844000000000000128e+01,1.111381878844378557e-01
2.848000000000000043e+01,1.456845666012791252e-01
2.851999999999999957e+01,1.728714509419140843e-01
2.855999999999999872e+01,2.144047817024369029e-01
2.860000000000000142e+01,2.582671050361602938e-01
2.864000000000000057e+01,2.885283080494444596e-01
2.867999999999999972e+01,2.855319358991711409e-01
2.871999999999999886e+01,2.642765138723729423e-01
2.876000000000000156e+01,2.501011661658854024e-01
2.880000000000000071e+01,2.032271914094059273e-01
2.883999999999999986e+01,1.602658981969427576e-01
2.887999999999999901e+01,1.311852501837325047e-01
2.892000000000000171e+01,9.837828059887004928e-02
2.896000000000000085e+01,8.494830846950382486e-02
2.900000000000000000e+01,5.055768113290939891e-02
2.903999999999999915e+01,5.072889257669901258e-02
2.907999999999999829e+01,4.121163109119557050e-02
2.912000000000000099e+01,2.508012772510013338e-02
2.916000000000000014e+01,3.298354395325549249e-02
2.919999999999999929e+01,2.877636180610040548e-02
2.923999999999999844e+01,3.388504643351811924e-02
2.928000000000000114e+01,1.989623941111544683e-02
2.932000000000000028e+01,1.745910221373521420e-02
2.935999999999999943e+01,1.986621827269710594e-02
2.939999999999999858e+01,1.770857310594895970e-02
2.944000000000000128e+01,2.058149617377937057e-02
2.948000000000000043e+01,1.637437508076416276e-02
2.951999999999999957e+01,1.188778282508292511e-02
2.955999999999999872e+01,2.007075662155511850e-02
2.960000000000000142e+01,1.455942611800090103e-02
2.964000000000000057e+01,1.519656113577495110e-02
2.967999999999999972e+01,1.937372125062357744e-02
2.971999999999999886e+01,1.218553760501365005e-02
2.976000000000000156e+01,2.668388366811921385e-03
2.980000000000000071e+01,1.187610449095372750e-02
2.983999999999999986e+01,6.271607372512955601e-03
2.987999999999999901e+01,1.016927717221864300e-02
2.992000000000000171e+01,0.000000000000000000e+00
2.996000000000000085e+01,1.414509687586771626e-02
3.000000000000000000e+01,9.751634321199204730e-03
3.003999999999999915e+01,1.961142043178732558e-02
3.007999999999999829e+01,1.270265741860405161e-02
3.012000000000000099e+01,1.501657931964378578e-02
3.016000000000000014e+01,1.034359759505589643e-02
3.019999999999999929e+01,1.247117639829245332e-02
3.023999999999999844e+01,7.052898164242020311e-03
3.028000000000000114e+01,1.765787466373801642e-02
3.032000000000000028e+01,1.671117441102006745e-02
3.035999999999999943e+01,1.269022428153318907e-02
3.039999999999999858e+01,1.118453613987654451e-02
3.044000000000000128e+01,1.135568198779865826e-02
3.048000000000000043e+01,1.087469704725668382e-02
3.051999999999999957e+01,2.157271594822633351e-02
3.055999999999999872e+01,1.168267251178390330e-02
3.060000000000000142e+01,6.543690934765035785e-03
3.064000000000000057e+01,1.919796698072602156e-02
3.067999999999999972e+01,7.910469755887893778e-03
3.071999999999999886e+01,1.208726431636797383e-02
3.076000000000000156e+01,2.166722633895536848e-02
3.080000000000000071e+01,1.252229064115733571e-02
3.083999999999999986e+01,1.101632545591622013e-02
3.087999999999999901e+01,1.975776908824824346e-02
3.092000000000000171e+01,1.191695844228880981e-02
3.096000000000000085e+01,1.124932238634514595e-02
3.100000000000000000e+01,1.812749405574637374e-02
3.103999999999999915e+01,1.419923828969165899e-02
3.107999999999999829e+01,1.390412908279179370e-02
3.112000000000000099e+01,1.808059231406069362e-02
3.116000000000000014e+01,1.331379590575663616e-02
3.119999999999999929e+01,2.671287648071766357e-02
3.123999999999999844e+01,2.753551189612655353e-02
3.128000000000000114e+01,1.792434771331485183e-02
3.132000000000000028e+01,2.852854540712515194e-02
3.135999999999999943e+01,2.096678183830916545e-02
3.139999999999999858e+01,1.722447344917183917e-02
3.144000000000000128e+01,2.559273001768432032e-02
3.148000000000000043e+01,2.557666976209553231e-02
3.151999999999999957e+01,2.742373198385287397e-02
3.155999999999999872e+01,2.908442755112438521e-02
3.160000000000000142e+01,3.540299993861342059e-02
3.164000000000000057e+01,2.653667720572774197e-02
3.167999999999999972e+01,2.819721774425085550e-02
3.171999999999999886e+01,2.715610657391502245e-02
3.176000000000000156e+01,3.710764929943531631e-02
3.180000000000000071e+01,3.532115896937350341e-02
3.183999999999999986e+01,3.884464894297542936e-02
3.187999999999999901e+01,3.081642083923168129e-02
3.192000000000000171e+01,3.433979368529080367e-02
3.196000000000000085e+01,2.817461730950601012e-02
3.200000000000000000e+01,2.471097763427489158e-02
3.203999999999999915e+01,2.804784974440512751e-02
3.207999999999999829e+01,2.681988963436826232e-02
3.211999999999999744e+01,2.997031692329412203e-02
3.215999999999999659e+01,2.827643422660446049e-02
3.220000000000000284e+01,2.239035032583924084e-02
3.224000000000000199e+01,2.414319985097428123e-02
3.228000000000000114e+01,2.412596831995731175e-02
3.232000000000000028e+01,2.867343598728324186e-02
3.235999999999999943e+01,1.691808687625311752e-02
3.239999999999999858e+01,1.876381407181395775e-02
3.243999999999999773e+01,1.567206531569093758e-02
3.247999999999999687e+01,2.068503637144040314e-02
3.252000000000000313e+01,2.616372518301249631e-02
3.256000000000000227e+01,2.800915454636194318e-02
3.260000000000000142e+01,1.848916385670196574e-02
3.264000000000000057e+01,1.558335196064796618e-02
3.267999999999999972e+01,2.022330328595085824e-02
3.271999999999999886e+01,2.234789350939968972e-02
3.275999999999999801e+01,8.821766199463601868e-03
3.279999999999999716e+01,1.634938849888803447e-02
3.284000000000000341e+01,1.055525486411418648e-02
3.288000000000000256e+01,1.761691643061036663e-02
3.292000000000000171e+01,2.654166338779604534e-02
3.296000000000000085e+01,8.916137311278125865e-03
3.300000000000000000e+01,2.156705187098641868e-02
3.303999999999999915e+01,1.959198551608511141e-02
3.307999999999999829e+01,1.053677963464957207e-02
3.311999999999999744e+01,2.234899778815052640e-02
3.315999999999999659e+01,7.331461963643148838e-03
3.320000000000000284e+01,1.262239676241297924e-02
3.324000000000000199e+01,1.660901781786535553e-02
3.328000000000000114e+01,1.183864017142432189e-02
3.332000000000000028e+01,7.161324893482825214e-03
3.335999999999999943e+01,2.353774439023914242e-02
3.339999999999999858e+01,1.150070822274618966e-02
3.343999999999999773e+01,8.406793374908115915e-03
3.347999999999999687e+01,2.366501220953961399e-02
3.352000000000000313e+01,2.029141981844689510e-02
3.356000000000000227e+01,1.607929795077143315e-02
3.360000000000000142e+01,2.258030559027812342e-02
3.364000000000000057e+01,1.380320657973504485e-02
3.367999999999999972e+01,2.104927223514359291e-02
3.371999999999999886e+01,1.851358349674575576e-02
3.375999999999999801e+01,3.125578891516633123e-02
3.379999999999999716e+01,2.797461505516630684e-02
3.384000000000000341e+01,2.711545350704602092e-02
3.388000000000000256e+01,1.526347219306378386e-02
3.392000000000000171e+01,2.017991757721628726e-02
3.396000000000000085e+01,1.652566334343039470e-02
3.400000000000000000e+01,2.190767414337366562e-02
3.403999999999999915e+01,2.626482565383515821e-02
3.407999999999999829e+01,2.270338420866068255e-02
3.411999999999999744e+01,2.445186266888050089e-02
3.415999999999999659e+01,2.955393045139960775e-02
3.420000000000000284e+01,2.189315756510431740e-02
3.424000000000000199e+01,2.215074076998203162e-02
3.428000000000000114e+01,2.054503138903272103e-02
3.432000000000000028e+01,2.145448015327492894e-02
3.435999999999999943e+01,2.590383003919654453e-02
3.439999999999999858e+01,3.296149449980911861e-02
3.443999999999999773e+01,2.436839692304881150e-02
3.447999999999999687e+01,1.940835583784859472e-02
3.452000000000000313e+01,2.572037118102077011e-02
3.456000000000000227e+01,2.541800053544937543e-02
3.460000000000000142e+01,3.331345209069305063e-02
3.464000000000000057e+01,2.909816116247468040e-02
3.467999999999999972e+01,2.693222609919417726e-02
3.471999999999999886e+01,2.383457228164990657e-02
3.475999999999999801e+01,3.042527320623704748e-02
3.479999999999999716e+01,3.254422840531825956e-02
3.484000000000000341e+01,1.975767936073467151e-02
3.488000000000000256e+01,2.960852015386435804e-02
3.492000000000000171e+01,2.846651363104423654e-02
3.496000000000000085e+01,2.816279442225010435e-02
3.500000000000000000e+01,2.413259257975193181e-02
3.503999999999999915e+01,2.382859094288811846e-02
3.507999999999999829e+01,2.613288586719634057e-02
3.511999999999999744e+01,3.030020790316206511e-02
3.515999999999999659e+01,1.695357785387793109e-02
3.520000000000000284e+01,1.711479138913440945e-02
3.524000000000000199e+01,1.979113869835090120e-02
3.528000000000000114e+01,2.815000937896545985e-02
3.532000000000000028e+01,2.020598486943559619e-02
3.535999999999999943e+01,3.024141004534563679e-02
3.539999999999999858e+01,1.540335142807298940e-02
3.543999999999999773e+01,2.711532686080345839e-02
3.547999999999999687e+01,2.177913447501874170e-02
3.552000000000000313e+01,3.237289946398566598e-02
3.556000000000000227e+01,2.992431211088936518e-02
3.560000000000000142e+01,2.794136092297101401e-02
3.564000000000000057e+01,2.931195985145771538e-02
3.567999999999999972e+01,2.965765604609338704e-02
3.571999999999999886e+01,2.841949715483748501e-02
3.575999999999999801e+01,3.360911730945021630e-02
3.579999999999999716e+01,3.469959944303578625e-02
3.584000000000000341e+01,3.821204090756297883e-02
3.588000000000000256e+01,3.343320753866206585e-02
3.592000000000000171e+01,3.284634380746759980e-02
3.596000000000000085e+01,3.579933881320200573e-02
3.600000000000000000e+01,4.014954487529642096e-02
3.603999999999999915e+01,3.639478896296158977e-02
3.607999999999999829e+01,3.506198602385580260e-02
3.611999999999999744e+01,3.438112257235796665e-02
3.615999999999999659e+01,4.012802757054116654e-02
3.620000000000000284e+01,3.245992907781308084e-02
3.624000000000000199e+01,3.410751192637440088e-02
3.628000000000000114e+01,3.836335954754486327e-02
3.632000000000000028e+01,3.190579841231980934e-02
3.635999999999999943e+01,3.886289158395427740e-02
3.639999999999999858e+01,3.603815936732532310e-02
3.643999999999999773e+01,3.982750528051998140e-02
3.647999999999999687e+01,3.923821951295760474e-02
3.652000000000000313e+01,4.097771651408094878e-02
3.656000000000000227e+01,4.253071440837318667e-02
3.660000000000000142e+01,4.324510229505679898e-02
3.664000000000000057e+01,3.930137861629742074e-02
3.667999999999999972e+01,3.908381169880321276e-02
3.671999999999999886e+01,3.085442334209778301e-02
3.675999999999999801e+01,3.315176368521839667e-02
3.679999999999999716e+01,2.780991466483812360e-02
3.684000000000000341e+01,2.843002333693509659e-02
3.688000000000000256e+01,2.196989181871545835e-02
3.692000000000000171e+01,3.078757074743201580e-02
3.696000000000000085e+01,3.513344673122945072e-02
3.700000000000000000e+01,3.118801821227344673e-02
3.703999999999999915e+01,2.482027270137403263e-02
3.707999999999999829e+01,2.860661321840270513e-02
3.711999999999999744e+01,2.913220768561775378e-02
3.715999999999999659e+01,1.633593177980822986e-02
3.720000000000000284e+01,1.946956874476228616e-02
3.724000000000000199e+01,2.157826165073362459e-02
3.728000000000000114e+01,3.216418140927385094e-02
3.732000000000000028e+01,1.685182247682421794e-02
3.735999999999999943e+01,2.156834832108955186e-02
3.739999999999999858e+01,1.687565648157029335e-02
3.743999999999999773e+01,2.112597999982968738e-02
3.747999999999999687e+01,2.220870648044359283e-02
3.752000000000000313e+01,1.565222452441889997e-02
3.756000000000000227e+01,2.195141379426911524e-02
3.760000000000000142e+01,1.343818425549692282e-02
3.764000000000000057e+01,1.871220931073179147e-02
3.767999999999999972e+01,1.914177815296195725e-02
3.771999999999999886e+01,1.221160890667061759e-02
3.775999999999999801e+01,2.102502059900628051e-02
3.779999999999999716e+01,2.238553353484596525e-02
3.784000000000000341e+01,1.107626792530088701e-02
3.788000000000000256e+01,1.374056764952419178e-02
3.792000000000000171e+01,2.544102856483798983e-02
3.796000000000000085e+01,1.990693886779941468e-02
3.800000000000000000e+01,1.847160515955471177e-02
3.803999999999999915e+01,1.889922121079791809e-02
3.807999999999999829e+01,1.709080981748382563e-02
3.811999999999999744e+01,1.910167558789640022e-02
3.815999999999999659e+01,1.505701129629858845e-02
3.820000000000000284e+01,8.683157832550246133e-03
3.824000000000000199e+01,2.112710470032360538e-02
3.828000000000000114e+01,1.512543134521395632e-02
3.832000000000000028e+01,1.415409098931774516e-02
3.835999999999999943e+01,2.240521726617954179e-02
3.839999999999999858e+01,1.444652531098923783e-02
3.843999999999999773e+01,9.002882360257995556e-03
3.847999999999999687e+01,2.265650902954674875e-02
3.852000000000000313e+01,2.233611945761428824e-02
3.856000000000000227e+01,1.847547004338186485e-02
3.860000000000000142e+01,1.144719392217862126e-02
3.864000000000000057e+01,2.100090236662228299e-02
3.867999999999999972e+01,1.304056547936500998e-02
3.871999999999999886e+01,1.216003906734670383e-02
3.875999999999999801e+01,1.006821123335878074e-02
3.879999999999999716e+01,1.570830159653107544e-02
3.884000000000000341e+01,2.274552778313123150e-02
3.888000000000000256e+01,1.869664320278719913e-02
3.892000000000000171e+01,2.489495445664514917e-02
3.896000000000000085e+01,2.112505540916497296e-02
3.900000000000000000e+01,2.331705683474886298e-02
3.903999999999999915e+01,2.662671313945592227e-02
3.907999999999999829e+01,2.248343677986658351e-02
3.911999999999999744e+01,2.327731367837843068e-02
3.915999999999999659e+01,2.295303710747000070e-02
3.920000000000000284e+01,2.039270342267895247e-02
3.924000000000000199e+01,1.773895818533667221e-02
3.928000000000000114e+01,2.225816713730770918e-02
3.932000000000000028e+01,2.556605983264644347e-02
3.935999999999999943e+01,2.039626841025082502e-02
3.939999999999999858e+01,3.357845384674802702e-02
3.943999999999999773e+01,1.853334071403683544e-02
3.947999999999999687e+01,2.081545828487428237e-02
3.952000000000000313e+01,2.850051126131011164e-02
3.956000000000000227e+01,2.817366756560264404e-02
3.960000000000000142e+01,2.058019452802881469e-02
3.964000000000000057e+01,2.556286196994338872e-02
3.967999999999999972e+01,2.896156942370895632e-02
3.971999999999999886e+01,2.583891274664757223e-02
3.975999999999999801e+01,2.551074575283701282e-02
3.979999999999999716e+01,3.664081241519622639e-02
3.984000000000000341e+01,3.575315739239128682e-02
3.988000000000000256e+01,3.104573191365638321e-02
3.992000000000000171e+01,3.090280430569955147e-02
3.996000000000000085e+01,4.044809368943513839e-02
4.000000000000000000e+01,3.462194939500077423e-02
4.003999999999999915e+01,4.752039920050690064e-02
4.007999999999999829e+01,4.569952304976431651e-02
4.011999999999999744e+01,3.875465040306166897e-02
4.015999999999999659e+01,4.159114799869456647e-02
4.020000000000000284e+01,5.970536915252517424e-02
4.024000000000000199e+01,5.425019798162040302e-02
4.028000000000000114e+01,6.435222389588669822e-02
4.032000000000000028e+01,7.110026044210145113e-02
4.035999999999999943e+01,7.384219671948713537e-02
4.039999999999999858e+01,7.770175184895809772e-02
4.043999999999999773e+01,9.069055996227448624e-02
4.047999999999999687e+01,1.032132894799102085e-01
4.052000000000000313e+01,1.357648200643787328e-01
4.056000000000000227e+01,1.530380606847516201e-01
4.060000000000000142e+01,2.067360048304256737e-01
4.064000000000000057e+01,2.531672920841455121e-01
4.067999999999999972e+01,3.438485988378340297e-01
4.071999999999999886e+01,4.475718102049891511e-01
4.075999999999999801e+01,5.832481105195960192e-01
4.079999999999999716e+01,7.225572999059987067e-01
4.084000000000000341e+01,8.511529607990856450e-01
4.088000000000000256e+01,9.725751169912424388e-01
4.092000000000000171e+01,1.000000000000000000e+00
4.096000000000000085e+01,9.646357225926218693e-01
4.100000000000000000e+01,8.726307479261297129e-01
4.103999999999999915e+01,7.492310416486217539e-01
4.107999999999999829e+01,5.803696618411974262e-01
4.111999999999999744e+01,4.561309240728833592e-01
4.115999999999999659e+01,3.529457144536085611e-01
4.120000000000000284e+01,2.766830204941830296e-01
4.124000000000000199e+01,2.330255126079428252e-01
4.128000000000000114e+01,2.051114924138785767e-01
4.132000000000000028e+01,1.676018335959171268e-01
4.135999999999999943e+01,1.692184560838722318e-01
4.139999999999999858e+01,1.686921217276498020e-01
4.143999999999999773e+01,1.768292211211189568e-01
4.147999999999999687e+01,2.030387666270944136e-01
4.152000000000000313e+01,2.140631552868608733e-01
4.156000000000000227e+01,2.466068542431637811e-01
4.160000000000000142e+01,2.640585527827571943e-01
4.164000000000000057e+01,2.619466395066480380e-01
4.167999999999999972e+01,2.469785288642790400e-01
4.171999999999999886e+01,2.403943689080593749e-01
4.175999999999999801e+01,2.167618747731788753e-01
4.179999999999999716e+01,1.824158267141324785e-01
4.184000000000000341e+01,1.503052619457394268e-01
4.188000000000000256e+01,1.169833131051133263e-01
4.192000000000000171e+01,9.959115210023690434e-02
4.196000000000000085e+01,8.201234893999650999e-02
4.200000000000000000e+01,7.514645276699824517e-02
4.203999999999999915e+01,6.529915585728954253e-02
4.207999999999999829e+01,5.889839701410217593e-02
4.211999999999999744e+01,5.324257726444543704e-02
4.215999999999999659e+01,4.143796294216516712e-02
4.220000000000000284e+01,4.174362854008770857e-02
4.224000000000000199e+01,4.195580311405187890e-02
4.228000000000000114e+01,4.077026592212142780e-02
4.232000000000000028e+01,4.265862624405190873e-02
4.235999999999999943e+01,3.383341780715376501e-02
4.239999999999999858e+01,2.836158041108991987e-02
4.243999999999999773e+01,3.145999172551164347e-02
4.247999999999999687e+01,3.250857613478617264e-02
4.252000000000000313e+01,2.479991707023328912e-02
4.256000000000000227e+01,3.013311387668401314e-02
4.260000000000000142e+01,3.099435833197016280e-02
4.264000000000000057e+01,2.253940484215082377e-02
4.267999999999999972e+01,2.153679112026091885e-02
4.271999999999999886e+01,2.705493061931200927e-02
4.275999999999999801e+01,2.782163788251260789e-02
4.279999999999999716e+01,2.644535121487893298e-02
4.284000000000000341e+01,2.059710583836815365e-02
4.288000000000000256e+01,2.080381670063852564e-02
4.292000000000000171e+01,2.175544546406422974e-02
4.296000000000000085e+01,1.422929474406708049e-02
4.300000000000000000e+01,2.505502551727411403e-02
4.303999999999999915e+01,2.050924208128530879e-02
4.307999999999999829e+01,1.894417747766401205e-02
4.311999999999999744e+01,1.719243998973461404e-02
4.315999999999999659e+01,1.385665032682393411e-02
4.320000000000000284e+01,2.263111409364696944e-02
4.324000000000000199e+01,2.078514433876558001e-02
4.328000000000000114e+01,1.260403324446141698e-02
4.332000000000000028e+01,2.333374645883312323e-02
4.335999999999999943e+01,2.539935249612038787e-02
4.339999999999999858e+01,1.330449592122351019e-02
4.343999999999999773e+01,2.095888741477894626e-02
4.347999999999999687e+01,1.184437481227768388e-02
4.352000000000000313e+01,1.931171750193439243e-02
4.356000000000000227e+01,2.715132694389843851e-02
4.360000000000000142e+01,2.064415137811058398e-02
4.364000000000000057e+01,1.572030157897310113e-02
4.367999999999999972e+01,1.396347181539557038e-02
4.371999999999999886e+01,1.630524651512894191e-02
4.375999999999999801e+01,1.389556248854276026e-02
4.379999999999999716e+01,2.061504243782598736e-02
4.384000000000000341e+01,2.071989056681289298e-02
4.388000000000000256e+01,1.430326436462160331e-02
4.392000000000000171e+01,1.701579895944349552e-02
4.396000000000000085e+01,1.572213791974774386e-02
4.400000000000000000e+01,1.666390295129223376e-02
4.403999999999999915e+01,1.695317798361228173e-02
4.407999999999999829e+01,8.764643863184075345e-03
4.411999999999999744e+01,1.305897299620599993e-02
4.415999999999999659e+01,1.567606491504056759e-02
4.420000000000000284e+01,1.969015066838886857e-02
4.424000000000000199e+01,2.072277740599482929e-02
4.428000000000000114e+01,1.821499277581786064e-02
4.432000000000000028e+01,1.924684542224858186e-02
4.435999999999999943e+01,1.459563796070863229e-02
4.439999999999999858e+01,2.149570084791781882e-02
4.443999999999999773e+01,1.712318858370092539e-02
4.447999999999999687e+01,1.442713838287737298e-02
4.452000000000000313e+01,1.610914709920033272e-02
4.456000000000000227e+01,2.095815253947051413e-02
4.460000000000000142e+01,9.876651152991368018e-03
4.464000000000000057e+01,1.826489040019076138e-02
4.467999999999999972e+01,1.733687766172779116e-02
4.471999999999999886e+01,1.976217450621094510e-02
4.475999999999999801e+01,1.818125452380122201e-02
4.479999999999999716e+01,2.107154458994362281e-02
4.484000000000000341e+01,1.688138360163580001e-02
4.488000000000000256e+01,1.138660052095078964e-02
4.492000000000000171e+01,1.082881705364647715e-02
4.496000000000000085e+01,1.232011712925819118e-02
4.500000000000000000e+01,1.418364581090177275e-02
4.503999999999999915e+01,9.339352334949181655e-03
4.507999999999999829e+01,1.902738475380962371e-02
4.511999999999999744e+01,2.014442192109703114e-02
4.515999999999999659e+01,1.809365860393663886e-02
4.520000000000000284e+01,1.948935070303415076e-02
4.524000000000000199e+01,1.650617906486579259e-02
4.528000000000000114e+01,1.734209491866568753e-02
4.532000000000000028e+01,1.612810863438630948e-02
4.535999999999999943e+01,1.864004917410066672e-02
4.539999999999999858e+01,1.556206060449357408e-02
4.543999999999999773e+01,2.068160707901701978e-02
4.547999999999999687e+01,1.629856327802896993e-02
4.552000000000000313e+01,1.675934464740320984e-02
4.556000000000000227e+01,1.675391284951398274e-02
4.560000000000000142e+01,1.413962020379236698e-02
4.564000000000000057e+01,1.115227082030671550e-02
4.567999999999999972e+01,1.645560867197602348e-02
4.571999999999999886e+01,1.234950843915819454e-02
4.575999999999999801e+01,1.783831300457528607e-02
4.579999999999999716e+01,1.531505559732222223e-02
4.584000000000000341e+01,1.661087084737473962e-02
4.588000000000000256e+01,1.613624477089621242e-02
4.592000000000000171e+01,2.413861666933397876e-02
4.596000000000000085e+01,1.891204362735646877e-02
4.600000000000000000e+01,2.206930789232080387e-02
4.603999999999999915e+01,1.209078364636932343e-02
4.607999999999999829e+01,1.850772977950109269e-02
4.611999999999999744e+01,1.495627593953634780e-02
4.615999999999999659e+01,1.922970387561654532e-02
4.620000000000000284e+01,1.996266958221329726e-02
4.624000000000000199e+01,2.032256265676455828e-02
4.628000000000000114e+01,2.655100480502831789e-02
4.632000000000000028e+01,2.625790798536938378e-02
4.635999999999999943e+01,2.242434469775190717e-02
4.639999999999999858e+01,2.017403406309022096e-02
4.643999999999999773e+01,2.323331697124411330e-02
4.647999999999999687e+01,2.657163073079875371e-02
4.652000000000000313e+01,2.012785101854315528e-02
4.656000000000000227e+01,1.992524715761653104e-02
4.660000000000000142e+01,1.944271967681256152e-02
4.664000000000000057e+01,2.324503640462375481e-02
4.667999999999999972e+01,2.434530512615901490e-02
4.671999999999999886e+01,2.004192686842757448e-02
4.675999999999999801e+01,1.666968188592428055e-02
4.679999999999999716e+01,1.814122816598291374e-02
4.684000000000000341e+01,1.607229526265787148e-02
4.688000000000000256e+01,2.043084683118561590e-02
4.692000000000000171e+01,2.041049015845947806e-02
4.696000000000000085e+01,1.675649257475638615e-02
4.700000000000000000e+01,1.831891515046928445e-02
4.703999999999999915e+01,1.615453614723076289e-02
4.707999999999999829e+01,2.619346633944304170e-02
4.711999999999999744e+01,1.629600535323448562e-02
4.715999999999999659e+01,1.767026595586955115e-02
4.720000000000000284e+01,1.969617253171551327e-02
4.724000000000000199e+01,1.585262560956605254e-02
4.728000000000000114e+01,2.132446757392766554e-02
4.732000000000000028e+01,2.400108602937619032e-02
4.735999999999999943e+01,2.024929651555119892e-02
4.739999999999999858e+01,2.255234350358724729e-02
4.743999999999999773e+01,1.889277314679709344e-02
4.747999999999999687e+01,1.709590247946702474e-02
4.752000000000000313e+01,1.949069416040241295e-02
4.756000000000000227e+01,1.555023112270745300e-02
4.760000000000000142e+01,2.092514849457347698e-02
4.764000000000000057e+01,1.791532095635842495e-02
4.767999999999999972e+01,2.347560331857108731e-02
4.771999999999999886e+01,2.204851688251962052e-02
4.775999999999999801e+01,1.642881705069420412e-02
4.779999999999999716e+01,1.956554103791416366e-02
4.784000000000000341e+01,1.599436869422460328e-02
4.788000000000000256e+01,2.090014240413198832e-02
4.792000000000000171e+01,2.356962800326664609e-02
4.796000000000000085e+01,1.804067731284404036e-02
4.800000000000000000e+01,2.592607258022125091e-02
4.803999999999999915e+01,1.704244295500293230e-02
4.807999999999999829e+01,1.151203390475466666e-02
4.811999999999999744e+01,1.855754069481729135e-02
4.815999999999999659e+01,2.522992399113386727e-02
4.820000000000000284e+01,2.472860867628724410e-02
4.824000000000000199e+01,1.761254498308042690e-02
4.828000000000000114e+01,2.214080740433975458e-02
4.832000000000000028e+01,1.698008721968153820e-02
4.835999999999999943e+01,1.936471488582549097e-02
4.839999999999999858e+01,2.687256707599178923e-02
4.843999999999999773e+01,2.040614023948385258e-02
4.847999999999999687e+01,2.577035131682218691e-02
4.852000000000000313e+01,2.386769675731025345e-02
4.856000000000000227e+01,2.606351844723899316e-02
4.860000000000000142e+01,3.049464435225032743e-02
4.864000000000000057e+01,3.343473146324691531e-02
4.867999999999999972e+01,2.612687513933532185e-02
4.871999999999999886e+01,2.114747840038700213e-02
4.875999999999999801e+01,2.091866245394431376e-02
4.879999999999999716e+01,2.311146252196433562e-02
4.884000000000000341e+01,2.409269414408669874e-02
4.888000000000000256e+01,2.600500288164283441e-02
4.892000000000000171e+01,1.776252037531516129e-02
4.896000000000000085e+01,2.377278533456971335e-02
4.900000000000000000e+01,2.689462373218617572e-02
4.903999999999999915e+01,2.731435160601972806e-02
4.907999999999999829e+01,1.375978349927887284e-02
4.911999999999999744e+01,2.097905703123274443e-02
4.915999999999999659e+01,1.860248425401199099e-02
4.920000000000000284e+01,2.013805367485780803e-02
4.924000000000000199e+01,1.757412904277242532e-02
4.928000000000000114e+01,2.404606467004913317e-02
4.932000000000000028e+01,1.728896634893456810e-02
4.935999999999999943e+01,2.021983600910333412e-02
4.939999999999999858e+01,2.380229336345105612e-02
4.943999999999999773e+01,1.760257989381892180e-02
4.947999999999999687e+01,1.792344056955701148e-02
4.952000000000000313e+01,1.749850752956333758e-02
4.956000000000000227e+01,1.968148746874982813e-02
4.960000000000000142e+01,2.726713578960668002e-02
4.964000000000000057e+01,1.566159456595643540e-02
4.967999999999999972e+01,2.343250191528374257e-02
4.971999999999999886e+01,2.337756054677613687e-02
4.975999999999999801e+01,1.857100150913466863e-02
4.979999999999999716e+01,1.665182473917168476e-02
4.984000000000000341e+01,1.696791933610971789e-02
4.988000000000000256e+01,1.532714954716654296e-02
4.992000000000000171e+01,1.787797852936310466e-02
4.996000000000000085e+01,2.080090472486507969e-02
5.000000000000000000e+01,2.064906077078597704e-02
5.003999999999999915e+01,1.658401866887439582e-02
5.007999999999999829e+01,1.866690062310373543e-02
5.011999999999999744e+01,2.261241233195487865e-02
5.015999999999999659e+01,2.106102738558883469e-02
5.020000000000000284e+01,1.885698925870900669e-02
5.024000000000000199e+01,2.829722532497599974e-02
5.028000000000000114e+01,3.326530559327613851e-02
5.032000000000000028e+01,2.789224043356186566e-02
5.035999999999999943e+01,3.192764111845095010e-02
5.039999999999999858e+01,2.534241860987722361e-02
5.043999999999999773e+01,3.999679551626386664e-02
5.047999999999999687e+01,4.365791291500231708e-02
5.052000000000000313e+01,6.129226080798036436e-02
5.056000000000000227e+01,6.784018852533572896e-02
5.060000000000000142e+01,7.587809908693986249e-02
5.064000000000000057e+01,7.786014898547988228e-02
5.067999999999999972e+01,8.123902106029419479e-02
5.071999999999999886e+01,6.710352885816020518e-02
5.075999999999999801e+01,6.591651675644662201e-02
5.079999999999999716e+01,5.727626152213939614e-02
5.084000000000000341e+01,4.966019003068355975e-02
5.088000000000000256e+01,3.775826394445335604e-02
5.092000000000000171e+01,3.144528836994832377e-02
5.096000000000000085e+01,3.072126224754967092e-02
5.100000000000000000e+01,3.055562288584253924e-02
5.103999999999999915e+01,3.355680858984317477e-02
5.107999999999999829e+01,1.736676660306128370e-02
5.111999999999999744e+01,2.120524488414025910e-02
5.115999999999999659e+01,2.122365389679837719e-02
5.120000000000000284e+01,2.133465162836938392e-02
5.124000000000000199e+01,1.566924844880571502e-02
5.128000000000000114e+01,1.717648157292677585e-02
5.132000000000000028e+01,2.110526395552852000e-02
5.135999999999999943e+01,2.279766710014401870e-02
5.139999999999999858e+01,1.703681121788441430e-02
5.143999999999999773e+01,2.264072209399788788e-02
5.147999999999999687e+01,2.386560393231860686e-02
5.152000000000000313e+01,2.248146809923013550e-02
5.156000000000000227e+01,2.174886274090746113e-02
5.160000000000000142e+01,1.691670081214668650e-02
5.164000000000000057e+01,1.944348274797564821e-02
5.167999999999999972e+01,2.243547488224020142e-02
5.171999999999999886e+01,2.123474871847338616e-02
5.175999999999999801e+01,1.928816950032409550e-02
5.179999999999999716e+01,2.572527394439612369e-02
5.184000000000000341e+01,2.638596158305208522e-02
5.188000000000000256e+01,1.586703552992921665e-02
5.192000000000000171e+01,1.792392465333481413e-02
5.196000000000000085e+01,1.513597927983767119e-02
5.200000000000000000e+01,1.728484596720037889e-02
5.203999999999999915e+01,1.924680347527106539e-02
5.207999999999999829e+01,2.605241237622707429e-02
5.211999999999999744e+01,2.074681574032207279e-02
5.215999999999999659e+01,2.661964969217847296e-02
5.220000000000000284e+01,1.991548324425149522e-02
5.224000000000000199e+01,2.494869655727020158e-02
5.228000000000000114e+01,1.405119959673728838e-02
5.232000000000000028e+01,1.973532481223467736e-02
5.235999999999999943e+01,1.833879976495457129e-02
5.239999999999999858e+01,2.132012488992489005e-02
5.243999999999999773e+01,1.591657795056265756e-02
5.247999999999999687e+01,2.392725829169890100e-02
5.252000000000000313e+01,2.653413800884798709e-02
5.256000000000000227e+01,1.982455699543858932e-02
5.260000000000000142e+01,1.739966230744880923e-02
5.264000000000000057e+01,1.534679383830741921e-02
5.267999999999999972e+01,1.757860957534811835e-02
5.271999999999999886e+01,1.505872923146657841e-02
5.275999999999999801e+01,2.129514131390394457e-02
5.279999999999999716e+01,1.989194018533564992e-02
5.284000000000000341e+01,2.389132160931797810e-02
5.288000000000000256e+01,2.071688044674194554e-02
5.292000000000000171e+01,1.707603114705024891e-02
5.296000000000000085e+01,1.827880992863111301e-02
5.300000000000000000e+01,1.687253183290858549e-02
5.303999999999999915e+01,1.919197711437754458e-02
5.307999999999999829e+01,1.536233854730092822e-02
5.311999999999999744e+01,1.563105543312610229e-02
5.315999999999999659e+01,2.363131011297596798e-02
5.320000000000000284e+01,2.129034307226053760e-02
5.324000000000000199e+01,1.503609311421163879e-02
5.328000000000000114e+01,1.381177985795916871e-02
5.332000000000000028e+01,1.910793902367578095e-02
5.335999999999999943e+01,1.834816547225242428e-02
5.339999999999999858e+01,1.572459283723378135e-02
5.343999999999999773e+01,1.775831847058866736e-02
5.347999999999999687e+01,1.103451029457531464e-02
5.352000000000000313e+01,2.266230493203178972e-02
5.356000000000000227e+01,1.500564763360549142e-02
5.360000000000000142e+01,2.048371230014144756e-02
5.364000000000000057e+01,2.437744717158043736e-02
5.367999999999999972e+01,1.811626470450294207e-02
5.371999999999999886e+01,1.371761662635865610e-02
5.375999999999999801e+01,2.114946659238408494e-02
5.379999999999999716e+01,1.637690796882348976e-02
5.384000000000000341e+01,1.421214894523556080e-02
5.388000000000000256e+01,1.372360297463184539e-02
5.392000000000000171e+01,1.966235498297883022e-02
5.396000000000000085e+01,1.544618223547799228e-02
5.400000000000000000e+01,1.989311051737746583e-02
5.403999999999999915e+01,1.642091709387873480e-02
5.407999999999999829e+01,1.564967546137704599e-02
5.411999999999999744e+01,2.158520215594315547e-02
5.415999999999999659e+01,1.829738428393724858e-02
5.420000000000000284e+01,1.500891711070012104e-02
5.424000000000000199e+01,1.283770216145662009e-02
5.428000000000000114e+01,1.644166581343615291e-02
5.432000000000000028e+01,1.734337907195619699e-02
5.435999999999999943e+01,1.889654863192874110e-02
5.439999999999999858e+01,1.867905116657388870e-02
5.443999999999999773e+01,2.004459337080365111e-02
5.447999999999999687e+01,1.917367368678368766e-02
5.452000000000000313e+01,1.653208379858008698e-02
5.456000000000000227e+01,1.621879879100051117e-02
5.460000000000000142e+01,1.972435438421766066e-02
5.464000000000000057e+01,1.614919931638786679e-02
5.467999999999999972e+01,1.890816354601530108e-02
5.471999999999999886e+01,1.766064710367814400e-02
5.475999999999999801e+01,1.371086861207511907e-02
5.479999999999999716e+01,1.656099898275782342e-02
5.484000000000000341e+01,1.736097502609591434e-02
5.488000000000000256e+01,2.142083296047759405e-02
5.492000000000000171e+01,2.147420492480084028e-02
5.496000000000000085e+01,1.891846809050135719e-02
5.500000000000000000e+01,1.608258511638451307e-02
5.503999999999999915e+01,1.659973834357319003e-02
5.507999999999999829e+01,1.199249877738480310e-02
5.511999999999999744e+01,1.511674508390174580e-02
5.515999999999999659e+01,1.330291357527805043e-02
5.520000000000000284e+01,1.596001661432837337e-02
5.524000000000000199e+01,1.554221069373983369e-02
5.528000000000000114e+01,2.015428849400959649e-02
5.532000000000000028e+01,1.703352777855469263e-02
5.535999999999999943e+01,1.735895333619217468e-02
5.539999999999999858e+01,1.498209989066359021e-02
5.543999999999999773e+01,1.651722334267468131e-02
5.547999999999999687e+01,1.516374857480825775e-02
5.552000000000000313e+01,1.837435842640271905e-02
5.556000000000000227e+01,1.161631823487284040e-02
5.560000000000000142e+01,1.100605587209472352e-02
5.564000000000000057e+01,1.877937544813679249e-02
5.567999999999999972e+01,1.462771227872197016e-02
5.571999999999999886e+01,1.997753151373332647e-02
5.575999999999999801e+01,1.861924461332029393e-02
5.579999999999999716e+01,1.502446085723840169e-02
5.584000000000000341e+01,1.655270453608910508e-02
5.588000000000000256e+01,1.854604715340538515e-02
5.592000000000000171e+01,2.286765862430781282e-02
5.596000000000000085e+01,1.787271929705700965e-02
5.600000000000000000e+01,1.455393686299605478e-02
5.603999999999999915e+01,2.092294545388514657e-02
5.607999999999999829e+01,1.667118038544723041e-02
5.611999999999999744e+01,1.437504467755375617e-02
5.615999999999999659e+01,2.353670924175638862e-02
5.620000000000000284e+01,1.695387678724265962e-02
5.624000000000000199e+01,2.369201346032680233e-02
5.628000000000000114e+01,2.157938360199243566e-02
5.632000000000000028e+01,2.002499957505423506e-02
5.635999999999999943e+01,1.809727483252381725e-02
5.639999999999999858e+01,2.455311189605709904e-02
5.643999999999999773e+01,1.992237302000964688e-02
5.647999999999999687e+01,2.125307156362730293e-02
5.652000000000000313e+01,2.118568111707104518e-02
5.656000000000000227e+01,2.027915191314393420e-02
5.660000000000000142e+01,2.039665386696649929e-02
5.664000000000000057e+01,2.377399108860710902e-02
5.667999999999999972e+01,1.802107553643070986e-02
5.671999999999999886e+01,2.670701898127062629e-02
5.675999999999999801e+01,1.992792621894238017e-02
5.679999999999999716e+01,2.320923854375557538e-02
5.684000000000000341e+01,2.313612387796852923e-02
5.688000000000000256e+01,2.697494796344572510e-02
5.692000000000000171e+01,2.000665904012794566e-02
5.696000000000000085e+01,2.701143001242909888e-02
5.700000000000000000e+01,1.771273148121681879e-02
5.703999999999999915e+01,2.648606687081241778e-02
5.707999999999999829e+01,2.184384564850296376e-02
5.711999999999999744e+01,1.841195890637320476e-02
5.715999999999999659e+01,1.302301492774760559e-02
5.720000000000000284e+01,2.086185609713260558e-02
5.724000000000000199e+01,1.807989287824646532e-02
5.728000000000000114e+01,2.070039459422841691e-02
5.732000000000000028e+01,1.828960272691957864e-02
5.735999999999999943e+01,2.211970061387396463e-02
5.739999999999999858e+01,2.389957635788295467e-02
5.743999999999999773e+01,1.682865484152932731e-02
5.747999999999999687e+01,2.307866960459195593e-02
5.752000000000000313e+01,1.880103111078908554e-02
5.756000000000000227e+01,1.852847190346846792e-02
5.760000000000000142e+01,2.077045414321990885e-02
5.764000000000000057e+01,1.537269495809549281e-02
5.767999999999999972e+01,1.798582947628650855e-02
5.771999999999999886e+01,1.575397691247307913e-02
5.775999999999999801e+01,1.380085638756949930e-02
5.779999999999999716e+01,1.948599219217722958e-02
5.784000000000000341e+01,1.548189320160205280e-02
5.788000000000000256e+01,2.125869504225083584e-02
5.792000000000000171e+01,1.790521126090098905e-02
5.796000000000000085e+01,2.228313811932436730e-02
5.800000000000000000e+01,1.687866739535281296e-02
5.803999999999999915e+01,1.305714097527728261e-02
5.807999999999999829e+01,2.041388831938640777e-02
5.811999999999999744e+01,1.826771054845521478e-02
5.815999999999999659e+01,1.397813195308515374e-02
5.820000000000000284e+01,1.276203020292752607e-02
5.824000000000000199e+01,1.573730682320710964e-02
5.828000000000000114e+01,1.750076492756119304e-02
5.832000000000000028e+01,1.004076826499206675e-02
5.835999999999999943e+01,1.152323277958908210e-02
5.839999999999999858e+01,1.486810770772414511e-02
5.843999999999999773e+01,1.895748940493493032e-02
5.847999999999999687e+01,1.978555921591321209e-02
5.852000000000000313e+01,2.359393884641682732e-02
5.856000000000000227e+01,1.640884492628231009e-02
5.860000000000000142e+01,2.450098713971499489e-02
5.864000000000000057e+01,2.467388579159183679e-02
5.867999999999999972e+01,2.009493047935091356e-02
5.871999999999999886e+01,2.147735324812440408e-02
5.875999999999999801e+01,2.062320074944063927e-02
5.879999999999999716e+01,2.666200969990340994e-02
5.884000000000000341e+01,2.459525269324264185e-02
5.888000000000000256e+01,2.727880839554069556e-02
5.892000000000000171e+01,3.368793171107219153e-02
5.896000000000000085e+01,3.217780298809776868e-02
5.900000000000000000e+01,3.653588638006947942e-02
5.903999999999999915e+01,4.126582645188759529e-02
5.907999999999999829e+01,4.320023148687660020e-02
5.911999999999999744e+01,4.494753979005273320e-02
5.915999999999999659e+01,5.302884871338475054e-02
5.920000000000000284e+01,5.952568055461186780e-02
5.924000000000000199e+01,6.117748504832162121e-02
5.928000000000000114e+01,6.636853052122199115e-02
5.932000000000000028e+01,6.820508330715888134e-02
5.935999999999999943e+01,7.749353400000143222e-02
5.939999999999999858e+01,7.560217179273791277e-02
5.943999999999999773e+01,7.398949712039624982e-02
5.947999999999999687e+01,6.501650792692653669e-02
5.952000000000000313e+01,6.116644868346334668e-02
5.956000000000000227e+01,5.927192767333104573e-02
5.960000000000000142e+01,5.877399254448914534e-02
5.964000000000000057e+01,4.625781121919593508e-02
5.967999999999999972e+01,4.659671515060224284e-02
5.971999999999999886e+01,4.237005466527685865e-02
5.975999999999999801e+01,3.711785355560575511e-02
5.979999999999999716e+01,3.559119674755532176e-02
5.984000000000000341e+01,3.425005832950214768e-02
5.988000000000000256e+01,2.918177819487495495e-02
5.992000000000000171e+01,2.336742884363786701e-02
5.996000000000000085e+01,3.208501120903432119e-02
