2.003999999999999915e+01,1.728487317813787866e-02
2.007999999999999829e+01,1.599741207413626215e-02
2.012000000000000099e+01,8.745178062610449096e-03
2.016000000000000014e+01,1.386647318986344336e-02
2.019999999999999929e+01,1.569362257719037271e-02
2.023999999999999844e+01,2.010200479052335829e-02
2.028000000000000114e+01,2.014799138741596093e-02
2.032000000000000028e+01,1.084641332947958170e-02
2.035999999999999943e+01,1.471955411713759404e-02
2.039999999999999858e+01,2.055078297181745298e-02
2.044000000000000128e+01,1.623326029492039649e-02
2.048000000000000043e+01,1.939312107672516716e-02
2.051999999999999957e+01,1.365052338250697175e-02
2.055999999999999872e+01,2.313012658873643199e-02
2.060000000000000142e+01,1.952329057233638185e-02
2.064000000000000057e+01,1.912083709354640837e-02
2.067999999999999972e+01,1.302067830586224433e-02
2.071999999999999886e+01,1.430888421742870266e-02
2.076000000000000156e+01,1.061155258363909171e-02
2.080000000000000071e+01,1.590496223266456982e-02
2.083999999999999986e+01,1.585675151584060513e-02
2.087999999999999901e+01,1.429481871303874517e-02
2.092000000000000171e+01,1.406783240210161129e-02
2.096000000000000085e+01,9.834540016630173923e-03
2.100000000000000000e+01,1.931009742890590908e-02
2.103999999999999915e+01,1.774669979595670105e-02
2.107999999999999829e+01,1.787433359791712820e-02
2.112000000000000099e+01,1.123601539829593467e-02
2.116000000000000014e+01,1.545788018737205560e-02
2.119999999999999929e+01,1.780994219252828720e-02
2.123999999999999844e+01,2.372247556968345300e-02
2.128000000000000114e+01,1.619249221009416359e-02
2.132000000000000028e+01,1.257906445803142620e-02
2.135999999999999943e+01,1.519673559932215555e-02
2.139999999999999858e+01,1.460929249544644891e-02
2.144000000000000128e+01,1.624700930232298238e-02
2.148000000000000043e+01,1.503569609956068899e-02
2.151999999999999957e+01,1.640562704307824832e-02
2.155999999999999872e+01,1.724107161654243187e-02
2.160000000000000142e+01,1.389217401160399053e-02
2.164000000000000057e+01,1.766458659635514877e-02
2.167999999999999972e+01,1.743069947422613841e-02
2.171999999999999886e+01,1.862078680113566850e-02
2.176000000000000156e+01,1.331199043260850902e-02
2.180000000000000071e+01,1.521352655080784183e-02
2.183999999999999986e+01,1.399897319718746737e-02
2.187999999999999901e+01,1.661195952171092005e-02
2.192000000000000171e+01,1.050054151576619056e-02
2.196000000000000085e+01,2.014546208383448389e-02
2.200000000000000000e+01,1.287605788470999255e-02
2.203999999999999915e+01,1.486446858092378871e-02
2.207999999999999829e+01,1.792077338199278558e-02
2.212000000000000099e+01,1.964140882760457771e-02
2.216000000000000014e+01,1.637651910940988650e-02
2.219999999999999929e+01,1.248812779929599909e-02
2.223999999999999844e+01,1.091392435710836217e-02
2.228000000000000114e+01,1.574886970872637140e-02
2.232000000000000028e+01,1.702262542361422312e-02
2.235999999999999943e+01,8.147646587335948681e-03
2.239999999999999858e+01,1.120111229030198823e-02
2.244000000000000128e+01,1.354205764189759555e-02
2.248000000000000043e+01,1.294496094581568807e-02
2.251999999999999957e+01,1.644247223402249894e-02
2.255999999999999872e+01,1.468739925000054312e-02
2.260000000000000142e+01,2.316937581596573148e-02
2.264000000000000057e+01,1.429192886486188238e-02
2.267999999999999972e+01,1.387111453120975363e-02
2.271999999999999886e+01,1.692176377662066647e-02
2.276000000000000156e+01,1.507591404660613664e-02
2.280000000000000071e+01,8.956711868943220342e-03
2.283999999999999986e+01,1.405379106584770180e-02
2.287999999999999901e+01,1.469947675861557786e-02
2.292000000000000171e+01,1.294124958706587697e-02
2.296000000000000085e+01,6.553587854891434160e-03
2.300000000000000000e+01,1.592227389445266886e-02
2.303999999999999915e+01,1.469712698673025612e-02
2.307999999999999829e+01,9.198630107669282518e-03
2.312000000000000099e+01,1.322502032143571538e-02
2.316000000000000014e+01,1.600477125947010262e-02
2.319999999999999929e+01,1.032719183331811015e-02
2.323999999999999844e+01,1.613295996532702892e-02
2.328000000000000114e+01,8.229166402511648576e-03
2.332000000000000028e+01,1.608172344150038402e-02
2.335999999999999943e+01,8.978427145145184696e-03
2.339999999999999858e+01,2.154840096622683346e-02
2.344000000000000128e+01,8.034911909153235818e-03
2.348000000000000043e+01,1.517392337906254413e-02
2.351999999999999957e+01,1.421169084286446477e-02
2.355999999999999872e+01,2.108295253278799630e-02
2.360000000000000142e+01,9.704590375821746037e-03
2.364000000000000057e+01,1.363747724071495866e-02
2.367999999999999972e+01,1.240681062062174052e-02
2.371999999999999886e+01,1.215503172748210077e-02
2.376000000000000156e+01,1.715514325118059832e-02
2.380000000000000071e+01,1.013709443696610667e-02
2.383999999999999986e+01,1.335610613925405747e-02
2.387999999999999901e+01,7.850730845243344275e-03
2.392000000000000171e+01,2.014919174547554967e-02
2.396000000000000085e+01,1.161642640456885672e-02
2.400000000000000000e+01,1.955218473538278962e-02
2.403999999999999915e+01,1.475761779481404683e-02
2.407999999999999829e+01,1.316746381509154191e-02
2.412000000000000099e+01,1.949982989611316261e-02
2.416000000000000014e+01,1.577249822710651700e-02
2.419999999999999929e+01,1.542762234422709842e-02
2.423999999999999844e+01,7.159550586899664053e-03
2.428000000000000114e+01,1.286742028152925918e-02
2.432000000000000028e+01,1.670551478540668530e-02
2.435999999999999943e+01,1.529104093619062729e-02
2.439999999999999858e+01,1.432133553580784702e-02
2.444000000000000128e+01,9.434375719888074552e-03
2.448000000000000043e+01,1.487350296261044126e-02
2.451999999999999957e+01,7.938392707063359963e-03
2.455999999999999872e+01,1.435608020576480993e-02
2.460000000000000142e+01,1.641141029395037573e-02
2.464000000000000057e+01,1.552871743742079494e-02
2.467999999999999972e+01,1.081779316990821513e-02
2.471999999999999886e+01,2.079498130171783879e-02
2.476000000000000156e+01,1.287863937364647562e-02
2.480000000000000071e+01,1.911628526039862302e-02
2.483999999999999986e+01,2.161472203320475433e-02
2.487999999999999901e+01,1.351934213162096429e-02
2.492000000000000171e+01,2.251564021222323200e-02
2.496000000000000085e+01,1.121484618766619389e-02
2.500000000000000000e+01,1.237664498867573591e-02
2.503999999999999915e+01,1.193573761259501993e-02
2.507999999999999829e+01,1.888323349544807420e-02
2.512000000000000099e+01,1.968795892659401178e-02
2.516000000000000014e+01,7.940410755602221593e-03
2.519999999999999929e+01,1.177118804906161081e-02
2.523999999999999844e+01,1.506751151825516492e-02
2.528000000000000114e+01,1.373442094482054711e-02
2.532000000000000028e+01,1.204491901864247067e-02
2.535999999999999943e+01,1.427200842960553093e-02
2.539999999999999858e+01,1.062339251117931649e-02
2.544000000000000128e+01,1.738989302360333111e-02
2.548000000000000043e+01,2.112935713823918885e-02
2.551999999999999957e+01,9.645924374485546904e-03
2.555999999999999872e+01,1.169333997294971783e-02
2.560000000000000142e+01,1.231609611094880083e-02
2.564000000000000057e+01,1.302754813628607435e-02
2.567999999999999972e+01,1.089000729663323550e-02
2.571999999999999886e+01,9.820392753864601657e-03
2.576000000000000156e+01,8.661433395704513927e-03
2.580000000000000071e+01,1.462382101812447800e-02
2.583999999999999986e+01,1.382029838247297339e-02
2.587999999999999901e+01,1.800162226685554992e-02
2.592000000000000171e+01,1.461584866266015317e-02
2.596000000000000085e+01,2.102204991415783028e-02
2.600000000000000000e+01,1.265046294238185605e-02
2.603999999999999915e+01,9.886870079692527610e-03
2.607999999999999829e+01,1.335441785386685953e-02
2.612000000000000099e+01,1.041214137429022531e-02
2.616000000000000014e+01,1.094135889701279216e-02
2.619999999999999929e+01,8.176483743593561740e-03
2.623999999999999844e+01,1.440239798415370899e-02
2.628000000000000114e+01,7.808985881807830806e-03
2.632000000000000028e+01,8.960071532921699833e-03
2.635999999999999943e+01,1.206929796108295247e-02
2.639999999999999858e+01,1.589037317201342711e-02
2.644000000000000128e+01,1.383575225127712041e-02
2.648000000000000043e+01,1.640989962894280965e-02
2.651999999999999957e+01,2.592735859083733149e-02
2.655999999999999872e+01,1.051865373377836206e-02
2.660000000000000142e+01,1.042122407671242090e-02
2.664000000000000057e+01,8.454039746890839105e-03
2.667999999999999972e+01,9.602270490219272717e-03
2.671999999999999886e+01,9.236830796319718193e-03
2.676000000000000156e+01,1.145268159107161107e-02
2.680000000000000071e+01,1.251094618412304516e-02
2.683999999999999986e+01,1.437008433329054792e-02
2.687999999999999901e+01,1.978974373441400730e-02
2.692000000000000171e+01,6.870787768605576482e-03
2.696000000000000085e+01,1.175569488269072836e-02
2.700000000000000000e+01,1.370259992381576801e-02
2.703999999999999915e+01,1.564919235182596347e-02
2.707999999999999829e+01,1.572603399842458644e-02
2.712000000000000099e+01,1.900731549152014782e-02
2.716000000000000014e+01,1.863842927066875627e-02
2.719999999999999929e+01,1.622175156567626578e-02
2.723999999999999844e+01,7.128196866164684085e-03
2.728000000000000114e+01,9.072921044415432554e-03
2.732000000000000028e+01,4.162727171658894311e-03
2.735999999999999943e+01,8.421374362126686844e-03
2.739999999999999858e+01,1.276873300530927818e-02
2.744000000000000128e+01,1.934130462302829576e-02
2.748000000000000043e+01,8.999599938477327588e-03
2.751999999999999957e+01,7.915758614187525660e-03
2.755999999999999872e+01,1.858236569999104776e-02
2.760000000000000142e+01,2.203797368308667640e-02
2.764000000000000057e+01,1.356447617109369543e-02
2.767999999999999972e+01,1.381471814238039060e-02
2.771999999999999886e+01,1.557800850849239312e-02
2.776000000000000156e+01,1.262288588300438871e-02
2.780000000000000071e+01,1.456360587595869824e-02
2.783999999999999986e+01,1.027255859078539564e-02
2.787999999999999901e+01,1.283581403562936152e-02
2.792000000000000171e+01,9.701428201878621246e-03
2.796000000000000085e+01,1.199701169362022216e-02
2.800000000000000000e+01,7.793766676260555082e-03
2.803999999999999915e+01,1.542999519609956557e-02
2.807999999999999829e+01,7.932370360099558898e-03
2.812000000000000099e+01,1.423267917287314617e-02
2.816000000000000014e+01,1.100745090349039210e-02
2.819999999999999929e+01,6.980732341967355384e-03
2.823999999999999844e+01,1.069852851431493321e-02
2.828000000000000114e+01,1.023204158593952334e-02
2.832000000000000028e+01,9.587211600717942400e-03
2.835999999999999943e+01,9.921310378442899439e-03
2.839999999999999858e+01,1.141238003687821551e-02
2.844000000000000128e+01,9.787418593656338484e-03
2.848000000000000043e+01,1.679718282688267769e-02
2.851999999999999957e+01,1.330218345975082463e-02
2.855999999999999872e+01,4.643673766176972632e-03
2.860000000000000142e+01,8.981914028455809454e-03
2.864000000000000057e+01,1.456614817599900281e-02
2.867999999999999972e+01,8.399327790181432274e-03
2.871999999999999886e+01,1.282569460742127333e-02
2.876000000000000156e+01,1.235561551301983703e-02
2.880000000000000071e+01,1.188523937088022640e-02
2.883999999999999986e+01,1.711190298292916342e-02
2.887999999999999901e+01,1.459345352052839571e-02
2.892000000000000171e+01,8.246810145552108812e-03
2.896000000000000085e+01,1.400671109022929607e-02
2.900000000000000000e+01,1.050814502768778261e-02
2.903999999999999915e+01,1.413095460016967550e-02
2.907999999999999829e+01,1.018669463099994808e-02
2.912000000000000099e+01,1.363087365037860162e-02
2.916000000000000014e+01,9.240921189614859435e-03
2.919999999999999929e+01,1.143822048689303525e-02
2.923999999999999844e+01,6.424535185564263923e-03
2.928000000000000114e+01,7.731039703786673351e-03
2.932000000000000028e+01,6.900750605069082277e-03
2.935999999999999943e+01,1.292477732543554150e-02
2.939999999999999858e+01,1.992774200647108931e-02
2.944000000000000128e+01,1.179686535945869558e-02
2.948000000000000043e+01,1.461526616492684998e-02
2.951999999999999957e+01,8.531288090048123191e-03
2.955999999999999872e+01,9.835752895061980819e-03
2.960000000000000142e+01,7.044967155387991606e-03
2.964000000000000057e+01,7.369622666997543287e-03
2.967999999999999972e+01,1.330230447972283007e-02
2.971999999999999886e+01,1.674211268508322276e-02
2.976000000000000156e+01,1.056737707662706686e-02
2.980000000000000071e+01,1.391758763867796851e-02
2.983999999999999986e+01,1.228234095856602266e-02
2.987999999999999901e+01,6.551846210076193479e-03
2.992000000000000171e+01,1.461930102949519916e-02
2.996000000000000085e+01,1.547577761796139172e-02
3.000000000000000000e+01,1.063463132327805045e-02
3.003999999999999915e+01,5.971240711377151685e-03
3.007999999999999829e+01,1.510580108241932513e-02
3.012000000000000099e+01,1.418071641345886903e-02
3.016000000000000014e+01,1.085178291048032387e-02
3.019999999999999929e+01,9.570045027373659877e-03
3.023999999999999844e+01,7.753897539821245910e-03
3.028000000000000114e+01,5.136278155573715566e-03
3.032000000000000028e+01,9.283962198613032041e-03
3.035999999999999943e+01,7.823047424332478517e-03
3.039999999999999858e+01,8.943455330732343750e-03
3.044000000000000128e+01,1.344637420959490098e-02
3.048000000000000043e+01,1.064929857436331360e-02
3.051999999999999957e+01,5.270335524935430317e-03
3.055999999999999872e+01,9.594367131432506718e-03
3.060000000000000142e+01,1.000119880121097538e-02
3.064000000000000057e+01,1.058579146015031433e-02
3.067999999999999972e+01,1.517604338812206764e-02
3.071999999999999886e+01,1.228826116054580232e-02
3.076000000000000156e+01,9.756282747411353096e-03
3.080000000000000071e+01,7.135004092464099223e-03
3.083999999999999986e+01,3.534216729436331396e-03
3.087999999999999901e+01,1.471061712655178863e-02
3.092000000000000171e+01,5.322915482525745166e-03
3.096000000000000085e+01,1.267086171021780325e-02
3.100000000000000000e+01,1.369804772470596503e-02
3.103999999999999915e+01,9.917828873793405747e-03
3.107999999999999829e+01,1.388214987360925599e-02
3.112000000000000099e+01,1.197081613151000992e-02
3.116000000000000014e+01,1.237374914549595369e-02
3.119999999999999929e+01,1.197521839923372695e-02
3.123999999999999844e+01,1.264466276853703705e-02
3.128000000000000114e+01,1.429306172516183783e-02
3.132000000000000028e+01,1.059993300068011804e-02
3.135999999999999943e+01,1.420624219322352659e-02
3.139999999999999858e+01,1.229298264817233789e-02
3.144000000000000128e+01,6.640572359337542328e-03
3.148000000000000043e+01,1.451906278898758632e-02
3.151999999999999957e+01,8.777085280079503435e-03
3.155999999999999872e+01,4.459169244815967652e-03
3.160000000000000142e+01,1.385019675331819813e-02
3.164000000000000057e+01,1.202432119860891678e-02
3.167999999999999972e+01,1.269075876285140868e-02
3.171999999999999886e+01,9.172943649607131350e-03
3.176000000000000156e+01,1.687148879908929519e-02
3.180000000000000071e+01,0.000000000000000000e+00
3.183999999999999986e+01,1.223806945368246905e-02
3.187999999999999901e+01,1.085567415263385786e-02
3.192000000000000171e+01,1.365699085113830126e-02
3.196000000000000085e+01,4.529240260478706662e-03
3.200000000000000000e+01,1.106889615522829197e-02
3.203999999999999915e+01,8.973258102428206123e-03
3.207999999999999829e+01,1.061622905420230370e-02
3.211999999999999744e+01,9.588305860119895538e-03
3.215999999999999659e+01,1.639395295024966351e-02
3.220000000000000284e+01,1.189368104778515574e-02
3.224000000000000199e+01,3.387202830700422260e-03
3.228000000000000114e+01,8.500653289274363519e-03
3.232000000000000028e+01,1.299069165684506484e-02
3.235999999999999943e+01,1.543298417512904523e-02
3.239999999999999858e+01,1.128746621575081772e-02
3.243999999999999773e+01,1.355326070492631927e-03
3.247999999999999687e+01,1.528051779998810394e-02
3.252000000000000313e+01,1.273658221080539374e-02
3.256000000000000227e+01,8.857069597149777943e-03
3.260000000000000142e+01,7.647920002898075768e-03
3.264000000000000057e+01,1.320409435392974791e-02
3.267999999999999972e+01,8.255541895493507393e-03
3.271999999999999886e+01,1.131860643789457145e-02
3.275999999999999801e+01,1.411434630864705567e-02
3.279999999999999716e+01,6.583402195212590367e-03
3.284000000000000341e+01,1.418574670410132320e-02
3.288000000000000256e+01,9.057844122249258251e-03
3.292000000000000171e+01,9.359954731951067655e-03
3.296000000000000085e+01,8.059429208757714139e-03
3.300000000000000000e+01,1.005241641657227819e-02
3.303999999999999915e+01,8.128225266940470803e-03
3.307999999999999829e+01,1.314740371794140099e-02
3.311999999999999744e+01,5.614378964758211417e-03
3.315999999999999659e+01,6.449058631766965699e-03
3.320000000000000284e+01,1.048823191657383136e-02
3.324000000000000199e+01,1.399302212882695684e-02
3.328000000000000114e+01,3.877359967898646141e-03
3.332000000000000028e+01,6.758489506333177112e-03
3.335999999999999943e+01,4.743213815360895584e-03
3.339999999999999858e+01,8.781101735063650063e-03
3.343999999999999773e+01,6.142167492824131790e-03
3.347999999999999687e+01,8.933251394758321209e-03
3.352000000000000313e+01,1.501785262656175728e-02
3.356000000000000227e+01,8.372212781519925567e-03
3.360000000000000142e+01,5.376174501874928825e-03
3.364000000000000057e+01,9.857636067498355345e-03
3.367999999999999972e+01,1.353765580590433892e-02
3.371999999999999886e+01,1.223225261672795938e-02
3.375999999999999801e+01,1.092659624587489706e-02
3.379999999999999716e+01,1.229131350718258402e-02
3.384000000000000341e+01,8.136483610167789468e-03
3.388000000000000256e+01,1.252740626500433406e-02
3.392000000000000171e+01,1.130976158703289776e-02
3.396000000000000085e+01,7.955364328114515951e-03
3.400000000000000000e+01,9.941968930228532036e-03
3.403999999999999915e+01,1.459894928705465431e-02
3.407999999999999829e+01,1.035359109200981002e-02
3.411999999999999744e+01,1.331867434132821132e-02
3.415999999999999659e+01,1.227756825643729760e-02
3.420000000000000284e+01,9.277753477156090375e-03
3.424000000000000199e+01,1.322131855750594519e-02
3.428000000000000114e+01,9.597860084817073228e-03
3.432000000000000028e+01,1.425309540931575178e-02
3.435999999999999943e+01,1.392291346636904438e-02
3.439999999999999858e+01,1.314737959186950203e-02
3.443999999999999773e+01,1.370691177962825302e-02
3.447999999999999687e+01,1.391011362535392488e-02
3.452000000000000313e+01,9.662024910684199885e-03
3.456000000000000227e+01,6.392919791537946678e-03
3.460000000000000142e+01,9.889155951844525241e-03
3.464000000000000057e+01,9.913332315060313302e-03
3.467999999999999972e+01,3.616781010859744863e-03
3.471999999999999886e+01,8.803678793526994659e-03
3.475999999999999801e+01,9.628309020352802602e-03
3.479999999999999716e+01,1.641709435740063006e-02
3.484000000000000341e+01,1.955577990214521847e-02
3.488000000000000256e+01,5.246129297937726123e-03
3.492000000000000171e+01,1.043180892962736368e-02
3.496000000000000085e+01,8.584596314189587435e-03
3.500000000000000000e+01,1.296860322377447333e-02
3.503999999999999915e+01,1.530488798589621502e-02
3.507999999999999829e+01,1.185457391020298609e-02
3.511999999999999744e+01,8.760102208634677756e-03
3.515999999999999659e+01,1.456747790720211433e-02
3.520000000000000284e+01,8.890919381062092203e-03
3.524000000000000199e+01,1.425271013063802647e-02
3.528000000000000114e+01,1.035608941308927521e-02
3.532000000000000028e+01,1.571740103872107733e-02
3.535999999999999943e+01,7.369257804613932490e-03
3.539999999999999858e+01,8.991214677225464053e-03
3.543999999999999773e+01,1.096901675403039698e-02
3.547999999999999687e+01,1.241245556876102024e-02
3.552000000000000313e+01,4.953568566928847824e-03
3.556000000000000227e+01,8.711075434886384264e-03
3.560000000000000142e+01,1.380365862410047953e-02
3.564000000000000057e+01,1.764971291025347819e-02
3.567999999999999972e+01,1.045694162681486995e-02
3.571999999999999886e+01,1.919867237433948298e-02
3.575999999999999801e+01,1.396388915370289432e-02
3.579999999999999716e+01,1.718585458332589494e-02
3.584000000000000341e+01,1.533339495256759270e-02
3.588000000000000256e+01,1.624034823141782755e-02
3.592000000000000171e+01,1.100462657337238082e-02
3.596000000000000085e+01,1.493782203664176765e-02
3.600000000000000000e+01,1.815861707269289527e-02
3.603999999999999915e+01,2.146819997330793803e-02
3.607999999999999829e+01,1.080127173583027116e-02
3.611999999999999744e+01,1.615786994890404740e-02
3.615999999999999659e+01,2.169227796982008127e-02
3.620000000000000284e+01,1.600982325600056044e-02
3.624000000000000199e+01,2.065355960583995301e-02
3.628000000000000114e+01,1.710714391655024022e-02
3.632000000000000028e+01,1.818958355026845108e-02
3.635999999999999943e+01,1.722431271055599802e-02
3.639999999999999858e+01,1.759412526727129750e-02
3.643999999999999773e+01,2.597558772437005489e-02
3.647999999999999687e+01,1.628558200884079252e-02
3.652000000000000313e+01,2.511169097752217680e-02
3.656000000000000227e+01,1.835891717716626320e-02
3.660000000000000142e+01,2.050800351225430529e-02
3.664000000000000057e+01,2.425923801232935523e-02
3.667999999999999972e+01,2.088857459489245477e-02
3.671999999999999886e+01,1.938712269596757493e-02
3.675999999999999801e+01,2.491809382546572582e-02
3.679999999999999716e+01,2.012241634663296946e-02
3.684000000000000341e+01,2.271524613175086166e-02
3.688000000000000256e+01,2.753337237842554130e-02
3.692000000000000171e+01,2.282603901606864577e-02
3.696000000000000085e+01,2.880098661303534882e-02
3.700000000000000000e+01,2.542851707249285317e-02
3.703999999999999915e+01,3.024574450271747331e-02
3.707999999999999829e+01,2.874226549103936143e-02
3.711999999999999744e+01,3.720890179769802825e-02
3.715999999999999659e+01,3.134295298973462096e-02
3.720000000000000284e+01,3.509103667961458589e-02
3.724000000000000199e+01,2.833443388850260397e-02
3.728000000000000114e+01,3.101382253874585340e-02
3.732000000000000028e+01,3.485026095785850875e-02
3.735999999999999943e+01,3.512564275345985559e-02
3.739999999999999858e+01,4.528212146170529362e-02
3.743999999999999773e+01,4.769356279983302110e-02
3.747999999999999687e+01,3.986738242552804318e-02
3.752000000000000313e+01,4.904397058535304305e-02
3.756000000000000227e+01,5.733013035053836914e-02
3.760000000000000142e+01,5.288608476849307460e-02
3.764000000000000057e+01,5.930236792367214044e-02
3.767999999999999972e+01,6.723178755955815100e-02
3.771999999999999886e+01,6.519065025157073923e-02
3.775999999999999801e+01,7.454396803409905903e-02
3.779999999999999716e+01,8.051427484846551685e-02
3.784000000000000341e+01,9.182561748468620610e-02
3.788000000000000256e+01,9.717234428218593512e-02
3.792000000000000171e+01,1.010054996948546169e-01
3.796000000000000085e+01,1.127612975687294211e-01
3.800000000000000000e+01,1.251400259333533826e-01
3.803999999999999915e+01,1.385867895524982574e-01
3.807999999999999829e+01,1.601342384581301848e-01
3.811999999999999744e+01,1.904055191780260892e-01
3.815999999999999659e+01,2.155133744735346080e-01
3.820000000000000284e+01,2.452501017187033172e-01
3.824000000000000199e+01,2.891409356415721166e-01
3.828000000000000114e+01,3.227941549271792776e-01
3.832000000000000028e+01,3.647261033858302248e-01
3.835999999999999943e+01,4.176074078313622429e-01
3.839999999999999858e+01,4.658594142670738347e-01
3.843999999999999773e+01,5.160696683149184061e-01
3.847999999999999687e+01,5.677040450366384050e-01
3.852000000000000313e+01,6.265489021161632088e-01
3.856000000000000227e+01,6.869959243410863614e-01
3.860000000000000142e+01,7.612409728995256364e-01
3.864000000000000057e+01,8.271178485265858749e-01
3.867999999999999972e+01,9.098194611827690181e-01
3.871999999999999886e+01,9.691083725566458362e-01
3.875999999999999801e+01,9.870913857194467678e-01
3.879999999999999716e+01,1.000000000000000000e+00
3.884000000000000341e+01,9.586056680046105560e-01
3.888000000000000256e+01,9.043921211002621252e-01
3.892000000000000171e+01,8.327302737765759355e-01
3.896000000000000085e+01,7.452225022633582885e-01
3.900000000000000000e+01,6.691982176891745349e-01
3.903999999999999915e+01,5.909482045793784666e-01
3.907999999999999829e+01,5.270303473402173644e-01
3.911999999999999744e+01,4.658719316651082076e-01
3.915999999999999659e+01,4.386302666087293911e-01
3.920000000000000284e+01,4.065812688536962205e-01
3.924000000000000199e+01,3.772917137239906182e-01
3.928000000000000114e+01,3.405242001430691112e-01
3.932000000000000028e+01,3.251214942335415303e-01
3.935999999999999943e+01,3.151488584706961804e-01
3.939999999999999858e+01,2.959178476778578926e-01
3.943999999999999773e+01,2.898617244734474352e-01
3.947999999999999687e+01,2.748142895925691498e-01
3.952000000000000313e+01,2.591435062972285430e-01
3.956000000000000227e+01,2.538879643095101057e-01
3.960000000000000142e+01,2.440031349247281378e-01
3.964000000000000057e+01,2.300231437886571528e-01
3.967999999999999972e+01,2.134613462491002644e-01
3.971999999999999886e+01,2.049112276181287440e-01
3.975999999999999801e+01,1.967169923972752477e-01
3.979999999999999716e+01,1.938638103324453743e-01
3.984000000000000341e+01,1.915445541492559189e-01
3.988000000000000256e+01,1.673259619368031026e-01
3.992000000000000171e+01,1.634929530000937548e-01
3.996000000000000085e+01,1.577012863102268958e-01
4.000000000000000000e+01,1.444316675367980640e-01
4.003999999999999915e+01,1.308057675937761288e-01
4.007999999999999829e+01,1.165565241889117420e-01
4.011999999999999744e+01,1.178857382004417226e-01
4.015999999999999659e+01,1.114699388974361716e-01
4.020000000000000284e+01,1.014040872057744430e-01
4.024000000000000199e+01,9.169412316933342466e-02
4.028000000000000114e+01,9.533709591425537644e-02
4.032000000000000028e+01,8.633890824953147081e-02
4.035999999999999943e+01,8.152450722741691469e-02
4.039999999999999858e+01,7.377222264146005015e-02
4.043999999999999773e+01,6.860134952958242549e-02
4.047999999999999687e+01,6.316322002145842440e-02
4.052000000000000313e+01,5.843706417287557880e-02
4.056000000000000227e+01,4.952673382744787745e-02
4.060000000000000142e+01,5.174382104338591526e-02
4.064000000000000057e+01,4.888652564996995298e-02
4.067999999999999972e+01,5.074714502124760829e-02
4.071999999999999886e+01,4.432863073859378417e-02
4.075999999999999801e+01,4.627788809025847050e-02
4.079999999999999716e+01,4.315276424760338542e-02
4.084000000000000341e+01,3.530934309239763119e-02
4.088000000000000256e+01,3.423131875673874475e-02
4.092000000000000171e+01,3.564568925825915141e-02
4.096000000000000085e+01,3.599161967061230427e-02
4.100000000000000000e+01,3.544715211156201917e-02
4.103999999999999915e+01,3.436837046287734981e-02
4.107999999999999829e+01,2.999562773623541678e-02
4.111999999999999744e+01,3.212122130568383777e-02
4.115999999999999659e+01,3.006264568466585768e-02
4.120000000000000284e+01,2.738073650704508574e-02
4.124000000000000199e+01,2.852653822671153902e-02
4.128000000000000114e+01,2.468698387916357789e-02
4.132000000000000028e+01,2.378493231639367683e-02
4.135999999999999943e+01,2.519723771814198071e-02
4.139999999999999858e+01,2.429481457403040098e-02
4.143999999999999773e+01,2.837737556203300676e-02
4.147999999999999687e+01,2.418080961751677832e-02
4.152000000000000313e+01,1.766951618841633778e-02
4.156000000000000227e+01,2.869515231507629299e-02
4.160000000000000142e+01,2.351880407225920289e-02
4.164000000000000057e+01,2.021171086025713368e-02
4.167999999999999972e+01,2.553946006502832988e-02
4.171999999999999886e+01,1.680172712966123902e-02
4.175999999999999801e+01,2.177302759273435848e-02
4.179999999999999716e+01,2.425156128352795593e-02
4.184000000000000341e+01,1.925215916365339425e-02
4.188000000000000256e+01,1.941578683124244031e-02
4.192000000000000171e+01,1.966825436590383461e-02
4.196000000000000085e+01,1.947543682938042420e-02
4.200000000000000000e+01,1.705691693537813441e-02
4.203999999999999915e+01,1.864415677783951703e-02
4.207999999999999829e+01,1.408877616222358777e-02
4.211999999999999744e+01,1.923649243875662565e-02
4.215999999999999659e+01,1.913179778475568998e-02
4.220000000000000284e+01,2.143048840620538284e-02
4.224000000000000199e+01,2.052424909069869643e-02
4.228000000000000114e+01,1.792643518603889013e-02
4.232000000000000028e+01,2.120382201620782392e-02
4.235999999999999943e+01,2.065313379667768276e-02
4.239999999999999858e+01,1.885597645928321908e-02
4.243999999999999773e+01,1.866101858186705945e-02
4.247999999999999687e+01,1.472700759803013092e-02
4.252000000000000313e+01,1.916078381388837751e-02
4.256000000000000227e+01,2.350536379295069256e-02
4.260000000000000142e+01,1.903670145271812650e-02
4.264000000000000057e+01,1.812869974531450615e-02
4.267999999999999972e+01,2.318492283856933567e-02
4.271999999999999886e+01,1.782552879775762059e-02
4.275999999999999801e+01,1.878644379313204604e-02
4.279999999999999716e+01,1.725460086019093425e-02
4.284000000000000341e+01,1.634573122278486570e-02
4.288000000000000256e+01,2.193521344684581931e-02
4.292000000000000171e+01,1.888949794568564253e-02
4.296000000000000085e+01,2.278723942352273851e-02
4.300000000000000000e+01,2.250082798378718468e-02
4.303999999999999915e+01,2.719941482650822459e-02
4.307999999999999829e+01,1.712036450086104958e-02
4.311999999999999744e+01,2.066133871944249994e-02
4.315999999999999659e+01,2.438018465361434239e-02
4.320000000000000284e+01,2.373683767500108649e-02
4.324000000000000199e+01,2.879065780365823793e-02
4.328000000000000114e+01,2.467515809890551831e-02
4.332000000000000028e+01,2.412032504087727527e-02
4.335999999999999943e+01,2.872853485937940446e-02
4.339999999999999858e+01,2.345525884972630287e-02
4.343999999999999773e+01,2.806313317025991086e-02
4.347999999999999687e+01,2.946608852035256104e-02
4.352000000000000313e+01,3.238223199990204054e-02
4.356000000000000227e+01,2.977891428445929994e-02
4.360000000000000142e+01,2.966801510801944652e-02
4.364000000000000057e+01,2.946792924626480750e-02
4.367999999999999972e+01,3.781368260720881919e-02
4.371999999999999886e+01,3.262809680795842465e-02
4.375999999999999801e+01,3.572128829291591062e-02
4.379999999999999716e+01,3.747900215955608100e-02
4.384000000000000341e+01,3.683298817760596172e-02
4.388000000000000256e+01,3.494051816685822542e-02
4.392000000000000171e+01,4.907164358958131245e-02
4.396000000000000085e+01,4.388507464449048490e-02
4.400000000000000000e+01,4.501882570210113260e-02
4.403999999999999915e+01,5.345212681820071116e-02
4.407999999999999829e+01,5.529772075413783711e-02
4.411999999999999744e+01,6.248440605202321835e-02
4.415999999999999659e+01,6.432967722530007204e-02
4.420000000000000284e+01,6.706499636791089791e-02
4.424000000000000199e+01,6.926602972157221150e-02
4.428000000000000114e+01,7.930074054828961660e-02
4.432000000000000028e+01,8.007711985731706672e-02
4.435999999999999943e+01,8.824207293690461418e-02
4.439999999999999858e+01,9.596176252457948308e-02
4.443999999999999773e+01,1.098237342422947738e-01
4.447999999999999687e+01,1.144273758573543798e-01
4.452000000000000313e+01,1.275768641240424273e-01
4.456000000000000227e+01,1.281742503614947404e-01
4.460000000000000142e+01,1.396320268901608819e-01
4.464000000000000057e+01,1.478848947073843623e-01
4.467999999999999972e+01,1.593423576711127942e-01
4.471999999999999886e+01,1.674168708669104277e-01
4.475999999999999801e+01,1.838591910728825940e-01
4.479999999999999716e+01,1.914882884162806831e-01
4.484000000000000341e+01,2.122923211055124382e-01
4.488000000000000256e+01,2.180516698995033087e-01
4.492000000000000171e+01,2.230986971544348940e-01
4.496000000000000085e+01,2.474631016746571543e-01
4.500000000000000000e+01,2.428065448865014964e-01
4.503999999999999915e+01,2.632537234013245242e-01
4.507999999999999829e+01,2.606443404094628824e-01
4.511999999999999744e+01,2.703196864197185412e-01
4.515999999999999659e+01,2.675319565891193241e-01
4.520000000000000284e+01,2.543286315574844747e-01
4.524000000000000199e+01,2.516296189491899482e-01
4.528000000000000114e+01,2.344200512752559473e-01
4.532000000000000028e+01,2.201480217619560253e-01
4.535999999999999943e+01,2.084574472350383401e-01
4.539999999999999858e+01,1.962325971781693212e-01
4.543999999999999773e+01,1.706544649367292554e-01
4.547999999999999687e+01,1.659960904354883526e-01
4.552000000000000313e+01,1.625838591056244509e-01
4.556000000000000227e+01,1.467085554724914254e-01
4.560000000000000142e+01,1.424058180305573518e-01
4.564000000000000057e+01,1.380139115912365211e-01
4.567999999999999972e+01,1.254319362460483700e-01
4.571999999999999886e+01,1.199714840532034726e-01
4.575999999999999801e+01,1.139767595142343326e-01
4.579999999999999716e+01,1.036198650567865948e-01
4.584000000000000341e+01,9.958330687493410771e-02
4.588000000000000256e+01,9.314303888617793403e-02
4.592000000000000171e+01,9.898750697471023208e-02
4.596000000000000085e+01,9.183478100554318124e-02
4.600000000000000000e+01,8.797568273891633039e-02
4.603999999999999915e+01,8.705412900057768466e-02
4.607999999999999829e+01,8.355082546012290723e-02
4.611999999999999744e+01,8.253996274546028522e-02
4.615999999999999659e+01,7.823518388017763892e-02
4.620000000000000284e+01,7.259494862209128763e-02
4.624000000000000199e+01,6.935813436907019291e-02
4.628000000000000114e+01,7.208557675497800910e-02
4.632000000000000028e+01,6.626687236714499940e-02
4.635999999999999943e+01,6.739165502778690642e-02
4.639999999999999858e+01,5.676553987011048741e-02
4.643999999999999773e+01,5.824612362457857323e-02
4.647999999999999687e+01,5.260489613238206880e-02
4.652000000000000313e+01,5.274988563766060817e-02
4.656000000000000227e+01,5.351788133802032332e-02
4.660000000000000142e+01,4.306910628087026738e-02
4.664000000000000057e+01,4.419290661264173303e-02
4.667999999999999972e+01,4.407027567871488888e-02
4.671999999999999886e+01,3.620268944665643029e-02
4.675999999999999801e+01,3.527859380065853645e-02
4.679999999999999716e+01,3.880540439840619860e-02
4.684000000000000341e+01,3.262880135524011405e-02
4.688000000000000256e+01,3.161527231935770677e-02
4.692000000000000171e+01,2.855412620230469989e-02
4.696000000000000085e+01,3.181332626608666947e-02
4.700000000000000000e+01,2.590323939600489705e-02
4.703999999999999915e+01,2.871706322834619365e-02
4.707999999999999829e+01,2.280670524435399887e-02
4.711999999999999744e+01,2.197040250819425750e-02
4.715999999999999659e+01,2.416067508756503113e-02
4.720000000000000284e+01,2.394724953406461923e-02
4.724000000000000199e+01,2.587019118358559883e-02
4.728000000000000114e+01,2.405412217771306024e-02
4.732000000000000028e+01,1.938925169023187831e-02
4.735999999999999943e+01,2.567381678530793535e-02
4.739999999999999858e+01,1.673567850792716596e-02
4.743999999999999773e+01,1.678851711656294612e-02
4.747999999999999687e+01,1.728632829272153115e-02
4.752000000000000313e+01,1.751694533414047128e-02
4.756000000000000227e+01,1.819253565059936531e-02
4.760000000000000142e+01,1.664247313577790766e-02
4.764000000000000057e+01,1.535934283950826824e-02
4.767999999999999972e+01,1.434314511554898169e-02
4.771999999999999886e+01,1.608646501373222487e-02
4.775999999999999801e+01,1.195427733356162030e-02
4.779999999999999716e+01,1.681306972323460408e-02
4.784000000000000341e+01,1.152335290594473476e-02
4.788000000000000256e+01,1.210888599592358471e-02
4.792000000000000171e+01,1.162604055072474774e-02
4.796000000000000085e+01,1.345761044020664030e-02
4.800000000000000000e+01,1.235136397997280491e-02
4.803999999999999915e+01,1.658624355002615014e-02
4.807999999999999829e+01,1.485659748979152768e-02
4.811999999999999744e+01,1.116836584314573680e-02
4.815999999999999659e+01,1.273224040606019819e-02
4.820000000000000284e+01,1.447403125814370264e-02
4.824000000000000199e+01,1.096346495099448197e-02
4.828000000000000114e+01,1.154773444864704880e-02
4.832000000000000028e+01,1.293306747076272342e-02
4.835999999999999943e+01,5.861292642826744677e-03
4.839999999999999858e+01,6.801273489083874135e-03
4.843999999999999773e+01,9.254485977100806310e-03
4.847999999999999687e+01,7.256531366460045561e-03
4.852000000000000313e+01,9.175372919167172278e-03
4.856000000000000227e+01,3.171233682631232221e-03
4.860000000000000142e+01,1.514919067337550974e-02
4.864000000000000057e+01,6.652223220023304774e-03
4.867999999999999972e+01,1.359886289032205542e-03
4.871999999999999886e+01,1.173510371452869336e-02
4.875999999999999801e+01,1.098259036748031395e-02
4.879999999999999716e+01,7.915413919905779638e-03
4.884000000000000341e+01,1.116860027981859092e-02
4.888000000000000256e+01,9.881602196656666393e-03
4.892000000000000171e+01,1.171021587640459771e-02
4.896000000000000085e+01,4.636622602466158524e-03
4.900000000000000000e+01,4.862623253078202437e-03
4.903999999999999915e+01,9.361508193909925599e-03
4.907999999999999829e+01,8.608043404438697060e-03
4.911999999999999744e+01,6.964252456551891547e-03
4.915999999999999659e+01,6.566636872071092250e-03
4.920000000000000284e+01,8.394426706783784248e-03
4.924000000000000199e+01,9.955037618374946648e-03
4.928000000000000114e+01,4.304841164398160239e-03
4.932000000000000028e+01,3.016552358953618600e-03
4.935999999999999943e+01,7.603526549844548572e-03
4.939999999999999858e+01,3.822422970409045887e-03
4.943999999999999773e+01,1.018958543095228007e-02
4.947999999999999687e+01,9.969088468738769235e-03
4.952000000000000313e+01,9.926519469726797357e-03
4.956000000000000227e+01,9.260690849651267986e-03
4.960000000000000142e+01,1.135439647837059932e-02
4.964000000000000057e+01,7.483590273385833103e-03
4.967999999999999972e+01,7.974694900760338767e-03
4.971999999999999886e+01,7.664499558100293375e-03
4.975999999999999801e+01,6.018879307148445983e-03
4.979999999999999716e+01,4.907273023718586313e-03
4.984000000000000341e+01,5.664994291608664752e-03
4.988000000000000256e+01,4.998270830480023262e-03
4.992000000000000171e+01,4.420457988135898658e-03
4.996000000000000085e+01,4.287639646345361988e-03
5.000000000000000000e+01,8.071630556969456444e-03
5.003999999999999915e+01,7.137405519511834037e-03
5.007999999999999829e+01,1.038705308799385725e-02
5.011999999999999744e+01,5.980796309824566205e-03
5.015999999999999659e+01,7.716872249169867519e-03
5.020000000000000284e+01,7.939485407562278663e-03
5.024000000000000199e+01,8.785137306823473033e-03
5.028000000000000114e+01,3.310199504506994555e-03
5.032000000000000028e+01,7.805493760852361303e-03
5.035999999999999943e+01,8.383762837208151228e-03
5.039999999999999858e+01,1.011919736148270133e-02
5.043999999999999773e+01,8.649774469305837946e-03
5.047999999999999687e+01,9.405768316596400253e-03
5.052000000000000313e+01,2.950965764834387935e-03
5.056000000000000227e+01,5.487167692256671517e-03
5.060000000000000142e+01,8.468369780369491145e-03
5.064000000000000057e+01,8.867862394842091975e-03
5.067999999999999972e+01,9.623334995519738574e-03
5.071999999999999886e+01,6.283743836029610612e-03
5.075999999999999801e+01,1.540697332261905042e-02
5.079999999999999716e+01,6.725923928153119437e-03
5.084000000000000341e+01,4.632317675110454898e-03
5.088000000000000256e+01,9.393217563257462085e-03
5.092000000000000171e+01,7.922554291966419845e-03
5.096000000000000085e+01,9.745562589277088211e-03
5.100000000000000000e+01,7.473509602729890879e-03
5.103999999999999915e+01,6.714711252248951705e-03
5.107999999999999829e+01,6.935042599577082197e-03
5.111999999999999744e+01,6.621149004428117379e-03
5.115999999999999659e+01,9.422886982668444988e-03
5.120000000000000284e+01,9.197816029875221372e-03
5.124000000000000199e+01,1.039698059993843758e-02
5.128000000000000114e+01,9.459545766511551906e-03
5.132000000000000028e+01,4.516073361297887230e-03
5.135999999999999943e+01,7.940466336421356242e-03
5.139999999999999858e+01,9.495323615338247328e-03
5.143999999999999773e+01,1.131714671987020353e-02
5.147999999999999687e+01,5.572098387544577314e-03
5.152000000000000313e+01,7.393728912566613007e-03
5.156000000000000227e+01,6.811699864400561598e-03
5.160000000000000142e+01,5.428387472852336942e-03
5.164000000000000057e+01,1.365923528598789877e-02
5.167999999999999972e+01,1.049531550494563203e-02
5.171999999999999886e+01,6.352071677791605760e-03
5.175999999999999801e+01,7.817049426478792779e-03
5.179999999999999716e+01,6.700327960524026481e-03
5.184000000000000341e+01,7.096868205806744143e-03
5.188000000000000256e+01,8.205482578061832830e-03
5.192000000000000171e+01,9.759108785039981651e-03
5.196000000000000085e+01,7.395723962370972723e-03
5.200000000000000000e+01,8.682103434036790926e-03
5.203999999999999915e+01,1.005741227369080434e-02
5.207999999999999829e+01,8.138857318991755962e-03
5.211999999999999744e+01,1.147244359595050826e-02
5.215999999999999659e+01,8.129373269973426061e-03
5.220000000000000284e+01,7.901943715108170410e-03
5.224000000000000199e+01,1.079015528511332103e-02
5.228000000000000114e+01,1.002842130154768703e-02
5.232000000000000028e+01,7.753243286232894098e-03
5.235999999999999943e+01,6.902310699014253641e-03
5.239999999999999858e+01,4.804997433571475685e-03
5.243999999999999773e+01,6.090389707799757912e-03
5.247999999999999687e+01,5.862339365313138512e-03
5.252000000000000313e+01,6.969514983954293481e-03
5.256000000000000227e+01,7.898561923437056112e-03
5.260000000000000142e+01,1.042989817757257812e-02
5.264000000000000057e+01,9.934438235982799570e-03
5.267999999999999972e+01,1.291070683861805790e-02
5.271999999999999886e+01,9.032282026932101499e-03
5.275999999999999801e+01,1.325467233112499928e-02
5.279999999999999716e+01,1.062236992851382095e-02
5.284000000000000341e+01,1.110571395715141685e-02
5.288000000000000256e+01,1.105484860868861594e-02
5.292000000000000171e+01,1.109292041090242410e-02
5.296000000000000085e+01,1.193209677357234821e-02
5.300000000000000000e+01,7.251895428270416048e-03
5.303999999999999915e+01,1.040544902914937106e-02
5.307999999999999829e+01,1.551737971779430444e-02
5.311999999999999744e+01,1.288441170967736041e-02
5.315999999999999659e+01,9.806257682772608064e-03
5.320000000000000284e+01,9.576690624935791166e-03
5.324000000000000199e+01,9.881167957857154432e-03
5.328000000000000114e+01,9.384376805255884371e-03
5.332000000000000028e+01,9.332609868927314173e-03
5.335999999999999943e+01,9.814888384632581772e-03
5.339999999999999858e+01,6.024085077988385051e-03
5.343999999999999773e+01,1.264864583318690665e-02
5.347999999999999687e+01,1.010397696340853933e-02
5.352000000000000313e+01,9.161605544729814823e-03
5.356000000000000227e+01,8.130135172859391871e-03
5.360000000000000142e+01,9.057046487616243410e-03
5.364000000000000057e+01,1.238744425277206983e-02
5.367999999999999972e+01,8.774136211809538746e-03
5.371999999999999886e+01,1.468598588897335362e-02
5.375999999999999801e+01,1.427727664155429600e-02
5.379999999999999716e+01,7.191925295300414384e-03
5.384000000000000341e+01,1.310354712655106141e-02
5.388000000000000256e+01,9.934963752413055252e-03
5.392000000000000171e+01,1.246364193908118187e-02
5.396000000000000085e+01,1.089728502002497434e-02
5.400000000000000000e+01,1.591839918931827608e-02
5.403999999999999915e+01,1.417385250032551433e-02
5.407999999999999829e+01,9.135459704907721024e-03
5.411999999999999744e+01,1.086258082312043481e-02
5.415999999999999659e+01,1.285669182253032679e-02
5.420000000000000284e+01,1.004360278274619989e-02
5.424000000000000199e+01,9.188901089726374954e-03
5.428000000000000114e+01,1.420950590534494386e-02
5.432000000000000028e+01,7.212220300832334827e-03
5.435999999999999943e+01,1.178757836064350285e-02
5.439999999999999858e+01,7.549798459935159328e-03
5.443999999999999773e+01,1.248109911699675674e-02
5.447999999999999687e+01,1.207107691915848720e-02
5.452000000000000313e+01,9.524483972273527568e-03
5.456000000000000227e+01,9.737469140244949667e-03
5.460000000000000142e+01,1.288807454083659015e-02
5.464000000000000057e+01,1.301190143363095859e-02
5.467999999999999972e+01,1.375880633449430741e-02
5.471999999999999886e+01,1.414955989515633526e-02
5.475999999999999801e+01,1.142451512729412456e-02
5.479999999999999716e+01,1.261632206287381826e-02
5.484000000000000341e+01,1.095939402345427749e-02
5.488000000000000256e+01,9.213378704875549788e-03
5.492000000000000171e+01,1.387680084708800034e-02
5.496000000000000085e+01,1.346596702551119615e-02
5.500000000000000000e+01,1.020639964396938444e-02
5.503999999999999915e+01,1.317822902048921413e-02
5.507999999999999829e+01,1.508174318461370962e-02
5.511999999999999744e+01,1.217806544599109135e-02
5.515999999999999659e+01,1.167788760059276787e-02
5.520000000000000284e+01,6.815622969977582109e-03
5.524000000000000199e+01,1.192363391032718462e-02
5.528000000000000114e+01,1.516214346905064674e-02
5.532000000000000028e+01,1.003262761371463349e-02
5.535999999999999943e+01,7.751717830408866652e-03
5.539999999999999858e+01,1.045591564095497798e-02
5.543999999999999773e+01,6.483485856767284491e-03
5.547999999999999687e+01,1.070091612604315810e-02
5.552000000000000313e+01,1.260374272623111108e-02
5.556000000000000227e+01,1.263707042110284208e-02
5.560000000000000142e+01,1.160208750244052373e-02
5.564000000000000057e+01,1.038900314402902737e-02
5.567999999999999972e+01,1.398298709177410101e-02
5.571999999999999886e+01,1.410509767318984808e-02
5.575999999999999801e+01,8.618834073971777185e-03
5.579999999999999716e+01,1.141145424028843815e-02
5.584000000000000341e+01,1.411499561765136752e-02
5.588000000000000256e+01,1.530512444777702534e-02
5.592000000000000171e+01,1.026373433828472841e-02
5.596000000000000085e+01,1.430241734738506472e-02
5.600000000000000000e+01,1.095231065835037924e-02
5.603999999999999915e+01,1.597011073940439452e-02
5.607999999999999829e+01,1.377716359384581306e-02
5.611999999999999744e+01,1.559010070776426816e-02
5.615999999999999659e+01,1.535550245873964353e-02
5.620000000000000284e+01,1.369651537454892251e-02
5.624000000000000199e+01,1.426299597105834711e-02
5.628000000000000114e+01,1.411725549593980181e-02
5.632000000000000028e+01,1.370439871296497483e-02
5.635999999999999943e+01,1.257932156587931657e-02
5.639999999999999858e+01,1.109810793645184084e-02
5.643999999999999773e+01,1.175334287451471928e-02
5.647999999999999687e+01,1.338775526779238841e-02
5.652000000000000313e+01,1.155030136991194722e-02
5.656000000000000227e+01,1.309558944883433204e-02
5.660000000000000142e+01,1.312747134817360273e-02
5.664000000000000057e+01,1.360440682574607686e-02
5.667999999999999972e+01,1.764212710540235055e-02
5.671999999999999886e+01,1.669462786864863921e-02
5.675999999999999801e+01,1.254232710929610757e-02
5.679999999999999716e+01,1.595675190342129082e-02
5.684000000000000341e+01,1.429693736040955551e-02
5.688000000000000256e+01,1.504063792224025718e-02
5.692000000000000171e+01,1.293562190451686203e-02
5.696000000000000085e+01,1.528160198521343917e-02
5.700000000000000000e+01,1.433376178385993745e-02
5.703999999999999915e+01,1.472118751835153720e-02
5.707999999999999829e+01,1.608779601443630428e-02
5.711999999999999744e+01,1.772142056985177155e-02
5.715999999999999659e+01,1.721849772428557870e-02
5.720000000000000284e+01,1.226448489942790106e-02
5.724000000000000199e+01,1.176147064930012365e-02
5.728000000000000114e+01,1.624358061967659528e-02
5.732000000000000028e+01,1.671970608205041245e-02
5.735999999999999943e+01,1.497026503023270519e-02
5.739999999999999858e+01,1.562434368211873363e-02
5.743999999999999773e+01,1.405285652733033810e-02
5.747999999999999687e+01,1.381663919973123017e-02
5.752000000000000313e+01,1.491569205307998955e-02
5.756000000000000227e+01,1.423428457104315356e-02
5.760000000000000142e+01,1.755877443755013770e-02
5.764000000000000057e+01,1.741140791813874239e-02
5.767999999999999972e+01,1.512749859660696139e-02
5.771999999999999886e+01,1.773969650492091682e-02
5.775999999999999801e+01,1.696905997059481447e-02
5.779999999999999716e+01,1.664348727350021748e-02
5.784000000000000341e+01,1.560570730136148949e-02
5.788000000000000256e+01,1.803970186206073009e-02
5.792000000000000171e+01,1.477632046308584128e-02
5.796000000000000085e+01,1.623100665250279406e-02
5.800000000000000000e+01,2.089040579002552842e-02
5.803999999999999915e+01,1.780494974308933012e-02
5.807999999999999829e+01,1.658889412173662065e-02
5.811999999999999744e+01,1.697517663371805180e-02
5.815999999999999659e+01,1.949792292480793596e-02
5.820000000000000284e+01,1.694644190655201013e-02
5.824000000000000199e+01,1.804478036896632262e-02
5.828000000000000114e+01,1.522616369558608615e-02
5.832000000000000028e+01,1.730365955843006162e-02
5.835999999999999943e+01,1.261553276891249145e-02
5.839999999999999858e+01,1.415883245317565466e-02
5.843999999999999773e+01,1.285342900071003228e-02
5.847999999999999687e+01,1.680022302751334531e-02
5.852000000000000313e+01,1.816537727111289593e-02
5.856000000000000227e+01,1.401120297918053217e-02
5.860000000000000142e+01,1.911516691791105213e-02
5.864000000000000057e+01,2.234965919073449506e-02
5.867999999999999972e+01,1.596986341718080113e-02
5.871999999999999886e+01,1.804701899754202962e-02
5.875999999999999801e+01,1.415974340115099157e-02
5.879999999999999716e+01,1.872941986619196600e-02
5.884000000000000341e+01,1.528718557593736552e-02
5.888000000000000256e+01,1.727519406654257419e-02
5.892000000000000171e+01,2.042044335563997573e-02
5.896000000000000085e+01,2.134014028088829923e-02
5.900000000000000000e+01,1.629540815193574951e-02
5.903999999999999915e+01,1.917350491495079315e-02
5.907999999999999829e+01,2.027115478540558735e-02
5.911999999999999744e+01,1.887619106103767194e-02
5.915999999999999659e+01,1.970672084174485486e-02
5.920000000000000284e+01,2.035918066721476016e-02
5.924000000000000199e+01,1.834098619513237216e-02
5.928000000000000114e+01,1.810318187938763160e-02
5.932000000000000028e+01,1.786535043368655748e-02
5.935999999999999943e+01,1.691532515576668616e-02
5.939999999999999858e+01,1.747862844945228047e-02
5.943999999999999773e+01,1.857603096647296448e-02
5.947999999999999687e+01,2.136480452662149060e-02
5.952000000000000313e+01,1.783307010341991100e-02
5.956000000000000227e+01,1.982060535697627648e-02
5.960000000000000142e+01,2.118496978286783794e-02
5.964000000000000057e+01,2.210420549885842509e-02
5.967999999999999972e+01,2.168810403868026704e-02
5.971999999999999886e+01,1.566366341996583075e-02
5.975999999999999801e+01,1.907541305491777806e-02
5.979999999999999716e+01,1.901532540691363432e-02
5.984000000000000341e+01,2.011248669384859897e-02
5.988000000000000256e+01,1.978529169140506166e-02
5.992000000000000171e+01,2.114947162343349882e-02
5.996000000000000085e+01,1.948692009755320642e-02
