2.003999999999999915e+01,1.936421196370056302e-02
2.007999999999999829e+01,2.312817170791055602e-02
2.012000000000000099e+01,1.575456315050357062e-02
2.016000000000000014e+01,1.768049323852371665e-02
2.019999999999999929e+01,2.109852839373559802e-02
2.023999999999999844e+01,1.360862682241323340e-02
2.028000000000000114e+01,2.609607916184048318e-02
2.032000000000000028e+01,1.137183638594115205e-02
2.035999999999999943e+01,8.587883919884341591e-03
2.039999999999999858e+01,2.497758009117128503e-02
2.044000000000000128e+01,1.507410395453531032e-02
2.048000000000000043e+01,1.412572395197728668e-02
2.051999999999999957e+01,1.662131061300903614e-02
2.055999999999999872e+01,1.716454967252929384e-02
2.060000000000000142e+01,1.793693042099850712e-02
2.064000000000000057e+01,2.192364858658793145e-02
2.067999999999999972e+01,2.039874894796519719e-02
2.071999999999999886e+01,2.484375243196115801e-02
2.076000000000000156e+01,1.723267218087247074e-02
2.080000000000000071e+01,2.018410404409792455e-02
2.083999999999999986e+01,2.026466937942574334e-02
2.087999999999999901e+01,2.091882473657651065e-02
2.092000000000000171e+01,2.042434242284248830e-02
2.096000000000000085e+01,2.888496090040740608e-02
2.100000000000000000e+01,1.311908620044493178e-02
2.103999999999999915e+01,1.916761607136172052e-02
2.107999999999999829e+01,1.637489106285209411e-02
2.112000000000000099e+01,1.231871511857907629e-02
2.116000000000000014e+01,1.503615300375507613e-02
2.119999999999999929e+01,7.075293887612956953e-03
2.123999999999999844e+01,1.403992895962133218e-02
2.128000000000000114e+01,2.318557080989196162e-02
2.132000000000000028e+01,2.532700339554334878e-02
2.135999999999999943e+01,1.633087971073443612e-02
2.139999999999999858e+01,1.663430670250545806e-02
2.144000000000000128e+01,1.487057942561585515e-02
2.148000000000000043e+01,2.148788195841130552e-02
2.151999999999999957e+01,1.294909758459813869e-02
2.155999999999999872e+01,1.795802803910167417e-02
2.160000000000000142e+01,1.550349112414889548e-02
2.164000000000000057e+01,1.787071420428182691e-02
2.167999999999999972e+01,1.415225315580934291e-02
2.171999999999999886e+01,1.720741137021023631e-02
2.176000000000000156e+01,1.176576691907591822e-02
2.180000000000000071e+01,2.101999167874163410e-02
2.183999999999999986e+01,1.718480633358405313e-02
2.187999999999999901e+01,2.150102426835416580e-02
2.192000000000000171e+01,1.376116972299003607e-02
2.196000000000000085e+01,1.325419759065872213e-02
2.200000000000000000e+01,2.078381469717318838e-02
2.203999999999999915e+01,1.981663185486459700e-02
2.207999999999999829e+01,2.803419108147807079e-02
2.212000000000000099e+01,2.511420141156438940e-02
2.216000000000000014e+01,2.242336856656726787e-02
2.219999999999999929e+01,1.686168238913154580e-02
2.223999999999999844e+01,2.369956558386906650e-02
2.228000000000000114e+01,3.444069334022183126e-02
2.232000000000000028e+01,2.290719921798853656e-02
2.235999999999999943e+01,1.941029782751644422e-02
2.239999999999999858e+01,2.785370654007552141e-02
2.244000000000000128e+01,1.436694015451549580e-02
2.248000000000000043e+01,1.787235368523085524e-02
2.251999999999999957e+01,2.309952520381341676e-02
2.255999999999999872e+01,2.178176031047943453e-02
2.260000000000000142e+01,2.941911212061562586e-02
2.264000000000000057e+01,2.075223583711885075e-02
2.267999999999999972e+01,1.989232497942265351e-02
2.271999999999999886e+01,1.420970734302643215e-02
2.276000000000000156e+01,1.794146878405635664e-02
2.280000000000000071e+01,2.902093599364299198e-02
2.283999999999999986e+01,1.219984130598869045e-02
2.287999999999999901e+01,2.408208136513106598e-02
2.292000000000000171e+01,2.276010659280974097e-02
2.296000000000000085e+01,8.578362993288185176e-03
2.300000000000000000e+01,2.482218338567794558e-02
2.303999999999999915e+01,8.687650811231113421e-03
2.307999999999999829e+01,2.630832396113058635e-02
2.312000000000000099e+01,1.981733970828212371e-02
2.316000000000000014e+01,1.849257581454714222e-02
2.319999999999999929e+01,2.933776019665256668e-02
2.323999999999999844e+01,1.698980998341351537e-02
2.328000000000000114e+01,1.830440649225305305e-02
2.332000000000000028e+01,1.491111724930589168e-02
2.335999999999999943e+01,1.140255085816548747e-02
2.339999999999999858e+01,2.431209728270398995e-02
2.344000000000000128e+01,1.735815200863827235e-02
2.348000000000000043e+01,1.557043019850002340e-02
2.351999999999999957e+01,2.893785510908564521e-02
2.355999999999999872e+01,1.428990990287424927e-02
2.360000000000000142e+01,2.604900232154510123e-02
2.364000000000000057e+01,1.886312662521856184e-02
2.367999999999999972e+01,1.879533482491226731e-02
2.371999999999999886e+01,1.941597580703957951e-02
2.376000000000000156e+01,1.980652831660362559e-02
2.380000000000000071e+01,2.054106876864280479e-02
2.383999999999999986e+01,1.346771796876095051e-02
2.387999999999999901e+01,2.648657121417215266e-02
2.392000000000000171e+01,1.975675262358714615e-02
2.396000000000000085e+01,2.094872708344566042e-02
2.400000000000000000e+01,2.191061539935137970e-02
2.403999999999999915e+01,2.895725425570733202e-02
2.407999999999999829e+01,1.499225556921387169e-02
2.412000000000000099e+01,2.858245160679794700e-02
2.416000000000000014e+01,1.461654417066032656e-02
2.419999999999999929e+01,2.074284388462975179e-02
2.423999999999999844e+01,1.056493102903571270e-02
2.428000000000000114e+01,2.599035595834216228e-02
2.432000000000000028e+01,1.053003801010234108e-02
2.435999999999999943e+01,2.078787382835386652e-02
2.439999999999999858e+01,2.289337821194682016e-02
2.444000000000000128e+01,1.753544278130652820e-02
2.448000000000000043e+01,1.952522941949581814e-02
2.451999999999999957e+01,1.554417468969024850e-02
2.455999999999999872e+01,2.028862526956516296e-02
2.460000000000000142e+01,1.998075690074709379e-02
2.464000000000000057e+01,2.357615599154669686e-02
2.467999999999999972e+01,2.120071526675833956e-02
2.471999999999999886e+01,1.618407607071531765e-02
2.476000000000000156e+01,2.689667165348644598e-02
2.480000000000000071e+01,2.004209284085821732e-02
2.483999999999999986e+01,1.008705589973136162e-02
2.487999999999999901e+01,2.378350407344709955e-02
2.492000000000000171e+01,2.358686558846210396e-02
2.496000000000000085e+01,2.637497602481026979e-02
2.500000000000000000e+01,2.250335851806061632e-02
2.503999999999999915e+01,1.725351290413054683e-02
2.507999999999999829e+01,1.418471093812766898e-02
2.512000000000000099e+01,1.478955067818879185e-02
2.516000000000000014e+01,1.217912018917784514e-02
2.519999999999999929e+01,1.657197313866573540e-02
2.523999999999999844e+01,1.820881745683435374e-02
2.528000000000000114e+01,1.961558805030568647e-02
2.532000000000000028e+01,2.572933913883538454e-02
2.535999999999999943e+01,2.575744180411930137e-02
2.539999999999999858e+01,1.797766835344979247e-02
2.544000000000000128e+01,2.707528833319696945e-02
2.548000000000000043e+01,2.721688091932133319e-02
2.551999999999999957e+01,1.932096814302286872e-02
2.555999999999999872e+01,2.038020078972295826e-02
2.560000000000000142e+01,1.696120021720987428e-02
2.564000000000000057e+01,2.330105228160979022e-02
2.567999999999999972e+01,1.781449875821328188e-02
2.571999999999999886e+01,2.518680919339014862e-02
2.576000000000000156e+01,2.727718152404976643e-02
2.580000000000000071e+01,3.051526763998230196e-02
2.583999999999999986e+01,2.778252519527732098e-02
2.587999999999999901e+01,1.276411828173526497e-02
2.592000000000000171e+01,1.370458781273232486e-02
2.596000000000000085e+01,2.015575048612644818e-02
2.600000000000000000e+01,2.580277039371813019e-02
2.603999999999999915e+01,3.374565846906615874e-02
2.607999999999999829e+01,2.894362319453662111e-02
2.612000000000000099e+01,1.507075153062476316e-02
2.616000000000000014e+01,2.174936685535410613e-02
2.619999999999999929e+01,2.372012437162180840e-02
2.623999999999999844e+01,1.811264433284716369e-02
2.628000000000000114e+01,1.950845821131823657e-02
2.632000000000000028e+01,2.124828448267377171e-02
2.635999999999999943e+01,1.139134217473690772e-02
2.639999999999999858e+01,2.288959562176273374e-02
2.644000000000000128e+01,2.336515729263609342e-02
2.648000000000000043e+01,1.718100538017592813e-02
2.651999999999999957e+01,1.501495437350231985e-02
2.655999999999999872e+01,1.950775438462468842e-02
2.660000000000000142e+01,1.998159170062646650e-02
2.664000000000000057e+01,9.203108770209897371e-03
2.667999999999999972e+01,2.322428047308697230e-02
2.671999999999999886e+01,2.771536078655859395e-02
2.676000000000000156e+01,2.531709982263423073e-02
2.680000000000000071e+01,7.303542359981259752e-03
2.683999999999999986e+01,8.578511224438803082e-03
2.687999999999999901e+01,2.409013776706760493e-02
2.692000000000000171e+01,1.055308994495964513e-02
2.696000000000000085e+01,2.181569947285758385e-02
2.700000000000000000e+01,2.148154663109085385e-02
2.703999999999999915e+01,2.114696755187794180e-02
2.707999999999999829e+01,1.828602810480003948e-02
2.712000000000000099e+01,1.209502224024791225e-02
2.716000000000000014e+01,1.439991650121461020e-02
2.719999999999999929e+01,2.037847264953538892e-02
2.723999999999999844e+01,2.325659395546176081e-02
2.728000000000000114e+01,1.614536848385771106e-02
2.732000000000000028e+01,1.488929496627160523e-02
2.735999999999999943e+01,1.546984160224996671e-02
2.739999999999999858e+01,8.127716321974384761e-03
2.744000000000000128e+01,1.617040620716743426e-02
2.748000000000000043e+01,9.975588656008820693e-03
2.751999999999999957e+01,1.342482677715762726e-02
2.755999999999999872e+01,1.606993726847175466e-02
2.760000000000000142e+01,1.136645381097707574e-02
2.764000000000000057e+01,1.906259211939008782e-02
2.767999999999999972e+01,1.148788808347448072e-02
2.771999999999999886e+01,2.549802302065352216e-02
2.776000000000000156e+01,2.113730584425061246e-02
2.780000000000000071e+01,2.573175582454333490e-02
2.783999999999999986e+01,1.229980008361947555e-02
2.787999999999999901e+01,2.584899952139984441e-02
2.792000000000000171e+01,1.746807703099917744e-02
2.796000000000000085e+01,2.389789872445315447e-02
2.800000000000000000e+01,1.563095720532891100e-02
2.803999999999999915e+01,1.172657695601904936e-02
2.807999999999999829e+01,1.666255137472979000e-02
2.812000000000000099e+01,1.149437196065928972e-02
2.816000000000000014e+01,1.803692812549520866e-02
2.819999999999999929e+01,2.021609150311804229e-02
2.823999999999999844e+01,1.860593850856608403e-02
2.828000000000000114e+01,1.159905665451893379e-02
2.832000000000000028e+01,1.653254234255975910e-02
2.835999999999999943e+01,1.457670227727394553e-02
2.839999999999999858e+01,1.973899190401320197e-02
2.844000000000000128e+01,2.317864079605767152e-02
2.848000000000000043e+01,1.835118263443318021e-02
2.851999999999999957e+01,1.903444245371687174e-02
2.855999999999999872e+01,1.018762873627492883e-02
2.860000000000000142e+01,1.775897828773750214e-02
2.864000000000000057e+01,1.890026562413486821e-02
2.867999999999999972e+01,2.394485961842517108e-02
2.871999999999999886e+01,2.611866354085987108e-02
2.876000000000000156e+01,9.347549025319541738e-03
2.880000000000000071e+01,7.042741227608346165e-03
2.883999999999999986e+01,1.828571889272982004e-02
2.887999999999999901e+01,1.414305065118752827e-02
2.892000000000000171e+01,2.021852769244983361e-02
2.896000000000000085e+01,1.664911987261650725e-02
2.900000000000000000e+01,1.606450017239170053e-02
2.903999999999999915e+01,1.869429939065174115e-02
2.907999999999999829e+01,1.650145353838776419e-02
2.912000000000000099e+01,2.016377710471983775e-02
2.916000000000000014e+01,1.613307624204902285e-02
2.919999999999999929e+01,1.715383913646665454e-02
2.923999999999999844e+01,6.922307011078767183e-03
2.928000000000000114e+01,1.701266173549294269e-02
2.932000000000000028e+01,1.343960290317185169e-02
2.935999999999999943e+01,1.744394389886669977e-02
2.939999999999999858e+01,8.358948140966217591e-03
2.944000000000000128e+01,1.592175421288132692e-02
2.948000000000000043e+01,8.672996226595197991e-03
2.951999999999999957e+01,2.186094262410883185e-02
2.955999999999999872e+01,1.024840287093011816e-02
2.960000000000000142e+01,1.505403608919935084e-02
2.964000000000000057e+01,1.239627994646109836e-02
2.967999999999999972e+01,2.294187180053005454e-02
2.971999999999999886e+01,1.947960836271921126e-02
2.976000000000000156e+01,1.326138014908516752e-02
2.980000000000000071e+01,1.163536069251646168e-02
2.983999999999999986e+01,1.081264860333415803e-02
2.987999999999999901e+01,1.481177645819520272e-02
2.992000000000000171e+01,1.961421245664612262e-02
2.996000000000000085e+01,9.719904259503924990e-03
3.000000000000000000e+01,8.665969359265619787e-03
3.003999999999999915e+01,5.774594043014617123e-03
3.007999999999999829e+01,1.654583142613730989e-02
3.012000000000000099e+01,1.985368410547337994e-02
3.016000000000000014e+01,2.143891273848921517e-02
3.019999999999999929e+01,1.119777963920474614e-02
3.023999999999999844e+01,1.473407599708817170e-02
3.028000000000000114e+01,1.390699974904887302e-02
3.032000000000000028e+01,1.388323552561676090e-02
3.035999999999999943e+01,1.833687028728701179e-02
3.039999999999999858e+01,2.313455702821877111e-02
3.044000000000000128e+01,1.426884107926385675e-02
3.048000000000000043e+01,1.378424226288451834e-02
3.051999999999999957e+01,1.238072933081164548e-02
3.055999999999999872e+01,2.027685595061615165e-02
3.060000000000000142e+01,1.646143992452498914e-02
3.064000000000000057e+01,1.712342560024826890e-02
3.067999999999999972e+01,2.398504144669725419e-02
3.071999999999999886e+01,1.890548540078111975e-02
3.076000000000000156e+01,1.646628893478800301e-02
3.080000000000000071e+01,1.299336586442624911e-02
3.083999999999999986e+01,1.767193300878103571e-02
3.087999999999999901e+01,1.385378597479651995e-02
3.092000000000000171e+01,1.221673925159279250e-02
3.096000000000000085e+01,1.517191254040472885e-02
3.100000000000000000e+01,1.410816582528703553e-02
3.103999999999999915e+01,1.453662935293154740e-02
3.107999999999999829e+01,1.909805323534780400e-02
3.112000000000000099e+01,1.240720033874006742e-02
3.116000000000000014e+01,1.673822089634517674e-02
3.119999999999999929e+01,2.428368132992883566e-02
3.123999999999999844e+01,1.575462752252743126e-02
3.128000000000000114e+01,4.584438892556054815e-03
3.132000000000000028e+01,1.603246101332114759e-02
3.135999999999999943e+01,2.001711046145340789e-02
3.139999999999999858e+01,1.871987652741313041e-02
3.144000000000000128e+01,1.558521576092092645e-02
3.148000000000000043e+01,1.520573676557027305e-02
3.151999999999999957e+01,9.888821168514182539e-03
3.155999999999999872e+01,2.271232564070051543e-02
3.160000000000000142e+01,1.498352635471289843e-02
3.164000000000000057e+01,1.046917121382295347e-02
3.167999999999999972e+01,1.361826639796387970e-03
3.171999999999999886e+01,1.900604409146629259e-02
3.176000000000000156e+01,1.770537221279126078e-02
3.180000000000000071e+01,6.989473439018510301e-03
3.183999999999999986e+01,1.613622553200971116e-02
3.187999999999999901e+01,5.534383021250210283e-03
3.192000000000000171e+01,1.559889859116923155e-02
3.196000000000000085e+01,9.129646084385214036e-03
3.200000000000000000e+01,1.494524244121072341e-02
3.203999999999999915e+01,2.363084120798935109e-02
3.207999999999999829e+01,1.176414087381491037e-02
3.211999999999999744e+01,1.218229056755513323e-02
3.215999999999999659e+01,1.294450931703328318e-02
3.220000000000000284e+01,1.267301504570348888e-02
3.224000000000000199e+01,7.578906363886818084e-03
3.228000000000000114e+01,1.316223638696971225e-02
3.232000000000000028e+01,1.369332236499458573e-02
3.235999999999999943e+01,1.043513194532345173e-02
3.239999999999999858e+01,3.158035105283432155e-03
3.243999999999999773e+01,1.000283468416872205e-02
3.247999999999999687e+01,1.409169587814887263e-02
3.252000000000000313e+01,1.726166236152225364e-02
3.256000000000000227e+01,8.949735626759580329e-03
3.260000000000000142e+01,1.441143038403058709e-03
3.264000000000000057e+01,1.712485003507681000e-02
3.267999999999999972e+01,1.914517607556106421e-02
3.271999999999999886e+01,1.301325140654778154e-02
3.275999999999999801e+01,6.651325587861909791e-03
3.279999999999999716e+01,9.933506670912537265e-03
3.284000000000000341e+01,9.311600808100685064e-03
3.288000000000000256e+01,1.557823769393369348e-02
3.292000000000000171e+01,2.172969018788841605e-02
3.296000000000000085e+01,1.571036211240065678e-02
3.300000000000000000e+01,1.244623055592042685e-02
3.303999999999999915e+01,1.710398014897766134e-02
3.307999999999999829e+01,1.705393868707173743e-02
3.311999999999999744e+01,9.081280807460201734e-03
3.315999999999999659e+01,2.625278604978547106e-02
3.320000000000000284e+01,1.506456909167023205e-02
3.324000000000000199e+01,1.639084343909291003e-02
3.328000000000000114e+01,8.531535661956643826e-03
3.332000000000000028e+01,1.927192585208837433e-02
3.335999999999999943e+01,1.382300716523970040e-02
3.339999999999999858e+01,1.158854969996509464e-02
3.343999999999999773e+01,1.015743453123307653e-02
3.347999999999999687e+01,0.000000000000000000e+00
3.352000000000000313e+01,1.246079756509885748e-02
3.356000000000000227e+01,1.470267887386531892e-02
3.360000000000000142e+01,1.131825252989283534e-02
3.364000000000000057e+01,1.310014822768880080e-02
3.367999999999999972e+01,1.281500841595547939e-02
3.371999999999999886e+01,1.539988731444816988e-02
3.375999999999999801e+01,1.580291627422771364e-02
3.379999999999999716e+01,1.804262787195112794e-02
3.384000000000000341e+01,1.993753359336157896e-02
3.388000000000000256e+01,1.643576478951982653e-02
3.392000000000000171e+01,1.649290786873658377e-02
3.396000000000000085e+01,2.102748486221191204e-02
3.400000000000000000e+01,1.867279082470543750e-02
3.403999999999999915e+01,2.102516188843562076e-02
3.407999999999999829e+01,1.051787201724820042e-02
3.411999999999999744e+01,1.665842938377945504e-02
3.415999999999999659e+01,6.380055224590420841e-03
3.420000000000000284e+01,2.583846249347512836e-02
3.424000000000000199e+01,1.200010382091080269e-02
3.428000000000000114e+01,1.320218106304998397e-02
3.432000000000000028e+01,8.548327227506934828e-03
3.435999999999999943e+01,1.411267145660450792e-02
3.439999999999999858e+01,9.458107579506091003e-03
3.443999999999999773e+01,1.238099281934406520e-02
3.447999999999999687e+01,2.035539304569964139e-02
3.452000000000000313e+01,1.225531085541247192e-02
3.456000000000000227e+01,1.425861346488729864e-02
3.460000000000000142e+01,2.154306263595957491e-02
3.464000000000000057e+01,1.573822589476393460e-02
3.467999999999999972e+01,1.154044991897578212e-02
3.471999999999999886e+01,2.008681001926434714e-02
3.475999999999999801e+01,1.772537427394881016e-02
3.479999999999999716e+01,8.704305670460779631e-03
3.484000000000000341e+01,1.552738485281165981e-02
3.488000000000000256e+01,9.835256478441477962e-03
3.492000000000000171e+01,1.321317954826335857e-02
3.496000000000000085e+01,1.062036254464340454e-02
3.500000000000000000e+01,7.797566125048142546e-03
3.503999999999999915e+01,1.817816970789268988e-02
3.507999999999999829e+01,1.765098054994697699e-02
3.511999999999999744e+01,2.355309505279419915e-02
3.515999999999999659e+01,1.269184211630266894e-02
3.520000000000000284e+01,1.652658840469272902e-02
3.524000000000000199e+01,1.324244528248019401e-02
3.528000000000000114e+01,1.902835709737529454e-02
3.532000000000000028e+01,1.838427151019506392e-02
3.535999999999999943e+01,1.441019945449819456e-02
3.539999999999999858e+01,1.893210747327766022e-02
3.543999999999999773e+01,2.207588829132797401e-02
3.547999999999999687e+01,1.316372819573244368e-02
3.552000000000000313e+01,1.378088618740411914e-02
3.556000000000000227e+01,1.370880937497563970e-02
3.560000000000000142e+01,7.895629109507723564e-03
3.564000000000000057e+01,1.540066987339291579e-02
3.567999999999999972e+01,8.897913172556984676e-03
3.571999999999999886e+01,1.720597594731247335e-02
3.575999999999999801e+01,1.001364436351552360e-02
3.579999999999999716e+01,1.372841604834546501e-02
3.584000000000000341e+01,9.176152090225936017e-03
3.588000000000000256e+01,1.484210094461297855e-02
3.592000000000000171e+01,2.119660095246302459e-02
3.596000000000000085e+01,1.859517524934496679e-02
3.600000000000000000e+01,1.920823599441385740e-02
3.603999999999999915e+01,1.247278468014026420e-02
3.607999999999999829e+01,5.966625250187338435e-03
3.611999999999999744e+01,7.841637675154770892e-03
3.615999999999999659e+01,1.694967028927132913e-02
3.620000000000000284e+01,1.905363801261426848e-02
3.624000000000000199e+01,9.216487401631688614e-03
3.628000000000000114e+01,1.820869388822009272e-02
3.632000000000000028e+01,1.939313021062906428e-02
3.635999999999999943e+01,1.242535114079839666e-02
3.639999999999999858e+01,1.452763787492397825e-02
3.643999999999999773e+01,2.168145861255226306e-02
3.647999999999999687e+01,1.873120663066209918e-02
3.652000000000000313e+01,1.509172915911340118e-02
3.656000000000000227e+01,1.868527575773116720e-02
3.660000000000000142e+01,1.068215313110093025e-02
3.664000000000000057e+01,1.381577233400860943e-02
3.667999999999999972e+01,1.993425417205811276e-02
3.671999999999999886e+01,1.824496972694549315e-02
3.675999999999999801e+01,1.552201650462286218e-02
3.679999999999999716e+01,1.888393762720416702e-02
3.684000000000000341e+01,1.971959307874409859e-02
3.688000000000000256e+01,1.906232009583007023e-02
3.692000000000000171e+01,2.173435769283010160e-02
3.696000000000000085e+01,2.520977173932551288e-02
3.700000000000000000e+01,1.628481400387921108e-02
3.703999999999999915e+01,2.217068855138159753e-02
3.707999999999999829e+01,1.760805058472976470e-02
3.711999999999999744e+01,1.660435554927528617e-02
3.715999999999999659e+01,2.857445067487799847e-02
3.720000000000000284e+01,1.895895952806419746e-02
3.724000000000000199e+01,2.289133534544749229e-02
3.728000000000000114e+01,2.177151524238808353e-02
3.732000000000000028e+01,2.489953124335845397e-02
3.735999999999999943e+01,2.056423278695638027e-02
3.739999999999999858e+01,2.954717243638383187e-02
3.743999999999999773e+01,2.911493991305829851e-02
3.747999999999999687e+01,2.615644792831916740e-02
3.752000000000000313e+01,2.250874015646488202e-02
3.756000000000000227e+01,2.896444629200282950e-02
3.760000000000000142e+01,3.174574207655941893e-02
3.764000000000000057e+01,2.878595420126514939e-02
3.767999999999999972e+01,2.731844099362121595e-02
3.771999999999999886e+01,2.010984490232988961e-02
3.775999999999999801e+01,2.311947986432676128e-02
3.779999999999999716e+01,3.209918366838367121e-02
3.784000000000000341e+01,3.924152273626640292e-02
3.788000000000000256e+01,3.226127047963613798e-02
3.792000000000000171e+01,3.641777247179939919e-02
3.796000000000000085e+01,3.311096582811626221e-02
3.800000000000000000e+01,3.554459955622722711e-02
3.803999999999999915e+01,2.971121898698421415e-02
3.807999999999999829e+01,4.087016969369363512e-02
3.811999999999999744e+01,4.640285660316030569e-02
3.815999999999999659e+01,3.264627066239791930e-02
3.820000000000000284e+01,4.081907099354686180e-02
3.824000000000000199e+01,4.313597828098362369e-02
3.828000000000000114e+01,4.361552510136527255e-02
3.832000000000000028e+01,4.593179841518697099e-02
3.835999999999999943e+01,4.664034244893158765e-02
3.839999999999999858e+01,4.815227690383409170e-02
3.843999999999999773e+01,4.449721148785688168e-02
3.847999999999999687e+01,4.463073260931064989e-02
3.852000000000000313e+01,5.176766640714134532e-02
3.856000000000000227e+01,5.924873135698768140e-02
3.860000000000000142e+01,6.087390675603749496e-02
3.864000000000000057e+01,6.709137668263627508e-02
3.867999999999999972e+01,7.399742454171777395e-02
3.871999999999999886e+01,6.930682374494327724e-02
3.875999999999999801e+01,8.034559356259043938e-02
3.879999999999999716e+01,9.161368165547638387e-02
3.884000000000000341e+01,8.738140527364353372e-02
3.888000000000000256e+01,9.566367491969331172e-02
3.892000000000000171e+01,1.127864044093341567e-01
3.896000000000000085e+01,1.299088233158460504e-01
3.900000000000000000e+01,1.487531601081402144e-01
3.903999999999999915e+01,1.632342092887917873e-01
3.907999999999999829e+01,1.810445900068511915e-01
3.911999999999999744e+01,1.997731833372869970e-01
3.915999999999999659e+01,2.283755756884098542e-01
3.920000000000000284e+01,2.465294760947705222e-01
3.924000000000000199e+01,2.788053388973515956e-01
3.928000000000000114e+01,3.206105562687629473e-01
3.932000000000000028e+01,3.633339881930594539e-01
3.935999999999999943e+01,3.999719075297178406e-01
3.939999999999999858e+01,4.381021182224012489e-01
3.943999999999999773e+01,5.081506500868443466e-01
3.947999999999999687e+01,5.600580739622886828e-01
3.952000000000000313e+01,6.174763225466184391e-01
3.956000000000000227e+01,6.621497785713558182e-01
3.960000000000000142e+01,7.354119163640282508e-01
3.964000000000000057e+01,8.245182485147479756e-01
3.967999999999999972e+01,8.635648475193096196e-01
3.971999999999999886e+01,9.344149552069558329e-01
3.975999999999999801e+01,9.865498815953789302e-01
3.979999999999999716e+01,9.891991520288858641e-01
3.984000000000000341e+01,1.000000000000000000e+00
3.988000000000000256e+01,9.629226056678236167e-01
3.992000000000000171e+01,9.118374550097099185e-01
3.996000000000000085e+01,8.489260373161195972e-01
4.000000000000000000e+01,7.887698840593405647e-01
4.003999999999999915e+01,7.226430400180400282e-01
4.007999999999999829e+01,6.654714822806682140e-01
4.011999999999999744e+01,5.859106601645955870e-01
4.015999999999999659e+01,5.218495918357307639e-01
4.020000000000000284e+01,4.605437898841858724e-01
4.024000000000000199e+01,3.982043529202819454e-01
4.028000000000000114e+01,3.731795599314771672e-01
4.032000000000000028e+01,3.374766554539839758e-01
4.035999999999999943e+01,2.935067591890375693e-01
4.039999999999999858e+01,2.503402727503358238e-01
4.043999999999999773e+01,2.381735955428387341e-01
4.047999999999999687e+01,2.055695159411403961e-01
4.052000000000000313e+01,1.891540848518893092e-01
4.056000000000000227e+01,1.674568592557632851e-01
4.060000000000000142e+01,1.490889799449109931e-01
4.064000000000000057e+01,1.399060227821863067e-01
4.067999999999999972e+01,1.241783050176315795e-01
4.071999999999999886e+01,1.198169990797664369e-01
4.075999999999999801e+01,1.116664982455697896e-01
4.079999999999999716e+01,1.035157046809240811e-01
4.084000000000000341e+01,9.789055329245158199e-02
4.088000000000000256e+01,8.434286077801017578e-02
4.092000000000000171e+01,8.250602764692893665e-02
4.096000000000000085e+01,7.929112087315806634e-02
4.100000000000000000e+01,7.756852097948165048e-02
4.103999999999999915e+01,6.608633822604660646e-02
4.107999999999999829e+01,6.746316846225160202e-02
4.111999999999999744e+01,6.172116633880919689e-02
4.115999999999999659e+01,5.678258141554442390e-02
4.120000000000000284e+01,4.954740353510210527e-02
4.124000000000000199e+01,4.242675239871707138e-02
4.128000000000000114e+01,5.183920276487422735e-02
4.132000000000000028e+01,5.367356189034348107e-02
4.135999999999999943e+01,4.655204769857902714e-02
4.139999999999999858e+01,4.827101741271318941e-02
4.143999999999999773e+01,3.288223500331931282e-02
4.147999999999999687e+01,4.229325082486140586e-02
4.152000000000000313e+01,2.965946146742519385e-02
4.156000000000000227e+01,2.678467921139294355e-02
4.160000000000000142e+01,3.745780622264706372e-02
4.164000000000000057e+01,3.653431290947189991e-02
4.167999999999999972e+01,2.412901486535641224e-02
4.171999999999999886e+01,3.606425655923821416e-02
4.175999999999999801e+01,2.515098896504107742e-02
4.179999999999999716e+01,3.811900106349547235e-02
4.184000000000000341e+01,3.019036314165842241e-02
4.188000000000000256e+01,2.363922543276668342e-02
4.192000000000000171e+01,2.730635913974370846e-02
4.196000000000000085e+01,2.925098329041264308e-02
4.200000000000000000e+01,2.740642457590386841e-02
4.203999999999999915e+01,3.026900858297889782e-02
4.207999999999999829e+01,2.520906310713715709e-02
4.211999999999999744e+01,2.784145646915236333e-02
4.215999999999999659e+01,1.738463688202601665e-02
4.220000000000000284e+01,2.437944936688006201e-02
4.224000000000000199e+01,2.930730939597627274e-02
4.228000000000000114e+01,2.080151202407426805e-02
4.232000000000000028e+01,2.033250104669973718e-02
4.235999999999999943e+01,2.594841836037045657e-02
4.239999999999999858e+01,3.087516723533778942e-02
4.243999999999999773e+01,2.271270587787572320e-02
4.247999999999999687e+01,2.580185821819233963e-02
4.252000000000000313e+01,2.200182219319689325e-02
4.256000000000000227e+01,2.141633626507303059e-02
4.260000000000000142e+01,2.266761835727493929e-02
4.264000000000000057e+01,2.529640803635517174e-02
4.267999999999999972e+01,2.115082610791761686e-02
4.271999999999999886e+01,2.848649061664370111e-02
4.275999999999999801e+01,2.606258895398581854e-02
4.279999999999999716e+01,1.812728410737558457e-02
4.284000000000000341e+01,2.534731343462763575e-02
4.288000000000000256e+01,1.924850638779479484e-02
4.292000000000000171e+01,2.153093717317739950e-02
4.296000000000000085e+01,1.853159673778912581e-02
4.300000000000000000e+01,1.622087614987106907e-02
4.303999999999999915e+01,2.183213373692443129e-02
4.307999999999999829e+01,2.572089263451831156e-02
4.311999999999999744e+01,1.629081748663769799e-02
4.315999999999999659e+01,2.454201413595375608e-02
4.320000000000000284e+01,2.877440915236961078e-02
4.324000000000000199e+01,2.232872101152397898e-02
4.328000000000000114e+01,1.909758995338113607e-02
4.332000000000000028e+01,1.724397307984613589e-02
4.335999999999999943e+01,1.699750118979533042e-02
4.339999999999999858e+01,2.180263083294922688e-02
4.343999999999999773e+01,2.132599391255311089e-02
4.347999999999999687e+01,2.234168793455908880e-02
4.352000000000000313e+01,2.255340917932298697e-02
4.356000000000000227e+01,2.620932063427644163e-02
4.360000000000000142e+01,1.643158749558898055e-02
4.364000000000000057e+01,2.077585944431286843e-02
4.367999999999999972e+01,1.857539989883691053e-02
4.371999999999999886e+01,2.165617540215418468e-02
4.375999999999999801e+01,1.819222018747508954e-02
4.379999999999999716e+01,2.242062011092584017e-02
4.384000000000000341e+01,1.953021406564725906e-02
4.388000000000000256e+01,1.709880599530244627e-02
4.392000000000000171e+01,2.500050395130046926e-02
4.396000000000000085e+01,1.958337601196042874e-02
4.400000000000000000e+01,3.058456076069330370e-02
4.403999999999999915e+01,2.172245368321585463e-02
4.407999999999999829e+01,2.216011733600252442e-02
4.411999999999999744e+01,2.696049827550138500e-02
4.415999999999999659e+01,2.303466347566268321e-02
4.420000000000000284e+01,2.381599235490151553e-02
4.424000000000000199e+01,2.804151804205944759e-02
4.428000000000000114e+01,3.020011106664801173e-02
4.432000000000000028e+01,2.466582675279161904e-02
4.435999999999999943e+01,3.049798958288279724e-02
4.439999999999999858e+01,3.162247119080206087e-02
4.443999999999999773e+01,2.551333744613073010e-02
4.447999999999999687e+01,2.514470694573477452e-02
4.452000000000000313e+01,3.177954733697614664e-02
4.456000000000000227e+01,3.244374079919233600e-02
4.460000000000000142e+01,2.610395087199943176e-02
4.464000000000000057e+01,3.354173011859946929e-02
4.467999999999999972e+01,2.306808224020092529e-02
4.471999999999999886e+01,2.797941718722085983e-02
4.475999999999999801e+01,2.864233522653371333e-02
4.479999999999999716e+01,3.963836783042757467e-02
4.484000000000000341e+01,3.743039828260892599e-02
4.488000000000000256e+01,3.533699079610558291e-02
4.492000000000000171e+01,4.277299260077736115e-02
4.496000000000000085e+01,4.561613382208888623e-02
4.500000000000000000e+01,4.822939265285904054e-02
4.503999999999999915e+01,4.636460688185967127e-02
4.507999999999999829e+01,4.392549388036055130e-02
4.511999999999999744e+01,5.124542252131984027e-02
4.515999999999999659e+01,5.144655800090706943e-02
4.520000000000000284e+01,5.738820371060087550e-02
4.524000000000000199e+01,5.942588278597035062e-02
4.528000000000000114e+01,6.628555122455154214e-02
4.532000000000000028e+01,7.222644914508151437e-02
4.535999999999999943e+01,7.965969624879509769e-02
4.539999999999999858e+01,8.077785895745813460e-02
4.543999999999999773e+01,8.511059970631769389e-02
4.547999999999999687e+01,8.703197381949812073e-02
4.552000000000000313e+01,9.285681798140235643e-02
4.556000000000000227e+01,1.088999688764332591e-01
4.560000000000000142e+01,1.080650384212912540e-01
4.564000000000000057e+01,1.080335686337212664e-01
4.567999999999999972e+01,1.236167213967860057e-01
4.571999999999999886e+01,1.265699565733128529e-01
4.575999999999999801e+01,1.457118911036143494e-01
4.579999999999999716e+01,1.517646480020323208e-01
4.584000000000000341e+01,1.577023458654326082e-01
4.588000000000000256e+01,1.758102120583575345e-01
4.592000000000000171e+01,1.784177824705708848e-01
4.596000000000000085e+01,2.014622167763974736e-01
4.600000000000000000e+01,2.103841385423635135e-01
4.603999999999999915e+01,2.213724921161791537e-01
4.607999999999999829e+01,2.418902662361203937e-01
4.611999999999999744e+01,2.581596366438135837e-01
4.615999999999999659e+01,2.565175942862722991e-01
4.620000000000000284e+01,2.834642977334526082e-01
4.624000000000000199e+01,2.818217750905837593e-01
4.628000000000000114e+01,2.994679673922690522e-01
4.632000000000000028e+01,2.933471730063749172e-01
4.635999999999999943e+01,2.727594239573741808e-01
4.639999999999999858e+01,2.819085747074764337e-01
4.643999999999999773e+01,2.756722499275769955e-01
4.647999999999999687e+01,2.554282324704251761e-01
4.652000000000000313e+01,2.445988246231305674e-01
4.656000000000000227e+01,2.379025273259794959e-01
4.660000000000000142e+01,2.119170390680657490e-01
4.664000000000000057e+01,2.245092237526871148e-01
4.667999999999999972e+01,1.954232532022269209e-01
4.671999999999999886e+01,1.800000568014625546e-01
4.675999999999999801e+01,1.659544079620553780e-01
4.679999999999999716e+01,1.451344274896091135e-01
4.684000000000000341e+01,1.396994504119733749e-01
4.688000000000000256e+01,1.234716102889467787e-01
4.692000000000000171e+01,1.094250257173953328e-01
4.696000000000000085e+01,1.003152620147158142e-01
4.700000000000000000e+01,1.003904821683398174e-01
4.703999999999999915e+01,8.829505836433240717e-02
4.707999999999999829e+01,7.849570686959438104e-02
4.711999999999999744e+01,8.189987258402038617e-02
4.715999999999999659e+01,7.175561304047263500e-02
4.720000000000000284e+01,6.252964450585198064e-02
4.724000000000000199e+01,5.824049955681534496e-02
4.728000000000000114e+01,5.108074461512854270e-02
4.732000000000000028e+01,5.528746553691778892e-02
4.735999999999999943e+01,5.409764272373981248e-02
4.739999999999999858e+01,4.108162506200795788e-02
4.743999999999999773e+01,4.735433359978059864e-02
4.747999999999999687e+01,4.260455450291384533e-02
4.752000000000000313e+01,3.165452678577581475e-02
4.756000000000000227e+01,3.999322643244749426e-02
4.760000000000000142e+01,3.168349454480758748e-02
4.764000000000000057e+01,3.175504628538797225e-02
4.767999999999999972e+01,3.297452410289077734e-02
4.771999999999999886e+01,2.730486400830721763e-02
4.775999999999999801e+01,2.691647816079217534e-02
4.779999999999999716e+01,3.043158448379989015e-02
4.784000000000000341e+01,2.487606515666783077e-02
4.788000000000000256e+01,2.540552767862054237e-02
4.792000000000000171e+01,2.524587531990946793e-02
4.796000000000000085e+01,1.991931545853180274e-02
4.800000000000000000e+01,1.734809765431263862e-02
4.803999999999999915e+01,2.269890653778192102e-02
4.807999999999999829e+01,1.404203826806818371e-02
4.811999999999999744e+01,1.881832732083648860e-02
4.815999999999999659e+01,1.819808040067232360e-02
4.820000000000000284e+01,2.423689446134331613e-02
4.824000000000000199e+01,1.925322826130790657e-02
4.828000000000000114e+01,1.759898286207957005e-02
4.832000000000000028e+01,2.455565809957562656e-02
4.835999999999999943e+01,1.934170218679752071e-02
4.839999999999999858e+01,1.389789687212561464e-02
4.843999999999999773e+01,2.223169760091148889e-02
4.847999999999999687e+01,1.770597711140468183e-02
4.852000000000000313e+01,1.536152769744244737e-02
4.856000000000000227e+01,9.342774272374518643e-03
4.860000000000000142e+01,1.492013954081272166e-02
4.864000000000000057e+01,7.178724321816026994e-03
4.867999999999999972e+01,1.091861336714164410e-02
4.871999999999999886e+01,1.339531926690170141e-02
4.875999999999999801e+01,1.552736405229628892e-02
4.879999999999999716e+01,1.765919372758897529e-02
4.884000000000000341e+01,1.669079813542461571e-02
4.888000000000000256e+01,1.193328643158110720e-02
4.892000000000000171e+01,1.693485323986098842e-02
4.896000000000000085e+01,1.481766375643370041e-02
4.900000000000000000e+01,9.715065763343553457e-03
4.903999999999999915e+01,7.827080739606197615e-03
4.907999999999999829e+01,1.328705646726595010e-02
4.911999999999999744e+01,9.446788553266910818e-03
4.915999999999999659e+01,1.812116640929667746e-02
4.920000000000000284e+01,1.255824756821746248e-02
4.924000000000000199e+01,1.043957404777430889e-02
4.928000000000000114e+01,1.153551582529433774e-02
4.932000000000000028e+01,1.573125808349202029e-02
4.935999999999999943e+01,1.441566080642200931e-02
4.939999999999999858e+01,1.401837588387452004e-02
4.943999999999999773e+01,6.387524121453412758e-03
4.947999999999999687e+01,4.956484937573832524e-03
4.952000000000000313e+01,6.165987353331394902e-03
4.956000000000000227e+01,1.782346572316383104e-02
4.960000000000000142e+01,1.398068401764439653e-02
4.964000000000000057e+01,1.163029302219439724e-02
4.967999999999999972e+01,1.410193408114706302e-02
4.971999999999999886e+01,1.060297827619850058e-02
4.975999999999999801e+01,1.961867406280479870e-02
4.979999999999999716e+01,1.313411171456788443e-02
4.984000000000000341e+01,1.239010461623895817e-02
4.988000000000000256e+01,1.095700165423127079e-02
4.992000000000000171e+01,1.181999855671620435e-02
4.996000000000000085e+01,1.394575886330984976e-02
5.000000000000000000e+01,1.366019638972051399e-02
5.003999999999999915e+01,1.165220275637373834e-02
5.007999999999999829e+01,1.561439711231990546e-02
5.011999999999999744e+01,4.535597259785977171e-03
5.015999999999999659e+01,1.217147397073814821e-02
5.020000000000000284e+01,1.154045436726402855e-02
5.024000000000000199e+01,8.727744722991932769e-03
5.028000000000000114e+01,1.222967062468335864e-02
5.032000000000000028e+01,1.136841835942175617e-02
5.035999999999999943e+01,1.429586789780664877e-02
5.039999999999999858e+01,6.774934159915353346e-03
5.043999999999999773e+01,1.062050655743549364e-02
5.047999999999999687e+01,1.182513042121888930e-02
5.052000000000000313e+01,1.119251257707837115e-02
5.056000000000000227e+01,1.664490258483893731e-02
5.060000000000000142e+01,1.291187851609222267e-02
5.064000000000000057e+01,9.637918011472674032e-03
5.067999999999999972e+01,1.761565076548765943e-02
5.071999999999999886e+01,1.066721033793588749e-02
5.075999999999999801e+01,1.152600778360329467e-02
5.079999999999999716e+01,1.249942472964290542e-02
5.084000000000000341e+01,9.339298964826634603e-03
5.088000000000000256e+01,9.393804022042945984e-03
5.092000000000000171e+01,1.610739645101246648e-02
5.096000000000000085e+01,4.794807481568712747e-03
5.100000000000000000e+01,1.127838158264911524e-02
5.103999999999999915e+01,1.339878450260770237e-02
5.107999999999999829e+01,9.548603754124068005e-03
5.111999999999999744e+01,8.224164923959718584e-03
5.115999999999999659e+01,1.034399004331475712e-02
5.120000000000000284e+01,1.613770991106546968e-02
5.124000000000000199e+01,1.113860903651457158e-02
5.128000000000000114e+01,4.761534649521901967e-03
5.132000000000000028e+01,1.273617027624848914e-02
5.135999999999999943e+01,1.083650796807700441e-02
5.139999999999999858e+01,1.054406865183861626e-02
5.143999999999999773e+01,6.921798883981374051e-03
5.147999999999999687e+01,8.695654662041422261e-03
5.152000000000000313e+01,1.046932172091763480e-02
5.156000000000000227e+01,1.419465894029574467e-02
5.160000000000000142e+01,1.309756959042717231e-02
5.164000000000000057e+01,1.326325994494019327e-02
5.167999999999999972e+01,1.893989299126644377e-02
5.171999999999999886e+01,1.003480817473122177e-02
5.175999999999999801e+01,1.387402476561221294e-02
5.179999999999999716e+01,1.059451262000930295e-02
5.184000000000000341e+01,7.774075681585635236e-03
5.188000000000000256e+01,1.367940912632810251e-02
5.192000000000000171e+01,1.533639513357422032e-02
5.196000000000000085e+01,1.377837093991137428e-02
5.200000000000000000e+01,1.072756501425072527e-02
5.203999999999999915e+01,1.077658596018572779e-02
5.207999999999999829e+01,9.906901977262870529e-03
5.211999999999999744e+01,9.955556739780586570e-03
5.215999999999999659e+01,1.069292022506599521e-02
5.220000000000000284e+01,1.636715542055073441e-02
5.224000000000000199e+01,7.574493003883853159e-03
5.228000000000000114e+01,1.267428909382871047e-02
5.232000000000000028e+01,1.524796970810399221e-02
5.235999999999999943e+01,1.024366619777045649e-02
5.239999999999999858e+01,1.281698606205274732e-02
5.243999999999999773e+01,1.068270271261203067e-02
5.247999999999999687e+01,1.348529379008281230e-02
5.252000000000000313e+01,1.146546722464682720e-02
5.256000000000000227e+01,1.357880942461472777e-02
5.260000000000000142e+01,1.178825640097765082e-02
5.264000000000000057e+01,1.573828579437009864e-02
5.267999999999999972e+01,1.245477978412949834e-02
5.271999999999999886e+01,1.445259614557268223e-02
5.275999999999999801e+01,1.794283348902067296e-02
5.279999999999999716e+01,9.836558788423724331e-03
5.284000000000000341e+01,1.171903104469476306e-02
5.288000000000000256e+01,1.624207750114878973e-02
5.292000000000000171e+01,1.203899321254539578e-02
5.296000000000000085e+01,1.702095060740418248e-02
5.300000000000000000e+01,1.660641898964054092e-02
5.303999999999999915e+01,1.894727832985413848e-02
5.307999999999999829e+01,1.589164943364873225e-02
5.311999999999999744e+01,2.121735733560142778e-02
5.315999999999999659e+01,1.322432860561536909e-02
5.320000000000000284e+01,1.659783279006047871e-02
5.324000000000000199e+01,1.273780700429688779e-02
5.328000000000000114e+01,1.094428327279713641e-02
5.332000000000000028e+01,1.075800116211383245e-02
5.335999999999999943e+01,1.080117859570109591e-02
5.339999999999999858e+01,1.382938089095577319e-02
5.343999999999999773e+01,1.123146803193256042e-02
5.347999999999999687e+01,1.242228724849126636e-02
5.352000000000000313e+01,1.269441550785456799e-02
5.356000000000000227e+01,1.296637484122261860e-02
5.360000000000000142e+01,1.461594810134460645e-02
5.364000000000000057e+01,1.350978828237971337e-02
5.367999999999999972e+01,1.125530864785181072e-02
5.371999999999999886e+01,1.508586752526213000e-02
5.375999999999999801e+01,1.087919504007527072e-02
5.379999999999999716e+01,1.470942033461406992e-02
5.384000000000000341e+01,1.440613202592719126e-02
5.388000000000000256e+01,1.731750364690309851e-02
5.392000000000000171e+01,1.391387353849814733e-02
5.396000000000000085e+01,1.303601290363577865e-02
5.400000000000000000e+01,1.675059582738893521e-02
5.403999999999999915e+01,1.679092790997422160e-02
5.407999999999999829e+01,1.281256392333149190e-02
5.411999999999999744e+01,1.285256863267307537e-02
5.415999999999999659e+01,1.599242078300230213e-02
5.420000000000000284e+01,1.890247980618944487e-02
5.424000000000000199e+01,1.354568171322566988e-02
5.428000000000000114e+01,1.392948194946248830e-02
5.432000000000000028e+01,1.006495803430711850e-02
5.435999999999999943e+01,1.251510925149239110e-02
5.439999999999999858e+01,1.324287161200936834e-02
5.443999999999999773e+01,1.844826659487370374e-02
5.447999999999999687e+01,1.159790501241679886e-02
5.452000000000000313e+01,1.404741545477710546e-02
5.456000000000000227e+01,1.408564736055231172e-02
5.460000000000000142e+01,1.710891577104699246e-02
5.464000000000000057e+01,1.611349354573798909e-02
5.467999999999999972e+01,1.787347819057732989e-02
5.471999999999999886e+01,1.584440338659102651e-02
5.475999999999999801e+01,1.415961691582339789e-02
5.479999999999999716e+01,1.591912971183306533e-02
5.484000000000000341e+01,1.630070353645547351e-02
5.488000000000000256e+01,1.530433877779239366e-02
5.492000000000000171e+01,1.625967678017696538e-02
5.496000000000000085e+01,1.250743601924795417e-02
5.500000000000000000e+01,1.644765906493485599e-02
5.503999999999999915e+01,1.797660823125752511e-02
5.507999999999999829e+01,1.697946870093037380e-02
5.511999999999999744e+01,1.942663154219444535e-02
5.515999999999999659e+01,1.142545729128893912e-02
5.520000000000000284e+01,2.064641083465339547e-02
5.524000000000000199e+01,1.654864792736935805e-02
5.528000000000000114e+01,1.784704743566747215e-02
5.532000000000000028e+01,1.340453482508198284e-02
5.535999999999999943e+01,1.343966376318376892e-02
5.539999999999999858e+01,1.577094573571598962e-02
5.543999999999999773e+01,1.729837058532346025e-02
5.547999999999999687e+01,1.308488486845423363e-02
5.552000000000000313e+01,2.115647621901521960e-02
5.556000000000000227e+01,1.694269107222729637e-02
5.560000000000000142e+01,1.801025624044810119e-02
5.564000000000000057e+01,2.148879197709704231e-02
5.567999999999999972e+01,1.624122374770840121e-02
5.571999999999999886e+01,1.971946315925249618e-02
5.575999999999999801e+01,1.355307773786407904e-02
5.579999999999999716e+01,1.932732648445614765e-02
5.584000000000000341e+01,1.867177692516342954e-02
5.588000000000000256e+01,1.675311369051583205e-02
5.592000000000000171e+01,1.368615237400242803e-02
5.596000000000000085e+01,1.900055541087037128e-02
5.600000000000000000e+01,2.236295470436488325e-02
5.603999999999999915e+01,1.941037283787055284e-02
5.607999999999999829e+01,1.197985348568582874e-02
5.611999999999999744e+01,1.258625442312747734e-02
5.615999999999999659e+01,1.709622864435466835e-02
5.620000000000000284e+01,1.770234257113318180e-02
5.624000000000000199e+01,1.555274864543758004e-02
5.628000000000000114e+01,1.489560985469956349e-02
5.632000000000000028e+01,1.951982836480156691e-02
5.635999999999999943e+01,1.759943840895404274e-02
5.639999999999999858e+01,1.912336324395326470e-02
5.643999999999999773e+01,1.720269093466334984e-02
5.647999999999999687e+01,1.700410611161431995e-02
5.652000000000000313e+01,1.806834834135863724e-02
5.656000000000000227e+01,2.188801568203291650e-02
5.660000000000000142e+01,2.410013071702172757e-02
5.664000000000000057e+01,1.563429260883052174e-02
5.667999999999999972e+01,1.509056501830276752e-02
5.671999999999999886e+01,2.040227463656879917e-02
5.675999999999999801e+01,2.801015048472435195e-02
5.679999999999999716e+01,2.080672734816422717e-02
5.684000000000000341e+01,1.831059053083020777e-02
5.688000000000000256e+01,1.420690412452288616e-02
5.692000000000000171e+01,1.412161358132135204e-02
5.696000000000000085e+01,1.644730641390524523e-02
5.700000000000000000e+01,1.567285315178621949e-02
5.703999999999999915e+01,2.029457938172573445e-02
5.707999999999999829e+01,1.894578015848339542e-02
5.711999999999999744e+01,1.633387929104002795e-02
5.715999999999999659e+01,2.348113688467765026e-02
5.720000000000000284e+01,2.075415320627058829e-02
5.724000000000000199e+01,1.618999302103123553e-02
5.728000000000000114e+01,1.954794917498136123e-02
5.732000000000000028e+01,2.302058808988662053e-02
5.735999999999999943e+01,2.649309494846148125e-02
5.739999999999999858e+01,1.664690631388162506e-02
5.743999999999999773e+01,1.793766132174235556e-02
5.747999999999999687e+01,1.991717666990165669e-02
5.752000000000000313e+01,2.201137671952485206e-02
5.756000000000000227e+01,2.146469692941854399e-02
5.760000000000000142e+01,1.563638796377673709e-02
5.764000000000000057e+01,1.841909006256377268e-02
5.767999999999999972e+01,1.534608773508232098e-02
5.771999999999999886e+01,1.893223875664914665e-02
5.775999999999999801e+01,2.182937037057916529e-02
5.779999999999999716e+01,2.093747241951722862e-02
5.784000000000000341e+01,2.107878391783134936e-02
5.788000000000000256e+01,1.926810991355365141e-02
5.792000000000000171e+01,1.757212449175720240e-02
5.796000000000000085e+01,2.161677310452108508e-02
5.800000000000000000e+01,2.003535080660494641e-02
5.803999999999999915e+01,1.879824866624980190e-02
5.807999999999999829e+01,2.226844487627461372e-02
5.811999999999999744e+01,1.988294092915001907e-02
5.815999999999999659e+01,2.323807295709443693e-02
5.820000000000000284e+01,1.740786464786142629e-02
5.824000000000000199e+01,2.007385801919595036e-02
5.828000000000000114e+01,2.205083702821625247e-02
5.832000000000000028e+01,2.138694357144009517e-02
5.835999999999999943e+01,2.003403652855316464e-02
5.839999999999999858e+01,2.281435491392357073e-02
5.843999999999999773e+01,2.008342186312032929e-02
5.847999999999999687e+01,1.723755241744805156e-02
5.852000000000000313e+01,2.070639846669687645e-02
5.856000000000000227e+01,2.061585273566128237e-02
5.860000000000000142e+01,1.949185013096349853e-02
5.864000000000000057e+01,2.341959692623179698e-02
5.867999999999999972e+01,1.850645365770532333e-02
5.871999999999999886e+01,2.094136467309436200e-02
5.875999999999999801e+01,2.440949406419937531e-02
5.879999999999999716e+01,2.156266907433532914e-02
5.884000000000000341e+01,1.997869364716534438e-02
5.888000000000000256e+01,2.126498104621334095e-02
5.892000000000000171e+01,2.048447782792731792e-02
5.896000000000000085e+01,1.867052122889469729e-02
5.900000000000000000e+01,2.087498067425819573e-02
5.903999999999999915e+01,2.066820505043101552e-02
5.907999999999999829e+01,2.447984624720338578e-02
5.911999999999999744e+01,2.174690575704602002e-02
5.915999999999999659e+01,2.360645889062811670e-02
5.920000000000000284e+01,2.695849549059450151e-02
5.924000000000000199e+01,2.491410362180928803e-02
5.928000000000000114e+01,2.332885914712615194e-02
5.932000000000000028e+01,2.323609930313251526e-02
5.935999999999999943e+01,2.199507475402236178e-02
5.939999999999999858e+01,2.419839410338920846e-02
5.943999999999999773e+01,1.629786350363401914e-02
5.947999999999999687e+01,2.206023085802844008e-02
5.952000000000000313e+01,2.265580287115801297e-02
5.956000000000000227e+01,2.428460102203830115e-02
5.960000000000000142e+01,2.177994145634284257e-02
5.964000000000000057e+01,2.099740003692535800e-02
5.967999999999999972e+01,2.652958536737933318e-02
5.971999999999999886e+01,2.138384743848696992e-02
5.975999999999999801e+01,2.163431539257120936e-02
5.979999999999999716e+01,2.291801181301663173e-02
5.984000000000000341e+01,1.834602476468728122e-02
5.988000000000000256e+01,2.743693955152491301e-02
5.992000000000000171e+01,2.206103124174420629e-02
5.996000000000000085e+01,2.047391788002661181e-02
