2.003999999999999915e+01,2.955055745514905546e-02
2.007999999999999829e+01,2.954649191037646630e-02
2.012000000000000099e+01,2.581320106969480638e-02
2.016000000000000014e+01,3.128615230953468024e-02
2.019999999999999929e+01,1.589912288193898876e-02
2.023999999999999844e+01,1.810890844854241497e-02
2.028000000000000114e+01,2.591232682854244240e-02
2.032000000000000028e+01,3.126841119135082697e-02
2.035999999999999943e+01,1.355033418216841298e-02
2.039999999999999858e+01,1.785742896151916795e-02
2.044000000000000128e+01,2.682586905125144625e-02
2.048000000000000043e+01,2.262568499083520909e-02
2.051999999999999957e+01,2.646638209391291227e-02
2.055999999999999872e+01,2.576209945170906263e-02
2.060000000000000142e+01,2.132858689882075748e-02
2.064000000000000057e+01,2.843202672356871102e-02
2.067999999999999972e+01,1.852116087072489675e-02
2.071999999999999886e+01,1.956456789841517011e-02
2.076000000000000156e+01,2.573546014234780535e-02
2.080000000000000071e+01,2.631254862325986890e-02
2.083999999999999986e+01,2.700608449071945430e-02
2.087999999999999901e+01,1.289949192406033424e-02
2.092000000000000171e+01,1.231095671819190662e-02
2.096000000000000085e+01,2.104519164714599086e-02
2.100000000000000000e+01,1.264858207639633740e-02
2.103999999999999915e+01,1.427395634490712627e-02
2.107999999999999829e+01,2.813549323440998895e-02
2.112000000000000099e+01,1.764096824365338906e-02
2.116000000000000014e+01,2.159678427105591117e-02
2.119999999999999929e+01,3.009740255651655039e-02
2.123999999999999844e+01,1.505770802718551030e-02
2.128000000000000114e+01,2.565578493939588145e-02
2.132000000000000028e+01,1.609308488992688968e-02
2.135999999999999943e+01,2.249568862852278570e-02
2.139999999999999858e+01,2.971394884332802938e-02
2.144000000000000128e+01,1.176039388219464465e-02
2.148000000000000043e+01,2.492178848272277522e-02
2.151999999999999957e+01,2.339958424169190018e-02
2.155999999999999872e+01,2.082846300909903942e-02
2.160000000000000142e+01,1.709188865478493066e-02
2.164000000000000057e+01,3.048597285252842293e-02
2.167999999999999972e+01,1.894131105813427057e-02
2.171999999999999886e+01,1.800130529337381699e-02
2.176000000000000156e+01,2.265491811311705350e-02
2.180000000000000071e+01,1.495564431123941503e-02
2.183999999999999986e+01,1.518070323662704980e-02
2.187999999999999901e+01,2.601041665338971534e-02
2.192000000000000171e+01,2.308881334770292865e-02
2.196000000000000085e+01,1.830253898564563469e-02
2.200000000000000000e+01,2.586895414518761149e-02
2.203999999999999915e+01,1.245883520172436608e-02
2.207999999999999829e+01,2.526915873648174007e-02
2.212000000000000099e+01,1.675334016232098502e-02
2.216000000000000014e+01,2.000753084352807284e-02
2.219999999999999929e+01,2.221279838013839533e-02
2.223999999999999844e+01,2.080535598450732049e-02
2.228000000000000114e+01,8.210379808424678183e-03
2.232000000000000028e+01,1.775709270736571324e-02
2.235999999999999943e+01,2.707063114261303721e-02
2.239999999999999858e+01,2.391474144217495962e-02
2.244000000000000128e+01,1.598078243072666507e-02
2.248000000000000043e+01,2.692551007939592358e-02
2.251999999999999957e+01,1.910787817658040830e-02
2.255999999999999872e+01,2.072953677159504807e-02
2.260000000000000142e+01,2.060305390279898105e-02
2.264000000000000057e+01,1.954417940478925253e-02
2.267999999999999972e+01,1.662062692824487625e-02
2.271999999999999886e+01,2.022296977140848259e-02
2.276000000000000156e+01,1.415273891207353453e-02
2.280000000000000071e+01,2.264936904934081868e-02
2.283999999999999986e+01,1.448127997930756874e-02
2.287999999999999901e+01,2.286115881185438528e-02
2.292000000000000171e+01,1.271174573845864145e-02
2.296000000000000085e+01,1.992605001767548331e-02
2.300000000000000000e+01,1.641895657665485078e-02
2.303999999999999915e+01,2.421572094820117690e-02
2.307999999999999829e+01,2.012572937443519658e-02
2.312000000000000099e+01,1.253955515359969977e-02
2.316000000000000014e+01,2.161788188898603955e-02
2.319999999999999929e+01,2.195591665641890428e-02
2.323999999999999844e+01,1.809855314952081573e-02
2.328000000000000114e+01,1.470722080750891912e-02
2.332000000000000028e+01,1.644334906960032497e-02
2.335999999999999943e+01,1.468329237723402583e-02
2.339999999999999858e+01,9.543586091440028896e-03
2.344000000000000128e+01,1.594080526375520057e-02
2.348000000000000043e+01,1.721033788959503222e-02
2.351999999999999957e+01,2.325772195993116784e-02
2.355999999999999872e+01,1.030966498891188778e-02
2.360000000000000142e+01,3.537887640394087561e-03
2.364000000000000057e+01,1.541171430842936188e-02
2.367999999999999972e+01,1.166963540365696488e-02
2.371999999999999886e+01,2.109597970336477696e-02
2.376000000000000156e+01,1.712059682743186789e-02
2.380000000000000071e+01,2.421599296614792771e-02
2.383999999999999986e+01,2.152226927352489730e-02
2.387999999999999901e+01,1.125360453129440816e-02
2.392000000000000171e+01,1.601793300023339126e-02
2.396000000000000085e+01,1.716953500065009075e-02
2.400000000000000000e+01,9.930444578603515871e-03
2.403999999999999915e+01,2.355113349375967738e-02
2.407999999999999829e+01,1.549605421954510127e-02
2.412000000000000099e+01,2.200782325129847089e-02
2.416000000000000014e+01,1.430211104260269324e-02
2.419999999999999929e+01,1.487031610864012268e-02
2.423999999999999844e+01,1.031082732147349350e-02
2.428000000000000114e+01,7.615789032210749238e-03
2.432000000000000028e+01,1.727341795979629377e-02
2.435999999999999943e+01,1.877342249502560872e-02
2.439999999999999858e+01,1.619455334914303435e-02
2.444000000000000128e+01,2.317149237214563909e-02
2.448000000000000043e+01,1.546480409580353044e-02
2.451999999999999957e+01,2.174228155180996103e-02
2.455999999999999872e+01,3.268106470803663205e-02
2.460000000000000142e+01,1.798185932533734321e-02
2.464000000000000057e+01,1.738335426688718266e-02
2.467999999999999972e+01,1.445400901929060414e-02
2.471999999999999886e+01,9.893037671550220305e-03
2.476000000000000156e+01,3.234296856723225134e-03
2.480000000000000071e+01,1.568729188845196729e-02
2.483999999999999986e+01,1.229129870380845681e-02
2.487999999999999901e+01,2.369521800959329197e-02
2.492000000000000171e+01,1.528793297966202225e-02
2.496000000000000085e+01,1.259077151465523743e-02
2.500000000000000000e+01,9.543874459091838264e-03
2.503999999999999915e+01,1.745120875107821282e-02
2.507999999999999829e+01,1.766705471092239188e-02
2.512000000000000099e+01,1.019141195405975572e-02
2.516000000000000014e+01,1.133928447916180381e-02
2.519999999999999929e+01,2.717053067258027449e-02
2.523999999999999844e+01,1.561574599011987356e-02
2.528000000000000114e+01,1.303408267271386443e-02
2.532000000000000028e+01,1.418143178404297593e-02
2.535999999999999943e+01,9.385326055195420542e-03
2.539999999999999858e+01,1.577651970400452755e-02
2.544000000000000128e+01,1.692347221707484611e-02
2.548000000000000043e+01,1.923564921754171431e-02
2.551999999999999957e+01,1.548783409397871437e-02
2.555999999999999872e+01,1.383752865343920724e-02
2.560000000000000142e+01,6.476837556524016153e-03
2.564000000000000057e+01,1.589715931841569757e-02
2.567999999999999972e+01,1.203227119115695375e-02
2.571999999999999886e+01,7.118426077610316358e-03
2.576000000000000156e+01,1.455723433658384636e-02
2.580000000000000071e+01,9.176974535091086960e-03
2.583999999999999986e+01,1.906276097685278767e-02
2.587999999999999901e+01,1.577987135223518980e-02
2.592000000000000171e+01,1.785748882620642047e-02
2.596000000000000085e+01,1.585621762104359386e-02
2.600000000000000000e+01,2.387688256912181076e-02
2.603999999999999915e+01,7.424902589891511223e-03
2.607999999999999829e+01,3.325572906663835319e-03
2.612000000000000099e+01,2.451436089586861086e-02
2.616000000000000014e+01,1.202417890210169538e-02
2.619999999999999929e+01,0.000000000000000000e+00
2.623999999999999844e+01,2.025608235230933613e-02
2.628000000000000114e+01,1.557337448754384825e-02
2.632000000000000028e+01,1.461966943739673348e-02
2.635999999999999943e+01,1.879339576443785076e-02
2.639999999999999858e+01,1.154647720967726630e-02
2.644000000000000128e+01,1.676874123543182007e-02
2.648000000000000043e+01,1.523178943403714729e-02
2.651999999999999957e+01,1.893880321716656656e-02
2.655999999999999872e+01,1.204092079939734009e-02
2.660000000000000142e+01,1.376653981926467644e-02
2.664000000000000057e+01,1.152979936799313626e-02
2.667999999999999972e+01,1.325512976144696368e-02
2.671999999999999886e+01,1.171731438819979647e-02
2.676000000000000156e+01,2.288175001013959334e-02
2.680000000000000071e+01,2.623814501806173358e-02
2.683999999999999986e+01,1.922271262432173611e-02
2.687999999999999901e+01,2.292842239696736908e-02
2.692000000000000171e+01,1.929223338427953072e-02
2.696000000000000085e+01,1.775354059485174593e-02
2.700000000000000000e+01,2.122573728398298096e-02
2.703999999999999915e+01,1.910407021800488922e-02
2.707999999999999829e+01,1.022318155640737115e-02
2.712000000000000099e+01,1.334532595534750760e-02
2.716000000000000014e+01,1.553503526926621262e-02
2.719999999999999929e+01,1.224741503541145263e-02
2.723999999999999844e+01,1.571871815664576191e-02
2.728000000000000114e+01,1.546072714489553357e-02
2.732000000000000028e+01,1.450337100105421502e-02
2.735999999999999943e+01,1.377893530531343336e-02
2.739999999999999858e+01,1.923074269843044748e-02
2.744000000000000128e+01,1.023196582560599935e-02
2.748000000000000043e+01,1.649921942888438187e-02
2.751999999999999957e+01,1.670646167989930583e-02
2.755999999999999872e+01,1.341747859716599205e-02
2.760000000000000142e+01,1.478977198773795410e-02
2.764000000000000057e+01,1.418080396816143521e-02
2.767999999999999972e+01,1.298900310100634288e-02
2.771999999999999886e+01,2.357652336522584550e-03
2.776000000000000156e+01,1.491676005661797880e-02
2.780000000000000071e+01,1.652135241752628048e-02
2.783999999999999986e+01,2.045650403246093707e-02
2.787999999999999901e+01,2.159464171069726268e-02
2.792000000000000171e+01,1.096251265689070740e-02
2.796000000000000085e+01,1.233340858776373061e-02
2.800000000000000000e+01,1.510257626964793022e-02
2.803999999999999915e+01,1.157865610873892032e-02
2.807999999999999829e+01,8.404185219360866058e-03
2.812000000000000099e+01,1.606738032045819733e-02
2.816000000000000014e+01,3.453196953722881008e-03
2.819999999999999929e+01,1.391293209576075635e-02
2.823999999999999844e+01,1.050475400853656018e-02
2.828000000000000114e+01,1.933266932066356539e-02
2.832000000000000028e+01,1.102966975775196944e-02
2.835999999999999943e+01,1.764308497373669876e-02
2.839999999999999858e+01,1.306890757087530476e-02
2.844000000000000128e+01,2.690721654561718801e-02
2.848000000000000043e+01,1.510749967866006210e-02
2.851999999999999957e+01,1.507773092128792888e-02
2.855999999999999872e+01,1.551394256626530306e-02
2.860000000000000142e+01,8.724775019787587085e-03
2.864000000000000057e+01,3.683480308070047164e-03
2.867999999999999972e+01,8.897167474949816551e-03
2.871999999999999886e+01,1.341147604997492554e-02
2.876000000000000156e+01,1.338072604396084268e-02
2.880000000000000071e+01,1.637974053598818813e-02
2.883999999999999986e+01,1.238644502036155733e-02
2.887999999999999901e+01,9.325269812945222170e-03
2.892000000000000171e+01,2.071436101814171787e-02
2.896000000000000085e+01,9.961494134699409170e-03
2.900000000000000000e+01,8.065177106202433763e-03
2.903999999999999915e+01,8.849015031575290999e-03
2.907999999999999829e+01,2.174397659527912974e-03
2.912000000000000099e+01,1.181461670678270529e-02
2.916000000000000014e+01,5.372734513491606544e-03
2.919999999999999929e+01,7.437793015538872107e-03
2.923999999999999844e+01,1.078457560149806253e-02
2.928000000000000114e+01,1.855954701785723568e-02
2.932000000000000028e+01,2.120677574129898463e-02
2.935999999999999943e+01,1.068529494123522140e-02
2.939999999999999858e+01,2.102354194670809362e-02
2.944000000000000128e+01,1.807654291395148494e-02
2.948000000000000043e+01,9.768728158829719302e-03
2.951999999999999957e+01,1.311431615358164479e-02
2.955999999999999872e+01,2.053848304999719709e-02
2.960000000000000142e+01,1.829001048335542057e-02
2.964000000000000057e+01,8.699612980982570146e-03
2.967999999999999972e+01,1.437522480365561149e-02
2.971999999999999886e+01,1.084433899195548327e-02
2.976000000000000156e+01,7.546350554475677458e-03
2.980000000000000071e+01,1.718365537645680577e-02
2.983999999999999986e+01,1.656563970001988934e-02
2.987999999999999901e+01,8.489161034869312575e-03
2.992000000000000171e+01,1.812594004486202046e-02
2.996000000000000085e+01,1.820661187630991107e-02
3.000000000000000000e+01,1.467449916997011147e-02
3.003999999999999915e+01,1.044299518114154453e-02
3.007999999999999829e+01,1.320345873449941566e-02
3.012000000000000099e+01,1.817792387610286248e-02
3.016000000000000014e+01,1.219785096920358164e-02
3.019999999999999929e+01,1.577353085387675838e-02
3.023999999999999844e+01,1.585295963896874577e-02
3.028000000000000114e+01,1.837945996523667955e-02
3.032000000000000028e+01,1.717663693160492722e-02
3.035999999999999943e+01,1.981931361715431536e-02
3.039999999999999858e+01,1.442084358667657627e-02
3.044000000000000128e+01,1.181905079589967884e-02
3.048000000000000043e+01,2.401711665649702149e-02
3.051999999999999957e+01,1.290785197448794663e-02
3.055999999999999872e+01,1.088819364059110881e-02
3.060000000000000142e+01,2.273610683961816217e-02
3.064000000000000057e+01,1.150975983353379889e-02
3.067999999999999972e+01,1.112105420578586232e-02
3.071999999999999886e+01,1.725816698481145994e-02
3.076000000000000156e+01,1.080923550854071165e-02
3.080000000000000071e+01,1.741212342320865719e-02
3.083999999999999986e+01,8.282501182398179299e-03
3.087999999999999901e+01,1.337005501934253326e-02
3.092000000000000171e+01,1.204795757924263973e-02
3.096000000000000085e+01,1.631939027377192139e-02
3.100000000000000000e+01,1.091817004548040378e-02
3.103999999999999915e+01,6.222620791797171987e-04
3.107999999999999829e+01,6.175028706134136347e-03
3.112000000000000099e+01,2.754355730141032702e-03
3.116000000000000014e+01,2.299025153310806785e-02
3.119999999999999929e+01,1.863691705432930432e-02
3.123999999999999844e+01,1.742985936074155709e-02
3.128000000000000114e+01,5.967467324407615958e-03
3.132000000000000028e+01,1.443249866974977147e-02
3.135999999999999943e+01,1.240912341202723111e-02
3.139999999999999858e+01,1.458084511158797870e-02
3.144000000000000128e+01,9.876767552385565946e-03
3.148000000000000043e+01,1.496150196987526895e-02
3.151999999999999957e+01,1.340350785066156576e-02
3.155999999999999872e+01,1.219492954585244676e-02
3.160000000000000142e+01,1.261765987242326192e-02
3.164000000000000057e+01,1.467169844580935682e-02
3.167999999999999972e+01,1.521057975039330837e-02
3.171999999999999886e+01,9.223266341045087066e-03
3.176000000000000156e+01,1.104365454132895386e-02
3.180000000000000071e+01,1.099927708233304144e-02
3.183999999999999986e+01,4.545239501305499245e-03
3.187999999999999901e+01,1.137608241915958468e-02
3.192000000000000171e+01,8.883870805989103892e-03
3.196000000000000085e+01,1.280092993249277479e-02
3.200000000000000000e+01,1.462014998570425675e-02
3.203999999999999915e+01,6.650171371818902784e-03
3.207999999999999829e+01,1.138239260601919475e-02
3.211999999999999744e+01,9.471879535045980500e-03
3.215999999999999659e+01,1.921474383267811337e-02
3.220000000000000284e+01,4.018760997664001453e-03
3.224000000000000199e+01,1.574233743501114724e-02
3.228000000000000114e+01,1.091763965338997215e-02
3.232000000000000028e+01,8.656529545740922552e-03
3.235999999999999943e+01,1.198893611295755515e-02
3.239999999999999858e+01,1.170853506850618071e-02
3.243999999999999773e+01,1.026257668530759608e-02
3.247999999999999687e+01,1.149674018341705073e-02
3.252000000000000313e+01,1.296377452078444244e-02
3.256000000000000227e+01,1.145532823877924537e-03
3.260000000000000142e+01,1.181848860565802919e-02
3.264000000000000057e+01,1.538256210054578937e-02
3.267999999999999972e+01,1.358578910789462815e-02
3.271999999999999886e+01,1.027384884775992512e-02
3.275999999999999801e+01,2.141213808202956440e-02
3.279999999999999716e+01,1.798325577309728765e-02
3.284000000000000341e+01,1.350534802536560927e-02
3.288000000000000256e+01,1.520363068113158092e-02
3.292000000000000171e+01,1.363870796267245729e-02
3.296000000000000085e+01,1.790036764179802828e-02
3.300000000000000000e+01,4.022486262137078133e-02
3.303999999999999915e+01,2.192897297743339746e-01
3.307999999999999829e+01,2.423130275403654887e-01
3.311999999999999744e+01,5.848517045567959427e-02
3.315999999999999659e+01,1.601496597221009621e-02
3.320000000000000284e+01,7.806063504006159094e-03
3.324000000000000199e+01,1.404738591543045444e-02
3.328000000000000114e+01,8.984533045524049216e-03
3.332000000000000028e+01,1.324433147995663328e-02
3.335999999999999943e+01,5.966882372740066852e-03
3.339999999999999858e+01,1.488769279081127161e-02
3.343999999999999773e+01,1.739882770426392361e-02
3.347999999999999687e+01,1.629714462280246884e-02
3.352000000000000313e+01,2.172125302858755533e-02
3.356000000000000227e+01,1.630732644346738827e-02
3.360000000000000142e+01,1.450579693660082777e-02
3.364000000000000057e+01,7.693018949426930556e-03
3.367999999999999972e+01,1.043596029669901712e-02
3.371999999999999886e+01,1.166372476237076405e-02
3.375999999999999801e+01,1.300781240020106727e-02
3.379999999999999716e+01,1.388554409765258534e-02
3.384000000000000341e+01,2.501820806485871226e-02
3.388000000000000256e+01,1.342618791399867277e-02
3.392000000000000171e+01,1.127334904460210868e-02
3.396000000000000085e+01,1.086833186286437387e-02
3.400000000000000000e+01,1.104577852827539307e-02
3.403999999999999915e+01,1.530176102410677266e-02
3.407999999999999829e+01,1.489609804620305525e-02
3.411999999999999744e+01,1.623825521769949737e-02
3.415999999999999659e+01,2.130933982913866404e-02
3.420000000000000284e+01,1.950459864685235786e-02
3.424000000000000199e+01,1.501931812767955988e-02
3.428000000000000114e+01,1.461257113153906391e-02
3.432000000000000028e+01,2.154735815051351741e-02
3.435999999999999943e+01,1.787717397847840908e-02
3.439999999999999858e+01,1.746977195661981314e-02
3.443999999999999773e+01,2.102436617394037519e-02
3.447999999999999687e+01,1.572202423047548703e-02
3.452000000000000313e+01,1.578010670419490238e-02
3.456000000000000227e+01,1.910096978983219507e-02
3.460000000000000142e+01,1.333182406980095575e-02
3.464000000000000057e+01,1.537035227074545762e-02
3.467999999999999972e+01,1.904015949159014107e-02
3.471999999999999886e+01,1.909713679601588929e-02
3.475999999999999801e+01,1.542474805386346605e-02
3.479999999999999716e+01,1.932696020323899574e-02
3.484000000000000341e+01,1.134230334528889966e-02
3.488000000000000256e+01,7.203102750711997196e-03
3.492000000000000171e+01,1.693143215607444130e-02
3.496000000000000085e+01,1.185949776055361671e-02
3.500000000000000000e+01,1.214798316744109159e-02
3.503999999999999915e+01,1.231970794922855085e-02
3.507999999999999829e+01,1.354002917729678693e-02
3.511999999999999744e+01,1.779005414218836484e-02
3.515999999999999659e+01,1.691228026772053500e-02
3.520000000000000284e+01,1.335395782681401619e-02
3.524000000000000199e+01,1.597180310008954052e-02
3.528000000000000114e+01,2.115320758955158142e-02
3.532000000000000028e+01,1.503041718488465177e-02
3.535999999999999943e+01,1.986175891008206199e-02
3.539999999999999858e+01,1.781726330461382707e-02
3.543999999999999773e+01,1.029535893104985972e-02
3.547999999999999687e+01,1.873862259422167179e-02
3.552000000000000313e+01,1.599422518603564256e-02
3.556000000000000227e+01,2.420395798489062555e-02
3.560000000000000142e+01,2.635360174941844824e-02
3.564000000000000057e+01,2.127779863910900238e-02
3.567999999999999972e+01,1.655137173304294107e-02
3.571999999999999886e+01,1.951607261911198279e-02
3.575999999999999801e+01,2.283014894029510022e-02
3.579999999999999716e+01,2.194870623384038988e-02
3.584000000000000341e+01,1.489063644007592412e-02
3.588000000000000256e+01,1.773787206648420184e-02
3.592000000000000171e+01,2.303212501044968677e-02
3.596000000000000085e+01,1.958596331033142512e-02
3.600000000000000000e+01,2.138367605291008333e-02
3.603999999999999915e+01,2.050083215319197655e-02
3.607999999999999829e+01,3.371857859222683607e-02
3.611999999999999744e+01,3.143683560443567143e-02
3.615999999999999659e+01,2.472649863673559781e-02
3.620000000000000284e+01,3.036871467017627363e-02
3.624000000000000199e+01,2.936815678828231732e-02
3.628000000000000114e+01,3.419414938510530882e-02
3.632000000000000028e+01,3.086240260473526939e-02
3.635999999999999943e+01,2.648159654387467060e-02
3.639999999999999858e+01,3.130687643027878220e-02
3.643999999999999773e+01,2.576023661949951998e-02
3.647999999999999687e+01,2.580707387342476289e-02
3.652000000000000313e+01,3.680803210483882953e-02
3.656000000000000227e+01,2.228742255808468728e-02
3.660000000000000142e+01,2.408157751703916133e-02
3.664000000000000057e+01,3.787867401013935570e-02
3.667999999999999972e+01,3.466131099977909358e-02
3.671999999999999886e+01,3.272560015973714764e-02
3.675999999999999801e+01,3.673297092923062668e-02
3.679999999999999716e+01,3.724402753053676629e-02
3.684000000000000341e+01,4.404777220903263735e-02
3.688000000000000256e+01,4.246070063524097493e-02
3.692000000000000171e+01,4.215527930894422126e-02
3.696000000000000085e+01,4.173307889844327795e-02
3.700000000000000000e+01,4.131063476476796309e-02
3.703999999999999915e+01,3.424540902446457369e-02
3.707999999999999829e+01,5.456583900657541175e-02
3.711999999999999744e+01,4.435365876604723673e-02
3.715999999999999659e+01,5.138852361207857378e-02
3.720000000000000284e+01,5.434439171630314064e-02
3.724000000000000199e+01,4.902597585275265957e-02
3.728000000000000114e+01,5.839081751898771155e-02
3.732000000000000028e+01,6.344358979853284564e-02
3.735999999999999943e+01,7.036068682333430913e-02
3.739999999999999858e+01,6.690585492140024848e-02
3.743999999999999773e+01,7.207442024007670867e-02
3.747999999999999687e+01,7.677659423842458919e-02
3.752000000000000313e+01,1.002407745549789703e-01
3.756000000000000227e+01,1.029613430486247538e-01
3.760000000000000142e+01,1.049824475770587406e-01
3.764000000000000057e+01,1.308931300761653205e-01
3.767999999999999972e+01,1.371090213090200571e-01
3.771999999999999886e+01,1.602223450077452371e-01
3.775999999999999801e+01,1.808881670190819746e-01
3.779999999999999716e+01,1.991064869584653896e-01
3.784000000000000341e+01,2.247828428168671955e-01
3.788000000000000256e+01,2.741157028473643065e-01
3.792000000000000171e+01,3.263617039495633754e-01
3.796000000000000085e+01,3.943397777542992921e-01
3.800000000000000000e+01,4.587049901083133929e-01
3.803999999999999915e+01,5.635078524617783691e-01
3.807999999999999829e+01,6.799640352682774225e-01
3.811999999999999744e+01,7.904766405584693345e-01
3.815999999999999659e+01,9.168378523739697528e-01
3.820000000000000284e+01,9.796868275803288784e-01
3.824000000000000199e+01,1.000000000000000000e+00
3.828000000000000114e+01,9.550528988574820133e-01
3.832000000000000028e+01,8.603447779322856981e-01
3.835999999999999943e+01,7.693655440677412694e-01
3.839999999999999858e+01,6.568269400852682072e-01
3.843999999999999773e+01,5.474345436663454745e-01
3.847999999999999687e+01,4.513269642931334036e-01
3.852000000000000313e+01,3.729325599136603664e-01
3.856000000000000227e+01,3.265852268514903289e-01
3.860000000000000142e+01,2.667194881945919582e-01
3.864000000000000057e+01,2.369197124107602359e-01
3.867999999999999972e+01,1.880078144745325752e-01
3.871999999999999886e+01,1.805823817105075002e-01
3.875999999999999801e+01,1.649991861108443536e-01
3.879999999999999716e+01,1.355479757568459065e-01
3.884000000000000341e+01,1.328997254764434088e-01
3.888000000000000256e+01,1.208118180051688528e-01
3.892000000000000171e+01,1.041787542734284866e-01
3.896000000000000085e+01,9.162417907065383005e-02
3.900000000000000000e+01,9.375284486138388274e-02
3.903999999999999915e+01,8.469381573906506477e-02
3.907999999999999829e+01,7.773216631691072520e-02
3.911999999999999744e+01,7.088678853524896240e-02
3.915999999999999659e+01,6.543957521105513153e-02
3.920000000000000284e+01,5.917634679346816390e-02
3.924000000000000199e+01,6.608139236926872939e-02
3.928000000000000114e+01,5.445698875217612478e-02
3.932000000000000028e+01,5.425282217542350821e-02
3.935999999999999943e+01,5.148460278310093563e-02
3.939999999999999858e+01,3.811136374462015947e-02
3.943999999999999773e+01,4.548122024034894489e-02
3.947999999999999687e+01,3.781769798819750034e-02
3.952000000000000313e+01,4.472087598461543800e-02
3.956000000000000227e+01,3.612453148164560673e-02
3.960000000000000142e+01,3.160666935460682003e-02
3.964000000000000057e+01,4.398622123433425929e-02
3.967999999999999972e+01,4.506153630238354107e-02
3.971999999999999886e+01,3.611450737572997199e-02
3.975999999999999801e+01,3.217824525150510262e-02
3.979999999999999716e+01,3.045589165087515815e-02
3.984000000000000341e+01,3.386083982913915685e-02
3.988000000000000256e+01,2.875840716717067633e-02
3.992000000000000171e+01,2.796752529580495694e-02
3.996000000000000085e+01,2.974015764655913580e-02
4.000000000000000000e+01,3.232826765095041244e-02
4.003999999999999915e+01,2.501056632971594348e-02
4.007999999999999829e+01,3.330838158349640199e-02
4.011999999999999744e+01,2.226098934936372384e-02
4.015999999999999659e+01,2.461493375482022572e-02
4.020000000000000284e+01,2.848356836465768330e-02
4.024000000000000199e+01,2.186371099807339971e-02
4.028000000000000114e+01,2.095382990814433771e-02
4.032000000000000028e+01,2.738542514862947821e-02
4.035999999999999943e+01,2.437734896934971862e-02
4.039999999999999858e+01,2.544774747470759935e-02
4.043999999999999773e+01,3.024701304335471533e-02
4.047999999999999687e+01,2.886960691519022126e-02
4.052000000000000313e+01,1.968402826732578229e-02
4.056000000000000227e+01,2.658010456207828692e-02
4.060000000000000142e+01,2.042389901624707543e-02
4.064000000000000057e+01,2.557138207452713460e-02
4.067999999999999972e+01,2.104611914533584260e-02
4.071999999999999886e+01,2.199775677139933355e-02
4.075999999999999801e+01,2.166722132366935213e-02
4.079999999999999716e+01,2.238522732947207522e-02
4.084000000000000341e+01,2.450138164102649840e-02
4.088000000000000256e+01,2.288811106760800865e-02
4.092000000000000171e+01,1.218477092730282062e-02
4.096000000000000085e+01,2.676940578593693665e-02
4.100000000000000000e+01,1.921196680196608775e-02
4.103999999999999915e+01,2.027789042778529657e-02
4.107999999999999829e+01,2.285849579756273758e-02
4.111999999999999744e+01,2.194274546616829455e-02
4.115999999999999659e+01,2.790232040695179647e-02
4.120000000000000284e+01,1.381746300300873073e-02
4.124000000000000199e+01,2.303947023094499169e-02
4.128000000000000114e+01,1.979186780867075654e-02
4.132000000000000028e+01,1.864162355093943249e-02
4.135999999999999943e+01,1.644227194213364676e-02
4.139999999999999858e+01,1.832138540384863068e-02
4.143999999999999773e+01,2.509471377068159953e-02
4.147999999999999687e+01,1.613542968783345660e-02
4.152000000000000313e+01,2.325779131805021799e-02
4.156000000000000227e+01,1.802707635169831235e-02
4.160000000000000142e+01,2.037089690088018587e-02
4.164000000000000057e+01,1.735378482003675088e-02
4.167999999999999972e+01,2.330963643273229954e-02
4.171999999999999886e+01,2.541951933900224794e-02
4.175999999999999801e+01,2.030389653204016029e-02
4.179999999999999716e+01,1.041001828476678659e-02
4.184000000000000341e+01,1.671431841963543288e-02
4.188000000000000256e+01,2.243564918646708331e-02
4.192000000000000171e+01,1.999918673705165101e-02
4.196000000000000085e+01,2.502072059649336835e-02
4.200000000000000000e+01,2.001988854104598536e-02
4.203999999999999915e+01,2.457469544602824615e-02
4.207999999999999829e+01,2.458431570993559884e-02
4.211999999999999744e+01,1.830071276428522908e-02
4.215999999999999659e+01,2.460267701082862607e-02
4.220000000000000284e+01,1.913423723574138313e-02
4.224000000000000199e+01,1.984189787601863680e-02
4.228000000000000114e+01,2.253037170569215097e-02
4.232000000000000028e+01,1.752719145584998375e-02
4.235999999999999943e+01,2.242925432670377431e-02
4.239999999999999858e+01,2.849637901409795768e-02
4.243999999999999773e+01,2.698838421387703135e-02
4.247999999999999687e+01,2.151787765490723037e-02
4.252000000000000313e+01,2.199039732816012241e-02
4.256000000000000227e+01,2.409412026207294680e-02
4.260000000000000142e+01,2.200225879235374535e-02
4.264000000000000057e+01,2.025970661262513697e-02
4.267999999999999972e+01,2.329482167091510500e-02
4.271999999999999886e+01,2.749499546922808471e-02
4.275999999999999801e+01,2.167279604592318998e-02
4.279999999999999716e+01,2.004558397897012248e-02
4.284000000000000341e+01,2.424485932212788394e-02
4.288000000000000256e+01,2.308319011375546334e-02
4.292000000000000171e+01,2.483461390650090403e-02
4.296000000000000085e+01,2.075894939620867574e-02
4.300000000000000000e+01,2.565623588882126951e-02
4.303999999999999915e+01,2.694061247556319219e-02
4.307999999999999829e+01,2.799161539411159499e-02
4.311999999999999744e+01,3.044074469822537210e-02
4.315999999999999659e+01,2.589742632053268143e-02
4.320000000000000284e+01,2.671444890949059570e-02
4.324000000000000199e+01,3.603827721158709557e-02
4.328000000000000114e+01,3.429090558237404829e-02
4.332000000000000028e+01,3.242669372317398546e-02
4.335999999999999943e+01,4.093385835293125719e-02
4.339999999999999858e+01,3.813675040649584791e-02
4.343999999999999773e+01,4.046690962813389442e-02
4.347999999999999687e+01,4.139833387998625991e-02
4.352000000000000313e+01,4.232945172462276168e-02
4.356000000000000227e+01,4.524137045258599249e-02
4.360000000000000142e+01,4.582226709231318473e-02
4.364000000000000057e+01,5.549264432750495440e-02
4.367999999999999972e+01,5.770442589917137294e-02
4.371999999999999886e+01,6.446079321898580405e-02
4.375999999999999801e+01,6.492392156209099430e-02
4.379999999999999716e+01,6.923242041064756047e-02
4.384000000000000341e+01,8.251386218625088309e-02
4.388000000000000256e+01,7.819809650878005447e-02
4.392000000000000171e+01,8.297180873482117025e-02
4.396000000000000085e+01,1.002145351020513053e-01
4.400000000000000000e+01,1.018411605376205731e-01
4.403999999999999915e+01,1.009036881635533012e-01
4.407999999999999829e+01,1.286336974146226886e-01
4.411999999999999744e+01,1.428452480010390380e-01
4.415999999999999659e+01,1.522785204578284701e-01
4.420000000000000284e+01,1.705681966349880119e-01
4.424000000000000199e+01,1.892071667195512619e-01
4.428000000000000114e+01,1.972410702410663519e-01
4.432000000000000028e+01,2.102856967246375941e-01
4.435999999999999943e+01,2.268260810929711990e-01
4.439999999999999858e+01,2.424338646289098398e-01
4.443999999999999773e+01,2.497672949754325411e-01
4.447999999999999687e+01,2.418342270123019777e-01
4.452000000000000313e+01,2.337843072822442247e-01
4.456000000000000227e+01,2.097686739998365357e-01
4.460000000000000142e+01,1.951921193201250349e-01
4.464000000000000057e+01,1.848105343067903972e-01
4.467999999999999972e+01,1.655719150686791596e-01
4.471999999999999886e+01,1.452841561760609412e-01
4.475999999999999801e+01,1.455063701793619380e-01
4.479999999999999716e+01,1.206730801665505254e-01
4.484000000000000341e+01,9.875286469575271509e-02
4.488000000000000256e+01,9.547804903766733686e-02
4.492000000000000171e+01,9.115409180225171604e-02
4.496000000000000085e+01,7.692427593975578737e-02
4.500000000000000000e+01,7.761071487725287876e-02
4.503999999999999915e+01,6.349679310356942663e-02
4.507999999999999829e+01,6.045344575612968813e-02
4.511999999999999744e+01,5.880820556602175259e-02
4.515999999999999659e+01,5.413271381608830701e-02
4.520000000000000284e+01,5.178761441911369084e-02
4.524000000000000199e+01,4.186736861499694429e-02
4.528000000000000114e+01,4.220194509513872094e-02
4.532000000000000028e+01,4.743069917762528231e-02
4.535999999999999943e+01,3.144962346471404102e-02
4.539999999999999858e+01,3.341472809160726809e-02
4.543999999999999773e+01,3.234957846672218557e-02
4.547999999999999687e+01,2.988567464381785416e-02
4.552000000000000313e+01,2.357576558084413867e-02
4.556000000000000227e+01,2.227656755842171571e-02
4.560000000000000142e+01,3.018336703338953680e-02
4.564000000000000057e+01,3.074808774675764911e-02
4.567999999999999972e+01,2.233922887563769347e-02
4.571999999999999886e+01,1.940722248918856987e-02
4.575999999999999801e+01,2.136938947487283802e-02
4.579999999999999716e+01,2.659422900980223936e-02
4.584000000000000341e+01,2.237934443960670067e-02
4.588000000000000256e+01,2.329170357903970548e-02
4.592000000000000171e+01,1.476433784421845100e-02
4.596000000000000085e+01,1.544296614570537032e-02
4.600000000000000000e+01,2.276380169585586963e-02
4.603999999999999915e+01,1.341969499119631884e-02
4.607999999999999829e+01,1.654458204579822844e-02
4.611999999999999744e+01,1.209431423283526680e-02
4.615999999999999659e+01,1.685003853335710622e-02
4.620000000000000284e+01,2.055660895047923750e-02
4.624000000000000199e+01,2.111638167893510956e-02
4.628000000000000114e+01,1.759707036940376737e-02
4.632000000000000028e+01,1.163017507564415541e-02
4.635999999999999943e+01,2.349291514654228835e-02
4.639999999999999858e+01,1.589385160727930027e-02
4.643999999999999773e+01,1.773384898073752935e-02
4.647999999999999687e+01,1.747586806849244292e-02
4.652000000000000313e+01,1.348840804765570264e-02
4.656000000000000227e+01,2.057150822416979261e-02
4.660000000000000142e+01,1.238808970910299824e-02
4.664000000000000057e+01,1.376026592952862143e-02
4.667999999999999972e+01,1.734628452842568516e-02
4.671999999999999886e+01,1.184217779855873884e-02
4.675999999999999801e+01,1.985588000070464057e-02
4.679999999999999716e+01,1.388495478998633126e-02
4.684000000000000341e+01,1.793576537431525175e-02
4.688000000000000256e+01,8.235019267839687601e-03
4.692000000000000171e+01,1.228515204630741854e-02
4.696000000000000085e+01,1.248926574037756594e-02
4.700000000000000000e+01,9.663110184647296513e-03
4.703999999999999915e+01,8.235043327144614400e-03
4.707999999999999829e+01,1.251688737030297142e-02
4.711999999999999744e+01,1.563303293947959985e-02
4.715999999999999659e+01,9.542513204086259040e-03
4.720000000000000284e+01,1.685326242489990772e-02
4.724000000000000199e+01,9.596701274665192516e-03
4.728000000000000114e+01,1.061383550534813515e-02
4.732000000000000028e+01,1.244637701433328261e-02
4.735999999999999943e+01,1.334628923313770955e-02
4.739999999999999858e+01,1.680964414503313686e-02
4.743999999999999773e+01,1.421279619145859874e-02
4.747999999999999687e+01,7.886459899740296334e-03
4.752000000000000313e+01,1.379603203176615195e-02
4.756000000000000227e+01,9.566649048818955808e-03
4.760000000000000142e+01,1.151331494957029238e-02
4.764000000000000057e+01,6.467490097271921638e-03
4.767999999999999972e+01,1.458985809521536926e-02
4.771999999999999886e+01,1.199059071195437455e-02
4.775999999999999801e+01,1.183822681510776631e-02
4.779999999999999716e+01,1.343355154654364905e-02
4.784000000000000341e+01,1.619388579372456685e-02
4.788000000000000256e+01,1.837119298816771232e-02
4.792000000000000171e+01,1.297332800963575672e-02
4.796000000000000085e+01,7.108970954831210672e-03
4.800000000000000000e+01,1.033405257794207423e-02
4.803999999999999915e+01,1.460760604838011803e-02
4.807999999999999829e+01,1.340362922828612982e-02
4.811999999999999744e+01,1.115048006568818834e-02
4.815999999999999659e+01,5.983586246508858404e-03
4.820000000000000284e+01,2.331305718776218762e-03
4.824000000000000199e+01,9.283426254300000333e-03
4.828000000000000114e+01,1.134069330444113614e-02
4.832000000000000028e+01,1.316453630841676534e-02
4.835999999999999943e+01,1.219116847858220387e-02
4.839999999999999858e+01,9.935554123101876869e-03
4.843999999999999773e+01,1.152526566357106423e-02
4.847999999999999687e+01,1.113351543569785634e-02
4.852000000000000313e+01,1.540284055380665255e-02
4.856000000000000227e+01,1.139777287233831489e-02
4.860000000000000142e+01,1.298606573247895225e-02
4.864000000000000057e+01,1.550628892588215221e-02
4.867999999999999972e+01,1.021826114839235848e-02
4.871999999999999886e+01,6.910984645386706107e-03
4.875999999999999801e+01,7.915173944191356351e-03
4.879999999999999716e+01,1.159932822191801771e-02
4.884000000000000341e+01,1.505005345413842378e-02
4.888000000000000256e+01,1.535395561642429255e-02
4.892000000000000171e+01,1.775514287596544755e-02
4.896000000000000085e+01,2.143786462903541148e-02
4.900000000000000000e+01,1.230129527412961513e-02
4.903999999999999915e+01,1.038958266894505003e-02
4.907999999999999829e+01,1.197358256989159916e-02
4.911999999999999744e+01,1.134304305827196248e-02
4.915999999999999659e+01,7.216070547981461199e-03
4.920000000000000284e+01,1.276120390663888077e-02
4.924000000000000199e+01,1.084768814728159780e-02
4.928000000000000114e+01,1.755745577739205310e-02
4.932000000000000028e+01,8.651071328740312510e-03
4.935999999999999943e+01,1.233018485064146449e-02
4.939999999999999858e+01,5.753789822000137701e-03
4.943999999999999773e+01,8.266819626946033187e-03
4.947999999999999687e+01,1.415902234678177371e-02
4.952000000000000313e+01,1.282564474783921653e-02
4.956000000000000227e+01,1.032654521646993347e-02
4.960000000000000142e+01,6.545187622514713442e-03
4.964000000000000057e+01,8.007573334703421697e-03
4.967999999999999972e+01,7.954628723987756944e-03
4.971999999999999886e+01,1.069817599280122392e-02
4.975999999999999801e+01,8.313784056150103075e-03
4.979999999999999716e+01,9.308561957871476500e-03
4.984000000000000341e+01,1.391558080458976665e-02
4.988000000000000256e+01,1.316158780096039066e-02
4.992000000000000171e+01,8.328475763958644723e-03
4.996000000000000085e+01,1.060367588609615122e-02
5.000000000000000000e+01,1.089739962643372813e-02
5.003999999999999915e+01,5.480502741381322596e-03
5.007999999999999829e+01,1.369791861506861053e-02
5.011999999999999744e+01,8.396818139402097841e-03
5.015999999999999659e+01,6.707955532215125090e-03
5.020000000000000284e+01,9.330544882510267632e-03
5.024000000000000199e+01,7.524404886132069793e-03
5.028000000000000114e+01,8.747822876566661854e-03
5.032000000000000028e+01,9.271654610223977952e-03
5.035999999999999943e+01,9.445506939322959039e-03
5.039999999999999858e+01,7.521343295380768235e-03
5.043999999999999773e+01,1.317163017817995010e-02
5.047999999999999687e+01,1.136325602145957757e-02
5.052000000000000313e+01,9.671043904300352309e-03
5.056000000000000227e+01,1.392178072186484906e-02
5.060000000000000142e+01,1.887135753783387992e-02
5.064000000000000057e+01,1.904259392469921305e-02
5.067999999999999972e+01,1.035673840208708486e-02
5.071999999999999886e+01,1.460597501161266590e-02
5.075999999999999801e+01,1.943751433568955897e-02
5.079999999999999716e+01,1.133320950078592695e-02
5.084000000000000341e+01,9.404922399842407035e-03
5.088000000000000256e+01,1.004004453486342929e-02
5.092000000000000171e+01,1.556929043317522611e-02
5.096000000000000085e+01,8.046154888653286180e-03
5.100000000000000000e+01,1.450693049466723721e-02
5.103999999999999915e+01,8.847609853474432823e-03
5.107999999999999829e+01,9.713911875637359916e-03
5.111999999999999744e+01,8.249119511405927224e-03
5.115999999999999659e+01,1.330994904140089113e-02
5.120000000000000284e+01,1.953575578370845764e-02
5.124000000000000199e+01,1.084460646171689184e-02
5.128000000000000114e+01,1.683658007187578687e-02
5.132000000000000028e+01,1.467067009308974622e-02
5.135999999999999943e+01,1.413587877073585464e-02
5.139999999999999858e+01,8.473132475765827315e-03
5.143999999999999773e+01,1.294861349650035416e-02
5.147999999999999687e+01,1.742371158164939329e-02
5.152000000000000313e+01,5.816493454601106596e-03
5.156000000000000227e+01,1.576800455782871244e-02
5.160000000000000142e+01,1.231752082840420828e-02
5.164000000000000057e+01,1.376115394010635380e-02
5.167999999999999972e+01,1.462172346542692757e-02
5.171999999999999886e+01,1.408347880063946442e-02
5.175999999999999801e+01,1.063145486845015232e-02
5.179999999999999716e+01,9.160152599265260209e-03
5.184000000000000341e+01,1.433100143230185003e-02
5.188000000000000256e+01,1.402428344116261015e-02
5.192000000000000171e+01,9.638427188417434191e-03
5.196000000000000085e+01,1.294354259455062460e-02
5.200000000000000000e+01,1.123723300519221570e-02
5.203999999999999915e+01,9.996678078721040264e-03
5.207999999999999829e+01,1.481559321911060829e-02
5.211999999999999744e+01,1.229236729842365580e-02
5.215999999999999659e+01,1.547900343868444106e-02
5.220000000000000284e+01,8.992782836848440750e-03
5.224000000000000199e+01,1.031406694753269661e-02
5.228000000000000114e+01,1.652946174630887805e-02
5.232000000000000028e+01,1.120742671978152034e-02
5.235999999999999943e+01,1.380943099767492285e-02
5.239999999999999858e+01,2.002365160842628153e-02
5.243999999999999773e+01,1.423429825780192677e-02
5.247999999999999687e+01,1.252330345328431932e-02
5.252000000000000313e+01,1.302609488079612202e-02
5.256000000000000227e+01,1.807338706766350306e-02
5.260000000000000142e+01,1.472971186832739386e-02
5.264000000000000057e+01,1.185178556340848489e-02
5.267999999999999972e+01,1.118764395226026429e-02
5.271999999999999886e+01,1.634989476374894279e-02
5.275999999999999801e+01,1.568496305385540593e-02
5.279999999999999716e+01,1.117395611312227421e-02
5.284000000000000341e+01,1.505312684441198652e-02
5.288000000000000256e+01,1.275550666384181638e-02
5.292000000000000171e+01,1.185591865049252097e-02
5.296000000000000085e+01,9.557504525530348058e-03
5.300000000000000000e+01,1.180358692971235184e-02
5.303999999999999915e+01,1.987605868001393258e-02
5.307999999999999829e+01,1.676070053506684490e-02
5.311999999999999744e+01,1.597565859927362400e-02
5.315999999999999659e+01,1.227682393631508370e-02
5.320000000000000284e+01,1.813352094024281436e-02
5.324000000000000199e+01,1.699767335206680760e-02
5.328000000000000114e+01,1.667717574205689751e-02
5.332000000000000028e+01,1.379249110340663269e-02
5.335999999999999943e+01,1.207276291057674845e-02
5.339999999999999858e+01,1.664556358516248655e-02
5.343999999999999773e+01,1.201163857852485632e-02
5.347999999999999687e+01,1.670017105563165877e-02
5.352000000000000313e+01,1.765915712532928686e-02
5.356000000000000227e+01,1.733584706053851315e-02
5.360000000000000142e+01,1.666252644145101158e-02
5.364000000000000057e+01,1.855258852336571715e-02
5.367999999999999972e+01,1.251781581820894836e-02
5.371999999999999886e+01,1.603856978059772440e-02
5.375999999999999801e+01,1.186755967797481146e-02
5.379999999999999716e+01,1.468828907068806325e-02
5.384000000000000341e+01,1.109914683080030599e-02
5.388000000000000256e+01,1.671592248341570094e-02
5.392000000000000171e+01,1.312596784003164201e-02
5.396000000000000085e+01,1.384742900505059500e-02
5.400000000000000000e+01,1.386926853334245063e-02
5.403999999999999915e+01,1.587180818901706356e-02
5.407999999999999829e+01,1.519361776372801440e-02
5.411999999999999744e+01,1.451501902158515780e-02
5.415999999999999659e+01,1.348640434124014076e-02
5.420000000000000284e+01,1.572038145155920524e-02
5.424000000000000199e+01,8.747625189361455528e-03
5.428000000000000114e+01,1.494299832423467284e-02
5.432000000000000028e+01,1.542770968529802618e-02
5.435999999999999943e+01,1.754351086044314209e-02
5.439999999999999858e+01,1.569668567656723815e-02
5.443999999999999773e+01,1.618016401121099429e-02
5.447999999999999687e+01,1.468212289281163943e-02
5.452000000000000313e+01,1.551438452380264621e-02
5.456000000000000227e+01,1.471473316940479295e-02
5.460000000000000142e+01,1.554616932170067162e-02
5.464000000000000057e+01,1.835829983290925005e-02
5.467999999999999972e+01,1.324558594292957539e-02
5.471999999999999886e+01,1.605688866805503670e-02
5.475999999999999801e+01,1.560477604664469234e-02
5.479999999999999716e+01,1.934753541218467432e-02
5.484000000000000341e+01,1.772923524135768328e-02
5.488000000000000256e+01,1.867430585002811255e-02
5.492000000000000171e+01,1.612288808271494095e-02
5.496000000000000085e+01,1.881516247444431356e-02
5.500000000000000000e+01,1.334951789727898894e-02
5.503999999999999915e+01,1.848820900737592476e-02
5.507999999999999829e+01,1.500283739707064350e-02
5.511999999999999744e+01,1.326508403971289954e-02
5.515999999999999659e+01,1.863559284808707570e-02
5.520000000000000284e+01,1.538203778236502117e-02
5.524000000000000199e+01,1.643988621897644192e-02
5.528000000000000114e+01,1.481699303768406993e-02
5.532000000000000028e+01,1.890393153673036036e-02
5.535999999999999943e+01,1.611484080733990507e-02
5.539999999999999858e+01,1.775368778761881802e-02
5.543999999999999773e+01,1.950864950600428305e-02
5.547999999999999687e+01,1.497025957023168270e-02
5.552000000000000313e+01,1.369444873448897627e-02
5.556000000000000227e+01,1.742925279812971781e-02
5.560000000000000142e+01,1.498723979951288414e-02
5.564000000000000057e+01,1.674009071198830079e-02
5.567999999999999972e+01,2.012401874791134790e-02
5.571999999999999886e+01,1.558309238396467407e-02
5.575999999999999801e+01,1.721813645252347896e-02
5.579999999999999716e+01,1.861968456132314861e-02
5.584000000000000341e+01,1.454362777404454542e-02
5.588000000000000256e+01,1.710968324795557327e-02
5.592000000000000171e+01,1.757766967890074528e-02
5.596000000000000085e+01,1.116962111293910188e-02
5.600000000000000000e+01,1.594857773266030940e-02
5.603999999999999915e+01,1.921214288369437265e-02
5.607999999999999829e+01,1.851306552399119981e-02
5.611999999999999744e+01,8.723772462826129281e-03
5.615999999999999659e+01,9.888411557896166493e-03
5.620000000000000284e+01,2.142430369666394746e-02
5.624000000000000199e+01,9.652618017741365630e-03
5.628000000000000114e+01,1.699236553297798352e-02
5.632000000000000028e+01,1.710646735344206401e-02
5.635999999999999943e+01,1.675399633905257785e-02
5.639999999999999858e+01,1.418691592132658406e-02
5.643999999999999773e+01,1.884462110885757463e-02
5.647999999999999687e+01,1.604360757216828637e-02
5.652000000000000313e+01,2.209887930993024649e-02
5.656000000000000227e+01,2.151118177350436547e-02
5.660000000000000142e+01,1.579547927105506497e-02
5.664000000000000057e+01,1.380848808320302851e-02
5.667999999999999972e+01,1.962895892119269695e-02
5.671999999999999886e+01,1.472770785092675401e-02
5.675999999999999801e+01,1.775045378296771434e-02
5.679999999999999716e+01,1.681055028210728941e-02
5.684000000000000341e+01,1.983242766420989511e-02
5.688000000000000256e+01,1.609479695001278521e-02
5.692000000000000171e+01,2.564180599721284370e-02
5.696000000000000085e+01,1.642612438274576939e-02
5.700000000000000000e+01,1.175490084095573602e-02
5.703999999999999915e+01,1.827067248616711867e-02
5.707999999999999829e+01,1.476393323560812841e-02
5.711999999999999744e+01,1.591818664962671090e-02
5.715999999999999659e+01,1.870350295820009251e-02
5.720000000000000284e+01,1.927420217214356052e-02
5.724000000000000199e+01,2.054367754675607075e-02
5.728000000000000114e+01,1.936546356642026775e-02
5.732000000000000028e+01,1.946870370559688340e-02
5.735999999999999943e+01,1.246282389691405826e-02
5.739999999999999858e+01,1.745968603331241736e-02
5.743999999999999773e+01,1.569703468950561787e-02
5.747999999999999687e+01,1.533237167254710050e-02
5.752000000000000313e+01,1.799719703619586178e-02
5.756000000000000227e+01,1.844740184413265136e-02
5.760000000000000142e+01,1.575069974703647083e-02
5.764000000000000057e+01,1.783152106077172394e-02
5.767999999999999972e+01,1.816386364747919063e-02
5.771999999999999886e+01,1.802962032413419832e-02
5.775999999999999801e+01,1.696264772379389024e-02
5.779999999999999716e+01,1.810941059294633726e-02
5.784000000000000341e+01,1.599272850408321386e-02
5.788000000000000256e+01,1.492442365963804300e-02
5.792000000000000171e+01,1.234070927196618747e-02
5.796000000000000085e+01,1.651562289371556747e-02
5.800000000000000000e+01,1.754362576478528044e-02
5.803999999999999915e+01,2.148457627152695892e-02
5.807999999999999829e+01,2.589122337189051978e-02
5.811999999999999744e+01,1.270052611415684735e-02
5.815999999999999659e+01,1.710627928331374253e-02
5.820000000000000284e+01,1.708322657742760223e-02
5.824000000000000199e+01,1.845815489166098208e-02
5.828000000000000114e+01,1.656963401766745059e-02
5.832000000000000028e+01,2.155627343760770434e-02
5.835999999999999943e+01,1.710306838368080493e-02
5.839999999999999858e+01,2.476913140631285121e-02
5.843999999999999773e+01,1.705202616062665918e-02
5.847999999999999687e+01,2.028883076642461897e-02
5.852000000000000313e+01,2.061179111339126249e-02
5.856000000000000227e+01,1.872012129052916599e-02
5.860000000000000142e+01,1.880910775467729834e-02
5.864000000000000057e+01,1.749921349902916826e-02
5.867999999999999972e+01,2.003454669077459754e-02
5.871999999999999886e+01,2.152060563037807087e-02
5.875999999999999801e+01,1.694635287270947199e-02
5.879999999999999716e+01,2.029607750454950205e-02
5.884000000000000341e+01,1.956659734509539478e-02
5.888000000000000256e+01,1.906973459678064364e-02
5.892000000000000171e+01,2.078659655014778243e-02
5.896000000000000085e+01,1.784157383055403473e-02
5.900000000000000000e+01,2.153863337610560647e-02
5.903999999999999915e+01,1.754387809410875437e-02
5.907999999999999829e+01,2.065734729050602500e-02
5.911999999999999744e+01,2.411996733624918038e-02
5.915999999999999659e+01,1.534587732256267531e-02
5.920000000000000284e+01,1.566111830868349708e-02
5.924000000000000199e+01,2.052079583185979078e-02
5.928000000000000114e+01,1.978629964080145034e-02
5.932000000000000028e+01,1.637102299080745935e-02
5.935999999999999943e+01,1.831593194333670099e-02
5.939999999999999858e+01,1.816273839577367197e-02
5.943999999999999773e+01,2.395240840957724507e-02
5.947999999999999687e+01,1.983608019932470157e-02
5.952000000000000313e+01,1.968150710620217292e-02
5.956000000000000227e+01,1.404929335248690861e-02
5.960000000000000142e+01,1.389379863950136740e-02
5.964000000000000057e+01,1.583548596043912737e-02
5.967999999999999972e+01,2.069010514989730321e-02
5.971999999999999886e+01,1.971747490372038197e-02
5.975999999999999801e+01,2.142470426574546657e-02
5.979999999999999716e+01,2.278186346594973655e-02
5.984000000000000341e+01,2.239052317263394778e-02
5.988000000000000256e+01,2.164911194836800779e-02
5.992000000000000171e+01,2.207259410131629310e-02
5.996000000000000085e+01,1.911607516872686902e-02
