2.003999999999999915e+01,3.836368480758315519e-02
2.007999999999999829e+01,4.574965123523414001e-02
2.012000000000000099e+01,6.380071761452688062e-02
2.016000000000000014e+01,5.583638709168586151e-02
2.019999999999999929e+01,4.735090657767724448e-02
2.023999999999999844e+01,8.204869898151370688e-02
2.028000000000000114e+01,7.720353671149993158e-02
2.032000000000000028e+01,3.567701936674907287e-02
2.035999999999999943e+01,6.725049419203446566e-02
2.039999999999999858e+01,7.020712148341463898e-02
2.044000000000000128e+01,7.472376483706927308e-02
2.048000000000000043e+01,5.738734134064762960e-02
2.051999999999999957e+01,5.800009333215243312e-02
2.055999999999999872e+01,4.456414064301245787e-02
2.060000000000000142e+01,4.127300332719232440e-02
2.064000000000000057e+01,4.890711801260002461e-02
2.067999999999999972e+01,6.044256018512495637e-02
2.071999999999999886e+01,6.105104418863701449e-02
2.076000000000000156e+01,7.622681693410442161e-02
2.080000000000000071e+01,5.758283985471562838e-02
2.083999999999999986e+01,5.714818774430319853e-02
2.087999999999999901e+01,6.529748237475004047e-02
2.092000000000000171e+01,5.393502414849400683e-02
2.096000000000000085e+01,4.985578683350643664e-02
2.100000000000000000e+01,7.699314511235147429e-02
2.103999999999999915e+01,5.730348807854560717e-02
2.107999999999999829e+01,6.024563040976395334e-02
2.112000000000000099e+01,4.003398725320121004e-02
2.116000000000000014e+01,4.791719728848838067e-02
2.119999999999999929e+01,6.906697485949525595e-02
2.123999999999999844e+01,8.761445282448955540e-02
2.128000000000000114e+01,8.014654827112054070e-02
2.132000000000000028e+01,7.814085165257081411e-02
2.135999999999999943e+01,6.728936805551181954e-02
2.139999999999999858e+01,5.331529616446370468e-02
2.144000000000000128e+01,6.613535420420495192e-02
2.148000000000000043e+01,8.077558703398157736e-02
2.151999999999999957e+01,8.396858122606720709e-02
2.155999999999999872e+01,7.493390117996598376e-02
2.160000000000000142e+01,5.080994832397717903e-02
2.164000000000000057e+01,7.325117619375712263e-02
2.167999999999999972e+01,4.392263491357230321e-02
2.171999999999999886e+01,7.858901527041096957e-02
2.176000000000000156e+01,5.238053950567527622e-02
2.180000000000000071e+01,1.023938188612048134e-01
2.183999999999999986e+01,5.016912906987180953e-02
2.187999999999999901e+01,7.104445096940878446e-02
2.192000000000000171e+01,8.203341159672017380e-02
2.196000000000000085e+01,6.570627158166948700e-02
2.200000000000000000e+01,6.316600011926315483e-02
2.203999999999999915e+01,8.169666812242493137e-02
2.207999999999999829e+01,6.172498605411590178e-02
2.212000000000000099e+01,5.085755739435838391e-02
2.216000000000000014e+01,7.380819293991833230e-02
2.219999999999999929e+01,3.744485024307547122e-02
2.223999999999999844e+01,7.001919791804785131e-02
2.228000000000000114e+01,3.209331740780264203e-02
2.232000000000000028e+01,3.500942818551667363e-02
2.235999999999999943e+01,5.093197602502827492e-02
2.239999999999999858e+01,6.685369287001226291e-02
2.244000000000000128e+01,4.505350038108286298e-02
2.248000000000000043e+01,4.874672432229989333e-02
2.251999999999999957e+01,4.333403081108564564e-02
2.255999999999999872e+01,5.144806767300111328e-02
2.260000000000000142e+01,6.580476502253464199e-02
2.264000000000000057e+01,3.905766577847741977e-02
2.267999999999999972e+01,5.731488838814494113e-02
2.271999999999999886e+01,6.672634148531249310e-02
2.276000000000000156e+01,4.179777918642418877e-02
2.280000000000000071e+01,3.976118371332525853e-02
2.283999999999999986e+01,4.214623421027704347e-02
2.287999999999999901e+01,8.745444615827933921e-02
2.292000000000000171e+01,5.315735014134029268e-02
2.296000000000000085e+01,5.684065454625192998e-02
2.300000000000000000e+01,4.023179669297892447e-02
2.303999999999999915e+01,5.041708931874158001e-02
2.307999999999999829e+01,6.684504859659640141e-02
2.312000000000000099e+01,5.309532304416086229e-02
2.316000000000000014e+01,5.703466151285743052e-02
2.319999999999999929e+01,6.071303388974887139e-02
2.323999999999999844e+01,4.409924709069232285e-02
2.328000000000000114e+01,4.231292676847938500e-02
2.332000000000000028e+01,4.833014840899934467e-02
2.335999999999999943e+01,3.587623001449427584e-02
2.339999999999999858e+01,7.675129460524506009e-02
2.344000000000000128e+01,3.151742362421876970e-02
2.348000000000000043e+01,6.224518396771539647e-02
2.351999999999999957e+01,2.611476725049414679e-02
2.355999999999999872e+01,4.383362631615451283e-02
2.360000000000000142e+01,7.429879299710276386e-02
2.364000000000000057e+01,5.325436107108887790e-02
2.367999999999999972e+01,2.258373584732062400e-02
2.371999999999999886e+01,5.044500514647009409e-02
2.376000000000000156e+01,5.515252286244475000e-02
2.380000000000000071e+01,5.595704699259761855e-02
2.383999999999999986e+01,5.832163085004813535e-02
2.387999999999999901e+01,4.793827952146752225e-02
2.392000000000000171e+01,5.992661865964737933e-02
2.396000000000000085e+01,5.526484306819903075e-02
2.400000000000000000e+01,5.372400148727673325e-02
2.403999999999999915e+01,5.192220460237844532e-02
2.407999999999999829e+01,5.636308721222590273e-02
2.412000000000000099e+01,2.308208206381871797e-02
2.416000000000000014e+01,3.038294646245311842e-02
2.419999999999999929e+01,3.820329372613789215e-02
2.423999999999999844e+01,5.018515956818835749e-02
2.428000000000000114e+01,6.502781764530719821e-02
2.432000000000000028e+01,7.258559898657598874e-02
2.435999999999999943e+01,5.022585679384582169e-02
2.439999999999999858e+01,5.205882883215447177e-02
2.444000000000000128e+01,5.233012384654542326e-02
2.448000000000000043e+01,2.372447835365845692e-02
2.451999999999999957e+01,3.205867183155988731e-02
2.455999999999999872e+01,3.466886388425165222e-02
2.460000000000000142e+01,4.196086988146569691e-02
2.464000000000000057e+01,5.029265513729938575e-02
2.467999999999999972e+01,3.599099136800081034e-02
2.471999999999999886e+01,6.513280342303726100e-02
2.476000000000000156e+01,3.912299605527495144e-02
2.480000000000000071e+01,5.707695628206096300e-02
2.483999999999999986e+01,3.652860188310105144e-02
2.487999999999999901e+01,4.849761976447396206e-02
2.492000000000000171e+01,5.630351307239690045e-02
2.496000000000000085e+01,2.586723866709290595e-02
2.500000000000000000e+01,4.511793259568203790e-02
2.503999999999999915e+01,2.378515149585089944e-02
2.507999999999999829e+01,3.236829153087713434e-02
2.512000000000000099e+01,4.173107161759605915e-02
2.516000000000000014e+01,5.291407375531624602e-02
2.519999999999999929e+01,4.198392428888577527e-02
2.523999999999999844e+01,6.305086098334229672e-02
2.528000000000000114e+01,5.862275727285216897e-02
2.532000000000000028e+01,4.716993504056652547e-02
2.535999999999999943e+01,4.456126245563008653e-02
2.539999999999999858e+01,4.403296037533263596e-02
2.544000000000000128e+01,2.373281811572694813e-02
2.548000000000000043e+01,5.624139481129586393e-02
2.551999999999999957e+01,5.883246287034429173e-02
2.555999999999999872e+01,4.191183766260382637e-02
2.560000000000000142e+01,5.204554118249379857e-02
2.564000000000000057e+01,5.905671086124673896e-02
2.567999999999999972e+01,5.123880549954062252e-02
2.571999999999999886e+01,4.263967566671570536e-02
2.576000000000000156e+01,2.623539684866105226e-02
2.580000000000000071e+01,3.896661229797260956e-02
2.583999999999999986e+01,3.999049921845735517e-02
2.587999999999999901e+01,1.291789972558133465e-02
2.592000000000000171e+01,2.460617478301352010e-02
2.596000000000000085e+01,5.450384056380983694e-02
2.600000000000000000e+01,4.381804364513374600e-02
2.603999999999999915e+01,3.963509676420590849e-02
2.607999999999999829e+01,4.065427357772900124e-02
2.612000000000000099e+01,4.219295791419809538e-02
2.616000000000000014e+01,5.387652902914239622e-02
2.619999999999999929e+01,3.304114652656476442e-02
2.623999999999999844e+01,4.602388062733250157e-02
2.628000000000000114e+01,5.250219927805355874e-02
2.632000000000000028e+01,5.637828356344362635e-02
2.635999999999999943e+01,4.906733674098812809e-02
2.639999999999999858e+01,4.539764549422916490e-02
2.644000000000000128e+01,4.927139090788240638e-02
2.648000000000000043e+01,3.077185578458123752e-02
2.651999999999999957e+01,6.456076223001354364e-02
2.655999999999999872e+01,3.513356585600424520e-02
2.660000000000000142e+01,2.807809436706796766e-02
2.664000000000000057e+01,4.781681959072148907e-02
2.667999999999999972e+01,4.440183073174939349e-02
2.671999999999999886e+01,5.451362567134712678e-02
2.676000000000000156e+01,3.470792789931530231e-02
2.680000000000000071e+01,4.820006317971360643e-02
2.683999999999999986e+01,2.501092711947817265e-02
2.687999999999999901e+01,0.000000000000000000e+00
2.692000000000000171e+01,3.898406129934494507e-02
2.696000000000000085e+01,5.481441211200754199e-02
2.700000000000000000e+01,4.280843626648263983e-02
2.703999999999999915e+01,3.990677701536581717e-02
2.707999999999999829e+01,5.001161544337301423e-02
2.712000000000000099e+01,2.447576761229204242e-02
2.716000000000000014e+01,3.197761208559609519e-02
2.719999999999999929e+01,3.453592515249891831e-02
2.723999999999999844e+01,4.619855738234089626e-02
2.728000000000000114e+01,5.734013054700470152e-02
2.732000000000000028e+01,2.711782185029707609e-02
2.735999999999999943e+01,5.464701830956533030e-02
2.739999999999999858e+01,4.679567747708906350e-02
2.744000000000000128e+01,2.801746477823410103e-02
2.748000000000000043e+01,4.800014666422723619e-02
2.751999999999999957e+01,3.130156594259128622e-02
2.755999999999999872e+01,3.827544929197889551e-02
2.760000000000000142e+01,5.175220271365482683e-02
2.764000000000000057e+01,7.147168134992447353e-02
2.767999999999999972e+01,5.477004480479000931e-02
2.771999999999999886e+01,4.092924467345350481e-02
2.776000000000000156e+01,3.645291575463668193e-02
2.780000000000000071e+01,5.877079844588813107e-02
2.783999999999999986e+01,4.596829486756338901e-02
2.787999999999999901e+01,4.409113627128067453e-02
2.792000000000000171e+01,2.374289620247476557e-02
2.796000000000000085e+01,3.513163185517366449e-02
2.800000000000000000e+01,3.949568340438942143e-02
2.803999999999999915e+01,3.943650507783440229e-02
2.807999999999999829e+01,4.379904001683646020e-02
2.812000000000000099e+01,3.827529330806665742e-02
2.816000000000000014e+01,3.691311552086565945e-02
2.819999999999999929e+01,4.439512385415073786e-02
2.823999999999999844e+01,4.745390488019575470e-02
2.828000000000000114e+01,4.921120356951471514e-02
2.832000000000000028e+01,4.888658432161183814e-02
2.835999999999999943e+01,5.922717084882416633e-02
2.839999999999999858e+01,4.485319315437175103e-02
2.844000000000000128e+01,5.076980100427024023e-02
2.848000000000000043e+01,3.769504383073041948e-02
2.851999999999999957e+01,4.048840191514311432e-02
2.855999999999999872e+01,7.641092233889154942e-03
2.860000000000000142e+01,3.072428603369736083e-02
2.864000000000000057e+01,3.325524463648794893e-02
2.867999999999999972e+01,3.916734272482528395e-02
2.871999999999999886e+01,3.129098629997384418e-02
2.876000000000000156e+01,2.237329907427063752e-02
2.880000000000000071e+01,5.403754098552319279e-02
2.883999999999999986e+01,3.679370478561989899e-02
2.887999999999999901e+01,5.674990892187632696e-02
2.892000000000000171e+01,2.493643688898243213e-02
2.896000000000000085e+01,3.760707661887824349e-02
2.900000000000000000e+01,6.042263960038646298e-02
2.903999999999999915e+01,5.904393732232986886e-02
2.907999999999999829e+01,3.945431384062897395e-02
2.912000000000000099e+01,3.339150497986718286e-02
2.916000000000000014e+01,4.970045388137224462e-02
2.919999999999999929e+01,4.779848312035149538e-02
2.923999999999999844e+01,5.239940349357129906e-02
2.928000000000000114e+01,4.399231265969034965e-02
2.932000000000000028e+01,3.974680564485649770e-02
2.935999999999999943e+01,4.330491816238465907e-02
2.939999999999999858e+01,4.582170809835978131e-02
2.944000000000000128e+01,4.755732133788839744e-02
2.948000000000000043e+01,3.446390833904251078e-02
2.951999999999999957e+01,5.206690961063909634e-02
2.955999999999999872e+01,4.339448932964572181e-02
2.960000000000000142e+01,5.787426857588871820e-02
2.964000000000000057e+01,7.131272832281550234e-02
2.967999999999999972e+01,5.197213377325480416e-02
2.971999999999999886e+01,6.124679309146234540e-02
2.976000000000000156e+01,4.762792325381890596e-02
2.980000000000000071e+01,6.782721573936863202e-02
2.983999999999999986e+01,4.978440318384229346e-02
2.987999999999999901e+01,5.021117706628403649e-02
2.992000000000000171e+01,6.390463047238731376e-02
2.996000000000000085e+01,6.693138974700026111e-02
3.000000000000000000e+01,8.790744625789841116e-02
3.003999999999999915e+01,8.859143092289502308e-02
3.007999999999999829e+01,9.109570082474986730e-02
3.012000000000000099e+01,7.747022585052579235e-02
3.016000000000000014e+01,1.218564373631088465e-01
3.019999999999999929e+01,9.366135943308798173e-02
3.023999999999999844e+01,1.185352069606745856e-01
3.028000000000000114e+01,1.293604746382119308e-01
3.032000000000000028e+01,1.100081499525666223e-01
3.035999999999999943e+01,1.468464967224549222e-01
3.039999999999999858e+01,1.574094327275825378e-01
3.044000000000000128e+01,1.848810901341606250e-01
3.048000000000000043e+01,1.876382100317941504e-01
3.051999999999999957e+01,1.945569291596593864e-01
3.055999999999999872e+01,2.233271332867056425e-01
3.060000000000000142e+01,2.476741404151749648e-01
3.064000000000000057e+01,2.447051583755180393e-01
3.067999999999999972e+01,2.357521081362928816e-01
3.071999999999999886e+01,2.293997874674263138e-01
3.076000000000000156e+01,2.227865977972177669e-01
3.080000000000000071e+01,2.169531211249759450e-01
3.083999999999999986e+01,1.942094727091637218e-01
3.087999999999999901e+01,1.722455383187305455e-01
3.092000000000000171e+01,1.814983269212563921e-01
3.096000000000000085e+01,1.535496063520811749e-01
3.100000000000000000e+01,1.693045876305076802e-01
3.103999999999999915e+01,1.470776246504434948e-01
3.107999999999999829e+01,1.209477615790777311e-01
3.112000000000000099e+01,1.231730249837947044e-01
3.116000000000000014e+01,1.274787328668369746e-01
3.119999999999999929e+01,8.651842814699541029e-02
3.123999999999999844e+01,7.729514127256341405e-02
3.128000000000000114e+01,9.200451161522828214e-02
3.132000000000000028e+01,6.535005146713723789e-02
3.135999999999999943e+01,5.118185322192748965e-02
3.139999999999999858e+01,7.135212859095824145e-02
3.144000000000000128e+01,5.874337226657248140e-02
3.148000000000000043e+01,5.133680898696874051e-02
3.151999999999999957e+01,5.719694577927283974e-02
3.155999999999999872e+01,5.525200807373954748e-02
3.160000000000000142e+01,3.951865284186061728e-02
3.164000000000000057e+01,5.812377430645901399e-02
3.167999999999999972e+01,4.056797733166975228e-02
3.171999999999999886e+01,4.174193579673223659e-02
3.176000000000000156e+01,5.462172518753570516e-02
3.180000000000000071e+01,3.290146990847363923e-02
3.183999999999999986e+01,5.852696246445135420e-02
3.187999999999999901e+01,5.007270212077713500e-02
3.192000000000000171e+01,2.783002836040649602e-02
3.196000000000000085e+01,4.773019654818142637e-02
3.200000000000000000e+01,3.667235783423057616e-02
3.203999999999999915e+01,3.914137124176814142e-02
3.207999999999999829e+01,4.056909648606475682e-02
3.211999999999999744e+01,2.326564882558372974e-02
3.215999999999999659e+01,3.821952156855506350e-02
3.220000000000000284e+01,3.054004186315157146e-02
3.224000000000000199e+01,3.430625387656215802e-02
3.228000000000000114e+01,3.677103492386207123e-02
3.232000000000000028e+01,2.726842529133144746e-02
3.235999999999999943e+01,4.950284788798275243e-02
3.239999999999999858e+01,3.089374460674571693e-02
3.243999999999999773e+01,2.164917264164846825e-02
3.247999999999999687e+01,5.220614096027122175e-02
3.252000000000000313e+01,4.191958494212408293e-02
3.256000000000000227e+01,2.955116543960733047e-02
3.260000000000000142e+01,1.926320890883748832e-02
3.264000000000000057e+01,2.796516500456152840e-02
3.267999999999999972e+01,3.250409618582939669e-02
3.271999999999999886e+01,2.819738628113610188e-02
3.275999999999999801e+01,3.637695625903928504e-02
3.279999999999999716e+01,3.128841486458273230e-02
3.284000000000000341e+01,5.091298683596499203e-02
3.288000000000000256e+01,4.608319749217238553e-02
3.292000000000000171e+01,4.073242151576957071e-02
3.296000000000000085e+01,4.006356684847514615e-02
3.300000000000000000e+01,4.979983217480930119e-02
3.303999999999999915e+01,3.924406418320350309e-02
3.307999999999999829e+01,3.857312646983723781e-02
3.311999999999999744e+01,4.544571120581106932e-02
3.315999999999999659e+01,3.410742713616844030e-02
3.320000000000000284e+01,3.317426562868516782e-02
3.324000000000000199e+01,3.119983085543952608e-02
3.328000000000000114e+01,4.171168264297046152e-02
3.332000000000000028e+01,3.635397602231538183e-02
3.335999999999999943e+01,2.839412544861252136e-02
3.339999999999999858e+01,1.861256754977008362e-02
3.343999999999999773e+01,3.354413072235871290e-02
3.347999999999999687e+01,4.587355148301804769e-02
3.352000000000000313e+01,3.244789229079798887e-02
3.356000000000000227e+01,4.867811776773948995e-02
3.360000000000000142e+01,2.510541426357969577e-02
3.364000000000000057e+01,2.910743348478872852e-02
3.367999999999999972e+01,3.753123789041636071e-02
3.371999999999999886e+01,4.803551965156303144e-02
3.375999999999999801e+01,2.862239859965723734e-02
3.379999999999999716e+01,3.574342084234216621e-02
3.384000000000000341e+01,1.164631444238371609e-02
3.388000000000000256e+01,3.047251076266832559e-02
3.392000000000000171e+01,5.007846014999955964e-02
3.396000000000000085e+01,4.679093432062608748e-02
3.400000000000000000e+01,4.584403481411542663e-02
3.403999999999999915e+01,4.151456397335982068e-02
3.407999999999999829e+01,2.495757968444386674e-02
3.411999999999999744e+01,2.166732885833578745e-02
3.415999999999999659e+01,4.230977223616754629e-02
3.420000000000000284e+01,1.222318873966387991e-02
3.424000000000000199e+01,2.115773201574907766e-02
3.428000000000000114e+01,4.257857469526489524e-02
3.432000000000000028e+01,1.457111889856685209e-02
3.435999999999999943e+01,3.312900718619449236e-02
3.439999999999999858e+01,4.310142133491991906e-02
3.443999999999999773e+01,3.954559980183729173e-02
3.447999999999999687e+01,3.833041075609129600e-02
3.452000000000000313e+01,3.087105745516724453e-02
3.456000000000000227e+01,5.176687480905529937e-02
3.460000000000000142e+01,4.378588162332267691e-02
3.464000000000000057e+01,3.164188869473555377e-02
3.467999999999999972e+01,6.268135413191507077e-02
3.471999999999999886e+01,5.625921331437139239e-02
3.475999999999999801e+01,3.058564275385495732e-02
3.479999999999999716e+01,5.642018398504396876e-02
3.484000000000000341e+01,5.754024370125929849e-02
3.488000000000000256e+01,6.126108641327340093e-02
3.492000000000000171e+01,5.041311812235080986e-02
3.496000000000000085e+01,4.242607922603987280e-02
3.500000000000000000e+01,4.302316840886084848e-02
3.503999999999999915e+01,6.313049178334635692e-02
3.507999999999999829e+01,6.996973306672289727e-02
3.511999999999999744e+01,8.097063265653901831e-02
3.515999999999999659e+01,4.202295381516932965e-02
3.520000000000000284e+01,7.903705681422598661e-02
3.524000000000000199e+01,6.194025646709899746e-02
3.528000000000000114e+01,6.851601933628365115e-02
3.532000000000000028e+01,8.731794959385823229e-02
3.535999999999999943e+01,9.207136524206503692e-02
3.539999999999999858e+01,1.124328391342822447e-01
3.543999999999999773e+01,1.052182401317110910e-01
3.547999999999999687e+01,1.279196958275976015e-01
3.552000000000000313e+01,1.168015907424927585e-01
3.556000000000000227e+01,1.382009950972641621e-01
3.560000000000000142e+01,1.458120332963053489e-01
3.564000000000000057e+01,1.466586308811395067e-01
3.567999999999999972e+01,1.750799773903563283e-01
3.571999999999999886e+01,2.058419723118005695e-01
3.575999999999999801e+01,2.150112419903202621e-01
3.579999999999999716e+01,2.371871213359055264e-01
3.584000000000000341e+01,3.020261832019349724e-01
3.588000000000000256e+01,3.161362397692872306e-01
3.592000000000000171e+01,3.281644760035870578e-01
3.596000000000000085e+01,3.552804869309822422e-01
3.600000000000000000e+01,3.428537450710460455e-01
3.603999999999999915e+01,3.426531798462107425e-01
3.607999999999999829e+01,2.953656470908380127e-01
3.611999999999999744e+01,2.691492346255998647e-01
3.615999999999999659e+01,2.637437975928016431e-01
3.620000000000000284e+01,2.476717465666732065e-01
3.624000000000000199e+01,2.282171524601383228e-01
3.628000000000000114e+01,2.220293195565435085e-01
3.632000000000000028e+01,2.077763279147432640e-01
3.635999999999999943e+01,1.911813762192575983e-01
3.639999999999999858e+01,1.987792928666571035e-01
3.643999999999999773e+01,1.600706827210764405e-01
3.647999999999999687e+01,1.596027920014275736e-01
3.652000000000000313e+01,1.422248024844824654e-01
3.656000000000000227e+01,1.399345953662249897e-01
3.660000000000000142e+01,1.594959508167778095e-01
3.664000000000000057e+01,1.402949978134996889e-01
3.667999999999999972e+01,1.356615380072264399e-01
3.671999999999999886e+01,1.188005986573991007e-01
3.675999999999999801e+01,1.360180563870364845e-01
3.679999999999999716e+01,1.607790838269800293e-01
3.684000000000000341e+01,1.228444312127652399e-01
3.688000000000000256e+01,1.249715207613481122e-01
3.692000000000000171e+01,1.343820361899551175e-01
3.696000000000000085e+01,1.432716168702733994e-01
3.700000000000000000e+01,1.459170651451952572e-01
3.703999999999999915e+01,1.069386110179407490e-01
3.707999999999999829e+01,1.290936767054658707e-01
3.711999999999999744e+01,1.265342901592680647e-01
3.715999999999999659e+01,1.362010946319432980e-01
3.720000000000000284e+01,1.435259498387623234e-01
3.724000000000000199e+01,1.747835388048952499e-01
3.728000000000000114e+01,1.605150478800791702e-01
3.732000000000000028e+01,1.740814723129987807e-01
3.735999999999999943e+01,1.720385355934545279e-01
3.739999999999999858e+01,2.004319689730645337e-01
3.743999999999999773e+01,2.238820024550488286e-01
3.747999999999999687e+01,2.520140152949372769e-01
3.752000000000000313e+01,2.926323691484546408e-01
3.756000000000000227e+01,3.431356108153009732e-01
3.760000000000000142e+01,3.738671684695101249e-01
3.764000000000000057e+01,4.956489708414579809e-01
3.767999999999999972e+01,5.950576365141747592e-01
3.771999999999999886e+01,6.988881392556318684e-01
3.775999999999999801e+01,8.136441138645509330e-01
3.779999999999999716e+01,9.244972746848025835e-01
3.784000000000000341e+01,9.669315701227355619e-01
3.788000000000000256e+01,1.000000000000000000e+00
3.792000000000000171e+01,9.480002617527181208e-01
3.796000000000000085e+01,9.207137026256623225e-01
3.800000000000000000e+01,8.596076145673974267e-01
3.803999999999999915e+01,8.390835743122094792e-01
3.807999999999999829e+01,7.769356450112054890e-01
3.811999999999999744e+01,7.514675839696814963e-01
3.815999999999999659e+01,6.838553441669524835e-01
3.820000000000000284e+01,5.850250317155506474e-01
3.824000000000000199e+01,5.278173511213596347e-01
3.828000000000000114e+01,4.643655545603690982e-01
3.832000000000000028e+01,4.235457787717553102e-01
3.835999999999999943e+01,3.949522094131994177e-01
3.839999999999999858e+01,3.551717635723502520e-01
3.843999999999999773e+01,3.276175251889711926e-01
3.847999999999999687e+01,2.972010632355315818e-01
3.852000000000000313e+01,2.568984531979205399e-01
3.856000000000000227e+01,2.595192059841726073e-01
3.860000000000000142e+01,2.330030542300186580e-01
3.864000000000000057e+01,2.181928217590642094e-01
3.867999999999999972e+01,2.223725794842332515e-01
3.871999999999999886e+01,2.244705528357804902e-01
3.875999999999999801e+01,1.815627560463079215e-01
3.879999999999999716e+01,1.992682104181783265e-01
3.884000000000000341e+01,1.779512392186557157e-01
3.888000000000000256e+01,1.722423709555789828e-01
3.892000000000000171e+01,1.712155005438278088e-01
3.896000000000000085e+01,1.891786239241430578e-01
3.900000000000000000e+01,1.829476099577259374e-01
3.903999999999999915e+01,1.837399037263585111e-01
3.907999999999999829e+01,1.808895455163209709e-01
3.911999999999999744e+01,1.749168265841207770e-01
3.915999999999999659e+01,1.679029104146691209e-01
3.920000000000000284e+01,1.499622734084480047e-01
3.924000000000000199e+01,1.590761403036561883e-01
3.928000000000000114e+01,1.793756439585610096e-01
3.932000000000000028e+01,2.014955515164459365e-01
3.935999999999999943e+01,1.936981281801399835e-01
3.939999999999999858e+01,1.983870700016523714e-01
3.943999999999999773e+01,1.843449329266133307e-01
3.947999999999999687e+01,1.934551222642309221e-01
3.952000000000000313e+01,2.090683347585707563e-01
3.956000000000000227e+01,2.184374477247080504e-01
3.960000000000000142e+01,2.267653691043615416e-01
3.964000000000000057e+01,2.384745707250482127e-01
3.967999999999999972e+01,2.332737141312249129e-01
3.971999999999999886e+01,2.577288213173107301e-01
3.975999999999999801e+01,2.670948889161034456e-01
3.979999999999999716e+01,2.824436925247601482e-01
3.984000000000000341e+01,2.847846205447409629e-01
3.988000000000000256e+01,3.042945365722253825e-01
3.992000000000000171e+01,3.110567234098467471e-01
3.996000000000000085e+01,3.243219390549580972e-01
4.000000000000000000e+01,3.196365191096061098e-01
4.003999999999999915e+01,3.433063401968095563e-01
4.007999999999999829e+01,3.367986942651322035e-01
4.011999999999999744e+01,3.300302995393530336e-01
4.015999999999999659e+01,3.732092132135002571e-01
4.020000000000000284e+01,3.700816483830460246e-01
4.024000000000000199e+01,3.674737724138102402e-01
4.028000000000000114e+01,3.911399775881617136e-01
4.032000000000000028e+01,3.887910447682794146e-01
4.035999999999999943e+01,4.023103792633714870e-01
4.039999999999999858e+01,3.903348675344435192e-01
4.043999999999999773e+01,3.968290778619082415e-01
4.047999999999999687e+01,4.389626052719139970e-01
4.052000000000000313e+01,4.605440500556300387e-01
4.056000000000000227e+01,4.579313775271537379e-01
4.060000000000000142e+01,4.815927902519138715e-01
4.064000000000000057e+01,4.612890384654459441e-01
4.067999999999999972e+01,4.966557999278983226e-01
4.071999999999999886e+01,4.838950719641248455e-01
4.075999999999999801e+01,4.633293876549296475e-01
4.079999999999999716e+01,4.698182272817034710e-01
4.084000000000000341e+01,4.619984773054522931e-01
4.088000000000000256e+01,4.349273761832698204e-01
4.092000000000000171e+01,4.239846949393485387e-01
4.096000000000000085e+01,4.117406942035521378e-01
4.100000000000000000e+01,3.896105772333658956e-01
4.103999999999999915e+01,3.737233575693350573e-01
4.107999999999999829e+01,3.411862430419101977e-01
4.111999999999999744e+01,3.367442380457064677e-01
4.115999999999999659e+01,3.062871058430981508e-01
4.120000000000000284e+01,2.961207230571042404e-01
4.124000000000000199e+01,3.041639272302255614e-01
4.128000000000000114e+01,2.838506973954552648e-01
4.132000000000000028e+01,2.814869101758121217e-01
4.135999999999999943e+01,2.723587558019420762e-01
4.139999999999999858e+01,3.006909479256587026e-01
4.143999999999999773e+01,2.634659199860178713e-01
4.147999999999999687e+01,2.642215303141774441e-01
4.152000000000000313e+01,2.576924848001335699e-01
4.156000000000000227e+01,2.717143386974599784e-01
4.160000000000000142e+01,2.521768552685311193e-01
4.164000000000000057e+01,2.435648935365616885e-01
4.167999999999999972e+01,2.427567095584499679e-01
4.171999999999999886e+01,2.164536963086212129e-01
4.175999999999999801e+01,2.203269637805169157e-01
4.179999999999999716e+01,2.109322354639377728e-01
4.184000000000000341e+01,1.994557628428169083e-01
4.188000000000000256e+01,1.957830705440845309e-01
4.192000000000000171e+01,1.895083442254216211e-01
4.196000000000000085e+01,1.613808269168875154e-01
4.200000000000000000e+01,1.642100295265166987e-01
4.203999999999999915e+01,1.542915301727090516e-01
4.207999999999999829e+01,1.714275711934676039e-01
4.211999999999999744e+01,1.503216648809396483e-01
4.215999999999999659e+01,1.375398332295446058e-01
4.220000000000000284e+01,1.323016406387867161e-01
4.224000000000000199e+01,1.325259246511671096e-01
4.228000000000000114e+01,9.867058932749572797e-02
4.232000000000000028e+01,1.197053522004952048e-01
4.235999999999999943e+01,9.859599025143554740e-02
4.239999999999999858e+01,9.881797461577736252e-02
4.243999999999999773e+01,9.799880386677239930e-02
4.247999999999999687e+01,9.587833314672616902e-02
4.252000000000000313e+01,6.956377028608921875e-02
4.256000000000000227e+01,8.487189476292769652e-02
4.260000000000000142e+01,1.100649717800705196e-01
4.264000000000000057e+01,7.984651362966514732e-02
4.267999999999999972e+01,1.008761230996770147e-01
4.271999999999999886e+01,8.782611888440496062e-02
4.275999999999999801e+01,7.503569052243846960e-02
4.279999999999999716e+01,6.666716446989383316e-02
4.284000000000000341e+01,8.613362466653423644e-02
4.288000000000000256e+01,8.296686957434304399e-02
4.292000000000000171e+01,7.173504050546182509e-02
4.296000000000000085e+01,9.145994368369167460e-02
4.300000000000000000e+01,8.881177848560903310e-02
4.303999999999999915e+01,7.887897696615667198e-02
4.307999999999999829e+01,8.429418695089598013e-02
4.311999999999999744e+01,6.707618472904057494e-02
4.315999999999999659e+01,7.275041080940734817e-02
4.320000000000000284e+01,6.983927576622595002e-02
4.324000000000000199e+01,9.320225988088727542e-02
4.328000000000000114e+01,6.219429853290141252e-02
4.332000000000000028e+01,8.555615748143893806e-02
4.335999999999999943e+01,7.067608502158076456e-02
4.339999999999999858e+01,7.426577263237094106e-02
4.343999999999999773e+01,6.354690403103591123e-02
4.347999999999999687e+01,6.739561595675221117e-02
4.352000000000000313e+01,8.425103669482192359e-02
4.356000000000000227e+01,6.390511007862931248e-02
4.360000000000000142e+01,6.957316187223414050e-02
4.364000000000000057e+01,8.460588881970219910e-02
4.367999999999999972e+01,7.076192183884660869e-02
4.371999999999999886e+01,7.486742829548731493e-02
4.375999999999999801e+01,8.573615773310329369e-02
4.379999999999999716e+01,7.501226518273186594e-02
4.384000000000000341e+01,8.483930132498154753e-02
4.388000000000000256e+01,1.066324694173376025e-01
4.392000000000000171e+01,8.862284106478032775e-02
4.396000000000000085e+01,9.532646888837284505e-02
4.400000000000000000e+01,1.017693977473604766e-01
4.403999999999999915e+01,1.113335179836576344e-01
4.407999999999999829e+01,1.050282179987242770e-01
4.411999999999999744e+01,1.047057095039197749e-01
4.415999999999999659e+01,1.108862837557514913e-01
4.420000000000000284e+01,1.136844171547014976e-01
4.424000000000000199e+01,1.123196741002741028e-01
4.428000000000000114e+01,1.153768523623962955e-01
4.432000000000000028e+01,1.231160978261749278e-01
4.435999999999999943e+01,1.100431646080542031e-01
4.439999999999999858e+01,1.068552070470147886e-01
4.443999999999999773e+01,9.117972371630848893e-02
4.447999999999999687e+01,9.371386895491606861e-02
4.452000000000000313e+01,9.026412373628493746e-02
4.456000000000000227e+01,8.915514045894144812e-02
4.460000000000000142e+01,9.298837335059810527e-02
4.464000000000000057e+01,9.005728121193250224e-02
4.467999999999999972e+01,7.333793952883388423e-02
4.471999999999999886e+01,8.315288138210627511e-02
4.475999999999999801e+01,7.449695803314645981e-02
4.479999999999999716e+01,7.338470713572388393e-02
4.484000000000000341e+01,6.576827914791061325e-02
4.488000000000000256e+01,5.607014589722341541e-02
4.492000000000000171e+01,5.261495978218869857e-02
4.496000000000000085e+01,4.993966851709938370e-02
4.500000000000000000e+01,5.923052358588886540e-02
4.503999999999999915e+01,4.744906333438292378e-02
4.507999999999999829e+01,4.399171524455913751e-02
4.511999999999999744e+01,5.067949742992813866e-02
4.515999999999999659e+01,5.034281589175437777e-02
4.520000000000000284e+01,6.041141102758627174e-02
4.524000000000000199e+01,5.278958323986183976e-02
4.528000000000000114e+01,5.635346926775725712e-02
4.532000000000000028e+01,3.988562505690278204e-02
4.535999999999999943e+01,5.203323557292308804e-02
4.539999999999999858e+01,4.440926224900643843e-02
4.543999999999999773e+01,5.005216776673936802e-02
4.547999999999999687e+01,5.907642852660411475e-02
4.552000000000000313e+01,4.130518195983335500e-02
4.556000000000000227e+01,5.449070103107363228e-02
4.560000000000000142e+01,3.541766100367747805e-02
4.564000000000000057e+01,4.522022467049963135e-02
4.567999999999999972e+01,5.554254706257739926e-02
4.571999999999999886e+01,5.779983143739591406e-02
4.575999999999999801e+01,4.340728105244055779e-02
4.579999999999999716e+01,5.112655676011172712e-02
4.584000000000000341e+01,4.375687096382509939e-02
4.588000000000000256e+01,4.757290668875075595e-02
4.592000000000000171e+01,4.176303473654420506e-02
4.596000000000000085e+01,3.543234361993374132e-02
4.600000000000000000e+01,4.106781167985594505e-02
4.603999999999999915e+01,3.343533840415548186e-02
4.607999999999999829e+01,3.360669938998986361e-02
4.611999999999999744e+01,3.325724326624496935e-02
4.615999999999999659e+01,4.643482060226105518e-02
4.620000000000000284e+01,3.489806231585141499e-02
4.624000000000000199e+01,3.844921074501888442e-02
4.628000000000000114e+01,3.393532834881334004e-02
4.632000000000000028e+01,4.034702775318711049e-02
4.635999999999999943e+01,2.386541118976413800e-02
4.639999999999999858e+01,3.313766362416887407e-02
4.643999999999999773e+01,3.772677711623342867e-02
4.647999999999999687e+01,2.982839103764499053e-02
4.652000000000000313e+01,4.039980509878501880e-02
4.656000000000000227e+01,3.302066781727103217e-02
4.660000000000000142e+01,3.656711593227955637e-02
4.664000000000000057e+01,2.814635727426084005e-02
4.667999999999999972e+01,2.778958595476994226e-02
4.671999999999999886e+01,3.237505803070538091e-02
4.675999999999999801e+01,5.855207778541378361e-02
4.679999999999999716e+01,4.258502973944633396e-02
4.684000000000000341e+01,3.260080811562616337e-02
4.688000000000000256e+01,3.120086714166585284e-02
4.692000000000000171e+01,2.537793876123984119e-02
4.696000000000000085e+01,4.452845045632570359e-02
4.700000000000000000e+01,2.699794971867989016e-02
4.703999999999999915e+01,3.704234379796455395e-02
4.707999999999999829e+01,4.006229881160191381e-02
4.711999999999999744e+01,2.695272727427588250e-02
4.715999999999999659e+01,3.751587152398938585e-02
4.720000000000000284e+01,3.559152544976074140e-02
4.724000000000000199e+01,2.039925345109416463e-02
4.728000000000000114e+01,2.731882655218179773e-02
4.732000000000000028e+01,3.553861555467919403e-02
4.735999999999999943e+01,3.621367834467101310e-02
4.739999999999999858e+01,3.480706823527676685e-02
4.743999999999999773e+01,3.392023945420888364e-02
4.747999999999999687e+01,3.953653605738797344e-02
4.752000000000000313e+01,2.928345661806598318e-02
4.756000000000000227e+01,4.140237124584186107e-02
4.760000000000000142e+01,2.958740434510926873e-02
4.764000000000000057e+01,3.364079825387114586e-02
4.767999999999999972e+01,3.717339508759376354e-02
4.771999999999999886e+01,2.951923513255735529e-02
4.775999999999999801e+01,3.955445512793822477e-02
4.779999999999999716e+01,3.111884896275479706e-02
4.784000000000000341e+01,1.721968572074464299e-02
4.788000000000000256e+01,2.517222991268041818e-02
4.792000000000000171e+01,2.714092731240059370e-02
4.796000000000000085e+01,3.457217477523914090e-02
4.800000000000000000e+01,1.858983658943205372e-02
4.803999999999999915e+01,3.538531349122204378e-02
4.807999999999999829e+01,2.174328074396157315e-02
4.811999999999999744e+01,3.931819188330679810e-02
4.815999999999999659e+01,3.217879257182769404e-02
4.820000000000000284e+01,3.154252789130651546e-02
4.824000000000000199e+01,2.908474647062910326e-02
4.828000000000000114e+01,2.350472196649839793e-02
4.832000000000000028e+01,3.067132254805921693e-02
4.835999999999999943e+01,4.538164130100495741e-02
4.839999999999999858e+01,3.251605359995651812e-02
4.843999999999999773e+01,3.577898235392623638e-02
4.847999999999999687e+01,4.086243264958549365e-02
4.852000000000000313e+01,2.279244934617969884e-02
4.856000000000000227e+01,2.969592666653208049e-02
4.860000000000000142e+01,2.723367609946525728e-02
4.864000000000000057e+01,2.763253061451515641e-02
4.867999999999999972e+01,3.167292683958970040e-02
4.871999999999999886e+01,2.582730597556232716e-02
4.875999999999999801e+01,3.532976956200049173e-02
4.879999999999999716e+01,4.431145045717167080e-02
4.884000000000000341e+01,3.950493523334985824e-02
4.888000000000000256e+01,3.677909205967975353e-02
4.892000000000000171e+01,3.353246773586120166e-02
4.896000000000000085e+01,3.834986003182123265e-02
4.900000000000000000e+01,3.458196569162553385e-02
4.903999999999999915e+01,3.913823437002133393e-02
4.907999999999999829e+01,2.340267572664520013e-02
4.911999999999999744e+01,3.446160249871785264e-02
4.915999999999999659e+01,4.395916971727645284e-02
4.920000000000000284e+01,2.301924167055689405e-02
4.924000000000000199e+01,3.381656263701660059e-02
4.928000000000000114e+01,4.097136261987564809e-02
4.932000000000000028e+01,4.656480510404528012e-02
4.935999999999999943e+01,4.097151186140823159e-02
4.939999999999999858e+01,4.474296774632056245e-02
4.943999999999999773e+01,3.966899727444424262e-02
4.947999999999999687e+01,4.369963158612902299e-02
4.952000000000000313e+01,4.200658502524507593e-02
4.956000000000000227e+01,5.045872576093710093e-02
4.960000000000000142e+01,4.096035419564284658e-02
4.964000000000000057e+01,4.368833392554201389e-02
4.967999999999999972e+01,4.329408855170323311e-02
4.971999999999999886e+01,4.732183435845123409e-02
4.975999999999999801e+01,5.056866443147934459e-02
4.979999999999999716e+01,4.392949128547161963e-02
4.984000000000000341e+01,4.561449143217848751e-02
4.988000000000000256e+01,4.313668755807576610e-02
4.992000000000000171e+01,3.415477183426396390e-02
4.996000000000000085e+01,2.699339665926945783e-02
5.000000000000000000e+01,2.971706906021785721e-02
5.003999999999999915e+01,4.908956920723198114e-02
5.007999999999999829e+01,3.776444001910269493e-02
5.011999999999999744e+01,5.973744337409190447e-02
5.015999999999999659e+01,4.112729430812603337e-02
5.020000000000000284e+01,4.150728338565603387e-02
5.024000000000000199e+01,4.240708975094327482e-02
5.028000000000000114e+01,3.888395186108184465e-02
5.032000000000000028e+01,5.513138977003672475e-02
5.035999999999999943e+01,5.056672605301534146e-02
5.039999999999999858e+01,4.860304464978083827e-02
5.043999999999999773e+01,4.429758401742733137e-02
5.047999999999999687e+01,3.921121689806478933e-02
5.052000000000000313e+01,5.545630037445314214e-02
5.056000000000000227e+01,6.181539039222258558e-02
5.060000000000000142e+01,5.412616152266915698e-02
5.064000000000000057e+01,6.620751256158133313e-02
5.067999999999999972e+01,5.435502162735887655e-02
5.071999999999999886e+01,6.877674591403008797e-02
5.075999999999999801e+01,7.253204319641134989e-02
5.079999999999999716e+01,6.484047787400683271e-02
5.084000000000000341e+01,7.431804131459228413e-02
5.088000000000000256e+01,8.093354043402520293e-02
5.092000000000000171e+01,8.026450443220095599e-02
5.096000000000000085e+01,1.030080876481003493e-01
5.100000000000000000e+01,8.126634865986438749e-02
5.103999999999999915e+01,8.970100957318086210e-02
5.107999999999999829e+01,7.368154290762306269e-02
5.111999999999999744e+01,8.991964014223496893e-02
5.115999999999999659e+01,7.702099414017359036e-02
5.120000000000000284e+01,8.987627878067833143e-02
5.124000000000000199e+01,7.333467584052151544e-02
5.128000000000000114e+01,8.150642308474068121e-02
5.132000000000000028e+01,8.577553017297244453e-02
5.135999999999999943e+01,7.313472904889140036e-02
5.139999999999999858e+01,7.584204627988203051e-02
5.143999999999999773e+01,5.825756649776386853e-02
5.147999999999999687e+01,7.006905615376397833e-02
5.152000000000000313e+01,6.887282022328528042e-02
5.156000000000000227e+01,5.518914996283520030e-02
5.160000000000000142e+01,6.647897936781108075e-02
5.164000000000000057e+01,4.863207170058742729e-02
5.167999999999999972e+01,6.044128141141335425e-02
5.171999999999999886e+01,5.560073290468254409e-02
5.175999999999999801e+01,5.518220177755216171e-02
5.179999999999999716e+01,5.944583391512921894e-02
5.184000000000000341e+01,5.252276217568117161e-02
5.188000000000000256e+01,5.106229084255461265e-02
5.192000000000000171e+01,4.231729723082479355e-02
5.196000000000000085e+01,5.568420882246929993e-02
5.200000000000000000e+01,6.905066956214056528e-02
5.203999999999999915e+01,4.781734556726052049e-02
5.207999999999999829e+01,5.754087094449483741e-02
5.211999999999999744e+01,4.150955524221174725e-02
5.215999999999999659e+01,4.550898434062868730e-02
5.220000000000000284e+01,3.962244104237905989e-02
5.224000000000000199e+01,3.711733980260135957e-02
5.228000000000000114e+01,5.438283953324149489e-02
5.232000000000000028e+01,4.303190166748804141e-02
5.235999999999999943e+01,4.676894911435336422e-02
5.239999999999999858e+01,5.726933050272344644e-02
5.243999999999999773e+01,6.100548703347149354e-02
5.247999999999999687e+01,4.444985990747080118e-02
5.252000000000000313e+01,6.171268688975907468e-02
5.256000000000000227e+01,5.322067844329760045e-02
5.260000000000000142e+01,3.120066753762230916e-02
5.264000000000000057e+01,4.742158359516521204e-02
5.267999999999999972e+01,4.465144542149327572e-02
5.271999999999999886e+01,5.853016941219930241e-02
5.275999999999999801e+01,4.899536888529210099e-02
5.279999999999999716e+01,5.793044914997966949e-02
5.284000000000000341e+01,5.749985598010039223e-02
5.288000000000000256e+01,3.885864726173898775e-02
5.292000000000000171e+01,4.649168201810977702e-02
5.296000000000000085e+01,5.698587733686192452e-02
5.300000000000000000e+01,3.964407990642700164e-02
5.303999999999999915e+01,5.429972566265666573e-02
5.307999999999999829e+01,5.750853809535132893e-02
5.311999999999999744e+01,5.577415200323306704e-02
5.315999999999999659e+01,5.403932995662009270e-02
5.320000000000000284e+01,4.866203726960951353e-02
5.324000000000000199e+01,4.770678096932728929e-02
5.328000000000000114e+01,5.429530602628707819e-02
5.332000000000000028e+01,3.981162210012546138e-02
5.335999999999999943e+01,3.729419187242889733e-02
5.339999999999999858e+01,5.818941219853141639e-02
5.343999999999999773e+01,4.396457502699688269e-02
5.347999999999999687e+01,4.664875515165783915e-02
5.352000000000000313e+01,5.115352154498388482e-02
5.356000000000000227e+01,4.837378672165902616e-02
5.360000000000000142e+01,5.209725587962281412e-02
5.364000000000000057e+01,5.530000450476441065e-02
5.367999999999999972e+01,4.913709048316845796e-02
5.371999999999999886e+01,5.363970792638987628e-02
5.375999999999999801e+01,4.695564615048164470e-02
5.379999999999999716e+01,5.431900669501117662e-02
5.384000000000000341e+01,4.503263624841015444e-02
5.388000000000000256e+01,5.083427063526176765e-02
5.392000000000000171e+01,4.727024545761272789e-02
5.396000000000000085e+01,4.318550385679082587e-02
5.400000000000000000e+01,4.846557045972611083e-02
5.403999999999999915e+01,4.229881606807414651e-02
5.407999999999999829e+01,4.367585330778732400e-02
5.411999999999999744e+01,4.245101320794713445e-02
5.415999999999999659e+01,4.278662222466980691e-02
5.420000000000000284e+01,4.676384384286656759e-02
5.424000000000000199e+01,3.461163034979555797e-02
5.428000000000000114e+01,5.497716671108111158e-02
5.432000000000000028e+01,3.996251150486429538e-02
5.435999999999999943e+01,4.575906546738804648e-02
5.439999999999999858e+01,4.192982065848430834e-02
5.443999999999999773e+01,4.980669804671123552e-02
5.447999999999999687e+01,4.259472489150974844e-02
5.452000000000000313e+01,5.073091016046014923e-02
5.456000000000000227e+01,4.611955425600013092e-02
5.460000000000000142e+01,3.032152992023968985e-02
5.464000000000000057e+01,4.782169617639316778e-02
5.467999999999999972e+01,4.346923480123261740e-02
5.471999999999999886e+01,4.171781122012363507e-02
5.475999999999999801e+01,4.542902503217938204e-02
5.479999999999999716e+01,3.014921183944646588e-02
5.484000000000000341e+01,4.582628346455249607e-02
5.488000000000000256e+01,5.265799859690695195e-02
5.492000000000000171e+01,4.440086883660070149e-02
5.496000000000000085e+01,3.718390772417917711e-02
5.500000000000000000e+01,3.699045931556304428e-02
5.503999999999999915e+01,5.240532138067936774e-02
5.507999999999999829e+01,4.492697946594067376e-02
5.511999999999999744e+01,4.291127956772202573e-02
5.515999999999999659e+01,4.167560551451828660e-02
5.520000000000000284e+01,4.746344673365070210e-02
5.524000000000000199e+01,3.972331939817550645e-02
5.528000000000000114e+01,4.707121487586840569e-02
5.532000000000000028e+01,4.765492248278235810e-02
5.535999999999999943e+01,4.251502421822618560e-02
5.539999999999999858e+01,4.023631785212680723e-02
5.543999999999999773e+01,4.211953075519367373e-02
5.547999999999999687e+01,3.749870321370683129e-02
5.552000000000000313e+01,4.354343025381426924e-02
5.556000000000000227e+01,3.814135582016846271e-02
5.560000000000000142e+01,4.860774442354174468e-02
5.564000000000000057e+01,3.852224458155196346e-02
5.567999999999999972e+01,6.173494868783614004e-02
5.571999999999999886e+01,4.384428103551943345e-02
5.575999999999999801e+01,4.234236921784782781e-02
5.579999999999999716e+01,3.355598495106995593e-02
5.584000000000000341e+01,5.598664371618557872e-02
5.588000000000000256e+01,5.032120134755661833e-02
5.592000000000000171e+01,6.416626132520499015e-02
5.596000000000000085e+01,4.081013319749900170e-02
5.600000000000000000e+01,4.502901495690220246e-02
5.603999999999999915e+01,6.069389409028155824e-02
5.607999999999999829e+01,4.019816814502761432e-02
5.611999999999999744e+01,4.077381934298547617e-02
5.615999999999999659e+01,4.629183517102221368e-02
5.620000000000000284e+01,5.206959945763257186e-02
5.624000000000000199e+01,5.446507751691379712e-02
5.628000000000000114e+01,5.477899671957522226e-02
5.632000000000000028e+01,5.327150295072370645e-02
5.635999999999999943e+01,6.399044677969954742e-02
5.639999999999999858e+01,5.129591283832211912e-02
5.643999999999999773e+01,6.331479534941472642e-02
5.647999999999999687e+01,6.154557985938988174e-02
5.652000000000000313e+01,5.171146505276763561e-02
5.656000000000000227e+01,4.968131909869267365e-02
5.660000000000000142e+01,4.843121748305422719e-02
5.664000000000000057e+01,4.614014311975386112e-02
5.667999999999999972e+01,4.488925949370289187e-02
5.671999999999999886e+01,5.508438197463264713e-02
5.675999999999999801e+01,5.591388136419887800e-02
5.679999999999999716e+01,4.425601371929999139e-02
5.684000000000000341e+01,5.471011394992629506e-02
5.688000000000000256e+01,4.773408611688790409e-02
5.692000000000000171e+01,4.986275861675536908e-02
5.696000000000000085e+01,5.303162544981524645e-02
5.700000000000000000e+01,4.605443615954656067e-02
5.703999999999999915e+01,5.078340245730855740e-02
5.707999999999999829e+01,5.551198314377890630e-02
5.711999999999999744e+01,4.229014810602014368e-02
5.715999999999999659e+01,4.649766836822451926e-02
5.720000000000000284e+01,4.342073416103797018e-02
5.724000000000000199e+01,5.100937662481034446e-02
5.728000000000000114e+01,4.064760541917824405e-02
5.732000000000000028e+01,4.173184802611924760e-02
5.735999999999999943e+01,5.608312255914400107e-02
5.739999999999999858e+01,4.832165902147263215e-02
5.743999999999999773e+01,5.512795529430038893e-02
5.747999999999999687e+01,5.126791086547213827e-02
5.752000000000000313e+01,5.104952167572888999e-02
5.756000000000000227e+01,3.990464744034124406e-02
5.760000000000000142e+01,5.503407678330589359e-02
5.764000000000000057e+01,3.270219422517402219e-02
5.767999999999999972e+01,5.485479227085104242e-02
5.771999999999999886e+01,5.151276652727286576e-02
5.775999999999999801e+01,4.270731110599440550e-02
5.779999999999999716e+01,5.549354514638765029e-02
5.784000000000000341e+01,4.824820973805749036e-02
5.788000000000000256e+01,4.594526104917078663e-02
5.792000000000000171e+01,6.783545707708062145e-02
5.796000000000000085e+01,4.472012954292474418e-02
5.800000000000000000e+01,5.724434409460545797e-02
5.803999999999999915e+01,5.207830010869923115e-02
5.807999999999999829e+01,6.017929729558759572e-02
5.811999999999999744e+01,3.992407674487537944e-02
5.815999999999999659e+01,4.568302159300095117e-02
5.820000000000000284e+01,5.144159521360726350e-02
5.824000000000000199e+01,3.846933137955484139e-02
5.828000000000000114e+01,3.200033163041128559e-02
5.832000000000000028e+01,4.712302802111942301e-02
5.835999999999999943e+01,6.848884415274797410e-02
5.839999999999999858e+01,4.927161368688943305e-02
5.843999999999999773e+01,5.684898833001362367e-02
5.847999999999999687e+01,5.662163419954267807e-02
5.852000000000000313e+01,5.275187775159280446e-02
5.856000000000000227e+01,4.237812041446319816e-02
5.860000000000000142e+01,4.917359149931770090e-02
5.864000000000000057e+01,5.232666180781165438e-02
5.867999999999999972e+01,4.481340682583425522e-02
5.871999999999999886e+01,4.900632900754608307e-02
5.875999999999999801e+01,4.669525286860892743e-02
5.879999999999999716e+01,5.374904657816758496e-02
5.884000000000000341e+01,5.924160505110161179e-02
5.888000000000000256e+01,3.923955463225902579e-02
5.892000000000000171e+01,4.239008028726419519e-02
5.896000000000000085e+01,5.048300653177904829e-02
5.900000000000000000e+01,6.247775239390722379e-02
5.903999999999999915e+01,4.377498399107068727e-02
5.907999999999999829e+01,5.706973634452806865e-02
5.911999999999999744e+01,5.527569774447112227e-02
5.915999999999999659e+01,5.400159098864373147e-02
5.920000000000000284e+01,6.079163236137059140e-02
5.924000000000000199e+01,5.873637323531667731e-02
5.928000000000000114e+01,4.757566875278744500e-02
5.932000000000000028e+01,6.190885382377331325e-02
5.935999999999999943e+01,6.063296028068038135e-02
5.939999999999999858e+01,6.169801926385857366e-02
5.943999999999999773e+01,5.573879791659108046e-02
5.947999999999999687e+01,4.873864029479877541e-02
5.952000000000000313e+01,5.760699605322892880e-02
5.956000000000000227e+01,5.398802022291859098e-02
5.960000000000000142e+01,6.181508748643226026e-02
5.964000000000000057e+01,6.027656864542547954e-02
5.967999999999999972e+01,6.263987815503654910e-02
5.971999999999999886e+01,6.604341744356474753e-02
5.975999999999999801e+01,5.826035456888648684e-02
5.979999999999999716e+01,5.567984844294783520e-02
5.984000000000000341e+01,6.090335329346113769e-02
5.988000000000000256e+01,4.687575100846693571e-02
5.992000000000000171e+01,6.536597101039715030e-02
5.996000000000000085e+01,5.445941541960731824e-02
