2.003999999999999915e+01,2.480526580440466436e-02
2.007999999999999829e+01,2.706974334645173910e-02
2.012000000000000099e+01,2.142847182378037479e-02
2.016000000000000014e+01,2.557622437672152360e-02
2.019999999999999929e+01,2.407713260940159625e-02
2.023999999999999844e+01,2.069604083442990947e-02
2.028000000000000114e+01,3.739454723847059070e-02
2.032000000000000028e+01,3.175538975032708711e-02
2.035999999999999943e+01,3.527777548375374272e-02
2.039999999999999858e+01,2.487064993034255808e-02
2.044000000000000128e+01,2.902134370055602097e-02
2.048000000000000043e+01,1.861504927940295373e-02
2.051999999999999957e+01,2.778636572101765220e-02
2.055999999999999872e+01,2.164772221243308967e-02
2.060000000000000142e+01,2.241170664892078515e-02
2.064000000000000057e+01,3.296469936296369391e-02
2.067999999999999972e+01,1.942308837602529925e-02
2.071999999999999886e+01,1.968631837135467050e-02
2.076000000000000156e+01,2.785612988016748434e-02
2.080000000000000071e+01,2.623774712912000859e-02
2.083999999999999986e+01,1.734106588778394284e-02
2.087999999999999901e+01,2.726901453484898569e-02
2.092000000000000171e+01,2.653030099241248177e-02
2.096000000000000085e+01,1.675635704991937369e-02
2.100000000000000000e+01,2.844243098669311035e-02
2.103999999999999915e+01,1.653586879115723912e-02
2.107999999999999829e+01,1.554775408035753009e-02
2.112000000000000099e+01,2.296818845171290716e-02
2.116000000000000014e+01,2.524372632390565335e-02
2.119999999999999929e+01,3.417088268499018228e-02
2.123999999999999844e+01,2.690959273516623645e-02
2.128000000000000114e+01,1.902121709160282947e-02
2.132000000000000028e+01,1.150971327222553332e-02
2.135999999999999943e+01,2.608568975509057905e-02
2.139999999999999858e+01,3.124993679343401193e-02
2.144000000000000128e+01,9.684163176823790825e-03
2.148000000000000043e+01,1.685709319104391687e-02
2.151999999999999957e+01,2.327743475819151267e-02
2.155999999999999872e+01,1.250536064796124551e-02
2.160000000000000142e+01,1.817349049727229326e-02
2.164000000000000057e+01,3.112069862544086102e-02
2.167999999999999972e+01,1.846733188836094039e-02
2.171999999999999886e+01,2.087372176396579820e-02
2.176000000000000156e+01,2.390795869081107500e-02
2.180000000000000071e+01,1.401659708757927239e-02
2.183999999999999986e+01,1.165529688928833296e-02
2.187999999999999901e+01,2.410275832905506982e-02
2.192000000000000171e+01,1.496547234226654893e-02
2.196000000000000085e+01,2.716267778432467431e-02
2.200000000000000000e+01,1.288083384896879409e-02
2.203999999999999915e+01,2.018446841805745726e-02
2.207999999999999829e+01,2.723747552622101525e-02
2.212000000000000099e+01,6.179996201506414953e-03
2.216000000000000014e+01,2.076341511374970097e-02
2.219999999999999929e+01,1.940934582757572816e-02
2.223999999999999844e+01,1.378880847673488903e-02
2.228000000000000114e+01,1.569831804928166138e-02
2.232000000000000028e+01,2.262797614263462737e-02
2.235999999999999943e+01,2.491467765889475786e-02
2.239999999999999858e+01,1.829159623522733785e-02
2.244000000000000128e+01,2.183394840930826322e-02
2.248000000000000043e+01,2.776105189779583260e-02
2.251999999999999957e+01,4.322707245318363999e-03
2.255999999999999872e+01,1.765470135348484390e-02
2.260000000000000142e+01,2.295536991932604215e-02
2.264000000000000057e+01,1.394996891114639107e-02
2.267999999999999972e+01,2.740848932346041239e-02
2.271999999999999886e+01,1.664684403874182664e-02
2.276000000000000156e+01,1.881150861441680672e-02
2.280000000000000071e+01,2.712575960157427232e-02
2.283999999999999986e+01,2.552625433282019671e-02
2.287999999999999901e+01,2.919786886241207760e-02
2.292000000000000171e+01,1.831241489384139234e-02
2.296000000000000085e+01,1.583544944820234127e-02
2.300000000000000000e+01,1.750014616266042794e-02
2.303999999999999915e+01,2.820080303855968668e-02
2.307999999999999829e+01,2.183448906420047339e-02
2.312000000000000099e+01,2.726501941295680562e-02
2.316000000000000014e+01,2.202881384793988623e-02
2.319999999999999929e+01,1.440853143669698112e-02
2.323999999999999844e+01,2.322839900829642978e-02
2.328000000000000114e+01,1.686371196167052791e-02
2.332000000000000028e+01,3.108050245690334099e-02
2.335999999999999943e+01,1.919468337646870054e-02
2.339999999999999858e+01,2.625890609893339819e-02
2.344000000000000128e+01,1.600515641398836397e-02
2.348000000000000043e+01,2.018363114399539596e-02
2.351999999999999957e+01,1.444832723750842998e-02
2.355999999999999872e+01,1.850193550372245324e-02
2.360000000000000142e+01,2.104991773878888556e-02
2.364000000000000057e+01,2.472766456658284651e-02
2.367999999999999972e+01,2.338592680971245813e-02
2.371999999999999886e+01,2.053855907217981905e-02
2.376000000000000156e+01,2.120535420963294213e-02
2.380000000000000071e+01,1.170737178645029665e-02
2.383999999999999986e+01,1.212378717473868578e-02
2.387999999999999901e+01,1.693282546862487706e-02
2.392000000000000171e+01,1.559291759008319365e-02
2.396000000000000085e+01,1.124143358020431201e-02
2.400000000000000000e+01,2.646744589717105883e-02
2.403999999999999915e+01,1.383389829763431722e-02
2.407999999999999829e+01,1.450310167674257952e-02
2.412000000000000099e+01,1.015280598963301702e-02
2.416000000000000014e+01,1.232853651575227180e-02
2.419999999999999929e+01,1.550851834922755725e-02
2.423999999999999844e+01,1.856329648481950048e-02
2.428000000000000114e+01,1.672406514247804649e-02
2.432000000000000028e+01,2.128535989304233128e-02
2.435999999999999943e+01,1.279547700291510173e-02
2.439999999999999858e+01,1.070611757268389447e-02
2.444000000000000128e+01,6.483630193183944311e-03
2.448000000000000043e+01,1.506190121006506857e-02
2.451999999999999957e+01,3.142113513466971569e-02
2.455999999999999872e+01,1.703441037921983245e-02
2.460000000000000142e+01,1.256205842164869781e-02
2.464000000000000057e+01,2.365134638912334483e-02
2.467999999999999972e+01,1.717163142893016539e-02
2.471999999999999886e+01,2.801048172102656858e-02
2.476000000000000156e+01,2.554715149877536881e-02
2.480000000000000071e+01,1.706034099529325429e-02
2.483999999999999986e+01,1.911536966217993599e-02
2.487999999999999901e+01,1.715483308368717999e-02
2.492000000000000171e+01,4.402007810903857399e-03
2.496000000000000085e+01,1.499149289796437336e-02
2.500000000000000000e+01,1.679660432658568181e-02
2.503999999999999915e+01,1.521361951532732015e-02
2.507999999999999829e+01,1.363089821388758192e-02
2.512000000000000099e+01,2.346847084740930414e-02
2.516000000000000014e+01,1.761944756976226850e-02
2.519999999999999929e+01,1.829641627621805475e-02
2.523999999999999844e+01,1.131845711393985633e-02
2.528000000000000114e+01,1.274891011731208584e-02
2.532000000000000028e+01,1.317565989704321851e-02
2.535999999999999943e+01,1.059078746776723375e-02
2.539999999999999858e+01,2.206159169829905939e-02
2.544000000000000128e+01,5.923779643265253241e-03
2.548000000000000043e+01,1.450870423085414036e-02
2.551999999999999957e+01,2.246640357518919426e-02
2.555999999999999872e+01,2.176520568432099498e-02
2.560000000000000142e+01,1.453852176490964473e-02
2.564000000000000057e+01,1.609672272551644634e-02
2.567999999999999972e+01,1.238438356760856313e-02
2.571999999999999886e+01,8.546792001137866815e-03
2.576000000000000156e+01,2.027080349757701822e-02
2.580000000000000071e+01,3.131238316868657345e-03
2.583999999999999986e+01,8.580985407074510560e-03
2.587999999999999901e+01,2.105868151801583779e-02
2.592000000000000171e+01,1.282996253204345301e-02
2.596000000000000085e+01,1.777843779468409047e-02
2.600000000000000000e+01,1.419349619487197262e-02
2.603999999999999915e+01,2.577115833317435069e-03
2.607999999999999829e+01,2.409160760516891944e-02
2.612000000000000099e+01,1.235019226720032552e-02
2.616000000000000014e+01,2.043719187342304261e-02
2.619999999999999929e+01,1.735537609428839875e-02
2.623999999999999844e+01,1.490125991785081275e-02
2.628000000000000114e+01,1.709067736532755843e-02
2.632000000000000028e+01,6.730832080590457879e-03
2.635999999999999943e+01,2.034072534954647904e-02
2.639999999999999858e+01,8.475383259985310586e-03
2.644000000000000128e+01,8.657765932244598783e-03
2.648000000000000043e+01,2.615865593057996319e-02
2.651999999999999957e+01,7.015264587843596938e-03
2.655999999999999872e+01,1.021017211032631579e-02
2.660000000000000142e+01,8.260004088986709972e-03
2.664000000000000057e+01,1.923601822706994327e-02
2.667999999999999972e+01,1.879221147313000356e-02
2.671999999999999886e+01,1.470926347749899020e-02
2.676000000000000156e+01,1.238345165873621506e-02
2.680000000000000071e+01,1.808951741552797948e-02
2.683999999999999986e+01,1.927797400098724828e-02
2.687999999999999901e+01,1.180748990658322083e-02
2.692000000000000171e+01,1.287085885543430043e-02
2.696000000000000085e+01,1.694630594166775944e-02
2.700000000000000000e+01,9.225437040927698257e-03
2.703999999999999915e+01,9.661932671016830454e-03
2.707999999999999829e+01,1.198104880023925095e-02
2.712000000000000099e+01,1.430036129753285354e-02
2.716000000000000014e+01,6.580280502087079361e-03
2.719999999999999929e+01,9.401961203223674346e-03
2.723999999999999844e+01,1.548670053481616612e-02
2.728000000000000114e+01,1.579886767048472793e-02
2.732000000000000028e+01,1.636221430030776122e-02
2.735999999999999943e+01,2.131806929980652188e-02
2.739999999999999858e+01,2.150530698829736589e-02
2.744000000000000128e+01,1.202962673142621459e-02
2.748000000000000043e+01,7.699420020539246741e-03
2.751999999999999957e+01,3.745881075586405141e-03
2.755999999999999872e+01,1.347146313626774138e-02
2.760000000000000142e+01,1.504006023721366457e-02
2.764000000000000057e+01,1.121255785660337477e-02
2.767999999999999972e+01,1.365997612818731916e-02
2.771999999999999886e+01,1.675662775330282470e-03
2.776000000000000156e+01,9.896196269381790644e-03
2.780000000000000071e+01,1.171666618142719329e-02
2.783999999999999986e+01,2.031403089686268162e-02
2.787999999999999901e+01,5.820513774874062733e-03
2.792000000000000171e+01,4.378631538456997756e-03
2.796000000000000085e+01,9.588145301611658566e-03
2.800000000000000000e+01,1.479782646973061035e-02
2.803999999999999915e+01,1.586634353428316435e-02
2.807999999999999829e+01,5.138509066231149343e-03
2.812000000000000099e+01,1.486649930515175806e-02
2.816000000000000014e+01,1.091571256390097382e-02
2.819999999999999929e+01,1.587522130066151491e-02
2.823999999999999844e+01,1.443465197386253028e-02
2.828000000000000114e+01,1.098632316763282699e-02
2.832000000000000028e+01,1.130299686344330909e-02
2.835999999999999943e+01,6.098052526306425164e-03
2.839999999999999858e+01,3.528654369465690239e-03
2.844000000000000128e+01,1.325790485781036011e-02
2.848000000000000043e+01,7.676934727995052103e-03
2.851999999999999957e+01,1.728099225934344105e-02
2.855999999999999872e+01,1.609264129445962810e-02
2.860000000000000142e+01,1.578290196709423651e-02
2.864000000000000057e+01,9.073071411120677693e-03
2.867999999999999972e+01,1.842672723041813634e-02
2.871999999999999886e+01,1.008575230075390954e-02
2.876000000000000156e+01,1.241198237828666957e-02
2.880000000000000071e+01,1.298142557043324360e-02
2.883999999999999986e+01,1.116660628916976358e-02
2.887999999999999901e+01,1.964250350267719020e-02
2.892000000000000171e+01,9.670794258875823474e-03
2.896000000000000085e+01,7.031796583528939675e-04
2.900000000000000000e+01,1.670917555663341270e-02
2.903999999999999915e+01,1.163216910771033667e-02
2.907999999999999829e+01,1.257904752470401580e-02
2.912000000000000099e+01,4.113942411739600520e-03
2.916000000000000014e+01,1.572814321371022311e-02
2.919999999999999929e+01,2.056574979309343243e-02
2.923999999999999844e+01,1.737181229034601149e-02
2.928000000000000114e+01,2.032724792529494451e-02
2.932000000000000028e+01,9.729363255735468813e-03
2.935999999999999943e+01,1.368900432921870032e-02
2.939999999999999858e+01,1.614282847835061402e-02
2.944000000000000128e+01,2.286359768460217295e-02
2.948000000000000043e+01,1.954489724083292856e-02
2.951999999999999957e+01,1.584982961193219519e-02
2.955999999999999872e+01,5.754640474811791549e-03
2.960000000000000142e+01,1.373082510221187123e-02
2.964000000000000057e+01,1.204401937648324518e-02
2.967999999999999972e+01,4.584562464539408168e-03
2.971999999999999886e+01,2.172220779140025121e-02
2.976000000000000156e+01,1.539242484219748019e-02
2.980000000000000071e+01,4.419440445999378228e-03
2.983999999999999986e+01,1.804355433909135206e-02
2.987999999999999901e+01,1.296904047015033125e-02
2.992000000000000171e+01,1.027903304571348847e-02
2.996000000000000085e+01,6.083190265857360904e-03
3.000000000000000000e+01,1.205253226433253451e-02
3.003999999999999915e+01,6.350953075769307822e-03
3.007999999999999829e+01,1.495588622455368624e-02
3.012000000000000099e+01,5.489657983795147127e-03
3.016000000000000014e+01,1.647918730826173489e-02
3.019999999999999929e+01,1.002502688169480856e-02
3.023999999999999844e+01,7.963280036454238597e-03
3.028000000000000114e+01,8.662512350085565388e-03
3.032000000000000028e+01,1.162074308886861668e-02
3.035999999999999943e+01,1.294763045288012566e-02
3.039999999999999858e+01,1.728648273485659803e-02
3.044000000000000128e+01,1.422122571107604753e-02
3.048000000000000043e+01,5.132301462375660032e-03
3.051999999999999957e+01,1.260878244693832036e-02
3.055999999999999872e+01,1.255565532192562915e-02
3.060000000000000142e+01,1.363206371779630485e-02
3.064000000000000057e+01,1.470855262931108562e-02
3.067999999999999972e+01,9.133893461862673674e-03
3.071999999999999886e+01,1.585780789882318409e-02
3.076000000000000156e+01,5.890983279505108972e-03
3.080000000000000071e+01,6.591296525636525586e-03
3.083999999999999986e+01,6.538714579064938519e-03
3.087999999999999901e+01,1.928668038809806806e-02
3.092000000000000171e+01,1.245752022584538897e-02
3.096000000000000085e+01,1.303262645112342362e-02
3.100000000000000000e+01,1.712165726400895899e-02
3.103999999999999915e+01,1.405754873217228765e-02
3.107999999999999829e+01,2.178606370455504065e-02
3.112000000000000099e+01,1.734164252705303402e-02
3.116000000000000014e+01,1.766608921417732805e-02
3.119999999999999929e+01,1.801761780684954864e-03
3.123999999999999844e+01,6.895135784001999758e-03
3.128000000000000114e+01,1.650638399382312743e-02
3.132000000000000028e+01,1.695656597452701447e-02
3.135999999999999943e+01,1.037909293277371366e-02
3.139999999999999858e+01,1.007641810826344179e-02
3.144000000000000128e+01,1.316215853550341611e-02
3.148000000000000043e+01,8.341776010644948863e-03
3.151999999999999957e+01,1.004717746212254771e-02
3.155999999999999872e+01,1.012119604368303533e-02
3.160000000000000142e+01,9.442294418948313922e-03
3.164000000000000057e+01,1.554016252964272350e-02
3.167999999999999972e+01,1.511234450305646952e-02
3.171999999999999886e+01,9.288292711419067829e-03
3.176000000000000156e+01,1.174694495734210017e-02
3.180000000000000071e+01,6.801443136343131995e-03
3.183999999999999986e+01,2.306461271318850648e-02
3.187999999999999901e+01,9.083562106806780320e-03
3.192000000000000171e+01,1.204435521892974030e-02
3.196000000000000085e+01,1.149132948152975335e-02
3.200000000000000000e+01,1.068734979000128191e-02
3.203999999999999915e+01,1.527968327151144577e-02
3.207999999999999829e+01,1.221686376195801373e-02
3.211999999999999744e+01,9.154076057369156874e-03
3.215999999999999659e+01,1.751135058288779550e-02
3.220000000000000284e+01,8.926848949345566817e-03
3.224000000000000199e+01,2.004506729695321177e-02
3.228000000000000114e+01,1.233908403793296943e-02
3.232000000000000028e+01,1.404524007413965152e-02
3.235999999999999943e+01,1.550043030767420116e-02
3.239999999999999858e+01,1.469673575317059430e-02
3.243999999999999773e+01,8.120299173617071334e-03
3.247999999999999687e+01,1.221094516630924498e-02
3.252000000000000313e+01,1.454468183866402739e-02
3.256000000000000227e+01,1.085468282784664805e-02
3.260000000000000142e+01,7.039204969631842994e-03
3.264000000000000057e+01,1.200838160308605705e-02
3.267999999999999972e+01,1.823252015347514438e-02
3.271999999999999886e+01,2.420568105264842701e-02
3.275999999999999801e+01,1.976277978549158612e-02
3.279999999999999716e+01,1.770429017448941697e-02
3.284000000000000341e+01,1.790471604883336898e-02
3.288000000000000256e+01,1.170491114505483807e-02
3.292000000000000171e+01,2.520780384184377609e-02
3.296000000000000085e+01,1.122732760445865029e-02
3.300000000000000000e+01,2.284780448691087554e-02
3.303999999999999915e+01,2.831903503382888002e-02
3.307999999999999829e+01,3.730412171010202838e-02
3.311999999999999744e+01,4.917558892770640400e-02
3.315999999999999659e+01,4.172084615836076787e-02
3.320000000000000284e+01,1.908122227758648343e-02
3.324000000000000199e+01,1.564230604812551217e-02
3.328000000000000114e+01,1.948208499461007506e-02
3.332000000000000028e+01,1.604315470129203183e-02
3.335999999999999943e+01,1.310619481850350439e-02
3.339999999999999858e+01,1.606748276480391910e-02
3.343999999999999773e+01,1.338149062773686532e-02
3.347999999999999687e+01,1.433483630928028725e-02
3.352000000000000313e+01,1.503717800951083657e-02
3.356000000000000227e+01,4.444967233187466053e-03
3.360000000000000142e+01,1.129652429938027107e-02
3.364000000000000057e+01,1.250079469968133974e-02
3.367999999999999972e+01,1.546197352151134664e-02
3.371999999999999886e+01,2.143500799140353116e-02
3.375999999999999801e+01,2.351767980614297496e-02
3.379999999999999716e+01,2.032954425188275571e-02
3.384000000000000341e+01,1.325104340946008097e-02
3.388000000000000256e+01,1.395319741262539964e-02
3.392000000000000171e+01,1.101597320322621719e-02
3.396000000000000085e+01,1.297301955741744089e-02
3.400000000000000000e+01,1.831839690704838847e-02
3.403999999999999915e+01,1.462811335953594430e-02
3.407999999999999829e+01,1.984793176382165791e-02
3.411999999999999744e+01,8.502395379725002575e-03
3.415999999999999659e+01,1.133774219517729408e-02
3.420000000000000284e+01,1.592998031759535957e-02
3.424000000000000199e+01,1.424743775502982333e-02
3.428000000000000114e+01,1.595321697237008646e-02
3.432000000000000028e+01,1.765895558690805042e-02
3.435999999999999943e+01,2.501192072581086973e-02
3.439999999999999858e+01,2.433317195345719233e-02
3.443999999999999773e+01,1.675216164207658440e-02
3.447999999999999687e+01,2.598741593858627796e-02
3.452000000000000313e+01,1.137860073204351348e-02
3.456000000000000227e+01,2.324915128177556037e-02
3.460000000000000142e+01,2.219368201987786254e-02
3.464000000000000057e+01,1.862826453706269147e-02
3.467999999999999972e+01,9.541021013533426340e-03
3.471999999999999886e+01,1.965443643063803300e-02
3.475999999999999801e+01,2.085766210781570679e-02
3.479999999999999716e+01,1.842148060932212103e-02
3.484000000000000341e+01,1.736568479080520186e-02
3.488000000000000256e+01,2.120412925626713116e-02
3.492000000000000171e+01,1.826579123894768800e-02
3.496000000000000085e+01,1.520189670044453864e-02
3.500000000000000000e+01,2.054609441691264762e-02
3.503999999999999915e+01,1.472118580045108684e-02
3.507999999999999829e+01,2.470856320987651830e-02
3.511999999999999744e+01,1.825604777260216721e-02
3.515999999999999659e+01,2.736482601959739497e-02
3.520000000000000284e+01,2.116316247561752031e-02
3.524000000000000199e+01,2.035770678428805089e-02
3.528000000000000114e+01,2.005415831125518036e-02
3.532000000000000028e+01,1.887207234267200204e-02
3.535999999999999943e+01,2.961192270102339097e-02
3.539999999999999858e+01,1.588020032169645129e-02
3.543999999999999773e+01,2.737286619249938019e-02
3.547999999999999687e+01,1.991573028198243694e-02
3.552000000000000313e+01,3.228670125352130910e-02
3.556000000000000227e+01,3.273557965174458267e-02
3.560000000000000142e+01,3.142744735875681317e-02
3.564000000000000057e+01,3.087220014412960303e-02
3.567999999999999972e+01,3.433270290325741297e-02
3.571999999999999886e+01,2.700056151178457584e-02
3.575999999999999801e+01,3.648464260004678078e-02
3.579999999999999716e+01,3.203870554710309959e-02
3.584000000000000341e+01,2.683970873834987114e-02
3.588000000000000256e+01,2.603293988373884399e-02
3.592000000000000171e+01,3.225378960714544302e-02
3.596000000000000085e+01,2.931342038687198212e-02
3.600000000000000000e+01,2.963582148249179968e-02
3.603999999999999915e+01,3.485242468344969952e-02
3.607999999999999829e+01,3.831200139513835090e-02
3.611999999999999744e+01,3.173188991700077316e-02
3.615999999999999659e+01,2.966949203177528249e-02
3.620000000000000284e+01,4.191340505865507465e-02
3.624000000000000199e+01,3.332506847606539480e-02
3.628000000000000114e+01,3.904304017257131942e-02
3.632000000000000028e+01,2.455623389811723012e-02
3.635999999999999943e+01,3.303487821671262370e-02
3.639999999999999858e+01,3.210129940146689426e-02
3.643999999999999773e+01,4.848590010258902600e-02
3.647999999999999687e+01,3.625756232837570175e-02
3.652000000000000313e+01,3.293924619916458602e-02
3.656000000000000227e+01,3.966040408718510962e-02
3.660000000000000142e+01,4.575397206010774209e-02
3.664000000000000057e+01,4.293728841737540214e-02
3.667999999999999972e+01,4.200290931261184413e-02
3.671999999999999886e+01,4.696666876703446680e-02
3.675999999999999801e+01,4.427512119932578566e-02
3.679999999999999716e+01,4.585027645184391876e-02
3.684000000000000341e+01,4.290749340681656449e-02
3.688000000000000256e+01,5.389451433040055167e-02
3.692000000000000171e+01,5.019851112481985705e-02
3.696000000000000085e+01,5.127118489066182644e-02
3.700000000000000000e+01,4.556700771547012030e-02
3.703999999999999915e+01,5.755747487198495382e-02
3.707999999999999829e+01,6.866934660673602864e-02
3.711999999999999744e+01,6.547467219270956817e-02
3.715999999999999659e+01,7.533132855163374164e-02
3.720000000000000284e+01,6.523416768509875119e-02
3.724000000000000199e+01,6.655690185255502822e-02
3.728000000000000114e+01,7.427973556534486765e-02
3.732000000000000028e+01,7.585318207658127421e-02
3.735999999999999943e+01,9.273686015571283581e-02
3.739999999999999858e+01,8.565087908913869563e-02
3.743999999999999773e+01,9.374963210314622708e-02
3.747999999999999687e+01,1.018482405104681465e-01
3.752000000000000313e+01,1.162214457097906634e-01
3.756000000000000227e+01,1.373712258018242593e-01
3.760000000000000142e+01,1.503636918079093443e-01
3.764000000000000057e+01,1.482966254248309079e-01
3.767999999999999972e+01,1.777286162828017324e-01
3.771999999999999886e+01,1.892146904696114795e-01
3.775999999999999801e+01,2.329527883902836050e-01
3.779999999999999716e+01,2.583684824438735039e-01
3.784000000000000341e+01,3.062475989626181061e-01
3.788000000000000256e+01,3.604013004248194929e-01
3.792000000000000171e+01,4.207040906596694052e-01
3.796000000000000085e+01,5.157687951319337438e-01
3.800000000000000000e+01,6.430855154390313633e-01
3.803999999999999915e+01,7.584800615495125298e-01
3.807999999999999829e+01,8.860474441732059114e-01
3.811999999999999744e+01,9.560125230006824015e-01
3.815999999999999659e+01,1.000000000000000000e+00
3.820000000000000284e+01,9.670589630073023191e-01
3.824000000000000199e+01,8.554324827458313907e-01
3.828000000000000114e+01,7.390370270840324052e-01
3.832000000000000028e+01,6.156136873279322019e-01
3.835999999999999943e+01,5.157832066111579516e-01
3.839999999999999858e+01,4.251136753722654094e-01
3.843999999999999773e+01,3.487503813212062820e-01
3.847999999999999687e+01,2.900816842076791580e-01
3.852000000000000313e+01,2.627865218342955167e-01
3.856000000000000227e+01,2.310988594079615432e-01
3.860000000000000142e+01,1.912538499830577221e-01
3.864000000000000057e+01,1.796449999911873818e-01
3.867999999999999972e+01,1.695419041491316725e-01
3.871999999999999886e+01,1.466381477497502583e-01
3.875999999999999801e+01,1.258676171386930165e-01
3.879999999999999716e+01,1.172698993437606280e-01
3.884000000000000341e+01,1.179586113994604557e-01
3.888000000000000256e+01,9.505410016168654164e-02
3.892000000000000171e+01,1.106763171943253715e-01
3.896000000000000085e+01,1.005718957773158451e-01
3.900000000000000000e+01,8.845936205757518045e-02
3.903999999999999915e+01,7.622113753315590268e-02
3.907999999999999829e+01,6.962998418552891755e-02
3.911999999999999744e+01,6.805842642667024600e-02
3.915999999999999659e+01,7.527130856918964885e-02
3.920000000000000284e+01,5.876546203189267348e-02
3.924000000000000199e+01,6.572695071651117604e-02
3.928000000000000114e+01,5.536994565779846528e-02
3.932000000000000028e+01,5.442484950596351151e-02
3.935999999999999943e+01,4.733029901082769220e-02
3.939999999999999858e+01,4.512984003462239962e-02
3.943999999999999773e+01,4.129773883704416365e-02
3.947999999999999687e+01,4.587358244589368611e-02
3.952000000000000313e+01,4.028413110770069638e-02
3.956000000000000227e+01,3.682787922773476247e-02
3.960000000000000142e+01,3.726175344974454184e-02
3.964000000000000057e+01,3.706793770228759138e-02
3.967999999999999972e+01,3.361103872847889112e-02
3.971999999999999886e+01,3.768361268194212604e-02
3.975999999999999801e+01,3.133989408072607868e-02
3.979999999999999716e+01,2.399199568111247405e-02
3.984000000000000341e+01,3.220523693470079413e-02
3.988000000000000256e+01,3.163361479004491578e-02
3.992000000000000171e+01,3.821497442722528171e-02
3.996000000000000085e+01,3.212112754973332068e-02
4.000000000000000000e+01,2.452111487410426130e-02
4.003999999999999915e+01,2.746244109700001976e-02
4.007999999999999829e+01,3.630179529267440336e-02
4.011999999999999744e+01,2.819911266132717545e-02
4.015999999999999659e+01,3.703800254848501478e-02
4.020000000000000284e+01,4.035488471725926646e-02
4.024000000000000199e+01,3.338095338759979741e-02
4.028000000000000114e+01,3.280702286540999879e-02
4.032000000000000028e+01,3.926056610570404642e-02
4.035999999999999943e+01,3.529779704374604726e-02
4.039999999999999858e+01,2.305212688619608097e-02
4.043999999999999773e+01,2.661856634288290585e-02
4.047999999999999687e+01,1.876473071337256271e-02
4.052000000000000313e+01,2.195419760154407318e-02
4.056000000000000227e+01,2.363748026051053566e-02
4.060000000000000142e+01,2.532051562541297665e-02
4.064000000000000057e+01,1.746569345265611140e-02
4.067999999999999972e+01,2.303857076333430676e-02
4.071999999999999886e+01,2.396788722119256448e-02
4.075999999999999801e+01,2.828531218517051429e-02
4.079999999999999716e+01,3.172401929243341689e-02
4.084000000000000341e+01,3.315455353774200004e-02
4.088000000000000256e+01,2.078039730003230015e-02
4.092000000000000171e+01,2.635174740166608756e-02
4.096000000000000085e+01,2.539710593689348608e-02
4.100000000000000000e+01,2.381472974148923435e-02
4.103999999999999915e+01,2.097714322742933249e-02
4.107999999999999829e+01,2.064919070732357254e-02
4.111999999999999744e+01,2.584274736795877034e-02
4.115999999999999659e+01,2.325535733662513482e-02
4.120000000000000284e+01,1.288701929681777478e-02
4.124000000000000199e+01,1.795427997823869498e-02
4.128000000000000114e+01,2.251929156779778826e-02
4.132000000000000028e+01,2.244072255696412041e-02
4.135999999999999943e+01,2.022846871530925225e-02
4.139999999999999858e+01,1.651000299784744288e-02
4.143999999999999773e+01,2.822712941908964157e-02
4.147999999999999687e+01,1.233511163632048518e-02
4.152000000000000313e+01,9.996260544688320357e-03
4.156000000000000227e+01,2.560289472832203914e-02
4.160000000000000142e+01,2.301249483121635062e-02
4.164000000000000057e+01,2.079829797383195289e-02
4.167999999999999972e+01,1.958777711118304607e-02
4.171999999999999886e+01,2.389874568170235331e-02
4.175999999999999801e+01,2.243666548154116258e-02
4.179999999999999716e+01,2.122528820077796211e-02
4.184000000000000341e+01,1.624877718518567826e-02
4.188000000000000256e+01,2.043310111155302242e-02
4.192000000000000171e+01,2.047580410717009247e-02
4.196000000000000085e+01,2.817340116009119100e-02
4.200000000000000000e+01,2.407418853671926262e-02
4.203999999999999915e+01,2.210809374827358079e-02
4.207999999999999829e+01,2.854985819344028203e-02
4.211999999999999744e+01,2.131238619824210243e-02
4.215999999999999659e+01,2.863201866453385716e-02
4.220000000000000284e+01,2.001350467998220736e-02
4.224000000000000199e+01,2.406966970935349795e-02
4.228000000000000114e+01,2.298024312500027144e-02
4.232000000000000028e+01,2.753778108054629956e-02
4.235999999999999943e+01,2.481631226619317176e-02
4.239999999999999858e+01,2.360047516670350093e-02
4.243999999999999773e+01,1.799201031329285966e-02
4.247999999999999687e+01,2.242282463439575213e-02
4.252000000000000313e+01,2.697882332350553386e-02
4.256000000000000227e+01,3.128352050120587063e-02
4.260000000000000142e+01,1.701466612263407771e-02
4.264000000000000057e+01,2.395412768559648797e-02
4.267999999999999972e+01,2.436754107244380393e-02
4.271999999999999886e+01,3.532220515199092220e-02
4.275999999999999801e+01,3.071518891253814665e-02
4.279999999999999716e+01,1.857816171302521802e-02
4.284000000000000341e+01,2.827691814404131518e-02
4.288000000000000256e+01,3.006917641907611710e-02
4.292000000000000171e+01,3.048066764542339824e-02
4.296000000000000085e+01,2.938589565227446576e-02
4.300000000000000000e+01,3.142816873236593117e-02
4.303999999999999915e+01,2.769735091362155247e-02
4.307999999999999829e+01,4.291592717738926255e-02
4.311999999999999744e+01,3.918445020741028600e-02
4.315999999999999659e+01,4.273134323667834855e-02
4.320000000000000284e+01,5.054472844539683457e-02
4.324000000000000199e+01,4.442785064300697195e-02
4.328000000000000114e+01,4.973066908237559758e-02
4.332000000000000028e+01,4.926038740737450489e-02
4.335999999999999943e+01,4.176205575846057144e-02
4.339999999999999858e+01,5.384058193153900412e-02
4.343999999999999773e+01,5.274180763680769157e-02
4.347999999999999687e+01,5.565852659738523139e-02
4.352000000000000313e+01,4.740586012600445098e-02
4.356000000000000227e+01,6.538127348869912647e-02
4.360000000000000142e+01,6.026528762756277330e-02
4.364000000000000057e+01,6.669448101394519213e-02
4.367999999999999972e+01,7.312332573538986302e-02
4.371999999999999886e+01,7.390455203172011100e-02
4.375999999999999801e+01,8.033269547377491770e-02
4.379999999999999716e+01,9.554512610264496997e-02
4.384000000000000341e+01,9.758024309865673263e-02
4.388000000000000256e+01,9.986599455581425533e-02
4.392000000000000171e+01,1.069201939125501571e-01
4.396000000000000085e+01,1.187428398523596162e-01
4.400000000000000000e+01,1.332005185355727983e-01
4.403999999999999915e+01,1.491637749569505178e-01
4.407999999999999829e+01,1.525771841179600075e-01
4.411999999999999744e+01,1.621394779933656161e-01
4.415999999999999659e+01,1.733328405117250115e-01
4.420000000000000284e+01,1.939379513233702723e-01
4.424000000000000199e+01,2.081424574695150131e-01
4.428000000000000114e+01,2.159463576336544677e-01
4.432000000000000028e+01,2.339149712673880832e-01
4.435999999999999943e+01,2.316785423126863919e-01
4.439999999999999858e+01,2.094880591616522236e-01
4.443999999999999773e+01,2.110157297955102540e-01
4.447999999999999687e+01,1.900794465139497014e-01
4.452000000000000313e+01,1.714016942983183633e-01
4.456000000000000227e+01,1.679084418254049027e-01
4.460000000000000142e+01,1.419512314875582826e-01
4.464000000000000057e+01,1.349433638885344233e-01
4.467999999999999972e+01,1.220368565596720578e-01
4.471999999999999886e+01,1.036081927473777309e-01
4.475999999999999801e+01,1.019954552012267285e-01
4.479999999999999716e+01,8.256206281685962711e-02
4.484000000000000341e+01,7.843865581398032361e-02
4.488000000000000256e+01,6.816561279013051700e-02
4.492000000000000171e+01,6.404142815057987936e-02
4.496000000000000085e+01,6.292872922122796919e-02
4.500000000000000000e+01,5.855277197037894732e-02
4.503999999999999915e+01,6.107863828013742474e-02
4.507999999999999829e+01,4.063855150968919555e-02
4.511999999999999744e+01,3.425349236215655818e-02
4.515999999999999659e+01,4.054301612369257818e-02
4.520000000000000284e+01,4.482422352424545592e-02
4.524000000000000199e+01,3.467312267123203590e-02
4.528000000000000114e+01,3.832605446650712983e-02
4.532000000000000028e+01,3.557834605065080674e-02
4.535999999999999943e+01,2.253965562373966280e-02
4.539999999999999858e+01,2.907775719357824987e-02
4.543999999999999773e+01,1.779518286112312386e-02
4.547999999999999687e+01,2.859929497848445398e-02
4.552000000000000313e+01,3.086934777902510668e-02
4.556000000000000227e+01,2.109148402573320438e-02
4.560000000000000142e+01,1.884289967350004022e-02
4.564000000000000057e+01,2.437458311442828457e-02
4.567999999999999972e+01,1.710537692618652530e-02
4.571999999999999886e+01,2.263623007024941070e-02
4.575999999999999801e+01,1.825257260112041202e-02
4.579999999999999716e+01,1.964125999027236877e-02
4.584000000000000341e+01,2.015106364309786000e-02
4.588000000000000256e+01,2.003297195169976078e-02
4.592000000000000171e+01,1.727906593071201757e-02
4.596000000000000085e+01,1.490122076692144450e-02
4.600000000000000000e+01,1.566032193850732876e-02
4.603999999999999915e+01,1.579152249985018436e-02
4.607999999999999829e+01,1.931065647216739442e-02
4.611999999999999744e+01,1.944100040654773986e-02
4.615999999999999659e+01,1.605705813218263889e-02
4.620000000000000284e+01,1.606104531927734363e-02
4.624000000000000199e+01,2.020592977714992175e-02
4.628000000000000114e+01,1.267935854701407287e-02
4.632000000000000028e+01,1.820381661021770736e-02
4.635999999999999943e+01,1.368824945835291074e-02
4.639999999999999858e+01,1.557248168871535644e-02
4.643999999999999773e+01,7.654587928971726173e-04
4.647999999999999687e+01,6.288161474020595790e-03
4.652000000000000313e+01,1.218690658127333411e-02
4.656000000000000227e+01,1.670476483789700567e-02
4.660000000000000142e+01,1.206105396054992646e-02
4.664000000000000057e+01,1.996638242728814711e-02
4.667999999999999972e+01,1.394133466350070370e-02
4.671999999999999886e+01,1.456706545850929881e-02
4.675999999999999801e+01,8.164634376692634157e-03
4.679999999999999716e+01,1.042089688952349547e-02
4.684000000000000341e+01,1.794749061429382064e-02
4.688000000000000256e+01,7.402371333988133628e-03
4.692000000000000171e+01,1.417508664577900139e-02
4.696000000000000085e+01,4.382024571129950613e-03
4.700000000000000000e+01,1.127932018404870229e-02
4.703999999999999915e+01,1.165042412182349177e-02
4.707999999999999829e+01,9.762160114279418155e-03
4.711999999999999744e+01,1.201476441440645949e-02
4.715999999999999659e+01,5.858750275317719386e-03
4.720000000000000284e+01,6.228004042662976109e-03
4.724000000000000199e+01,1.186757585689920264e-02
4.728000000000000114e+01,5.333679653290442600e-03
4.732000000000000028e+01,1.260374895622275865e-02
4.735999999999999943e+01,8.202327025515656136e-03
4.739999999999999858e+01,1.283606350479474245e-02
4.743999999999999773e+01,9.563151746539334461e-03
4.747999999999999687e+01,7.419219944119679472e-03
4.752000000000000313e+01,9.667132992930290228e-03
4.756000000000000227e+01,1.241654909304784789e-02
4.760000000000000142e+01,1.202811615315669755e-02
4.764000000000000057e+01,1.176469906865132420e-02
4.767999999999999972e+01,1.488916273492621629e-02
4.771999999999999886e+01,1.675819622623517940e-02
4.775999999999999801e+01,1.159903492809757908e-02
4.779999999999999716e+01,8.447307033883662622e-03
4.784000000000000341e+01,5.295093558227451092e-03
4.788000000000000256e+01,1.105252784019537284e-02
4.792000000000000171e+01,4.887462748848291939e-03
4.796000000000000085e+01,6.628083947685086547e-03
4.800000000000000000e+01,5.230842941464654804e-03
4.803999999999999915e+01,8.601914234822871652e-03
4.807999999999999829e+01,1.096853321327908616e-02
4.811999999999999744e+01,7.059914679568001297e-03
4.815999999999999659e+01,7.417625078705704887e-03
4.820000000000000284e+01,1.141418882266827424e-02
4.824000000000000199e+01,5.872644893049609738e-03
4.828000000000000114e+01,1.350756060233648456e-02
4.832000000000000028e+01,1.147887115072861522e-02
4.835999999999999943e+01,5.935823082608369591e-03
4.839999999999999858e+01,1.118482847210651616e-02
4.843999999999999773e+01,9.029132128664147522e-03
4.847999999999999687e+01,1.427712554362725941e-02
4.852000000000000313e+01,1.412833226150132966e-02
4.856000000000000227e+01,5.821864171097366689e-03
4.860000000000000142e+01,6.801504704141664998e-03
4.864000000000000057e+01,1.418087089514149905e-02
4.867999999999999972e+01,9.010238427715045947e-03
4.871999999999999886e+01,1.350219519713373971e-02
4.875999999999999801e+01,4.314696986382098205e-03
4.879999999999999716e+01,9.433094988707247525e-03
4.884000000000000341e+01,1.467646935127264567e-02
4.888000000000000256e+01,1.377007604238232943e-02
4.892000000000000171e+01,1.286316160641873957e-02
4.896000000000000085e+01,1.509309608447249700e-02
4.900000000000000000e+01,7.784897875352855129e-03
4.903999999999999915e+01,1.264917545711599298e-02
4.907999999999999829e+01,1.312060674515265826e-02
4.911999999999999744e+01,1.472096401232617091e-02
4.915999999999999659e+01,1.243045176997878941e-02
4.920000000000000284e+01,7.002037827428612624e-03
4.924000000000000199e+01,1.023223717272997609e-02
4.928000000000000114e+01,1.408937781393346592e-02
4.932000000000000028e+01,9.035849507443818179e-03
4.935999999999999943e+01,9.880043744607101483e-03
4.939999999999999858e+01,1.084919591094265189e-02
4.943999999999999773e+01,7.299995080704278425e-03
4.947999999999999687e+01,9.272028281692752325e-03
4.952000000000000313e+01,1.300044856828867432e-02
4.956000000000000227e+01,1.120655307436551132e-02
4.960000000000000142e+01,0.000000000000000000e+00
4.964000000000000057e+01,7.993614809958440176e-03
4.967999999999999972e+01,1.159436357861762419e-02
4.971999999999999886e+01,1.431610090997973393e-02
4.975999999999999801e+01,1.226848500412144709e-02
4.979999999999999716e+01,1.147526755112128309e-02
4.984000000000000341e+01,1.419535461194324291e-02
4.988000000000000256e+01,5.118372645016256058e-03
4.992000000000000171e+01,1.072373459194168530e-02
4.996000000000000085e+01,1.218721099064158306e-02
5.000000000000000000e+01,9.759790233218721203e-03
5.003999999999999915e+01,8.210275466713420900e-03
5.007999999999999829e+01,9.923067606393450035e-03
5.011999999999999744e+01,1.853751611056474180e-02
5.015999999999999659e+01,8.578164239046842318e-03
5.020000000000000284e+01,1.154421910559389440e-02
5.024000000000000199e+01,1.338025571167313597e-02
5.028000000000000114e+01,5.929107211031357620e-03
5.032000000000000028e+01,9.018959267167399318e-03
5.035999999999999943e+01,1.386517076230893257e-02
5.039999999999999858e+01,1.833432785678616034e-02
5.043999999999999773e+01,1.201035632687712414e-02
5.047999999999999687e+01,1.396847271025770942e-02
5.052000000000000313e+01,1.128270569712953864e-02
5.056000000000000227e+01,5.208002514025950047e-03
5.060000000000000142e+01,7.415383294697433340e-03
5.064000000000000057e+01,1.225757827896721379e-02
5.067999999999999972e+01,6.683121302733054971e-03
5.071999999999999886e+01,2.068528122810328954e-02
5.075999999999999801e+01,1.548614675869242931e-02
5.079999999999999716e+01,1.041192414078402628e-02
5.084000000000000341e+01,1.098438564724137090e-02
5.088000000000000256e+01,1.569759170991369759e-02
5.092000000000000171e+01,1.564140635672493090e-02
5.096000000000000085e+01,1.483166360889249212e-02
5.100000000000000000e+01,1.464880554725351593e-02
5.103999999999999915e+01,1.258293376922675101e-02
5.107999999999999829e+01,1.440681025628312920e-02
5.111999999999999744e+01,1.233975272508085023e-02
5.115999999999999659e+01,1.403694597164819105e-02
5.120000000000000284e+01,1.736497615631529129e-02
5.124000000000000199e+01,1.655107866460160324e-02
5.128000000000000114e+01,9.461839656837280413e-03
5.132000000000000028e+01,1.856083673690138783e-02
5.135999999999999943e+01,9.462478509042193675e-03
5.139999999999999858e+01,1.354047723271003742e-02
5.143999999999999773e+01,9.460706359750537670e-03
5.147999999999999687e+01,1.291002136163644197e-02
5.152000000000000313e+01,1.171542005439227437e-02
5.156000000000000227e+01,1.441055121417299939e-02
5.160000000000000142e+01,1.296374284902921704e-02
5.164000000000000057e+01,1.754007684106559384e-02
5.167999999999999972e+01,9.691808291115577498e-03
5.171999999999999886e+01,1.163152509445065930e-02
5.175999999999999801e+01,1.005677137836093020e-02
5.179999999999999716e+01,1.350119591900138596e-02
5.184000000000000341e+01,1.192520905556147467e-02
5.188000000000000256e+01,1.059959335229683497e-02
5.192000000000000171e+01,1.893646156548916409e-02
5.196000000000000085e+01,9.577934140400690827e-03
5.200000000000000000e+01,1.565465129673525996e-02
5.203999999999999915e+01,9.432248916843580938e-03
5.207999999999999829e+01,1.073891266422453625e-02
5.211999999999999744e+01,1.292341394427078301e-02
5.215999999999999659e+01,1.385233891731246260e-02
5.220000000000000284e+01,1.340019141254091169e-02
5.224000000000000199e+01,2.574788864978306419e-02
5.228000000000000114e+01,1.776478777632537615e-02
5.232000000000000028e+01,1.555381717085765891e-02
5.235999999999999943e+01,1.409518134472228720e-02
5.239999999999999858e+01,8.494579663565383562e-03
5.243999999999999773e+01,1.531733157898644213e-02
5.247999999999999687e+01,2.126098121827557988e-02
5.252000000000000313e+01,1.164262931138095036e-02
5.256000000000000227e+01,1.808697782636052576e-02
5.260000000000000142e+01,1.549505458594528477e-02
5.264000000000000057e+01,1.277699292920165923e-02
5.267999999999999972e+01,1.558005998329674464e-02
5.271999999999999886e+01,1.687654259071171003e-02
5.275999999999999801e+01,1.365456293165000744e-02
5.279999999999999716e+01,1.708316172264685850e-02
5.284000000000000341e+01,1.599329561415731987e-02
5.288000000000000256e+01,1.264387066714530404e-02
5.292000000000000171e+01,1.456457682333528632e-02
5.296000000000000085e+01,1.773957742850007166e-02
5.300000000000000000e+01,1.990996378866604841e-02
5.303999999999999915e+01,1.680890954099847553e-02
5.307999999999999829e+01,1.169927958089183977e-02
5.311999999999999744e+01,9.726361618297910475e-03
5.315999999999999659e+01,1.164312346253482816e-02
5.320000000000000284e+01,9.417893121653159866e-03
5.324000000000000199e+01,1.585114441813774769e-02
5.328000000000000114e+01,1.713844206206352125e-02
5.332000000000000028e+01,1.378176415414086517e-02
5.335999999999999943e+01,1.519322345065149231e-02
5.339999999999999858e+01,1.409411708546894418e-02
5.343999999999999773e+01,1.926908354335585272e-02
5.347999999999999687e+01,1.741566695160229675e-02
5.352000000000000313e+01,1.505959841750218256e-02
5.356000000000000227e+01,1.646770167088052947e-02
5.360000000000000142e+01,2.025953199789044812e-02
5.364000000000000057e+01,1.275614896291059862e-02
5.367999999999999972e+01,1.466420220956662045e-02
5.371999999999999886e+01,1.632058663995944112e-02
5.375999999999999801e+01,1.634485754024217127e-02
5.379999999999999716e+01,1.674493126277105601e-02
5.384000000000000341e+01,2.065817784863683768e-02
5.388000000000000256e+01,1.804500763702890712e-02
5.392000000000000171e+01,1.881951280144432762e-02
5.396000000000000085e+01,2.298169202537824266e-02
5.400000000000000000e+01,1.446820264143668794e-02
5.403999999999999915e+01,2.038593186274016700e-02
5.407999999999999829e+01,1.199655673720880812e-02
5.411999999999999744e+01,1.577949020644399056e-02
5.415999999999999659e+01,1.416545135140590689e-02
5.420000000000000284e+01,2.510020302103615000e-02
5.424000000000000199e+01,1.771200974008987905e-02
5.428000000000000114e+01,1.521741823826912657e-02
5.432000000000000028e+01,1.648697351033461683e-02
5.435999999999999943e+01,1.750483890205930051e-02
5.439999999999999858e+01,1.525913659364655159e-02
5.443999999999999773e+01,2.129539186454307634e-02
5.447999999999999687e+01,1.114210680899896042e-02
5.452000000000000313e+01,1.579650912355306386e-02
5.456000000000000227e+01,1.819129730638094702e-02
5.460000000000000142e+01,1.807548033237008425e-02
5.464000000000000057e+01,1.795895397109205718e-02
5.467999999999999972e+01,2.022611913781458687e-02
5.471999999999999886e+01,1.596683986046157355e-02
5.475999999999999801e+01,1.747961054430260258e-02
5.479999999999999716e+01,2.212903793245254644e-02
5.484000000000000341e+01,2.037751178131620711e-02
5.488000000000000256e+01,1.887625805249121269e-02
5.492000000000000171e+01,1.498988348909249119e-02
5.496000000000000085e+01,1.637357288714822931e-02
5.500000000000000000e+01,1.135630347989829460e-02
5.503999999999999915e+01,1.374250792425810337e-02
5.507999999999999829e+01,1.299061714220182094e-02
5.511999999999999744e+01,1.725779534697296710e-02
5.515999999999999659e+01,1.474752491750756789e-02
5.520000000000000284e+01,1.775830025907517568e-02
5.524000000000000199e+01,1.850943908833403359e-02
5.528000000000000114e+01,1.511851727422203889e-02
5.532000000000000028e+01,1.611918359289406938e-02
5.535999999999999943e+01,1.787208595303450484e-02
5.539999999999999858e+01,1.573391342889716646e-02
5.543999999999999773e+01,1.560292285625673736e-02
5.547999999999999687e+01,1.208283418354405905e-02
5.552000000000000313e+01,1.521323443855997389e-02
5.556000000000000227e+01,1.332310085454428868e-02
5.560000000000000142e+01,1.921290725398187155e-02
5.564000000000000057e+01,2.045866174428958434e-02
5.567999999999999972e+01,1.593090932022826756e-02
5.571999999999999886e+01,1.667319584402920593e-02
5.575999999999999801e+01,2.030111776741495844e-02
5.579999999999999716e+01,1.978696193286676175e-02
5.584000000000000341e+01,1.638567556691797669e-02
5.588000000000000256e+01,1.034824706167132395e-02
5.592000000000000171e+01,1.547910907404229965e-02
5.596000000000000085e+01,2.111119767170126574e-02
5.600000000000000000e+01,2.096976882295231367e-02
5.603999999999999915e+01,1.430185208546770441e-02
5.607999999999999829e+01,1.302945730160554039e-02
5.611999999999999744e+01,1.865852140650679780e-02
5.615999999999999659e+01,2.202791871948770602e-02
5.620000000000000284e+01,1.811785375189066405e-02
5.624000000000000199e+01,2.211320255797302042e-02
5.628000000000000114e+01,1.895458130477147354e-02
5.632000000000000028e+01,1.667365935122573639e-02
5.635999999999999943e+01,1.639988906956530573e-02
5.639999999999999858e+01,1.599985662012036805e-02
5.643999999999999773e+01,2.036786000423509990e-02
5.647999999999999687e+01,1.620144334919968246e-02
5.652000000000000313e+01,1.605009076889126265e-02
5.656000000000000227e+01,1.890984211237449475e-02
5.660000000000000142e+01,2.176881955985277353e-02
5.664000000000000057e+01,1.822678422532643047e-02
5.667999999999999972e+01,2.020574595115358016e-02
5.671999999999999886e+01,1.754062022221983957e-02
5.675999999999999801e+01,1.763560212594584425e-02
5.679999999999999716e+01,2.613795878949861859e-02
5.684000000000000341e+01,2.585489385674993520e-02
5.688000000000000256e+01,1.779036484562545456e-02
5.692000000000000171e+01,1.700375295607879644e-02
5.696000000000000085e+01,2.224010832856695985e-02
5.700000000000000000e+01,2.182840819632975160e-02
5.703999999999999915e+01,1.551766153425464430e-02
5.707999999999999829e+01,2.024967235685260283e-02
5.711999999999999744e+01,2.259648993710995993e-02
5.715999999999999659e+01,1.151456577978568138e-02
5.720000000000000284e+01,1.913058127015294235e-02
5.724000000000000199e+01,2.109853335676569602e-02
5.728000000000000114e+01,1.566149276286562392e-02
5.732000000000000028e+01,1.875730466853309242e-02
5.735999999999999943e+01,1.695801834675441169e-02
5.739999999999999858e+01,1.565991121608905495e-02
5.743999999999999773e+01,2.113772467522319343e-02
5.747999999999999687e+01,2.335186906334629428e-02
5.752000000000000313e+01,1.715705403749692368e-02
5.756000000000000227e+01,2.464037263864258046e-02
5.760000000000000142e+01,1.969889385508377666e-02
5.764000000000000057e+01,1.839595772120469416e-02
5.767999999999999972e+01,1.345286137087884672e-02
5.771999999999999886e+01,1.804656318950259575e-02
5.775999999999999801e+01,1.686668963550493408e-02
5.779999999999999716e+01,1.593699239896443146e-02
5.784000000000000341e+01,2.052825404413670049e-02
5.788000000000000256e+01,1.269470908907049250e-02
5.792000000000000171e+01,1.979423445549392119e-02
5.796000000000000085e+01,1.434345573436535300e-02
5.800000000000000000e+01,2.219431159576704463e-02
5.803999999999999915e+01,2.100871665711400577e-02
5.807999999999999829e+01,1.593195862835806650e-02
5.811999999999999744e+01,1.863505764324974515e-02
5.815999999999999659e+01,2.070985714692811022e-02
5.820000000000000284e+01,1.851700504807758663e-02
5.824000000000000199e+01,1.946069643411867459e-02
5.828000000000000114e+01,2.165850717398925401e-02
5.832000000000000028e+01,1.670228071282850446e-02
5.835999999999999943e+01,1.914941883337471437e-02
5.839999999999999858e+01,2.435661060988170146e-02
5.843999999999999773e+01,1.864491560672817266e-02
5.847999999999999687e+01,1.920712754703270478e-02
5.852000000000000313e+01,1.926652298188412382e-02
5.856000000000000227e+01,1.857211088616989025e-02
5.860000000000000142e+01,1.549245683743557915e-02
5.864000000000000057e+01,2.069462213500100276e-02
5.867999999999999972e+01,1.711130527704173704e-02
5.871999999999999886e+01,1.603704183439681047e-02
5.875999999999999801e+01,1.772282019916896281e-02
5.879999999999999716e+01,1.928225740586549108e-02
5.884000000000000341e+01,1.883292932342424397e-02
5.888000000000000256e+01,1.562186550951744426e-02
5.892000000000000171e+01,2.395547803827579800e-02
5.896000000000000085e+01,1.810732046091117348e-02
5.900000000000000000e+01,2.204690863294853434e-02
5.903999999999999915e+01,1.732649765522132485e-02
5.907999999999999829e+01,2.201734523097490306e-02
5.911999999999999744e+01,1.993061383851157595e-02
5.915999999999999659e+01,2.926305603538045461e-02
5.920000000000000284e+01,1.437413188279155866e-02
5.924000000000000199e+01,1.604966771298187850e-02
5.928000000000000114e+01,1.697137231551923420e-02
5.932000000000000028e+01,2.241002825465926440e-02
5.935999999999999943e+01,2.006713849212264297e-02
5.939999999999999858e+01,1.922932092988731412e-02
5.943999999999999773e+01,1.952008968853693321e-02
5.947999999999999687e+01,2.056295888865517299e-02
5.952000000000000313e+01,1.671065877006528907e-02
5.956000000000000227e+01,2.088915800955591304e-02
5.960000000000000142e+01,1.690961908542936570e-02
5.964000000000000057e+01,1.932944378042397715e-02
5.967999999999999972e+01,2.501125942043939260e-02
5.971999999999999886e+01,1.939766158972749260e-02
5.975999999999999801e+01,1.240274246178531964e-02
5.979999999999999716e+01,1.569752217036337466e-02
5.984000000000000341e+01,1.811295736591668828e-02
5.988000000000000256e+01,1.136638634788829719e-02
5.992000000000000171e+01,2.080776836914513886e-02
5.996000000000000085e+01,1.154953261672013627e-02
