2.003999999999999915e+01,2.204274414080158867e-02
2.007999999999999829e+01,2.141039275281462692e-02
2.012000000000000099e+01,2.427454980531985537e-02
2.016000000000000014e+01,1.026681520123937964e-02
2.019999999999999929e+01,4.748760259801251132e-02
2.023999999999999844e+01,3.121452669074605349e-02
2.028000000000000114e+01,4.004081393102371794e-02
2.032000000000000028e+01,1.738757301060247715e-02
2.035999999999999943e+01,4.040784038971341474e-02
2.039999999999999858e+01,2.413040778773000231e-02
2.044000000000000128e+01,3.027770461467464355e-02
2.048000000000000043e+01,2.572536227862137065e-02
2.051999999999999957e+01,2.364083333826975941e-02
2.055999999999999872e+01,3.163655181424465668e-02
2.060000000000000142e+01,1.761685625130027938e-02
2.064000000000000057e+01,6.270719138958772559e-03
2.067999999999999972e+01,3.175121862420366564e-02
2.071999999999999886e+01,4.180003337285004977e-02
2.076000000000000156e+01,3.559419888474201626e-02
2.080000000000000071e+01,3.021025483796515448e-02
2.083999999999999986e+01,3.840417093654704267e-02
2.087999999999999901e+01,1.573580008507559705e-02
2.092000000000000171e+01,3.400890163304261249e-02
2.096000000000000085e+01,1.442451011990511685e-02
2.100000000000000000e+01,3.372417915122163240e-02
2.103999999999999915e+01,2.812806746198541138e-02
2.107999999999999829e+01,3.384666747254079511e-02
2.112000000000000099e+01,4.244458187129551696e-02
2.116000000000000014e+01,1.380223353689566737e-02
2.119999999999999929e+01,4.358938738982264666e-02
2.123999999999999844e+01,2.708365812518278085e-02
2.128000000000000114e+01,4.349549647656816148e-02
2.132000000000000028e+01,5.723163672401971463e-02
2.135999999999999943e+01,3.537345170294729085e-02
2.139999999999999858e+01,2.750462661054291560e-02
2.144000000000000128e+01,4.494094115948106538e-02
2.148000000000000043e+01,3.604129829758555975e-02
2.151999999999999957e+01,4.010231185524247566e-02
2.155999999999999872e+01,3.510965031667605957e-02
2.160000000000000142e+01,3.587669765927480048e-02
2.164000000000000057e+01,2.985322802472422862e-02
2.167999999999999972e+01,3.637893679180711354e-02
2.171999999999999886e+01,5.504234231504000902e-02
2.176000000000000156e+01,3.646550324294346029e-02
2.180000000000000071e+01,3.249526047340694362e-02
2.183999999999999986e+01,2.934693958409897996e-02
2.187999999999999901e+01,4.059947598839152433e-02
2.192000000000000171e+01,3.312850109435841461e-02
2.196000000000000085e+01,2.545074457143843213e-02
2.200000000000000000e+01,4.122647177247290573e-02
2.203999999999999915e+01,4.033610557610811664e-02
2.207999999999999829e+01,5.178918844592440840e-02
2.212000000000000099e+01,4.637043890938210428e-02
2.216000000000000014e+01,2.407985817566928380e-02
2.219999999999999929e+01,2.771166433988623765e-02
2.223999999999999844e+01,2.496445451945135743e-02
2.228000000000000114e+01,1.995305847027529708e-02
2.232000000000000028e+01,3.777793153655210900e-02
2.235999999999999943e+01,2.597501095676143373e-02
2.239999999999999858e+01,4.297486330354775147e-02
2.244000000000000128e+01,3.096414870465150765e-02
2.248000000000000043e+01,2.491891101640040726e-02
2.251999999999999957e+01,2.730804857601610430e-02
2.255999999999999872e+01,3.051912978125086162e-02
2.260000000000000142e+01,3.290622442260396352e-02
2.264000000000000057e+01,3.590952370061677168e-02
2.267999999999999972e+01,2.903621603033574097e-02
2.271999999999999886e+01,4.191306815734938129e-02
2.276000000000000156e+01,3.956403864370718754e-02
2.280000000000000071e+01,3.309916577474718291e-02
2.283999999999999986e+01,2.231270933232192000e-02
2.287999999999999901e+01,1.584581047373642346e-02
2.292000000000000171e+01,3.694725169716002455e-02
2.296000000000000085e+01,3.562186736910508134e-02
2.300000000000000000e+01,2.976916287700227814e-02
2.303999999999999915e+01,3.914031645430675332e-02
2.307999999999999829e+01,1.991240528761432579e-02
2.312000000000000099e+01,4.450641300842589354e-02
2.316000000000000014e+01,3.535782272021456563e-02
2.319999999999999929e+01,2.950009255266933597e-02
2.323999999999999844e+01,2.652174086030622061e-02
2.328000000000000114e+01,3.321223595440559589e-02
2.332000000000000028e+01,3.372948913927471815e-02
2.335999999999999943e+01,2.539886306873257935e-02
2.339999999999999858e+01,2.735431169422623474e-02
2.344000000000000128e+01,2.581116059342429894e-02
2.348000000000000043e+01,3.558279374371525750e-02
2.351999999999999957e+01,3.671229390268463538e-02
2.355999999999999872e+01,1.973555662205941225e-02
2.360000000000000142e+01,3.547071566304815793e-02
2.364000000000000057e+01,2.960203541810504241e-02
2.367999999999999972e+01,2.990460978679376075e-02
2.371999999999999886e+01,2.321098862879166294e-02
2.376000000000000156e+01,4.346850866374564470e-02
2.380000000000000071e+01,3.450976143808495711e-02
2.383999999999999986e+01,4.488972501232098983e-02
2.387999999999999901e+01,3.037399371837737685e-02
2.392000000000000171e+01,2.182378286585983512e-02
2.396000000000000085e+01,2.932042360342620307e-02
2.400000000000000000e+01,3.763905151739237176e-02
2.403999999999999915e+01,2.764571507468803133e-02
2.407999999999999829e+01,2.485235247417988749e-02
2.412000000000000099e+01,3.275656918977012944e-02
2.416000000000000014e+01,3.510479367109400894e-02
2.419999999999999929e+01,3.827501137475945031e-02
2.423999999999999844e+01,4.555908634733274454e-02
2.428000000000000114e+01,3.329675565434894735e-02
2.432000000000000028e+01,2.411957751196910221e-02
2.435999999999999943e+01,1.967348454807050021e-02
2.439999999999999858e+01,2.448478937323597324e-02
2.444000000000000128e+01,4.061090747001489670e-02
2.448000000000000043e+01,4.521454161328705701e-02
2.451999999999999957e+01,2.718565593609088490e-02
2.455999999999999872e+01,4.289740273770959594e-02
2.460000000000000142e+01,2.630678505243906964e-02
2.464000000000000057e+01,4.222235370034362056e-02
2.467999999999999972e+01,3.776856306523033308e-02
2.471999999999999886e+01,4.380662845670473676e-02
2.476000000000000156e+01,3.379590695759632224e-02
2.480000000000000071e+01,3.407130247611597773e-02
2.483999999999999986e+01,3.990076339272169426e-02
2.487999999999999901e+01,4.860965236123201971e-02
2.492000000000000171e+01,3.715493072919101580e-02
2.496000000000000085e+01,3.392891667817028029e-02
2.500000000000000000e+01,3.749142142600556116e-02
2.503999999999999915e+01,1.924438778216551807e-02
2.507999999999999829e+01,3.309207091790009742e-02
2.512000000000000099e+01,2.183835524295818509e-02
2.516000000000000014e+01,3.979897878326208588e-02
2.519999999999999929e+01,1.928501315441876265e-02
2.523999999999999844e+01,3.703801196198700657e-02
2.528000000000000114e+01,3.791927388907672530e-02
2.532000000000000028e+01,2.933549152897629506e-02
2.535999999999999943e+01,7.583320398823992226e-03
2.539999999999999858e+01,2.965313707991185099e-02
2.544000000000000128e+01,3.135361745256056570e-02
2.548000000000000043e+01,2.708666263948654104e-02
2.551999999999999957e+01,3.351732946410326819e-02
2.555999999999999872e+01,2.739683784661843535e-02
2.560000000000000142e+01,3.176822885786491357e-02
2.564000000000000057e+01,3.593294948555324220e-02
2.567999999999999972e+01,3.351301669145240886e-02
2.571999999999999886e+01,1.895341314667532348e-02
2.576000000000000156e+01,2.702444128021387962e-02
2.580000000000000071e+01,3.036249246555321191e-02
2.583999999999999986e+01,1.209677087032038842e-02
2.587999999999999901e+01,3.292099876785717361e-02
2.592000000000000171e+01,4.530890765270984000e-02
2.596000000000000085e+01,3.753323737590810033e-02
2.600000000000000000e+01,3.469444328164638519e-02
2.603999999999999915e+01,4.152457940784342466e-02
2.607999999999999829e+01,1.749258577847333934e-02
2.612000000000000099e+01,4.242613740913656062e-02
2.616000000000000014e+01,2.415307606244246688e-02
2.619999999999999929e+01,4.126662818997484800e-02
2.623999999999999844e+01,5.035535383300227680e-02
2.628000000000000114e+01,2.714176577505124019e-02
2.632000000000000028e+01,2.738179203339741533e-02
2.635999999999999943e+01,4.099410387775924425e-02
2.639999999999999858e+01,3.403136700686647254e-02
2.644000000000000128e+01,2.768494964552716681e-02
2.648000000000000043e+01,3.285914865174362209e-02
2.651999999999999957e+01,4.214727385060428044e-02
2.655999999999999872e+01,1.666419668477162747e-02
2.660000000000000142e+01,2.533329652103253130e-02
2.664000000000000057e+01,3.893929188684703419e-02
2.667999999999999972e+01,4.019990409516992214e-02
2.671999999999999886e+01,2.129696011641710185e-02
2.676000000000000156e+01,2.913950659241121982e-02
2.680000000000000071e+01,4.788545482745961562e-02
2.683999999999999986e+01,3.967838340090567434e-02
2.687999999999999901e+01,4.011156045108556223e-02
2.692000000000000171e+01,3.149122443628180751e-02
2.696000000000000085e+01,3.007094932523571296e-02
2.700000000000000000e+01,2.350625068696899841e-02
2.703999999999999915e+01,4.286408525842291123e-02
2.707999999999999829e+01,3.938373597012698873e-02
2.712000000000000099e+01,2.829006965414201241e-02
2.716000000000000014e+01,5.073137298687924873e-02
2.719999999999999929e+01,3.572685474656746990e-02
2.723999999999999844e+01,2.339609447293730660e-02
2.728000000000000114e+01,2.299745760530243210e-02
2.732000000000000028e+01,2.486109826805363993e-02
2.735999999999999943e+01,4.236021044722688977e-02
2.739999999999999858e+01,2.899723277404871527e-02
2.744000000000000128e+01,4.402569753050816076e-02
2.748000000000000043e+01,3.601024909176522154e-02
2.751999999999999957e+01,3.807525846812252063e-02
2.755999999999999872e+01,2.244563417839318814e-02
2.760000000000000142e+01,2.389167865156866313e-02
2.764000000000000057e+01,3.377225314872057960e-02
2.767999999999999972e+01,2.143188620595632560e-02
2.771999999999999886e+01,2.945905449103982873e-02
2.776000000000000156e+01,4.160018645360660100e-02
2.780000000000000071e+01,3.193186345849432367e-02
2.783999999999999986e+01,2.678898941391423885e-02
2.787999999999999901e+01,3.110935978512109970e-02
2.792000000000000171e+01,2.040974592830612985e-02
2.796000000000000085e+01,2.287672459770494215e-02
2.800000000000000000e+01,3.048638133639762146e-02
2.803999999999999915e+01,3.644925025148079700e-02
2.807999999999999829e+01,4.570312680820939194e-02
2.812000000000000099e+01,2.862124667937153422e-02
2.816000000000000014e+01,2.408874084068095625e-02
2.819999999999999929e+01,2.572762625390655547e-02
2.823999999999999844e+01,2.715991988081714603e-02
2.828000000000000114e+01,2.776839864859282844e-02
2.832000000000000028e+01,2.837602947576633658e-02
2.835999999999999943e+01,4.708805917710398581e-02
2.839999999999999858e+01,1.683278365022105802e-02
2.844000000000000128e+01,2.052399932075991626e-02
2.848000000000000043e+01,3.347273611757505679e-02
2.851999999999999957e+01,3.119576539685753325e-02
2.855999999999999872e+01,1.883662405119822594e-02
2.860000000000000142e+01,2.437614740749719650e-02
2.864000000000000057e+01,2.909186678735642059e-02
2.867999999999999972e+01,3.051488627193080921e-02
2.871999999999999886e+01,2.658779279704763174e-02
2.876000000000000156e+01,3.109526320341493219e-02
2.880000000000000071e+01,2.120000026591235126e-02
2.883999999999999986e+01,1.439002651729793213e-02
2.887999999999999901e+01,1.498591314081837086e-02
2.892000000000000171e+01,3.492066413115674922e-02
2.896000000000000085e+01,3.222302952093417105e-02
2.900000000000000000e+01,2.396954898823639921e-02
2.903999999999999915e+01,2.991140076651862753e-02
2.907999999999999829e+01,3.955577327082760580e-02
2.912000000000000099e+01,3.006536927604285328e-02
2.916000000000000014e+01,0.000000000000000000e+00
2.919999999999999929e+01,2.877585760362744854e-02
2.923999999999999844e+01,3.533082092568463201e-02
2.928000000000000114e+01,2.089933973937655592e-02
2.932000000000000028e+01,2.992156355849223334e-02
2.935999999999999943e+01,3.030183092778615181e-02
2.939999999999999858e+01,3.685352582464698074e-02
2.944000000000000128e+01,3.270585241670170146e-02
2.948000000000000043e+01,5.797839024368085098e-02
2.951999999999999957e+01,2.975734529831886369e-02
2.955999999999999872e+01,2.725316831420803929e-02
2.960000000000000142e+01,2.886301063024471203e-02
2.964000000000000057e+01,4.302227197639785922e-02
2.967999999999999972e+01,4.113289516213611274e-02
2.971999999999999886e+01,4.191735128423410700e-02
2.976000000000000156e+01,7.664833850696954609e-02
2.980000000000000071e+01,9.779958832488858111e-02
2.983999999999999986e+01,1.016677562551293462e-01
2.987999999999999901e+01,1.312528018201280511e-01
2.992000000000000171e+01,1.217461766181972410e-01
2.996000000000000085e+01,1.052435445229589206e-01
3.000000000000000000e+01,7.968749247024047022e-02
3.003999999999999915e+01,6.194881871079147007e-02
3.007999999999999829e+01,5.429068015449751983e-02
3.012000000000000099e+01,5.486140516452195359e-02
3.016000000000000014e+01,5.152225073722246917e-02
3.019999999999999929e+01,3.686652669768734208e-02
3.023999999999999844e+01,2.858799700601056398e-02
3.028000000000000114e+01,2.668666287138064808e-02
3.032000000000000028e+01,2.457879982823026749e-02
3.035999999999999943e+01,3.707779185394800142e-02
3.039999999999999858e+01,4.484394598812742327e-02
3.044000000000000128e+01,1.783901504888432688e-02
3.048000000000000043e+01,3.177584550509697514e-02
3.051999999999999957e+01,2.698942463848061357e-02
3.055999999999999872e+01,3.331226062196027127e-02
3.060000000000000142e+01,2.214629626500434420e-02
3.064000000000000057e+01,2.003217690315985469e-02
3.067999999999999972e+01,4.281199365049606631e-02
3.071999999999999886e+01,2.547145667798922028e-02
3.076000000000000156e+01,2.664687398562021886e-02
3.080000000000000071e+01,2.514687976695765756e-02
3.083999999999999986e+01,1.726812953913976767e-02
3.087999999999999901e+01,2.605366437299978799e-02
3.092000000000000171e+01,3.566139557284523504e-02
3.096000000000000085e+01,2.860330302429476071e-02
3.100000000000000000e+01,1.187459646596466731e-02
3.103999999999999915e+01,2.477188972824103871e-02
3.107999999999999829e+01,1.153925721222535949e-02
3.112000000000000099e+01,2.546372980715943049e-02
3.116000000000000014e+01,2.169367756295884422e-02
3.119999999999999929e+01,2.244917584111220596e-02
3.123999999999999844e+01,4.295509147368037350e-02
3.128000000000000114e+01,2.930717170778982666e-02
3.132000000000000028e+01,3.540967171469078245e-02
3.135999999999999943e+01,1.250187442491250932e-02
3.139999999999999858e+01,1.654544928306644902e-02
3.144000000000000128e+01,2.881792761075456857e-02
3.148000000000000043e+01,2.174995935412591536e-02
3.151999999999999957e+01,3.607834833491948417e-02
3.155999999999999872e+01,1.913329036427835819e-02
3.160000000000000142e+01,1.473771067398332163e-02
3.164000000000000057e+01,1.486769480711408638e-02
3.167999999999999972e+01,2.692993535695922466e-02
3.171999999999999886e+01,3.076177365376788625e-02
3.176000000000000156e+01,8.669448155822719049e-03
3.180000000000000071e+01,3.225097678527965445e-02
3.183999999999999986e+01,1.571218555216752702e-02
3.187999999999999901e+01,3.846926661741468384e-02
3.192000000000000171e+01,3.365625730597249926e-02
3.196000000000000085e+01,3.480901148281576735e-02
3.200000000000000000e+01,2.793711329827730516e-02
3.203999999999999915e+01,2.435634246503153369e-02
3.207999999999999829e+01,2.077483735488919181e-02
3.211999999999999744e+01,2.686244626183575956e-02
3.215999999999999659e+01,3.109765046423735788e-02
3.220000000000000284e+01,1.331779129234317641e-02
3.224000000000000199e+01,2.104913966998377822e-02
3.228000000000000114e+01,2.404770698793893061e-02
3.232000000000000028e+01,2.169627017338854325e-02
3.235999999999999943e+01,3.086562747708234203e-02
3.239999999999999858e+01,3.077589594726115943e-02
3.243999999999999773e+01,3.726916669799421739e-02
3.247999999999999687e+01,1.413494972731366844e-02
3.252000000000000313e+01,3.482293580340058842e-02
3.256000000000000227e+01,1.497914092763671760e-02
3.260000000000000142e+01,1.303413167266664202e-02
3.264000000000000057e+01,3.906923918714843430e-02
3.267999999999999972e+01,1.305104944652202281e-02
3.271999999999999886e+01,2.036225600446305364e-02
3.275999999999999801e+01,3.487369879847347642e-02
3.279999999999999716e+01,2.592990636466059942e-02
3.284000000000000341e+01,2.089448974791599176e-02
3.288000000000000256e+01,3.293490150693922924e-02
3.292000000000000171e+01,9.175596025537481257e-03
3.296000000000000085e+01,3.314759401136129630e-02
3.300000000000000000e+01,1.946820432911177887e-02
3.303999999999999915e+01,2.595076926942532433e-02
3.307999999999999829e+01,1.103552171959513301e-02
3.311999999999999744e+01,6.612384125907456132e-03
3.315999999999999659e+01,1.885360051763381589e-02
3.320000000000000284e+01,1.648647514887342791e-02
3.324000000000000199e+01,2.337701479980380456e-02
3.328000000000000114e+01,3.211852929551321095e-02
3.332000000000000028e+01,3.612729417043437224e-02
3.335999999999999943e+01,3.293441350572218901e-02
3.339999999999999858e+01,1.595616283580943845e-02
3.343999999999999773e+01,2.099155172636833766e-02
3.347999999999999687e+01,2.828940436232030634e-02
3.352000000000000313e+01,8.428697843789334163e-03
3.356000000000000227e+01,3.321319152026758204e-02
3.360000000000000142e+01,1.335110713706991713e-02
3.364000000000000057e+01,1.858878977032740049e-02
3.367999999999999972e+01,1.703631939213065549e-02
3.371999999999999886e+01,2.474152854388499481e-02
3.375999999999999801e+01,1.845563714579779094e-02
3.379999999999999716e+01,3.994415615628863631e-02
3.384000000000000341e+01,2.974781428440891051e-02
3.388000000000000256e+01,7.206306908941717028e-03
3.392000000000000171e+01,3.798073621500802546e-03
3.396000000000000085e+01,3.701113695484421068e-02
3.400000000000000000e+01,2.886949715777311493e-02
3.403999999999999915e+01,1.146881810390967295e-02
3.407999999999999829e+01,2.225404077761497165e-02
3.411999999999999744e+01,2.624912374093794562e-02
3.415999999999999659e+01,2.962631102315043535e-02
3.420000000000000284e+01,3.176837955143244768e-02
3.424000000000000199e+01,2.876624341558616307e-02
3.428000000000000114e+01,2.267731809816104713e-02
3.432000000000000028e+01,2.193700332912617082e-02
3.435999999999999943e+01,1.522952181418361223e-02
3.439999999999999858e+01,1.860270609473859207e-02
3.443999999999999773e+01,3.555416164469339668e-02
3.447999999999999687e+01,2.534708706068591194e-02
3.452000000000000313e+01,1.555083481494364678e-02
3.456000000000000227e+01,2.180175459419964740e-02
3.460000000000000142e+01,6.243424977797339646e-03
3.464000000000000057e+01,3.100975823043145355e-02
3.467999999999999972e+01,7.014717524753041542e-03
3.471999999999999886e+01,2.046396212378219504e-02
3.475999999999999801e+01,2.383122352206496278e-02
3.479999999999999716e+01,2.040836576616745016e-02
3.484000000000000341e+01,3.200398136290620588e-02
3.488000000000000256e+01,1.808701033625502441e-02
3.492000000000000171e+01,2.865262073807805718e-02
3.496000000000000085e+01,2.625587400239082908e-02
3.500000000000000000e+01,1.048528848370947932e-02
3.503999999999999915e+01,2.310637514045360552e-02
3.507999999999999829e+01,5.894311245691184580e-03
3.511999999999999744e+01,1.131316197931969691e-02
3.515999999999999659e+01,1.343950870617709702e-02
3.520000000000000284e+01,2.194319972024913815e-02
3.524000000000000199e+01,3.082642147601489212e-03
3.528000000000000114e+01,3.791995956785132460e-02
3.532000000000000028e+01,2.584759522282739294e-02
3.535999999999999943e+01,2.467889140316605751e-02
3.539999999999999858e+01,1.116506802907477405e-02
3.543999999999999773e+01,2.069365181155334923e-02
3.547999999999999687e+01,3.022160409814560883e-02
3.552000000000000313e+01,2.822740616721744825e-02
3.556000000000000227e+01,2.067756062070447501e-02
3.560000000000000142e+01,1.950507145328972056e-02
3.564000000000000057e+01,2.388697416481701599e-02
3.567999999999999972e+01,1.839266291426623623e-02
3.571999999999999886e+01,1.721829739701756512e-02
3.575999999999999801e+01,2.077536167693159325e-02
3.579999999999999716e+01,1.198731849429925632e-02
3.584000000000000341e+01,1.904074460335647770e-02
3.588000000000000256e+01,1.189739282221897662e-02
3.592000000000000171e+01,2.388737558852551540e-02
3.596000000000000085e+01,1.509685720825851458e-02
3.600000000000000000e+01,1.494686299967045405e-02
3.603999999999999915e+01,3.269575840207486483e-02
3.607999999999999829e+01,2.308043061071510596e-02
3.611999999999999744e+01,2.148840633659104132e-02
3.615999999999999659e+01,2.071873683212711176e-02
3.620000000000000284e+01,3.167571895532562271e-02
3.624000000000000199e+01,3.008186548971357802e-02
3.628000000000000114e+01,2.869314613931837551e-02
3.632000000000000028e+01,3.141864923271448645e-02
3.635999999999999943e+01,1.562681897211777582e-02
3.639999999999999858e+01,2.596354629865330402e-02
3.643999999999999773e+01,2.395518550965613364e-02
3.647999999999999687e+01,2.400363772784262079e-02
3.652000000000000313e+01,2.014240276965380619e-02
3.656000000000000227e+01,2.924227888583927695e-02
3.660000000000000142e+01,2.537984744123721742e-02
3.664000000000000057e+01,1.822495672983328804e-02
3.667999999999999972e+01,1.683023076360474699e-02
3.671999999999999886e+01,2.880810356317625026e-02
3.675999999999999801e+01,4.634040209896383294e-02
3.679999999999999716e+01,2.190085786551350736e-02
3.684000000000000341e+01,1.289133029878943189e-02
3.688000000000000256e+01,1.067068065986319370e-02
3.692000000000000171e+01,2.799487865276214377e-02
3.696000000000000085e+01,2.433286430146030035e-02
3.700000000000000000e+01,1.429228015600996805e-02
3.703999999999999915e+01,1.947597729589161525e-02
3.707999999999999829e+01,3.000836841816004186e-02
3.711999999999999744e+01,2.654976056240889934e-02
3.715999999999999659e+01,3.378912621816020090e-02
3.720000000000000284e+01,3.279825527967987486e-02
3.724000000000000199e+01,3.180680604960084423e-02
3.728000000000000114e+01,3.986740253990041921e-02
3.732000000000000028e+01,3.578867894414719530e-02
3.735999999999999943e+01,3.088641497501597860e-02
3.739999999999999858e+01,2.906969896108100790e-02
3.743999999999999773e+01,3.589355064960590008e-02
3.747999999999999687e+01,3.140105279817602402e-02
3.752000000000000313e+01,2.505631227344077422e-02
3.756000000000000227e+01,2.611769451471376846e-02
3.760000000000000142e+01,2.800147505642763476e-02
3.764000000000000057e+01,2.330096372367078048e-02
3.767999999999999972e+01,3.073863161321774631e-02
3.771999999999999886e+01,5.401782562630705331e-02
3.775999999999999801e+01,3.079889448928448126e-02
3.779999999999999716e+01,3.412004611565887940e-02
3.784000000000000341e+01,3.456025760555428428e-02
3.788000000000000256e+01,5.331089718377873821e-02
3.792000000000000171e+01,5.025238772897844958e-02
3.796000000000000085e+01,3.855218179985309135e-02
3.800000000000000000e+01,3.384662908313559870e-02
3.803999999999999915e+01,5.835580494031467752e-02
3.807999999999999829e+01,4.418503955966104901e-02
3.811999999999999744e+01,5.655436661591126818e-02
3.815999999999999659e+01,4.732029332160297280e-02
3.820000000000000284e+01,5.639665778913061783e-02
3.824000000000000199e+01,6.156338707538219768e-02
3.828000000000000114e+01,5.994010240684059798e-02
3.832000000000000028e+01,7.950763911040559240e-02
3.835999999999999943e+01,7.068231440726215065e-02
3.839999999999999858e+01,7.317222498246851725e-02
3.843999999999999773e+01,8.347976778049917557e-02
3.847999999999999687e+01,6.148536568000027153e-02
3.852000000000000313e+01,6.870570666365816148e-02
3.856000000000000227e+01,6.707862788348017968e-02
3.860000000000000142e+01,5.866154482201584031e-02
3.864000000000000057e+01,6.629175712276202947e-02
3.867999999999999972e+01,7.906497034609322183e-02
3.871999999999999886e+01,6.797164444680563189e-02
3.875999999999999801e+01,7.683470465667986693e-02
3.879999999999999716e+01,9.968765079215705094e-02
3.884000000000000341e+01,8.879847292044697193e-02
3.888000000000000256e+01,8.675564770931371017e-02
3.892000000000000171e+01,8.923860639388718485e-02
3.896000000000000085e+01,8.884065879925560905e-02
3.900000000000000000e+01,9.708332606542979804e-02
3.903999999999999915e+01,1.106747465642201889e-01
3.907999999999999829e+01,1.139785730272705883e-01
3.911999999999999744e+01,1.189278094492638438e-01
3.915999999999999659e+01,1.209961456379939071e-01
3.920000000000000284e+01,1.308821370241269877e-01
3.924000000000000199e+01,1.426192834241041263e-01
3.928000000000000114e+01,1.634085360038776691e-01
3.932000000000000028e+01,1.580681118981606403e-01
3.935999999999999943e+01,1.656888835100028823e-01
3.939999999999999858e+01,1.831847306385511465e-01
3.943999999999999773e+01,2.072637916556157867e-01
3.947999999999999687e+01,2.185863736007906122e-01
3.952000000000000313e+01,2.461620189376559908e-01
3.956000000000000227e+01,2.445218734341192413e-01
3.960000000000000142e+01,2.850582135849999976e-01
3.964000000000000057e+01,3.124265966460721411e-01
3.967999999999999972e+01,3.478183908421437209e-01
3.971999999999999886e+01,3.692192646574388171e-01
3.975999999999999801e+01,3.891794463686488736e-01
3.979999999999999716e+01,4.079046786122982882e-01
3.984000000000000341e+01,4.463805881858590174e-01
3.988000000000000256e+01,4.865019306929413978e-01
3.992000000000000171e+01,5.305318630434311400e-01
3.996000000000000085e+01,5.782646450191806231e-01
4.000000000000000000e+01,5.973988737376079161e-01
4.003999999999999915e+01,6.531545828734496295e-01
4.007999999999999829e+01,7.122016624074435365e-01
4.011999999999999744e+01,7.412100023203279653e-01
4.015999999999999659e+01,7.912034778006473701e-01
4.020000000000000284e+01,8.533352086821369697e-01
4.024000000000000199e+01,9.002415863382822181e-01
4.028000000000000114e+01,9.199896091927765029e-01
4.032000000000000028e+01,9.492012525206370288e-01
4.035999999999999943e+01,9.454937834998120572e-01
4.039999999999999858e+01,9.771733572150803626e-01
4.043999999999999773e+01,9.944505494602902118e-01
4.047999999999999687e+01,1.000000000000000000e+00
4.052000000000000313e+01,9.458839574740830480e-01
4.056000000000000227e+01,9.037004398046954989e-01
4.060000000000000142e+01,8.499949254847085633e-01
4.064000000000000057e+01,8.127482498410226741e-01
4.067999999999999972e+01,7.839364984167171979e-01
4.071999999999999886e+01,7.127415398689603832e-01
4.075999999999999801e+01,6.833116191874113454e-01
4.079999999999999716e+01,6.193166680395603141e-01
4.084000000000000341e+01,5.571729202730874020e-01
4.088000000000000256e+01,5.221865726595231738e-01
4.092000000000000171e+01,4.703289609581279285e-01
4.096000000000000085e+01,4.318440761964982277e-01
4.100000000000000000e+01,3.894496396875891664e-01
4.103999999999999915e+01,3.661886925022337369e-01
4.107999999999999829e+01,3.412813516886729626e-01
4.111999999999999744e+01,3.108185313367087810e-01
4.115999999999999659e+01,2.926997368337717065e-01
4.120000000000000284e+01,2.572982038526496207e-01
4.124000000000000199e+01,2.422646148050396075e-01
4.128000000000000114e+01,2.194123953550825290e-01
4.132000000000000028e+01,2.128132937102920619e-01
4.135999999999999943e+01,1.961324083808339280e-01
4.139999999999999858e+01,1.957046432749190989e-01
4.143999999999999773e+01,1.685300412884881971e-01
4.147999999999999687e+01,1.549339233886077583e-01
4.152000000000000313e+01,1.462751508363494268e-01
4.156000000000000227e+01,1.433766905502460443e-01
4.160000000000000142e+01,1.215495724591522109e-01
4.164000000000000057e+01,1.314061888969404457e-01
4.167999999999999972e+01,1.208939599567621231e-01
4.171999999999999886e+01,1.087353567353920719e-01
4.175999999999999801e+01,1.113896946289077289e-01
4.179999999999999716e+01,1.111632120955916847e-01
4.184000000000000341e+01,1.218405859761518550e-01
4.188000000000000256e+01,9.404387491910932984e-02
4.192000000000000171e+01,9.649071686391447189e-02
4.196000000000000085e+01,8.556393042449952913e-02
4.200000000000000000e+01,9.870845658522554855e-02
4.203999999999999915e+01,9.518749394273033626e-02
4.207999999999999829e+01,8.919720219239413161e-02
4.211999999999999744e+01,8.114906539807749397e-02
4.215999999999999659e+01,8.235886327245502125e-02
4.220000000000000284e+01,8.562564706795113001e-02
4.224000000000000199e+01,9.280109083977922113e-02
4.228000000000000114e+01,1.059426100704887463e-01
4.232000000000000028e+01,9.233731902282592274e-02
4.235999999999999943e+01,1.030090928853354681e-01
4.239999999999999858e+01,1.077139430487968480e-01
4.243999999999999773e+01,1.227054434819514761e-01
4.247999999999999687e+01,1.492180439580044760e-01
4.252000000000000313e+01,1.960986270615970029e-01
4.256000000000000227e+01,2.493567769430616032e-01
4.260000000000000142e+01,3.427340888947095765e-01
4.264000000000000057e+01,4.344650543764979056e-01
4.267999999999999972e+01,4.961573576252312767e-01
4.271999999999999886e+01,5.220502398846869063e-01
4.275999999999999801e+01,5.139953752100782092e-01
4.279999999999999716e+01,4.483325006669403034e-01
4.284000000000000341e+01,3.647697129403316141e-01
4.288000000000000256e+01,2.970486073225632184e-01
4.292000000000000171e+01,2.184227994691286534e-01
4.296000000000000085e+01,1.583133146982805273e-01
4.300000000000000000e+01,1.268014841586767583e-01
4.303999999999999915e+01,9.981556206118041841e-02
4.307999999999999829e+01,8.743687955444943982e-02
4.311999999999999744e+01,6.291905229397733168e-02
4.315999999999999659e+01,4.992234563260558589e-02
4.320000000000000284e+01,5.009269219821151087e-02
4.324000000000000199e+01,5.849229894391661660e-02
4.328000000000000114e+01,4.960923008923121685e-02
4.332000000000000028e+01,4.895542383302178141e-02
4.335999999999999943e+01,5.365050140177109184e-02
4.339999999999999858e+01,5.320165121052562035e-02
4.343999999999999773e+01,3.732180310166809817e-02
4.347999999999999687e+01,5.497741799038193683e-02
4.352000000000000313e+01,4.053698176563529099e-02
4.356000000000000227e+01,3.412007396715852070e-02
4.360000000000000142e+01,4.169319719688745901e-02
4.364000000000000057e+01,3.465829426429051924e-02
4.367999999999999972e+01,4.140768335093981262e-02
4.371999999999999886e+01,4.136722293241234388e-02
4.375999999999999801e+01,3.556562135457693591e-02
4.379999999999999716e+01,3.840477974015005236e-02
4.384000000000000341e+01,3.856892079483375396e-02
4.388000000000000256e+01,4.099583998388302286e-02
4.392000000000000171e+01,3.334105287631947134e-02
4.396000000000000085e+01,4.070501481633734264e-02
4.400000000000000000e+01,3.531263432274963504e-02
4.403999999999999915e+01,5.172847239721178186e-02
4.407999999999999829e+01,4.695257193566439863e-02
4.411999999999999744e+01,2.509976269401804211e-02
4.415999999999999659e+01,3.390205702343958294e-02
4.420000000000000284e+01,4.270398346003634327e-02
4.424000000000000199e+01,4.121847184619097798e-02
4.428000000000000114e+01,4.446464758662821426e-02
4.432000000000000028e+01,3.289707629360556773e-02
4.435999999999999943e+01,3.387936901201449996e-02
4.439999999999999858e+01,5.173209692510181978e-02
4.443999999999999773e+01,4.180937151011906300e-02
4.447999999999999687e+01,4.937430799019983801e-02
4.452000000000000313e+01,6.434557763506272565e-02
4.456000000000000227e+01,5.627345040815129318e-02
4.460000000000000142e+01,5.396172734570989227e-02
4.464000000000000057e+01,5.576447823823789396e-02
4.467999999999999972e+01,6.085873858557925425e-02
4.471999999999999886e+01,5.360816111937762724e-02
4.475999999999999801e+01,3.751035131353530616e-02
4.479999999999999716e+01,5.823990724585802192e-02
4.484000000000000341e+01,5.222272907867483993e-02
4.488000000000000256e+01,3.879851219076881075e-02
4.492000000000000171e+01,4.759402332772876693e-02
4.496000000000000085e+01,5.412603384574549148e-02
4.500000000000000000e+01,4.522709360449595622e-02
4.503999999999999915e+01,5.525602217829970325e-02
4.507999999999999829e+01,5.643772808596964063e-02
4.511999999999999744e+01,4.959517824603849184e-02
4.515999999999999659e+01,5.880012086602005167e-02
4.520000000000000284e+01,6.347841442149118607e-02
4.524000000000000199e+01,4.634778022540683717e-02
4.528000000000000114e+01,6.192969773102538489e-02
4.532000000000000028e+01,6.064048415953192384e-02
4.535999999999999943e+01,7.025523341048992010e-02
4.539999999999999858e+01,6.834813111345151848e-02
4.543999999999999773e+01,7.178997551916636854e-02
4.547999999999999687e+01,7.255685217071439208e-02
4.552000000000000313e+01,9.081142215622306502e-02
4.556000000000000227e+01,7.162072558613831463e-02
4.560000000000000142e+01,6.827179334970212565e-02
4.564000000000000057e+01,8.117610951077493253e-02
4.567999999999999972e+01,8.132413402415311632e-02
4.571999999999999886e+01,9.340483937935864511e-02
4.575999999999999801e+01,8.758571982184339133e-02
4.579999999999999716e+01,9.884281920793515364e-02
4.584000000000000341e+01,1.033101331758328884e-01
4.588000000000000256e+01,1.145665971389087240e-01
4.592000000000000171e+01,9.887061822322813776e-02
4.596000000000000085e+01,1.000451216605717508e-01
4.600000000000000000e+01,1.032767258919277814e-01
4.603999999999999915e+01,1.334601448341543872e-01
4.607999999999999829e+01,1.410116957084364131e-01
4.611999999999999744e+01,1.405390210648263527e-01
4.615999999999999659e+01,1.297789664118152442e-01
4.620000000000000284e+01,1.478224041524532073e-01
4.624000000000000199e+01,1.633966385408391619e-01
4.628000000000000114e+01,1.522241823605000599e-01
4.632000000000000028e+01,1.570992537065359906e-01
4.635999999999999943e+01,1.817251994801852844e-01
4.639999999999999858e+01,1.765183369026329663e-01
4.643999999999999773e+01,1.988805254098429953e-01
4.647999999999999687e+01,1.981993750863199066e-01
4.652000000000000313e+01,1.989581169942494510e-01
4.656000000000000227e+01,2.102093751456090565e-01
4.660000000000000142e+01,2.286612879122092712e-01
4.664000000000000057e+01,2.263330223855269385e-01
4.667999999999999972e+01,2.186551868249590191e-01
4.671999999999999886e+01,2.356660308307663709e-01
4.675999999999999801e+01,2.685186742366845736e-01
4.679999999999999716e+01,2.384141515821703305e-01
4.684000000000000341e+01,2.480174363171327723e-01
4.688000000000000256e+01,2.644099012769819956e-01
4.692000000000000171e+01,2.688690777833201984e-01
4.696000000000000085e+01,2.720935212668135761e-01
4.700000000000000000e+01,2.685282143985752712e-01
4.703999999999999915e+01,2.513836912857019823e-01
4.707999999999999829e+01,2.605737900405882268e-01
4.711999999999999744e+01,2.473377935937631777e-01
4.715999999999999659e+01,2.425369172548324792e-01
4.720000000000000284e+01,2.399989194129009684e-01
4.724000000000000199e+01,2.210013313895706766e-01
4.728000000000000114e+01,2.234005770238748356e-01
4.732000000000000028e+01,2.251823248000376643e-01
4.735999999999999943e+01,2.072126231849889810e-01
4.739999999999999858e+01,1.939747032409146477e-01
4.743999999999999773e+01,1.671575791440889081e-01
4.747999999999999687e+01,1.654406404428894750e-01
4.752000000000000313e+01,1.585798985280960083e-01
4.756000000000000227e+01,1.562452016936942134e-01
4.760000000000000142e+01,1.246949570657497480e-01
4.764000000000000057e+01,1.310008711650241520e-01
4.767999999999999972e+01,1.253735197853661221e-01
4.771999999999999886e+01,1.207746140581392458e-01
4.775999999999999801e+01,1.219362080212624821e-01
4.779999999999999716e+01,1.043750730309267460e-01
4.784000000000000341e+01,1.036844772254679470e-01
4.788000000000000256e+01,9.208932912369907631e-02
4.792000000000000171e+01,1.014795511719062404e-01
4.796000000000000085e+01,8.576906485598814744e-02
4.800000000000000000e+01,7.602482691288653394e-02
4.803999999999999915e+01,7.985927136322581998e-02
4.807999999999999829e+01,6.785137530713011844e-02
4.811999999999999744e+01,6.777623264416318682e-02
4.815999999999999659e+01,7.469605032744661144e-02
4.820000000000000284e+01,6.207018543981009107e-02
4.824000000000000199e+01,6.075985329085906161e-02
4.828000000000000114e+01,4.895646379215377181e-02
4.832000000000000028e+01,4.311933233977171404e-02
4.835999999999999943e+01,4.942070296298461951e-02
4.839999999999999858e+01,5.304719410278073422e-02
4.843999999999999773e+01,4.762082272092880986e-02
4.847999999999999687e+01,3.314159002661723474e-02
4.852000000000000313e+01,4.828888556822375638e-02
4.856000000000000227e+01,3.792400802885825123e-02
4.860000000000000142e+01,2.426703277000930720e-02
4.864000000000000057e+01,3.344712227255178943e-02
4.867999999999999972e+01,2.966526938919020195e-02
4.871999999999999886e+01,3.328987663538822417e-02
4.875999999999999801e+01,2.683292389676458431e-02
4.879999999999999716e+01,3.827524650021893460e-02
4.884000000000000341e+01,3.716711440919494985e-02
4.888000000000000256e+01,2.947503022562821678e-02
4.892000000000000171e+01,2.363439367948780637e-02
4.896000000000000085e+01,3.281265732947329788e-02
4.900000000000000000e+01,3.417252395046447427e-02
4.903999999999999915e+01,3.512068613574974296e-02
4.907999999999999829e+01,2.578155658238399928e-02
4.911999999999999744e+01,2.755224494251147516e-02
4.915999999999999659e+01,2.726530107580922568e-02
4.920000000000000284e+01,2.512646761880168653e-02
4.924000000000000199e+01,2.278167719936616264e-02
4.928000000000000114e+01,1.735055104398538703e-02
4.932000000000000028e+01,2.220628313869516673e-02
4.935999999999999943e+01,3.199959758194488579e-02
4.939999999999999858e+01,2.265874858459747745e-02
4.943999999999999773e+01,1.681529436281395049e-02
4.947999999999999687e+01,2.804817032996611767e-02
4.952000000000000313e+01,1.726650650138074339e-02
4.956000000000000227e+01,1.965208816072161122e-02
4.960000000000000142e+01,1.730541233893517425e-02
4.964000000000000057e+01,1.763317162930993012e-02
4.967999999999999972e+01,2.783631719779815217e-02
4.971999999999999886e+01,1.746511900784339724e-02
4.975999999999999801e+01,1.162003240363988776e-02
4.979999999999999716e+01,1.565033570511493305e-02
4.984000000000000341e+01,1.638857877194563328e-02
4.988000000000000256e+01,2.309312704344546399e-02
4.992000000000000171e+01,1.148649330314129545e-02
4.996000000000000085e+01,2.251122280010824095e-02
5.000000000000000000e+01,2.016256695971462357e-02
5.003999999999999915e+01,2.501466972476026202e-02
5.007999999999999829e+01,9.909663896066407685e-03
5.011999999999999744e+01,1.352693902201089655e-02
5.015999999999999659e+01,1.220623216812900466e-02
5.020000000000000284e+01,1.376571878238130354e-02
5.024000000000000199e+01,1.902836578330073178e-02
5.028000000000000114e+01,1.091763591117810538e-02
5.032000000000000028e+01,1.268231166418268448e-02
5.035999999999999943e+01,1.712144429473884746e-02
5.039999999999999858e+01,6.335530833793019678e-03
5.043999999999999773e+01,1.530061513767294080e-02
5.047999999999999687e+01,2.179662426326664168e-02
5.052000000000000313e+01,1.471352234361235356e-02
5.056000000000000227e+01,1.812305758622373072e-02
5.060000000000000142e+01,1.906352127811393113e-02
5.064000000000000057e+01,1.959232890183256262e-02
5.067999999999999972e+01,2.032670594857619722e-02
5.071999999999999886e+01,1.694608365347492762e-02
5.075999999999999801e+01,1.356529177243926895e-02
5.079999999999999716e+01,1.656231576207710735e-02
5.084000000000000341e+01,2.346825970354351337e-02
5.088000000000000256e+01,1.658936205512100137e-02
5.092000000000000171e+01,1.588254247760098950e-02
5.096000000000000085e+01,1.682149077877735655e-02
5.100000000000000000e+01,1.179377535640214331e-02
5.103999999999999915e+01,1.540703876052788683e-02
5.107999999999999829e+01,1.223067515013440479e-02
5.111999999999999744e+01,2.777662272408809932e-02
5.115999999999999659e+01,1.760473438697681553e-02
5.120000000000000284e+01,2.080588254185050667e-02
5.124000000000000199e+01,1.186813140821935814e-02
5.128000000000000114e+01,2.556178341507505877e-02
5.132000000000000028e+01,2.979117710717214471e-02
5.135999999999999943e+01,1.612091517291837708e-02
5.139999999999999858e+01,1.438350578523848317e-02
5.143999999999999773e+01,1.840670733323750835e-02
5.147999999999999687e+01,2.325272677003710486e-02
5.152000000000000313e+01,2.295506391207822322e-02
5.156000000000000227e+01,2.656634277133825342e-02
5.160000000000000142e+01,1.474687038741096315e-02
5.164000000000000057e+01,2.761622630002675410e-02
5.167999999999999972e+01,1.661943486705120057e-02
5.171999999999999886e+01,1.611531566280369546e-02
5.175999999999999801e+01,2.013736850372521009e-02
5.179999999999999716e+01,1.963297179621516925e-02
5.184000000000000341e+01,1.480786817679800860e-02
5.188000000000000256e+01,1.821228592216499187e-02
5.192000000000000171e+01,1.091801492658204566e-02
5.196000000000000085e+01,2.214033908096568401e-02
5.200000000000000000e+01,1.957785550273442518e-02
5.203999999999999915e+01,4.259272537757092907e-03
5.207999999999999829e+01,1.095489261502540293e-02
5.211999999999999744e+01,1.271258996269676415e-02
5.215999999999999659e+01,2.269981713947073071e-02
5.220000000000000284e+01,2.095965690293272871e-02
5.224000000000000199e+01,2.539161464051297931e-02
5.228000000000000114e+01,1.171820313573840137e-02
5.232000000000000028e+01,1.512120767227279582e-02
5.235999999999999943e+01,1.482074529835701766e-02
5.239999999999999858e+01,1.307997292387676203e-02
5.243999999999999773e+01,1.895151456080928012e-02
5.247999999999999687e+01,1.371290153075663265e-02
5.252000000000000313e+01,3.069424627135764957e-02
5.256000000000000227e+01,1.228795033768871441e-02
5.260000000000000142e+01,2.494849596850302192e-02
5.264000000000000057e+01,2.032664894900218164e-02
5.267999999999999972e+01,2.825491745211101274e-02
5.271999999999999886e+01,3.289121278213712890e-02
5.275999999999999801e+01,3.279534615691608729e-02
5.279999999999999716e+01,1.479986743612501238e-02
5.284000000000000341e+01,2.457937469756942342e-02
5.288000000000000256e+01,3.559322502407905042e-02
5.292000000000000171e+01,2.706153546389480566e-02
5.296000000000000085e+01,3.066848703596647061e-02
5.300000000000000000e+01,3.386385388197950264e-02
5.303999999999999915e+01,2.553760013497216250e-02
5.307999999999999829e+01,2.400071403704683373e-02
5.311999999999999744e+01,2.369817825931687730e-02
5.315999999999999659e+01,2.462999401097066415e-02
5.320000000000000284e+01,2.844209391988538824e-02
5.324000000000000199e+01,2.464166640110762585e-02
5.328000000000000114e+01,3.318563111542883332e-02
5.332000000000000028e+01,1.868646377022572733e-02
5.335999999999999943e+01,1.077093111108706931e-02
5.339999999999999858e+01,1.211367290257065257e-02
5.343999999999999773e+01,2.065727608050379333e-02
5.347999999999999687e+01,1.212425342841334276e-02
5.352000000000000313e+01,1.799304453791305061e-02
5.356000000000000227e+01,2.098137072195780176e-02
5.360000000000000142e+01,2.890740742850822845e-02
5.364000000000000057e+01,2.140275456047736891e-02
5.367999999999999972e+01,2.685973029943735518e-02
5.371999999999999886e+01,2.408696883895683483e-02
5.375999999999999801e+01,2.007967991765201299e-02
5.379999999999999716e+01,2.635938467553355577e-02
5.384000000000000341e+01,1.453376734940621008e-02
5.388000000000000256e+01,2.410518319699208462e-02
5.392000000000000171e+01,1.577702080628185996e-02
5.396000000000000085e+01,2.822866972565332352e-02
5.400000000000000000e+01,1.208218860362740912e-02
5.403999999999999915e+01,1.959590119276545528e-02
5.407999999999999829e+01,2.896121740462776969e-02
5.411999999999999744e+01,2.495327282553025730e-02
5.415999999999999659e+01,1.991655430482806508e-02
5.420000000000000284e+01,2.434387584585143149e-02
5.424000000000000199e+01,2.074721733421905009e-02
5.428000000000000114e+01,2.352847989264714515e-02
5.432000000000000028e+01,1.519964340675443448e-02
5.435999999999999943e+01,2.003819751139077412e-02
5.439999999999999858e+01,1.705851782746080694e-02
5.443999999999999773e+01,1.901657405899197933e-02
5.447999999999999687e+01,3.043867881656717178e-02
5.452000000000000313e+01,2.108084349096603360e-02
5.456000000000000227e+01,1.295740201634105158e-02
5.460000000000000142e+01,2.396785978012247117e-02
5.464000000000000057e+01,2.139933104505669162e-02
5.467999999999999972e+01,1.533314695980141952e-02
5.471999999999999886e+01,1.543915581834252697e-02
5.475999999999999801e+01,1.863123741982667184e-02
5.479999999999999716e+01,2.532087582811427470e-02
5.484000000000000341e+01,2.131191376620199252e-02
5.488000000000000256e+01,1.298233669069768885e-02
5.492000000000000171e+01,2.954742849251779449e-02
5.496000000000000085e+01,2.039479925616676306e-02
5.500000000000000000e+01,2.687847708539175054e-02
5.503999999999999915e+01,2.142911192634198297e-02
5.507999999999999829e+01,2.770696913185874063e-02
5.511999999999999744e+01,2.143456148546907941e-02
5.515999999999999659e+01,2.668363719468666226e-02
5.520000000000000284e+01,3.501879894791908032e-02
5.524000000000000199e+01,2.483719808406283092e-02
5.528000000000000114e+01,2.288522136600104964e-02
5.532000000000000028e+01,2.833990429357756413e-02
5.535999999999999943e+01,2.762231387179733128e-02
5.539999999999999858e+01,2.052670988251249079e-02
5.543999999999999773e+01,2.845020197786739605e-02
5.547999999999999687e+01,3.596218431684165134e-02
5.552000000000000313e+01,2.619186106706239414e-02
5.556000000000000227e+01,3.246934466616847176e-02
5.560000000000000142e+01,1.776117940284763566e-02
5.564000000000000057e+01,2.568454908154443883e-02
5.567999999999999972e+01,3.381363933181091158e-02
5.571999999999999886e+01,3.000970715000450539e-02
5.575999999999999801e+01,2.702872224015274299e-02
5.579999999999999716e+01,2.548791009345228661e-02
5.584000000000000341e+01,2.579875477376382745e-02
5.588000000000000256e+01,2.713829178093109945e-02
5.592000000000000171e+01,3.238690230684816013e-02
5.596000000000000085e+01,2.714268764717542651e-02
5.600000000000000000e+01,2.951089461667916192e-02
5.603999999999999915e+01,2.179776167364195702e-02
5.607999999999999829e+01,2.354872562418312831e-02
5.611999999999999744e+01,2.139059490064343372e-02
5.615999999999999659e+01,2.519895922434480656e-02
5.620000000000000284e+01,3.106473268508945160e-02
5.624000000000000199e+01,3.240419081731000378e-02
5.628000000000000114e+01,3.004030053953926291e-02
5.632000000000000028e+01,3.570032441912417143e-02
5.635999999999999943e+01,3.045605235033060909e-02
5.639999999999999858e+01,3.858497396800824458e-02
5.643999999999999773e+01,3.519237777367578701e-02
5.647999999999999687e+01,3.612035488140231954e-02
5.652000000000000313e+01,2.840719657820096541e-02
5.656000000000000227e+01,2.089978544871304300e-02
5.660000000000000142e+01,2.614834976962989929e-02
5.664000000000000057e+01,2.728209370857842195e-02
5.667999999999999972e+01,2.574120846609987204e-02
5.671999999999999886e+01,2.872664520814649514e-02
5.675999999999999801e+01,4.323361367333466293e-02
5.679999999999999716e+01,3.099420958633540557e-02
5.684000000000000341e+01,2.719021823081260725e-02
5.688000000000000256e+01,2.688384655988794794e-02
5.692000000000000171e+01,2.596026723602740116e-02
5.696000000000000085e+01,3.059172428850278139e-02
5.700000000000000000e+01,3.686913180711636623e-02
5.703999999999999915e+01,2.833317681416726297e-02
5.707999999999999829e+01,3.193598749987480723e-02
5.711999999999999744e+01,3.018954374985769948e-02
5.715999999999999659e+01,3.873019525084900327e-02
5.720000000000000284e+01,2.751969482096427652e-02
5.724000000000000199e+01,4.161541625600093802e-02
5.728000000000000114e+01,4.110352386194127822e-02
5.732000000000000028e+01,3.215626166805692771e-02
5.735999999999999943e+01,3.349610077112273598e-02
5.739999999999999858e+01,3.483597101352136488e-02
5.743999999999999773e+01,4.214237499718837682e-02
5.747999999999999687e+01,3.298949835167576394e-02
5.752000000000000313e+01,2.836296787445557674e-02
5.756000000000000227e+01,4.184171897889957942e-02
5.760000000000000142e+01,3.639229595369562753e-02
5.764000000000000057e+01,3.402903273299634490e-02
5.767999999999999972e+01,3.063710197926778137e-02
5.771999999999999886e+01,3.382893771313445763e-02
5.775999999999999801e+01,3.825526403304582712e-02
5.779999999999999716e+01,3.589216648208180815e-02
5.784000000000000341e+01,3.743820049090858942e-02
5.788000000000000256e+01,3.116610591055609183e-02
5.792000000000000171e+01,3.579835383779913366e-02
5.796000000000000085e+01,4.269380553370911296e-02
5.800000000000000000e+01,3.477592373857701924e-02
5.803999999999999915e+01,3.693942236926098938e-02
5.807999999999999829e+01,4.157186982351324112e-02
5.811999999999999744e+01,4.496992161847195024e-02
5.815999999999999659e+01,4.178430185258652507e-02
5.820000000000000284e+01,4.477098022988450221e-02
5.824000000000000199e+01,3.068117667057320905e-02
5.828000000000000114e+01,4.251485069708891423e-02
5.832000000000000028e+01,3.788926948738052108e-02
5.835999999999999943e+01,4.560823407769225291e-02
5.839999999999999858e+01,3.707368727749263404e-02
5.843999999999999773e+01,3.306551445691759128e-02
5.847999999999999687e+01,3.975595964523889747e-02
5.852000000000000313e+01,4.047996843741962641e-02
5.856000000000000227e+01,3.935237058937044591e-02
5.860000000000000142e+01,3.555020160093531889e-02
5.864000000000000057e+01,4.326962116749431819e-02
5.867999999999999972e+01,4.543409202933840901e-02
5.871999999999999886e+01,3.155080260151418847e-02
5.875999999999999801e+01,4.029914243239939020e-02
5.879999999999999716e+01,4.246383004945415707e-02
5.884000000000000341e+01,3.701615952518633179e-02
5.888000000000000256e+01,3.424320343558998753e-02
5.892000000000000171e+01,4.155165437395348660e-02
5.896000000000000085e+01,3.054919657708155684e-02
5.900000000000000000e+01,4.279559957605753862e-02
5.903999999999999915e+01,4.496075335161930225e-02
5.907999999999999829e+01,4.589154048840810018e-02
5.911999999999999744e+01,4.476499648626791616e-02
5.915999999999999659e+01,3.726055258032859308e-02
5.920000000000000284e+01,5.012459553347339836e-02
5.924000000000000199e+01,3.603659826758444373e-02
5.928000000000000114e+01,3.614484745907282220e-02
5.932000000000000028e+01,3.872208295896847202e-02
5.935999999999999943e+01,4.500275454047640566e-02
5.939999999999999858e+01,3.893903208056816168e-02
5.943999999999999773e+01,4.480840521409337057e-02
5.947999999999999687e+01,3.730467958789850796e-02
5.952000000000000313e+01,4.193979340085009916e-02
5.956000000000000227e+01,4.101998511123055441e-02
5.960000000000000142e+01,4.154046445765619683e-02
5.964000000000000057e+01,4.576438835001265387e-02
5.967999999999999972e+01,4.690229089539644375e-02
5.971999999999999886e+01,4.269101760229868786e-02
5.975999999999999801e+01,4.712098673876351923e-02
5.979999999999999716e+01,4.640752388245972943e-02
5.984000000000000341e+01,4.343101022528112615e-02
5.988000000000000256e+01,3.777996412174402380e-02
5.992000000000000171e+01,4.817685666862291105e-02
5.996000000000000085e+01,4.952123494010037680e-02
