2.003999999999999915e+01,6.764820701770612489e-03
2.007999999999999829e+01,1.389828011790127105e-02
2.012000000000000099e+01,8.565127447709300693e-03
2.016000000000000014e+01,9.341473289975510061e-03
2.019999999999999929e+01,5.365538998493137555e-03
2.023999999999999844e+01,1.367056885941078138e-02
2.028000000000000114e+01,1.024956324291252836e-02
2.032000000000000028e+01,9.667180334938475436e-03
2.035999999999999943e+01,1.223199359272545035e-02
2.039999999999999858e+01,8.563376030192219532e-03
2.044000000000000128e+01,9.029389462924645310e-03
2.048000000000000043e+01,7.211710225091616001e-03
2.051999999999999957e+01,1.063952611703946650e-02
2.055999999999999872e+01,7.278480094962882542e-03
2.060000000000000142e+01,4.842903916723807073e-03
2.064000000000000057e+01,7.961396714923629769e-03
2.067999999999999972e+01,6.883043588449897464e-03
2.071999999999999886e+01,5.619297144851915712e-03
2.076000000000000156e+01,1.176105983698113970e-02
2.080000000000000071e+01,6.793936107985374534e-03
2.083999999999999986e+01,6.084874626372463111e-03
2.087999999999999901e+01,1.241103494958754362e-02
2.092000000000000171e+01,1.157804719614308891e-02
2.096000000000000085e+01,9.633947506260261487e-03
2.100000000000000000e+01,1.293534528268640640e-02
2.103999999999999915e+01,1.358276519946526907e-02
2.107999999999999829e+01,5.219598243271050646e-03
2.112000000000000099e+01,1.018654881570026614e-02
2.116000000000000014e+01,1.101837045248919324e-02
2.119999999999999929e+01,9.751646881020535271e-03
2.123999999999999844e+01,6.571522253520548085e-03
2.128000000000000114e+01,1.468493240081478711e-02
2.132000000000000028e+01,1.051688026062381001e-02
2.135999999999999943e+01,1.585263836199736140e-02
2.139999999999999858e+01,1.088180344547373668e-02
2.144000000000000128e+01,1.381019819480052736e-02
2.148000000000000043e+01,6.370285663146344965e-03
2.151999999999999957e+01,8.372469499394113307e-03
2.155999999999999872e+01,9.016685709842875429e-03
2.160000000000000142e+01,1.083323524191687377e-02
2.164000000000000057e+01,8.884946089910056299e-03
2.167999999999999972e+01,6.751268293835201335e-03
2.171999999999999886e+01,1.202310430654381958e-02
2.176000000000000156e+01,1.106151611909523408e-02
2.180000000000000071e+01,1.009968382922624835e-02
2.183999999999999986e+01,9.569610199184097263e-03
2.187999999999999901e+01,6.447277450924127420e-03
2.192000000000000171e+01,5.793287284584206290e-03
2.196000000000000085e+01,1.106366043516681004e-02
2.200000000000000000e+01,1.071775707890832742e-02
2.203999999999999915e+01,1.481506576886863422e-02
2.207999999999999829e+01,6.075483998299727184e-03
2.212000000000000099e+01,5.975711033725255097e-03
2.216000000000000014e+01,7.850564599293237411e-03
2.219999999999999929e+01,7.565163171865264824e-03
2.223999999999999844e+01,9.809820536547981737e-03
2.228000000000000114e+01,1.427596362552605198e-02
2.232000000000000028e+01,1.503898599300993073e-02
2.235999999999999943e+01,7.532003548324840182e-03
2.239999999999999858e+01,1.119513202532251318e-02
2.244000000000000128e+01,1.288315063510395500e-02
2.248000000000000043e+01,5.622303839291115275e-03
2.251999999999999957e+01,1.138300812444937617e-02
2.255999999999999872e+01,9.614284401054540991e-03
2.260000000000000142e+01,8.153893731978932927e-03
2.264000000000000057e+01,1.070471546224584410e-02
2.267999999999999972e+01,1.208271897612827467e-02
2.271999999999999886e+01,1.055989419819105407e-02
2.276000000000000156e+01,1.008597908347828517e-02
2.280000000000000071e+01,1.405527971448718855e-02
2.283999999999999986e+01,5.002549626954070489e-03
2.287999999999999901e+01,8.230796542725597395e-03
2.292000000000000171e+01,9.422221275303807250e-03
2.296000000000000085e+01,1.616772627754013009e-02
2.300000000000000000e+01,9.335769467530310312e-03
2.303999999999999915e+01,9.724188934240629231e-03
2.307999999999999829e+01,9.495224004220139888e-03
2.312000000000000099e+01,1.167289284493482245e-02
2.316000000000000014e+01,9.283439918006624811e-03
2.319999999999999929e+01,1.133720468390686693e-02
2.323999999999999844e+01,4.935824963757360490e-03
2.328000000000000114e+01,4.458814985982680230e-03
2.332000000000000028e+01,7.684447455105950821e-03
2.335999999999999943e+01,9.428691755400200186e-03
2.339999999999999858e+01,6.605815456315659862e-03
2.344000000000000128e+01,6.127859833146470474e-03
2.348000000000000043e+01,8.241683690624147796e-03
2.351999999999999957e+01,7.578112455506142049e-03
2.355999999999999872e+01,9.938323657992803248e-03
2.360000000000000142e+01,1.001485737734686757e-02
2.364000000000000057e+01,1.009115595097162532e-02
2.367999999999999972e+01,7.081486948317362688e-03
2.371999999999999886e+01,1.123048287995959127e-02
2.376000000000000156e+01,1.149122114217637769e-02
2.380000000000000071e+01,7.431699362141950919e-03
2.383999999999999986e+01,5.346812290098423848e-03
2.387999999999999901e+01,8.075434135996054086e-03
2.392000000000000171e+01,2.534058763441104228e-03
2.396000000000000085e+01,9.520524261399905888e-03
2.400000000000000000e+01,7.990134320306640017e-03
2.403999999999999915e+01,5.718935350528374199e-03
2.407999999999999829e+01,1.116183493998954175e-02
2.412000000000000099e+01,1.333362513747352214e-02
2.416000000000000014e+01,1.402403106034198592e-02
2.419999999999999929e+01,5.271862730133612847e-03
2.423999999999999844e+01,7.936672888319992736e-03
2.428000000000000114e+01,1.263783454881983737e-02
2.432000000000000028e+01,6.662129490270706118e-03
2.435999999999999943e+01,6.487370126274235108e-03
2.439999999999999858e+01,6.620952578577411936e-03
2.444000000000000128e+01,3.483427196588841437e-03
2.448000000000000043e+01,9.417724676061016778e-03
2.451999999999999957e+01,9.118611390412704326e-03
2.455999999999999872e+01,5.239817592078521540e-03
2.460000000000000142e+01,1.358029451710290360e-02
2.464000000000000057e+01,1.525535869360232152e-02
2.467999999999999972e+01,1.217816454394896400e-02
2.471999999999999886e+01,1.261847569855157475e-02
2.476000000000000156e+01,1.034311244909470566e-02
2.480000000000000071e+01,6.709797345403578986e-03
2.483999999999999986e+01,9.062574230308867787e-03
2.487999999999999901e+01,9.069965210317951568e-03
2.492000000000000171e+01,1.358229690821976914e-02
2.496000000000000085e+01,1.025663901768301793e-02
2.500000000000000000e+01,1.026334383686141639e-02
2.503999999999999915e+01,8.788668665059212043e-03
2.507999999999999829e+01,5.524040434461065241e-03
2.512000000000000099e+01,6.887783200319415322e-03
2.516000000000000014e+01,7.757580999412603054e-03
2.519999999999999929e+01,7.824860763925207269e-03
2.523999999999999844e+01,6.410761511010618433e-03
2.528000000000000114e+01,1.295762526867660046e-02
2.532000000000000028e+01,7.901907387482341033e-03
2.535999999999999943e+01,8.955713331133699148e-03
2.539999999999999858e+01,1.124358574642980030e-02
2.544000000000000128e+01,8.408915620044707731e-03
2.548000000000000043e+01,1.199234316516333172e-02
2.551999999999999957e+01,6.750349407709530306e-03
2.555999999999999872e+01,9.592749328821497182e-03
2.560000000000000142e+01,9.472620324777242598e-03
2.564000000000000057e+01,6.883679810329231853e-03
2.567999999999999972e+01,2.196215895219414717e-03
2.571999999999999886e+01,7.506300665179444116e-03
2.576000000000000156e+01,4.854970435904112404e-03
2.580000000000000071e+01,4.116569802937548525e-03
2.583999999999999986e+01,6.031674791053029394e-03
2.587999999999999901e+01,8.378558104773597276e-03
2.592000000000000171e+01,6.220047738393203601e-03
2.596000000000000085e+01,7.702478017310239629e-03
2.600000000000000000e+01,6.654383885714323758e-03
2.603999999999999915e+01,8.136367043743401514e-03
2.607999999999999829e+01,6.470679655628797794e-03
2.612000000000000099e+01,1.221052749447209228e-02
2.616000000000000014e+01,2.336345370540738806e-03
2.619999999999999929e+01,1.011233117885341690e-02
2.623999999999999844e+01,9.001184536880686357e-03
2.628000000000000114e+01,7.889815600083333394e-03
2.632000000000000028e+01,7.457085740729405346e-03
2.635999999999999943e+01,7.641280501024373326e-03
2.639999999999999858e+01,6.405816543006945772e-03
2.644000000000000128e+01,9.366727439361921884e-03
2.648000000000000043e+01,6.402810373945602013e-03
2.651999999999999957e+01,7.264980637291740088e-03
2.655999999999999872e+01,4.177192208454635208e-03
2.660000000000000142e+01,6.952075030473283887e-03
2.664000000000000057e+01,1.126960362269370519e-02
2.667999999999999972e+01,5.033706288805461955e-03
2.671999999999999886e+01,4.413622179884148233e-03
2.676000000000000156e+01,7.311053305463350444e-03
2.680000000000000071e+01,7.677963914743173891e-03
2.683999999999999986e+01,7.982940302642644453e-03
2.687999999999999901e+01,7.361977528799626067e-03
2.692000000000000171e+01,7.913373973101803585e-03
2.696000000000000085e+01,1.346343828558289879e-02
2.700000000000000000e+01,9.447512669724086876e-03
2.703999999999999915e+01,3.950216798418541668e-03
2.707999999999999829e+01,8.635620189861565807e-03
2.712000000000000099e+01,7.766486649935296950e-03
2.716000000000000014e+01,1.572233040706440266e-02
2.719999999999999929e+01,6.089280383729689383e-03
2.723999999999999844e+01,1.886902159085090350e-03
2.728000000000000114e+01,6.941504383164318233e-03
2.732000000000000028e+01,4.775275031786993009e-03
2.735999999999999943e+01,3.657977735361941669e-03
2.739999999999999858e+01,4.947335043714455420e-03
2.744000000000000128e+01,6.236475703852009667e-03
2.748000000000000043e+01,6.908253385433197127e-03
2.751999999999999957e+01,6.098663148095729084e-03
2.755999999999999872e+01,8.312874819430658355e-03
2.760000000000000142e+01,1.311888602661210462e-02
2.764000000000000057e+01,5.458321753079654545e-03
2.767999999999999972e+01,6.067305435294399751e-03
2.771999999999999886e+01,7.848652229867927876e-03
2.776000000000000156e+01,6.790909918672246269e-03
2.780000000000000071e+01,9.188973251949453941e-03
2.783999999999999986e+01,1.319140284925392377e-02
2.787999999999999901e+01,7.874705411874249189e-03
2.792000000000000171e+01,6.939533990677619266e-03
2.796000000000000085e+01,4.029279572338114596e-03
2.800000000000000000e+01,1.099315563256669792e-02
2.803999999999999915e+01,5.058455591651622556e-03
2.807999999999999829e+01,6.591014971022802170e-03
2.812000000000000099e+01,7.999931707250117902e-03
2.816000000000000014e+01,6.940049199846289908e-03
2.819999999999999929e+01,6.435385616277238506e-03
2.823999999999999844e+01,5.498506711170298225e-03
2.828000000000000114e+01,7.153430651991430148e-03
2.832000000000000028e+01,1.041272319336795579e-02
2.835999999999999943e+01,9.536921847026020790e-03
2.839999999999999858e+01,1.872296749952319286e-03
2.844000000000000128e+01,6.365246415956889343e-03
2.848000000000000043e+01,8.019110480984456557e-03
2.851999999999999957e+01,4.550446997052940735e-03
2.855999999999999872e+01,1.225192442024835779e-02
2.860000000000000142e+01,6.561111248207951267e-03
2.864000000000000057e+01,6.362691342236545707e-03
2.867999999999999972e+01,6.102346171575965920e-03
2.871999999999999886e+01,8.310376683650453483e-03
2.876000000000000156e+01,3.050724019831949334e-03
2.880000000000000071e+01,4.641187756039806891e-03
2.883999999999999986e+01,5.799439091369897742e-03
2.887999999999999901e+01,2.143737892663037832e-03
2.892000000000000171e+01,9.596464700974010470e-03
2.896000000000000085e+01,7.483211121768254363e-03
2.900000000000000000e+01,4.814316615517030482e-03
2.903999999999999915e+01,5.786377747285308820e-03
2.907999999999999829e+01,6.387942298945108004e-03
2.912000000000000099e+01,1.106246544558219663e-02
2.916000000000000014e+01,9.009883193495589124e-03
2.919999999999999929e+01,3.747930930192896679e-03
2.923999999999999844e+01,7.002392826374640236e-03
2.928000000000000114e+01,6.738911838235583582e-03
2.932000000000000028e+01,5.672932870715660485e-03
2.935999999999999943e+01,5.347322431155786260e-03
2.939999999999999858e+01,4.898075579193699076e-03
2.944000000000000128e+01,5.127482992107796136e-03
2.948000000000000043e+01,7.825269787259831258e-03
2.951999999999999957e+01,5.955965773766580020e-03
2.955999999999999872e+01,4.148170084229445970e-03
2.960000000000000142e+01,1.042478773903637509e-02
2.964000000000000057e+01,5.037130131230931410e-03
2.967999999999999972e+01,7.610456952180469706e-03
2.971999999999999886e+01,5.801837895553742935e-03
2.976000000000000156e+01,1.667050286082926390e-04
2.980000000000000071e+01,8.602307772565655555e-03
2.983999999999999986e+01,1.024909377537556836e-02
2.987999999999999901e+01,3.317338309097655428e-03
2.992000000000000171e+01,9.654028555286825464e-03
2.996000000000000085e+01,9.942478474523130244e-03
3.000000000000000000e+01,9.428433724460059603e-03
3.003999999999999915e+01,2.063858554297729256e-03
3.007999999999999829e+01,4.820282597679510436e-03
3.012000000000000099e+01,3.009618753076127428e-03
3.016000000000000014e+01,9.036512368745454327e-03
3.019999999999999929e+01,8.953452173220759550e-03
3.023999999999999844e+01,6.278173554009657334e-03
3.028000000000000114e+01,4.590126551125017947e-03
3.032000000000000028e+01,1.092478174487137611e-02
3.035999999999999943e+01,5.842023790818392549e-03
3.039999999999999858e+01,5.387662535031257673e-03
3.044000000000000128e+01,1.098113517984046321e-02
3.048000000000000043e+01,8.551501148768876973e-03
3.051999999999999957e+01,1.025654718005347514e-02
3.055999999999999872e+01,3.876772272373456805e-03
3.060000000000000142e+01,7.000852584424220072e-03
3.064000000000000057e+01,6.174994064780740290e-03
3.067999999999999972e+01,4.855217448445427707e-03
3.071999999999999886e+01,4.831247852780047418e-03
3.076000000000000156e+01,1.054654045287039404e-02
3.080000000000000071e+01,3.424985039358997146e-03
3.083999999999999986e+01,5.066710183779937759e-03
3.087999999999999901e+01,6.276232857567658890e-03
3.092000000000000171e+01,6.127833467854655256e-03
3.096000000000000085e+01,5.176944081898526319e-03
3.100000000000000000e+01,7.990449179795470341e-03
3.103999999999999915e+01,9.816320713354979161e-03
3.107999999999999829e+01,2.076222179063605053e-03
3.112000000000000099e+01,5.567991665887709121e-03
3.116000000000000014e+01,7.146408384928281017e-03
3.119999999999999929e+01,1.936014982984419564e-03
3.123999999999999844e+01,3.514035205912976328e-03
3.128000000000000114e+01,5.647289345398421451e-03
3.132000000000000028e+01,7.656916418594117424e-03
3.135999999999999943e+01,5.901752122403357108e-03
3.139999999999999858e+01,6.861835164583891811e-03
3.144000000000000128e+01,5.291420276903518148e-03
3.148000000000000043e+01,3.227091186744857065e-03
3.151999999999999957e+01,2.335143706459255272e-03
3.155999999999999872e+01,6.256742528564731079e-03
3.160000000000000142e+01,6.598695107063460435e-03
3.164000000000000057e+01,7.619312659525587401e-03
3.167999999999999972e+01,5.862574840370054531e-03
3.171999999999999886e+01,1.231368999023484991e-02
3.176000000000000156e+01,5.681103189533328983e-03
3.180000000000000071e+01,7.750086967315153973e-03
3.183999999999999986e+01,8.214294549921017166e-03
3.187999999999999901e+01,6.086291691978214062e-03
3.192000000000000171e+01,5.686104263562117428e-03
3.196000000000000085e+01,7.569164331930283360e-03
3.200000000000000000e+01,3.650852613610918156e-03
3.203999999999999915e+01,7.138104939429587223e-03
3.207999999999999829e+01,5.996564265581042635e-03
3.211999999999999744e+01,6.212552079781341781e-03
3.215999999999999659e+01,6.798634136657764546e-03
3.220000000000000284e+01,7.878239935931449084e-03
3.224000000000000199e+01,5.810205174505673510e-03
3.228000000000000114e+01,4.605982459929757258e-03
3.232000000000000028e+01,8.338739052258205969e-03
3.235999999999999943e+01,4.480400687644137646e-03
3.239999999999999858e+01,7.719054857038122261e-03
3.243999999999999773e+01,4.971195424046409399e-03
3.247999999999999687e+01,5.123732544129826032e-03
3.252000000000000313e+01,6.510370794358433764e-03
3.256000000000000227e+01,1.005683015702102043e-02
3.260000000000000142e+01,5.518478510963498347e-03
3.264000000000000057e+01,7.459974042125978345e-03
3.267999999999999972e+01,8.475558644593992122e-03
3.271999999999999886e+01,9.120664385625127865e-03
3.275999999999999801e+01,8.099283757320618199e-03
3.279999999999999716e+01,8.620578884662064359e-03
3.284000000000000341e+01,7.537102684594479581e-03
3.288000000000000256e+01,8.243161239615014180e-03
3.292000000000000171e+01,5.493009281491563651e-03
3.296000000000000085e+01,8.420415575705808217e-03
3.300000000000000000e+01,7.397894526155756462e-03
3.303999999999999915e+01,4.462029860223958207e-03
3.307999999999999829e+01,4.179706058006613448e-03
3.311999999999999744e+01,2.848044163901840981e-03
3.315999999999999659e+01,6.576794970636075377e-03
3.320000000000000284e+01,3.948747959456195764e-03
3.324000000000000199e+01,8.541126876219011857e-03
3.328000000000000114e+01,5.850988576910898936e-03
3.332000000000000028e+01,4.826957869497969927e-03
3.335999999999999943e+01,5.654178906206497150e-03
3.339999999999999858e+01,9.011513059304511464e-03
3.343999999999999773e+01,6.752626392814961402e-03
3.347999999999999687e+01,4.061549911886169241e-03
3.352000000000000313e+01,8.344042111853983840e-03
3.356000000000000227e+01,8.059463168954821705e-03
3.360000000000000142e+01,6.725548470696349548e-03
3.364000000000000057e+01,8.909182497174768234e-03
3.367999999999999972e+01,9.117761370137049751e-03
3.371999999999999886e+01,4.759269879075101774e-03
3.375999999999999801e+01,8.053209414731121382e-03
3.379999999999999716e+01,5.854359188206083482e-03
3.384000000000000341e+01,6.494197482414003873e-03
3.388000000000000256e+01,2.628680843945605233e-03
3.392000000000000171e+01,3.206434080766971863e-03
3.396000000000000085e+01,7.178308295000180965e-03
3.400000000000000000e+01,3.991098102965113213e-03
3.403999999999999915e+01,7.592315165549771462e-03
3.407999999999999829e+01,7.984185971620904806e-03
3.411999999999999744e+01,9.363307086243425129e-03
3.415999999999999659e+01,4.755922971039328907e-03
3.420000000000000284e+01,5.949532449214335432e-03
3.424000000000000199e+01,3.131505967150802292e-03
3.428000000000000114e+01,5.435612290330398000e-03
3.432000000000000028e+01,4.468658872755311082e-03
3.435999999999999943e+01,5.784964634605083839e-03
3.439999999999999858e+01,6.360511797835134880e-03
3.443999999999999773e+01,8.417028047343651578e-03
3.447999999999999687e+01,4.610469929721395209e-03
3.452000000000000313e+01,9.505495630908506952e-03
3.456000000000000227e+01,6.932866389250719533e-03
3.460000000000000142e+01,6.520068190271444825e-03
3.464000000000000057e+01,7.773384008639667477e-03
3.467999999999999972e+01,6.434503016206598834e-03
3.471999999999999886e+01,6.391448515511122599e-03
3.475999999999999801e+01,1.221110498664943790e-02
3.479999999999999716e+01,8.958526718071459574e-03
3.484000000000000341e+01,6.384629000311032622e-03
3.488000000000000256e+01,8.747723050938247327e-03
3.492000000000000171e+01,3.828307868632314058e-03
3.496000000000000085e+01,7.178476079416729744e-03
3.500000000000000000e+01,7.689590427064426845e-03
3.503999999999999915e+01,8.509098384051760541e-03
3.507999999999999829e+01,5.378689122229979476e-03
3.511999999999999744e+01,5.889265094450514548e-03
3.515999999999999659e+01,8.189386920267749045e-03
3.520000000000000284e+01,3.145286223621356417e-03
3.524000000000000199e+01,3.038179047758721250e-03
3.528000000000000114e+01,6.448628579770716331e-03
3.532000000000000028e+01,6.588023238794931020e-03
3.535999999999999943e+01,8.578679377474444576e-03
3.539999999999999858e+01,8.409144777681305111e-03
3.543999999999999773e+01,7.313712684230400628e-03
3.547999999999999687e+01,3.132370454150057611e-03
3.552000000000000313e+01,0.000000000000000000e+00
3.556000000000000227e+01,7.235514044777572457e-03
3.560000000000000142e+01,8.484529869312897044e-03
3.564000000000000057e+01,5.660201895978119943e-03
3.567999999999999972e+01,5.983144662593467208e-03
3.571999999999999886e+01,6.799628306145588316e-03
3.575999999999999801e+01,6.690216013725355619e-03
3.579999999999999716e+01,4.544044234949670517e-03
3.584000000000000341e+01,9.309737777784604304e-03
3.588000000000000256e+01,6.916356065753020456e-03
3.592000000000000171e+01,6.435953211831425130e-03
3.596000000000000085e+01,9.226251765845110836e-03
3.600000000000000000e+01,8.498640146931690786e-03
3.603999999999999915e+01,9.128576097713394025e-03
3.607999999999999829e+01,6.055458307473711096e-03
3.611999999999999744e+01,8.042767626663104366e-03
3.615999999999999659e+01,8.487036431934810721e-03
3.620000000000000284e+01,9.671707060692251445e-03
3.624000000000000199e+01,8.140759167354365625e-03
3.628000000000000114e+01,1.031251680717363423e-02
3.632000000000000028e+01,1.174352519448565793e-02
3.635999999999999943e+01,9.471481203751004260e-03
3.639999999999999858e+01,1.053185541527431462e-02
3.643999999999999773e+01,1.251777657606304058e-02
3.647999999999999687e+01,1.086236059544234793e-02
3.652000000000000313e+01,7.972479115826101512e-03
3.656000000000000227e+01,1.008131223495117162e-02
3.660000000000000142e+01,1.317740773468957689e-02
3.664000000000000057e+01,1.139787382175707665e-02
3.667999999999999972e+01,1.097589059389055162e-02
3.671999999999999886e+01,1.283717803337879222e-02
3.675999999999999801e+01,1.574744328482830663e-02
3.679999999999999716e+01,1.322664802990273884e-02
3.684000000000000341e+01,1.471713429660983889e-02
3.688000000000000256e+01,1.417086633414976760e-02
3.692000000000000171e+01,1.263699342982173464e-02
3.696000000000000085e+01,1.215209931100835923e-02
3.700000000000000000e+01,1.425905048505054021e-02
3.703999999999999915e+01,1.087322766847648170e-02
3.707999999999999829e+01,1.569528391215343002e-02
3.711999999999999744e+01,1.403713211455216020e-02
3.715999999999999659e+01,1.663712200628979926e-02
3.720000000000000284e+01,1.911351345420717746e-02
3.724000000000000199e+01,1.331997252232727802e-02
3.728000000000000114e+01,1.135257129638185536e-02
3.732000000000000028e+01,1.728447703642545588e-02
3.735999999999999943e+01,1.537845354834027102e-02
3.739999999999999858e+01,1.248482745491525867e-02
3.743999999999999773e+01,1.724365030159044632e-02
3.747999999999999687e+01,1.823771156961270790e-02
3.752000000000000313e+01,1.787388290139592731e-02
3.756000000000000227e+01,2.041047551451021652e-02
3.760000000000000142e+01,2.294690093592141600e-02
3.764000000000000057e+01,1.974369667735570086e-02
3.767999999999999972e+01,2.493351835721676138e-02
3.771999999999999886e+01,2.308770304391286401e-02
3.775999999999999801e+01,3.130120967609775068e-02
3.779999999999999716e+01,2.822076868167954986e-02
3.784000000000000341e+01,2.983047525421826315e-02
3.788000000000000256e+01,3.310631161566927883e-02
3.792000000000000171e+01,3.446882811544110109e-02
3.796000000000000085e+01,3.644832570095802443e-02
3.800000000000000000e+01,4.194539323467557507e-02
3.803999999999999915e+01,4.904687668364292319e-02
3.807999999999999829e+01,5.324760660969043990e-02
3.811999999999999744e+01,5.960818471295600135e-02
3.815999999999999659e+01,7.139948777092638976e-02
3.820000000000000284e+01,7.899403018749959204e-02
3.824000000000000199e+01,9.473474265842819764e-02
3.828000000000000114e+01,1.107221498577560664e-01
3.832000000000000028e+01,1.143047482166258538e-01
3.835999999999999943e+01,1.355992883522905978e-01
3.839999999999999858e+01,1.454147398244967637e-01
3.843999999999999773e+01,1.654746605097888457e-01
3.847999999999999687e+01,1.805355314340907347e-01
3.852000000000000313e+01,2.041745763432592786e-01
3.856000000000000227e+01,2.305906180965154040e-01
3.860000000000000142e+01,2.665105540116375349e-01
3.864000000000000057e+01,3.061332069478468476e-01
3.867999999999999972e+01,3.522974511150935850e-01
3.871999999999999886e+01,4.287017132700889910e-01
3.875999999999999801e+01,5.217070554038921726e-01
3.879999999999999716e+01,6.382872334443028262e-01
3.884000000000000341e+01,7.649884533398955133e-01
3.888000000000000256e+01,8.965649698224384956e-01
3.892000000000000171e+01,9.714255598864429686e-01
3.896000000000000085e+01,1.000000000000000000e+00
3.900000000000000000e+01,9.506286736226479128e-01
3.903999999999999915e+01,8.473802954261290266e-01
3.907999999999999829e+01,7.064241045615188286e-01
3.911999999999999744e+01,5.823158540381334625e-01
3.915999999999999659e+01,4.601205981444229653e-01
3.920000000000000284e+01,3.540944218038014624e-01
3.924000000000000199e+01,2.755928212719380155e-01
3.928000000000000114e+01,2.164077479603505327e-01
3.932000000000000028e+01,1.741940452685517560e-01
3.935999999999999943e+01,1.462362686810231016e-01
3.939999999999999858e+01,1.283995366746261968e-01
3.943999999999999773e+01,1.103157878231964817e-01
3.947999999999999687e+01,9.686047986935618359e-02
3.952000000000000313e+01,8.130671588474815137e-02
3.956000000000000227e+01,7.599742656512498140e-02
3.960000000000000142e+01,6.747881785906167940e-02
3.964000000000000057e+01,6.655095414968052736e-02
3.967999999999999972e+01,5.821717507292633459e-02
3.971999999999999886e+01,5.013009773415574855e-02
3.975999999999999801e+01,4.951033667118897447e-02
3.979999999999999716e+01,4.740926746548129733e-02
3.984000000000000341e+01,4.894920646967576561e-02
3.988000000000000256e+01,4.425580947764955891e-02
3.992000000000000171e+01,4.227770129736869997e-02
3.996000000000000085e+01,3.739884874556983346e-02
4.000000000000000000e+01,3.653129309754708787e-02
4.003999999999999915e+01,3.461443304258395026e-02
4.007999999999999829e+01,3.646201167079747563e-02
4.011999999999999744e+01,4.108659473681496727e-02
4.015999999999999659e+01,4.034184830465942229e-02
4.020000000000000284e+01,4.317639718229692586e-02
4.024000000000000199e+01,3.860503341851083403e-02
4.028000000000000114e+01,3.384837155112133122e-02
4.032000000000000028e+01,2.933841434237561413e-02
4.035999999999999943e+01,2.390258358938532682e-02
4.039999999999999858e+01,1.896031649448098530e-02
4.043999999999999773e+01,1.636305282752956516e-02
4.047999999999999687e+01,2.024567450109077127e-02
4.052000000000000313e+01,1.888239773388545803e-02
4.056000000000000227e+01,2.091327407135366509e-02
4.060000000000000142e+01,1.905597471259131911e-02
4.064000000000000057e+01,1.324878519980384958e-02
4.067999999999999972e+01,1.250204499346260247e-02
4.071999999999999886e+01,1.632203706823655981e-02
4.075999999999999801e+01,1.495784652301324763e-02
4.079999999999999716e+01,1.464265345552954317e-02
4.084000000000000341e+01,1.155014960517310695e-02
4.088000000000000256e+01,1.320952277229020533e-02
4.092000000000000171e+01,1.381959581610181162e-02
4.096000000000000085e+01,1.171407331367793105e-02
4.100000000000000000e+01,1.189184231265123966e-02
4.103999999999999915e+01,1.342718322015423217e-02
4.107999999999999829e+01,1.113606542046000590e-02
4.111999999999999744e+01,9.893946656190788155e-03
4.115999999999999659e+01,1.531686050003135298e-02
4.120000000000000284e+01,1.068013631778053432e-02
4.124000000000000199e+01,1.141243743045143935e-02
4.128000000000000114e+01,1.362574092492651982e-02
4.132000000000000028e+01,1.293830666804659558e-02
4.135999999999999943e+01,1.033756929460565716e-02
4.139999999999999858e+01,1.347614590996040751e-02
4.143999999999999773e+01,1.013453551279001365e-02
4.147999999999999687e+01,1.092765852870119375e-02
4.152000000000000313e+01,9.684049901883673775e-03
4.156000000000000227e+01,1.276031903508473113e-02
4.160000000000000142e+01,9.850119154645016473e-03
4.164000000000000057e+01,1.002550437354100821e-02
4.167999999999999972e+01,1.044760087124377290e-02
4.171999999999999886e+01,1.031411835989624361e-02
4.175999999999999801e+01,1.579652228473008707e-02
4.179999999999999716e+01,9.676424791502442890e-03
4.184000000000000341e+01,9.727645996424378813e-03
4.188000000000000256e+01,9.470147581159590877e-03
4.192000000000000171e+01,9.397646960460420348e-03
4.196000000000000085e+01,1.271930625930842509e-02
4.200000000000000000e+01,1.165907945675787906e-02
4.203999999999999915e+01,1.010498985534766421e-02
4.207999999999999829e+01,7.625035082251986965e-03
4.211999999999999744e+01,1.082268315023897191e-02
4.215999999999999659e+01,1.013216311571177482e-02
4.220000000000000284e+01,8.392349188620737421e-03
4.224000000000000199e+01,9.614693976515164414e-03
4.228000000000000114e+01,1.108375296387648611e-02
4.232000000000000028e+01,1.150351864280601058e-02
4.235999999999999943e+01,1.297228939319150509e-02
4.239999999999999858e+01,1.086146647185294925e-02
4.243999999999999773e+01,1.029336623143339326e-02
4.247999999999999687e+01,1.225542330672689702e-02
4.252000000000000313e+01,1.125503381948046548e-02
4.256000000000000227e+01,9.760784064613147945e-03
4.260000000000000142e+01,9.438969854476319740e-03
4.264000000000000057e+01,8.561581113634758253e-03
4.267999999999999972e+01,1.144864371216381023e-02
4.271999999999999886e+01,9.583535799055242776e-03
4.275999999999999801e+01,1.179145287726469579e-02
4.279999999999999716e+01,9.432343790773494580e-03
4.284000000000000341e+01,1.133140404253733108e-02
4.288000000000000256e+01,1.390918398196466094e-02
4.292000000000000171e+01,9.945069460656678559e-03
4.296000000000000085e+01,1.239913769941805750e-02
4.300000000000000000e+01,1.170561775465199690e-02
4.303999999999999915e+01,9.283946828689002354e-03
4.307999999999999829e+01,7.540996563942897052e-03
4.311999999999999744e+01,1.412938406577039611e-02
4.315999999999999659e+01,7.695839762079599404e-03
4.320000000000000284e+01,1.267936623964422034e-02
4.324000000000000199e+01,9.269560239002650609e-03
4.328000000000000114e+01,1.493166861383985432e-02
4.332000000000000028e+01,1.022557601972552167e-02
4.335999999999999943e+01,1.014794321013623955e-02
4.339999999999999858e+01,1.414333850723581767e-02
4.343999999999999773e+01,1.110312465479717375e-02
4.347999999999999687e+01,1.225936860347916386e-02
4.352000000000000313e+01,1.316861556761736093e-02
4.356000000000000227e+01,1.543544670705789511e-02
4.360000000000000142e+01,1.671470542131348741e-02
4.364000000000000057e+01,1.219264900968840618e-02
4.367999999999999972e+01,1.470592538797700459e-02
4.371999999999999886e+01,1.265218007991049734e-02
4.375999999999999801e+01,1.837434378124153805e-02
4.379999999999999716e+01,2.144264041330031997e-02
4.384000000000000341e+01,1.685818331787557536e-02
4.388000000000000256e+01,1.906220137589701574e-02
4.392000000000000171e+01,1.706948663614801451e-02
4.396000000000000085e+01,1.890294411901650984e-02
4.400000000000000000e+01,2.203227326649954965e-02
4.403999999999999915e+01,2.361860025806821264e-02
4.407999999999999829e+01,2.248934689083414637e-02
4.411999999999999744e+01,2.265596577234667633e-02
4.415999999999999659e+01,2.652532854501968643e-02
4.420000000000000284e+01,2.625967453540216032e-02
4.424000000000000199e+01,2.827732779874663621e-02
4.428000000000000114e+01,2.825826285439907160e-02
4.432000000000000028e+01,3.157165466502344364e-02
4.435999999999999943e+01,3.550205871510113409e-02
4.439999999999999858e+01,3.961747263180639272e-02
4.443999999999999773e+01,4.348589404231340688e-02
4.447999999999999687e+01,4.630503265876515645e-02
4.452000000000000313e+01,5.103719199612236773e-02
4.456000000000000227e+01,5.083204582101743391e-02
4.460000000000000142e+01,5.340392589131224416e-02
4.464000000000000057e+01,5.974026684180084451e-02
4.467999999999999972e+01,6.175644938901141828e-02
4.471999999999999886e+01,7.179540422869659655e-02
4.475999999999999801e+01,7.745248640201991830e-02
4.479999999999999716e+01,7.983855984878582279e-02
4.484000000000000341e+01,8.574223653927803834e-02
4.488000000000000256e+01,1.006561207411709458e-01
4.492000000000000171e+01,1.121755674956280285e-01
4.496000000000000085e+01,1.199920037348339297e-01
4.500000000000000000e+01,1.423729667950413835e-01
4.503999999999999915e+01,1.572863259266012448e-01
4.507999999999999829e+01,1.846041994309016998e-01
4.511999999999999744e+01,2.059356210561008871e-01
4.515999999999999659e+01,2.293652104750919796e-01
4.520000000000000284e+01,2.559421169751742720e-01
4.524000000000000199e+01,2.672136596520007235e-01
4.528000000000000114e+01,2.705238823484018562e-01
4.532000000000000028e+01,2.748831245248490873e-01
4.535999999999999943e+01,2.587529726517348028e-01
4.539999999999999858e+01,2.487324421535152263e-01
4.543999999999999773e+01,2.239619806781399936e-01
4.547999999999999687e+01,1.936370716435961148e-01
4.552000000000000313e+01,1.713349387957403269e-01
4.556000000000000227e+01,1.466258060559029464e-01
4.560000000000000142e+01,1.279645810120083327e-01
4.564000000000000057e+01,1.118952433184754319e-01
4.567999999999999972e+01,9.459148471469193409e-02
4.571999999999999886e+01,7.796645962302999056e-02
4.575999999999999801e+01,6.788306022619519653e-02
4.579999999999999716e+01,5.798467751086166383e-02
4.584000000000000341e+01,5.666450441244854502e-02
4.588000000000000256e+01,4.312470323141089773e-02
4.592000000000000171e+01,3.878025858176711166e-02
4.596000000000000085e+01,3.215224529225888667e-02
4.600000000000000000e+01,3.601559662617531687e-02
4.603999999999999915e+01,3.327535403428397154e-02
4.607999999999999829e+01,2.535095471891537361e-02
4.611999999999999744e+01,2.470875868083254046e-02
4.615999999999999659e+01,2.536244482174079828e-02
4.620000000000000284e+01,2.373256349104868254e-02
4.624000000000000199e+01,1.969568557845642262e-02
4.628000000000000114e+01,1.923813257168008328e-02
4.632000000000000028e+01,1.964445995520107402e-02
4.635999999999999943e+01,2.251924888886554579e-02
4.639999999999999858e+01,1.854358703909748593e-02
4.643999999999999773e+01,1.882611205154532952e-02
4.647999999999999687e+01,1.750393213292484804e-02
4.652000000000000313e+01,1.723077753567073267e-02
4.656000000000000227e+01,1.701921401441026938e-02
4.660000000000000142e+01,1.279607469851033567e-02
4.664000000000000057e+01,1.585514119113494783e-02
4.667999999999999972e+01,1.879065538636965141e-02
4.671999999999999886e+01,1.808488228612815246e-02
4.675999999999999801e+01,1.478697117770969190e-02
4.679999999999999716e+01,1.580896333640843462e-02
4.684000000000000341e+01,1.769483841664333187e-02
4.688000000000000256e+01,1.390284344757279460e-02
4.692000000000000171e+01,8.876433604282633894e-03
4.696000000000000085e+01,1.125566043221285645e-02
4.700000000000000000e+01,1.030217459016767589e-02
4.703999999999999915e+01,1.021257264321201626e-02
4.707999999999999829e+01,1.240629179367636753e-02
4.711999999999999744e+01,6.515270615396207173e-03
4.715999999999999659e+01,9.572753394520050127e-03
4.720000000000000284e+01,1.133410800989379484e-02
4.724000000000000199e+01,6.491874540780063867e-03
4.728000000000000114e+01,7.697556945457527736e-03
4.732000000000000028e+01,7.051679897970028130e-03
4.735999999999999943e+01,1.017027697100230353e-02
4.739999999999999858e+01,8.845299576072176984e-03
4.743999999999999773e+01,4.064182347973635534e-03
4.747999999999999687e+01,8.725287855006230719e-03
4.752000000000000313e+01,8.634246215682365999e-03
4.756000000000000227e+01,6.074499767405505159e-03
4.760000000000000142e+01,7.711231175448959863e-03
4.764000000000000057e+01,7.681548646528485978e-03
4.767999999999999972e+01,7.219745425458948956e-03
4.771999999999999886e+01,8.424119892128177634e-03
4.775999999999999801e+01,5.555209558262312435e-03
4.779999999999999716e+01,7.870212494353523089e-03
4.784000000000000341e+01,2.841054436554881629e-03
4.788000000000000256e+01,7.562694323520178542e-03
4.792000000000000171e+01,5.865893393595130942e-03
4.796000000000000085e+01,5.341554099631202687e-03
4.800000000000000000e+01,4.940527543750538632e-03
4.803999999999999915e+01,7.501687935903444092e-03
4.807999999999999829e+01,4.384984120071215748e-03
4.811999999999999744e+01,6.081907216850216714e-03
4.815999999999999659e+01,2.656398367612331120e-03
4.820000000000000284e+01,7.253678750677908238e-03
4.824000000000000199e+01,7.098815492179237976e-03
4.828000000000000114e+01,2.808955311879067409e-03
4.832000000000000028e+01,4.813874677868529642e-03
4.835999999999999943e+01,5.275812916696654732e-03
4.839999999999999858e+01,6.725070975787740199e-03
4.843999999999999773e+01,2.928469146826262470e-03
4.847999999999999687e+01,5.488362295502313692e-03
4.852000000000000313e+01,6.011557875818075887e-03
4.856000000000000227e+01,5.794063785093624998e-03
4.860000000000000142e+01,5.823314658122972359e-03
4.864000000000000057e+01,4.001012504439697449e-03
4.867999999999999972e+01,2.116882441405518525e-03
4.871999999999999886e+01,4.244091729074990667e-03
4.875999999999999801e+01,8.469486334497268454e-03
4.879999999999999716e+01,3.190711781403598232e-03
4.884000000000000341e+01,7.045593321078006364e-03
4.888000000000000256e+01,6.024905029548545572e-03
4.892000000000000171e+01,5.250963259458323734e-03
4.896000000000000085e+01,5.958061255622198495e-03
4.900000000000000000e+01,6.541618247615379501e-03
4.903999999999999915e+01,2.496464797268264316e-03
4.907999999999999829e+01,4.746094592713617083e-03
4.911999999999999744e+01,6.748754663109906432e-03
4.915999999999999659e+01,6.467861670495887207e-03
4.920000000000000284e+01,3.903415809582222364e-03
4.924000000000000199e+01,4.918309263074543101e-03
4.928000000000000114e+01,8.710251743115744738e-03
4.932000000000000028e+01,3.800318078447547949e-03
4.935999999999999943e+01,4.259449234968423412e-03
4.939999999999999858e+01,3.731036199352433507e-03
4.943999999999999773e+01,5.362526444075994998e-03
4.947999999999999687e+01,3.969889353412108489e-03
4.952000000000000313e+01,3.009145662363245811e-03
4.956000000000000227e+01,7.849470333593306509e-03
4.960000000000000142e+01,5.160498620687663067e-03
4.964000000000000057e+01,6.112582821799968438e-03
4.967999999999999972e+01,6.077124193750144988e-03
4.971999999999999886e+01,7.399279726446860925e-03
4.975999999999999801e+01,1.038762287712684078e-02
4.979999999999999716e+01,4.612377567120300344e-03
4.984000000000000341e+01,6.242782947502885718e-03
4.988000000000000256e+01,4.663918982089180348e-03
4.992000000000000171e+01,3.825523625923293175e-03
4.996000000000000085e+01,4.776746166304480720e-03
5.000000000000000000e+01,4.061566257651644772e-03
5.003999999999999915e+01,6.061724422545376398e-03
5.007999999999999829e+01,6.025192612795192589e-03
5.011999999999999744e+01,5.001120115700336856e-03
5.015999999999999659e+01,6.013525098726756404e-03
5.020000000000000284e+01,5.853245826314234894e-03
5.024000000000000199e+01,2.421984307996316674e-03
5.028000000000000114e+01,3.002069734098416175e-03
5.032000000000000028e+01,6.235779944216602796e-03
5.035999999999999943e+01,3.668207739847814675e-03
5.039999999999999858e+01,3.445687446390417914e-03
5.043999999999999773e+01,6.740797656154081351e-03
5.047999999999999687e+01,5.222060475646156733e-03
5.052000000000000313e+01,7.406098145296267053e-03
5.056000000000000227e+01,4.961432771611771868e-03
5.060000000000000142e+01,4.614961672371204610e-03
5.064000000000000057e+01,4.638674772139383430e-03
5.067999999999999972e+01,6.945726493288471859e-03
5.071999999999999886e+01,4.932649212471731069e-03
5.075999999999999801e+01,8.165214262707314735e-03
5.079999999999999716e+01,7.756511877955702718e-03
5.084000000000000341e+01,6.175128353135988547e-03
5.088000000000000256e+01,7.123943033271399293e-03
5.092000000000000171e+01,2.826909897416196322e-03
5.096000000000000085e+01,6.120676861364700294e-03
5.100000000000000000e+01,4.970886881311664153e-03
5.103999999999999915e+01,6.227866580046047089e-03
5.107999999999999829e+01,3.905294859273199162e-03
5.111999999999999744e+01,5.964362086875837216e-03
5.115999999999999659e+01,6.850749732095771753e-03
5.120000000000000284e+01,6.749601947159294610e-03
5.124000000000000199e+01,5.414060316756251490e-03
5.128000000000000114e+01,5.559569745826554478e-03
5.132000000000000028e+01,5.951837378976678784e-03
5.135999999999999943e+01,3.381701480646399395e-03
5.139999999999999858e+01,4.329200758593397362e-03
5.143999999999999773e+01,6.140605349804344713e-03
5.147999999999999687e+01,4.125601858594001026e-03
5.152000000000000313e+01,4.764228992720015259e-03
5.156000000000000227e+01,5.217612931653448777e-03
5.160000000000000142e+01,5.670897827620619870e-03
5.164000000000000057e+01,7.049803662910312033e-03
5.167999999999999972e+01,4.293729126806021014e-03
5.171999999999999886e+01,4.808432714643615623e-03
5.175999999999999801e+01,7.668194833555585371e-03
5.179999999999999716e+01,4.603252242554532400e-03
5.184000000000000341e+01,6.537098629773255114e-03
5.188000000000000256e+01,3.410245831573223592e-03
5.192000000000000171e+01,6.146187536087244045e-03
5.196000000000000085e+01,6.739831668381729033e-04
5.200000000000000000e+01,4.890882145047532187e-03
5.203999999999999915e+01,7.688247214488221071e-03
5.207999999999999829e+01,5.980345944610434769e-03
5.211999999999999744e+01,5.568355865614579674e-03
5.215999999999999659e+01,6.637421129726936778e-03
5.220000000000000284e+01,7.150958398986271766e-03
5.224000000000000199e+01,6.121533428019920037e-03
5.228000000000000114e+01,6.881737646819872586e-03
5.232000000000000028e+01,7.826990284961343400e-03
5.235999999999999943e+01,3.896690031727823023e-03
5.239999999999999858e+01,5.212040092684382987e-03
5.243999999999999773e+01,2.886130701791492746e-03
5.247999999999999687e+01,4.941866879437092214e-03
5.252000000000000313e+01,5.392927527326531016e-03
5.256000000000000227e+01,5.103317975243402103e-03
5.260000000000000142e+01,6.418195213096353734e-03
5.264000000000000057e+01,5.264392370252251284e-03
5.267999999999999972e+01,9.479670509583364157e-03
5.271999999999999886e+01,7.029672587284490834e-03
5.275999999999999801e+01,5.752159666227936279e-03
5.279999999999999716e+01,5.153414721082738917e-03
5.284000000000000341e+01,4.739720726517835693e-03
5.288000000000000256e+01,3.400214132150155763e-03
5.292000000000000171e+01,4.714344977992561588e-03
5.296000000000000085e+01,8.805542763766101982e-03
5.300000000000000000e+01,5.799463283347937488e-03
5.303999999999999915e+01,4.521302039693729687e-03
5.307999999999999829e+01,5.094488532524560354e-03
5.311999999999999744e+01,6.284729906446896025e-03
5.315999999999999659e+01,5.746869560973505431e-03
5.320000000000000284e+01,4.530056783403560959e-03
5.324000000000000199e+01,4.362302038593647568e-03
5.328000000000000114e+01,5.058461563738820589e-03
5.332000000000000028e+01,5.445957155950755316e-03
5.335999999999999943e+01,5.463074357434913320e-03
5.339999999999999858e+01,7.825258073131200615e-03
5.343999999999999773e+01,5.126750197125148900e-03
5.347999999999999687e+01,5.760743664835928958e-03
5.352000000000000313e+01,2.012907107823016552e-03
5.356000000000000227e+01,7.398749619438020446e-03
5.360000000000000142e+01,7.353613403162113232e-03
5.364000000000000057e+01,5.456948499008144361e-03
5.367999999999999972e+01,6.584212649598341141e-03
5.371999999999999886e+01,3.761650316554717832e-03
5.375999999999999801e+01,7.912755188010038576e-03
5.379999999999999716e+01,5.028301339992382983e-03
5.384000000000000341e+01,8.253509950822095556e-03
5.388000000000000256e+01,8.578041949449239506e-03
5.392000000000000171e+01,6.433900098120960351e-03
5.396000000000000085e+01,5.709107699376142660e-03
5.400000000000000000e+01,8.131675218071322819e-03
5.403999999999999915e+01,6.727847115828502512e-03
5.407999999999999829e+01,4.830214822639663196e-03
5.411999999999999744e+01,8.054811911189599730e-03
5.415999999999999659e+01,5.848432997798081769e-03
5.420000000000000284e+01,7.406561500452057273e-03
5.424000000000000199e+01,6.249159100815196259e-03
5.428000000000000114e+01,8.794549854139950204e-03
5.432000000000000028e+01,6.032394689376405737e-03
5.435999999999999943e+01,7.281606329521904918e-03
5.439999999999999858e+01,5.938717151229660346e-03
5.443999999999999773e+01,9.532914954845947073e-03
5.447999999999999687e+01,5.659554781534311893e-03
5.452000000000000313e+01,4.378125184354595897e-03
5.456000000000000227e+01,7.478351280668539026e-03
5.460000000000000142e+01,6.073323304436645427e-03
5.464000000000000057e+01,6.643079963416610896e-03
5.467999999999999972e+01,8.138472359730530847e-03
5.471999999999999886e+01,9.572066248005741546e-03
5.475999999999999801e+01,7.179268020135136548e-03
5.479999999999999716e+01,6.637825901308649218e-03
5.484000000000000341e+01,8.750030568804696707e-03
5.488000000000000256e+01,7.899848839359895070e-03
5.492000000000000171e+01,6.432437702882864809e-03
5.496000000000000085e+01,5.335231794167644148e-03
5.500000000000000000e+01,1.034769399090941337e-02
5.503999999999999915e+01,6.473163929052914989e-03
5.507999999999999829e+01,6.795148134413234869e-03
5.511999999999999744e+01,7.363909041367659378e-03
5.515999999999999659e+01,7.006868447027886360e-03
5.520000000000000284e+01,7.390322163745234769e-03
5.524000000000000199e+01,6.539401506063676449e-03
5.528000000000000114e+01,6.614119506376242921e-03
5.532000000000000028e+01,7.305903096867534703e-03
5.535999999999999943e+01,6.269595677050278024e-03
5.539999999999999858e+01,6.961217981926889203e-03
5.543999999999999773e+01,5.245888488359004911e-03
5.547999999999999687e+01,8.652794996692863769e-03
5.552000000000000313e+01,9.714464748508778308e-03
5.556000000000000227e+01,8.492612591022651036e-03
5.560000000000000142e+01,8.998691131783769295e-03
5.564000000000000057e+01,7.406392110179801404e-03
5.567999999999999972e+01,7.727168133760094551e-03
5.571999999999999886e+01,6.443284204438321817e-03
5.575999999999999801e+01,7.566192929763819984e-03
5.579999999999999716e+01,6.652439524072148967e-03
5.584000000000000341e+01,7.960335204933494460e-03
5.588000000000000256e+01,7.046425186683375613e-03
5.592000000000000171e+01,7.058156941798206588e-03
5.596000000000000085e+01,7.378384139936566659e-03
5.600000000000000000e+01,8.500824195850784082e-03
5.603999999999999915e+01,6.907742111454591785e-03
5.607999999999999829e+01,7.721454239391097214e-03
5.611999999999999744e+01,7.917942801615672141e-03
5.615999999999999659e+01,8.176069170396298852e-03
5.620000000000000284e+01,1.114956359816770930e-02
5.624000000000000199e+01,1.066696102911954963e-02
5.628000000000000114e+01,6.481403047941696784e-03
5.632000000000000028e+01,1.031867382533467083e-02
5.635999999999999943e+01,7.120398344737976018e-03
5.639999999999999858e+01,7.748355641779183789e-03
5.643999999999999773e+01,8.314522803340775384e-03
5.647999999999999687e+01,1.110234216682619290e-02
5.652000000000000313e+01,8.027194448763609255e-03
5.656000000000000227e+01,8.099419109624339183e-03
5.660000000000000142e+01,8.665286286395061655e-03
5.664000000000000057e+01,8.675647081197850399e-03
5.667999999999999972e+01,6.772779333628796070e-03
5.671999999999999886e+01,7.523567523784070038e-03
5.675999999999999801e+01,7.101703391051384859e-03
5.679999999999999716e+01,8.654634407907067090e-03
5.684000000000000341e+01,6.751471348603360796e-03
5.688000000000000256e+01,9.353404581023017084e-03
5.692000000000000171e+01,1.109125953192342112e-02
5.696000000000000085e+01,9.249591685786047457e-03
5.700000000000000000e+01,9.938151835337340201e-03
5.703999999999999915e+01,1.068835407507958378e-02
5.707999999999999829e+01,9.340185762041092535e-03
5.711999999999999744e+01,4.042207515776286182e-03
5.715999999999999659e+01,8.433357734647177126e-03
5.720000000000000284e+01,9.430130282259965510e-03
5.724000000000000199e+01,9.686255411049355529e-03
5.728000000000000114e+01,8.522872138168742853e-03
5.732000000000000028e+01,8.408566758537138613e-03
5.735999999999999943e+01,1.002220064442257107e-02
5.739999999999999858e+01,1.175919302540025246e-02
5.743999999999999773e+01,7.571508150670298518e-03
5.747999999999999687e+01,9.184930190933233637e-03
5.752000000000000313e+01,1.055142339538920303e-02
5.756000000000000227e+01,1.173270261125406062e-02
5.760000000000000142e+01,8.717315620399868417e-03
5.764000000000000057e+01,7.244725300521811899e-03
5.767999999999999972e+01,8.364080938919132846e-03
5.771999999999999886e+01,7.878786359948222739e-03
5.775999999999999801e+01,8.812859731075064346e-03
5.779999999999999716e+01,8.882859104317566631e-03
5.784000000000000341e+01,1.148309056217292241e-02
5.788000000000000256e+01,1.007180113379959469e-02
5.792000000000000171e+01,9.030731341778171911e-03
5.796000000000000085e+01,1.119875539605892818e-02
5.800000000000000000e+01,9.602117758263866917e-03
5.803999999999999915e+01,1.041228387362463752e-02
5.807999999999999829e+01,1.004980409154977543e-02
5.811999999999999744e+01,8.638107911760345078e-03
5.815999999999999659e+01,9.756645374269179438e-03
5.820000000000000284e+01,1.025796939602130128e-02
5.824000000000000199e+01,7.179776851477274666e-03
5.828000000000000114e+01,8.606687413530263869e-03
5.832000000000000028e+01,9.231241161442933080e-03
5.835999999999999943e+01,1.084316321257701443e-02
5.839999999999999858e+01,9.122428086278508777e-03
5.843999999999999773e+01,6.661051382476913287e-03
5.847999999999999687e+01,1.135850881654974429e-02
5.852000000000000313e+01,1.056329681963966149e-02
5.856000000000000227e+01,1.168117388708254760e-02
5.860000000000000142e+01,8.664104268078521784e-03
5.864000000000000057e+01,9.102990415479014080e-03
5.867999999999999972e+01,1.330640578652077764e-02
5.871999999999999886e+01,7.697127024768376374e-03
5.875999999999999801e+01,9.246683763865099978e-03
5.879999999999999716e+01,1.166018164299028811e-02
5.884000000000000341e+01,9.445016783890924916e-03
5.888000000000000256e+01,8.587510674283054327e-03
5.892000000000000171e+01,1.161796426159090144e-02
5.896000000000000085e+01,9.772897084785415675e-03
5.900000000000000000e+01,1.138378742678057033e-02
5.903999999999999915e+01,9.908882316734797177e-03
5.907999999999999829e+01,8.742487837145311580e-03
5.911999999999999744e+01,9.921187715394737955e-03
5.915999999999999659e+01,9.742102995881135249e-03
5.920000000000000284e+01,9.748100185945428320e-03
5.924000000000000199e+01,1.080318461537125435e-02
5.928000000000000114e+01,1.093248759870253661e-02
5.932000000000000028e+01,9.086860238061430367e-03
5.935999999999999943e+01,1.014176027607015251e-02
5.939999999999999858e+01,9.406874317043472170e-03
5.943999999999999773e+01,1.163423079859315923e-02
5.947999999999999687e+01,1.040550605488812543e-02
5.952000000000000313e+01,9.053291515920377369e-03
5.956000000000000227e+01,9.429026951556836872e-03
5.960000000000000142e+01,1.282872025911762325e-02
5.964000000000000057e+01,1.147632541765698788e-02
5.967999999999999972e+01,1.172845182992218738e-02
5.971999999999999886e+01,1.099308428540509211e-02
5.975999999999999801e+01,9.887369503868502496e-03
5.979999999999999716e+01,9.275312815096017557e-03
5.984000000000000341e+01,1.057635142141811861e-02
5.988000000000000256e+01,1.193904594238922277e-02
5.992000000000000171e+01,8.549653677313640010e-03
5.996000000000000085e+01,1.120823900931369917e-02
