2.003999999999999915e+01,5.499253182625872538e-02
2.007999999999999829e+01,4.458825819170771088e-02
2.012000000000000099e+01,3.753193059325984904e-02
2.016000000000000014e+01,4.721877783410782098e-02
2.019999999999999929e+01,3.346311554791483317e-02
2.023999999999999844e+01,3.836423316439536296e-02
2.028000000000000114e+01,3.273966955738392276e-02
2.032000000000000028e+01,1.037021210193819591e-02
2.035999999999999943e+01,3.799280226554248296e-02
2.039999999999999858e+01,2.375444655411091538e-02
2.044000000000000128e+01,3.032567784636960861e-02
2.048000000000000043e+01,3.306884461535368469e-02
2.051999999999999957e+01,4.035596505460611189e-02
2.055999999999999872e+01,3.616060582512051202e-02
2.060000000000000142e+01,4.823002604334680754e-02
2.064000000000000057e+01,2.417931557667550579e-02
2.067999999999999972e+01,1.543658355844271420e-02
2.071999999999999886e+01,3.444025677094938315e-02
2.076000000000000156e+01,5.894468873944152393e-02
2.080000000000000071e+01,4.589378903493162437e-02
2.083999999999999986e+01,6.513410569277799933e-02
2.087999999999999901e+01,2.983585582853708409e-02
2.092000000000000171e+01,4.716086629205468866e-02
2.096000000000000085e+01,4.152177794427736046e-02
2.100000000000000000e+01,3.492503777634925477e-02
2.103999999999999915e+01,3.382905994004465483e-02
2.107999999999999829e+01,2.914422574776836736e-02
2.112000000000000099e+01,4.407298471677000701e-02
2.116000000000000014e+01,2.646962721966102799e-02
2.119999999999999929e+01,4.570230028135820188e-02
2.123999999999999844e+01,4.316688063350380272e-02
2.128000000000000114e+01,5.211223901263252467e-02
2.132000000000000028e+01,4.933592692310610067e-02
2.135999999999999943e+01,3.483794487572960952e-02
2.139999999999999858e+01,5.837199846729160951e-02
2.144000000000000128e+01,1.899547500530534422e-02
2.148000000000000043e+01,3.750463013721751920e-02
2.151999999999999957e+01,5.529534059467094281e-02
2.155999999999999872e+01,3.792273413663658360e-02
2.160000000000000142e+01,7.652220376314851358e-02
2.164000000000000057e+01,6.512792617207724399e-02
2.167999999999999972e+01,6.425762969515957934e-02
2.171999999999999886e+01,5.238326937330423788e-02
2.176000000000000156e+01,6.060091139605598004e-02
2.180000000000000071e+01,5.494408453282841748e-02
2.183999999999999986e+01,6.603045396272400058e-02
2.187999999999999901e+01,4.865112470976558356e-02
2.192000000000000171e+01,3.198855892172944304e-02
2.196000000000000085e+01,4.594282026205512293e-02
2.200000000000000000e+01,4.004260263990171848e-02
2.203999999999999915e+01,3.964316011950835827e-02
2.207999999999999829e+01,2.800045784620553910e-02
2.212000000000000099e+01,1.109450896132544405e-02
2.216000000000000014e+01,2.576219177971878285e-02
2.219999999999999929e+01,6.147868458246355527e-02
2.223999999999999844e+01,4.911504187147559819e-02
2.228000000000000114e+01,2.383373842505808610e-02
2.232000000000000028e+01,2.558125912593531628e-02
2.235999999999999943e+01,2.924155143670022911e-02
2.239999999999999858e+01,1.448257292436709934e-02
2.244000000000000128e+01,3.703804181625127562e-02
2.248000000000000043e+01,7.011750203839804685e-02
2.251999999999999957e+01,4.507040910316534310e-02
2.255999999999999872e+01,2.528489740494250029e-02
2.260000000000000142e+01,4.735864475335928997e-02
2.264000000000000057e+01,6.321235010978548674e-02
2.267999999999999972e+01,4.581635689504523490e-02
2.271999999999999886e+01,3.392114746575814604e-02
2.276000000000000156e+01,1.987230616565486760e-02
2.280000000000000071e+01,3.452669867905965029e-02
2.283999999999999986e+01,2.310740982115203068e-02
2.287999999999999901e+01,2.597675973433682863e-03
2.292000000000000171e+01,2.538240829012509622e-02
2.296000000000000085e+01,1.946225521048870408e-02
2.300000000000000000e+01,2.741490717468094557e-02
2.303999999999999915e+01,3.943314397944350236e-02
2.307999999999999829e+01,2.800890803515810115e-02
2.312000000000000099e+01,3.906869685507646794e-02
2.316000000000000014e+01,3.266602657808489324e-02
2.319999999999999929e+01,2.698013611179017265e-02
2.323999999999999844e+01,2.942624162885118869e-02
2.328000000000000114e+01,1.058268149788141668e-02
2.332000000000000028e+01,3.527279314459690063e-02
2.335999999999999943e+01,3.436763107091314606e-02
2.339999999999999858e+01,3.202644681496416568e-02
2.344000000000000128e+01,1.772441865782807199e-02
2.348000000000000043e+01,3.188643249267145846e-02
2.351999999999999957e+01,2.308438020776936925e-02
2.355999999999999872e+01,2.887274163363552984e-02
2.360000000000000142e+01,1.313224099269360776e-02
2.364000000000000057e+01,3.279259903836396345e-02
2.367999999999999972e+01,2.207367734565759271e-02
2.371999999999999886e+01,3.025078050092066054e-02
2.376000000000000156e+01,2.646704384144014238e-02
2.380000000000000071e+01,1.837688404509607923e-02
2.383999999999999986e+01,5.142839761469757132e-02
2.387999999999999901e+01,3.831340065535852879e-02
2.392000000000000171e+01,2.376238815422511766e-02
2.396000000000000085e+01,2.715060154500969006e-02
2.400000000000000000e+01,2.838519889994745721e-02
2.403999999999999915e+01,1.885496254188542831e-02
2.407999999999999829e+01,3.109116169169474919e-02
2.412000000000000099e+01,3.758573875975767392e-02
2.416000000000000014e+01,2.542186697494165648e-02
2.419999999999999929e+01,2.521721151634956359e-02
2.423999999999999844e+01,2.118453955019597434e-02
2.428000000000000114e+01,1.547665613427612330e-02
2.432000000000000028e+01,3.057840927017606292e-02
2.435999999999999943e+01,5.254470132106872984e-03
2.439999999999999858e+01,9.112186250206048138e-03
2.444000000000000128e+01,2.205871569670880480e-02
2.448000000000000043e+01,3.356923675269378460e-02
2.451999999999999957e+01,2.474691001650142913e-02
2.455999999999999872e+01,3.290701481342443724e-02
2.460000000000000142e+01,3.723910770003530796e-02
2.464000000000000057e+01,3.822159019758132603e-02
2.467999999999999972e+01,1.815362543050879837e-02
2.471999999999999886e+01,1.913450282853176518e-02
2.476000000000000156e+01,1.269936278114830626e-02
2.480000000000000071e+01,9.612228534111734446e-03
2.483999999999999986e+01,3.762035920387216820e-02
2.487999999999999901e+01,3.644522798552487369e-02
2.492000000000000171e+01,3.718290106861471545e-02
2.496000000000000085e+01,3.337496532297801188e-02
2.500000000000000000e+01,2.956623085862088510e-02
2.503999999999999915e+01,4.465353809881315861e-02
2.507999999999999829e+01,3.247119004669372228e-02
2.512000000000000099e+01,3.033446602755494881e-02
2.516000000000000014e+01,3.537296048954958333e-02
2.519999999999999929e+01,2.390582392659704875e-02
2.523999999999999844e+01,4.209875435716947667e-02
2.528000000000000114e+01,4.019804720608953497e-02
2.532000000000000028e+01,3.423013683397450185e-02
2.535999999999999943e+01,2.969663537171446724e-02
2.539999999999999858e+01,1.607272110038765467e-02
2.544000000000000128e+01,2.899926980873932317e-02
2.548000000000000043e+01,1.441696782761257845e-02
2.551999999999999957e+01,1.992671620680624631e-02
2.555999999999999872e+01,4.170130737358868078e-02
2.560000000000000142e+01,4.529586908693096492e-02
2.564000000000000057e+01,1.611917103915310942e-02
2.567999999999999972e+01,2.401776126561376568e-02
2.571999999999999886e+01,2.593554933732509019e-02
2.576000000000000156e+01,4.579258628720003776e-02
2.580000000000000071e+01,3.694477410793488292e-02
2.583999999999999986e+01,3.120578050473782686e-02
2.587999999999999901e+01,3.335961609283562279e-02
2.592000000000000171e+01,8.483007620757147815e-03
2.596000000000000085e+01,5.321295970862126995e-02
2.600000000000000000e+01,1.852755811450515488e-02
2.603999999999999915e+01,2.689746202240348230e-02
2.607999999999999829e+01,1.900094664829581059e-02
2.612000000000000099e+01,2.019326605642105324e-02
2.616000000000000014e+01,1.157758084511997278e-02
2.619999999999999929e+01,3.262197488667499534e-02
2.623999999999999844e+01,2.065591632397082572e-02
2.628000000000000114e+01,1.969229862849007640e-02
2.632000000000000028e+01,1.968470109175327054e-02
2.635999999999999943e+01,2.111152523500768943e-02
2.639999999999999858e+01,2.660397712649097829e-02
2.644000000000000128e+01,9.132400187027180788e-03
2.648000000000000043e+01,3.352013184233255255e-02
2.651999999999999957e+01,2.609341699512219420e-02
2.655999999999999872e+01,3.564915922130006826e-02
2.660000000000000142e+01,2.869928830072187090e-02
2.664000000000000057e+01,2.270544162533125881e-02
2.667999999999999972e+01,1.982042425292315085e-02
2.671999999999999886e+01,2.889465538748281492e-02
2.676000000000000156e+01,1.907127036629744504e-02
2.680000000000000071e+01,3.029675407209156401e-02
2.683999999999999986e+01,3.051823931604671220e-02
2.687999999999999901e+01,4.126377207886528647e-02
2.692000000000000171e+01,1.995566294200142726e-02
2.696000000000000085e+01,2.065322659622316481e-02
2.700000000000000000e+01,2.158921757721839543e-02
2.703999999999999915e+01,1.463081921827611397e-02
2.707999999999999829e+01,1.173805729125517762e-02
2.712000000000000099e+01,8.605323212982114375e-03
2.716000000000000014e+01,2.412945740672680500e-02
2.719999999999999929e+01,1.788557500093360120e-02
2.723999999999999844e+01,1.929533864859968306e-02
2.728000000000000114e+01,2.931555088141515886e-02
2.732000000000000028e+01,2.283015916197265321e-02
2.735999999999999943e+01,1.203838976735227724e-02
2.739999999999999858e+01,3.425552202284694314e-02
2.744000000000000128e+01,8.392585169318329472e-03
2.748000000000000043e+01,2.558497220680086559e-02
2.751999999999999957e+01,3.296937199224250770e-02
2.755999999999999872e+01,2.839298048945939831e-02
2.760000000000000142e+01,3.099183862694273803e-02
2.764000000000000057e+01,2.234750801347538257e-02
2.767999999999999972e+01,1.992162604100119680e-02
2.771999999999999886e+01,1.151496745405087251e-02
2.776000000000000156e+01,3.324680905181165436e-02
2.780000000000000071e+01,8.812190179566994214e-03
2.783999999999999986e+01,4.230450789138321711e-03
2.787999999999999901e+01,1.710958633912052634e-02
2.792000000000000171e+01,3.835997814191804967e-02
2.796000000000000085e+01,2.779594183119644957e-02
2.800000000000000000e+01,2.488556127923804984e-02
2.803999999999999915e+01,1.288480163137307490e-02
2.807999999999999829e+01,2.743453867634705959e-02
2.812000000000000099e+01,1.304025571367639809e-02
2.816000000000000014e+01,2.447886894979231162e-02
2.819999999999999929e+01,1.391027785128561359e-02
2.823999999999999844e+01,6.928936987616590194e-03
2.828000000000000114e+01,2.745489739169808957e-02
2.832000000000000028e+01,2.477765246746801292e-02
2.835999999999999943e+01,1.851164415385990816e-02
2.839999999999999858e+01,1.057047700344759811e-02
2.844000000000000128e+01,4.137903690939800927e-02
2.848000000000000043e+01,2.171553593505646390e-02
2.851999999999999957e+01,3.314734687161417781e-02
2.855999999999999872e+01,8.219927757534205640e-03
2.860000000000000142e+01,2.419504229002828952e-02
2.864000000000000057e+01,1.959816113808636809e-02
2.867999999999999972e+01,1.643573129285244919e-02
2.871999999999999886e+01,2.618937751574367326e-02
2.876000000000000156e+01,2.374304726935281412e-02
2.880000000000000071e+01,2.990718501871849830e-02
2.883999999999999986e+01,1.717373317422298332e-02
2.887999999999999901e+01,7.070737716568189883e-03
2.892000000000000171e+01,1.801663805858222389e-02
2.896000000000000085e+01,1.150015337047780896e-02
2.900000000000000000e+01,1.813894883135771727e-02
2.903999999999999915e+01,1.042496685160410573e-02
2.907999999999999829e+01,4.145441286613156529e-03
2.912000000000000099e+01,1.389160346567571216e-02
2.916000000000000014e+01,2.148421550279577819e-02
2.919999999999999929e+01,4.199229912777018535e-03
2.923999999999999844e+01,1.824876593337676142e-02
2.928000000000000114e+01,1.531432202074399854e-02
2.932000000000000028e+01,2.290395678610732816e-02
2.935999999999999943e+01,3.288485356275584748e-02
2.939999999999999858e+01,1.344334566709251728e-02
2.944000000000000128e+01,1.720354475855840129e-02
2.948000000000000043e+01,2.766061648770519465e-02
2.951999999999999957e+01,3.046253105207406831e-02
2.955999999999999872e+01,2.800129401468104060e-02
2.960000000000000142e+01,2.530011649597416201e-02
2.964000000000000057e+01,3.742863083568642724e-02
2.967999999999999972e+01,3.520437590765256725e-02
2.971999999999999886e+01,3.082657798895258733e-02
2.976000000000000156e+01,4.127847346108817067e-02
2.980000000000000071e+01,4.574961888063144855e-02
2.983999999999999986e+01,5.978804759775749322e-02
2.987999999999999901e+01,3.531445857383651299e-02
2.992000000000000171e+01,4.384980338077425904e-02
2.996000000000000085e+01,4.018518704259373131e-02
3.000000000000000000e+01,6.307109191591402098e-02
3.003999999999999915e+01,7.399623717094801212e-02
3.007999999999999829e+01,5.167177835382562312e-02
3.012000000000000099e+01,7.120667461476909432e-02
3.016000000000000014e+01,7.878081278984257196e-02
3.019999999999999929e+01,5.908536105570299374e-02
3.023999999999999844e+01,8.890368209911979347e-02
3.028000000000000114e+01,1.005420334533352056e-01
3.032000000000000028e+01,9.782762371269181079e-02
3.035999999999999943e+01,1.197501357390297477e-01
3.039999999999999858e+01,1.376055094166258874e-01
3.044000000000000128e+01,1.205368800827673337e-01
3.048000000000000043e+01,1.448492094137815434e-01
3.051999999999999957e+01,1.562439832352906233e-01
3.055999999999999872e+01,1.547212020581001379e-01
3.060000000000000142e+01,1.783137467231658835e-01
3.064000000000000057e+01,1.854007298328268216e-01
3.067999999999999972e+01,1.819621645284151268e-01
3.071999999999999886e+01,1.653668457633045152e-01
3.076000000000000156e+01,1.676676417479242287e-01
3.080000000000000071e+01,1.797749337946789316e-01
3.083999999999999986e+01,1.531310198544963419e-01
3.087999999999999901e+01,1.530376383635346782e-01
3.092000000000000171e+01,1.438539145546596509e-01
3.096000000000000085e+01,1.119454201410755578e-01
3.100000000000000000e+01,1.266803021476989033e-01
3.103999999999999915e+01,1.074479908258336447e-01
3.107999999999999829e+01,1.032845902566051910e-01
3.112000000000000099e+01,8.763884487127991674e-02
3.116000000000000014e+01,8.156039964011765897e-02
3.119999999999999929e+01,5.778039747872171228e-02
3.123999999999999844e+01,6.677014549954363165e-02
3.128000000000000114e+01,6.858315984146991229e-02
3.132000000000000028e+01,5.987063394221104479e-02
3.135999999999999943e+01,5.331019508928913631e-02
3.139999999999999858e+01,3.431061297502437102e-02
3.144000000000000128e+01,4.401437500824664090e-02
3.148000000000000043e+01,3.482058116076802712e-02
3.151999999999999957e+01,3.423729004381723118e-02
3.155999999999999872e+01,4.417810620996839854e-02
3.160000000000000142e+01,3.426456600695064469e-02
3.164000000000000057e+01,2.195830682670785530e-02
3.167999999999999972e+01,2.017615646198333418e-02
3.171999999999999886e+01,1.289168157377071876e-02
3.176000000000000156e+01,3.957296603435237620e-02
3.180000000000000071e+01,2.511105171511708589e-02
3.183999999999999986e+01,3.193727098957006849e-02
3.187999999999999901e+01,3.971958142472580694e-02
3.192000000000000171e+01,2.334193048317712710e-02
3.196000000000000085e+01,3.040521921472276456e-02
3.200000000000000000e+01,2.598617436789176297e-02
3.203999999999999915e+01,1.080239796915271125e-02
3.207999999999999829e+01,4.468331957439055854e-03
3.211999999999999744e+01,2.492401473513659871e-02
3.215999999999999659e+01,1.571812758087777137e-02
3.220000000000000284e+01,3.330199023764110478e-02
3.224000000000000199e+01,2.313788802582761317e-02
3.228000000000000114e+01,2.493310532294070597e-02
3.232000000000000028e+01,3.199002849359591782e-02
3.235999999999999943e+01,2.349821409436522734e-02
3.239999999999999858e+01,1.452729446498172289e-02
3.243999999999999773e+01,2.995412265924249709e-02
3.247999999999999687e+01,2.624420723771772601e-02
3.252000000000000313e+01,2.779600024376229633e-02
3.256000000000000227e+01,2.958629157853907149e-02
3.260000000000000142e+01,1.534944739782073860e-02
3.264000000000000057e+01,2.547105093550958675e-03
3.267999999999999972e+01,2.155772933961129859e-02
3.271999999999999886e+01,1.927880848772930630e-02
3.275999999999999801e+01,1.771678952904898879e-02
3.279999999999999716e+01,3.672531490772489027e-02
3.284000000000000341e+01,3.420509621565361730e-02
3.288000000000000256e+01,1.804975063593614384e-02
3.292000000000000171e+01,2.557455749386512017e-02
3.296000000000000085e+01,1.228822332912664003e-02
3.300000000000000000e+01,1.526682696179234959e-02
3.303999999999999915e+01,1.991913808418220924e-02
3.307999999999999829e+01,2.528835518621744272e-02
3.311999999999999744e+01,2.348086210640818947e-02
3.315999999999999659e+01,2.478228108006593974e-02
3.320000000000000284e+01,2.177739695614293661e-02
3.324000000000000199e+01,2.642623550649824890e-02
3.328000000000000114e+01,3.011757905397872623e-02
3.332000000000000028e+01,1.132338263949331236e-02
3.335999999999999943e+01,1.262133670319839918e-02
3.339999999999999858e+01,2.229061700006676125e-02
3.343999999999999773e+01,1.593277250835468256e-02
3.347999999999999687e+01,3.229828558468123695e-02
3.352000000000000313e+01,5.128616793614810057e-03
3.356000000000000227e+01,1.957914650466261938e-02
3.360000000000000142e+01,2.159056104866781400e-02
3.364000000000000057e+01,1.594687104085730153e-02
3.367999999999999972e+01,1.891371134706945623e-02
3.371999999999999886e+01,2.743823872465336790e-03
3.375999999999999801e+01,1.647331269817026503e-02
3.379999999999999716e+01,3.809573185465092715e-02
3.384000000000000341e+01,2.790379798601493044e-02
3.388000000000000256e+01,2.680079799587096676e-02
3.392000000000000171e+01,1.660749399822315092e-02
3.396000000000000085e+01,2.339674157297364637e-02
3.400000000000000000e+01,1.439807201564117373e-02
3.403999999999999915e+01,6.147090772004127962e-04
3.407999999999999829e+01,2.199313764037593225e-02
3.411999999999999744e+01,2.590924706733731958e-02
3.415999999999999659e+01,4.106709849541855667e-02
3.420000000000000284e+01,2.895541109483267678e-02
3.424000000000000199e+01,2.545426115954584068e-02
3.428000000000000114e+01,1.381961383488854167e-02
3.432000000000000028e+01,2.203792874253156925e-02
3.435999999999999943e+01,1.470753162056177496e-02
3.439999999999999858e+01,3.070846725175039715e-03
3.443999999999999773e+01,2.516075489732725115e-02
3.447999999999999687e+01,2.883154650963013280e-02
3.452000000000000313e+01,3.441526501668026872e-02
3.456000000000000227e+01,1.918786293328132372e-02
3.460000000000000142e+01,1.544140897508343782e-02
3.464000000000000057e+01,4.111594154447247018e-02
3.467999999999999972e+01,2.756091615380628843e-02
3.471999999999999886e+01,3.936046972357967744e-02
3.475999999999999801e+01,3.489371485613160240e-02
3.479999999999999716e+01,2.875188288075297000e-02
3.484000000000000341e+01,4.126701725204029447e-02
3.488000000000000256e+01,4.349585734904942019e-02
3.492000000000000171e+01,4.333202035488104703e-02
3.496000000000000085e+01,4.340671233777251142e-02
3.500000000000000000e+01,2.290948985429604526e-02
3.503999999999999915e+01,3.374686304822963057e-02
3.507999999999999829e+01,5.247718291871373425e-02
3.511999999999999744e+01,5.422359743356228862e-02
3.515999999999999659e+01,4.687972377587615314e-02
3.520000000000000284e+01,5.675761803077875728e-02
3.524000000000000199e+01,6.137243321829468495e-02
3.528000000000000114e+01,5.881056580746087808e-02
3.532000000000000028e+01,8.184248552436967916e-02
3.535999999999999943e+01,7.569127718420104456e-02
3.539999999999999858e+01,7.097460596605759120e-02
3.543999999999999773e+01,1.018981446273582031e-01
3.547999999999999687e+01,9.765854413347090091e-02
3.552000000000000313e+01,9.748468785145697479e-02
3.556000000000000227e+01,1.185990126680391415e-01
3.560000000000000142e+01,1.471278897912007000e-01
3.564000000000000057e+01,1.431248353598278955e-01
3.567999999999999972e+01,1.881572221651118815e-01
3.571999999999999886e+01,2.257737314856852473e-01
3.575999999999999801e+01,2.717615971769439254e-01
3.579999999999999716e+01,3.478880657248111241e-01
3.584000000000000341e+01,3.871769961781921232e-01
3.588000000000000256e+01,4.532557234366974552e-01
3.592000000000000171e+01,4.676664822986210113e-01
3.596000000000000085e+01,4.330404788321999265e-01
3.600000000000000000e+01,4.194634615780138964e-01
3.603999999999999915e+01,3.755073224243378749e-01
3.607999999999999829e+01,3.490121629261917491e-01
3.611999999999999744e+01,2.950082886128194137e-01
3.615999999999999659e+01,2.613358010392407005e-01
3.620000000000000284e+01,2.281410587829120762e-01
3.624000000000000199e+01,2.071448871104716316e-01
3.628000000000000114e+01,1.689256243905328525e-01
3.632000000000000028e+01,1.622801741989999547e-01
3.635999999999999943e+01,1.546772683366126611e-01
3.639999999999999858e+01,1.341568820531226780e-01
3.643999999999999773e+01,1.382734951790439148e-01
3.647999999999999687e+01,1.117717915191141081e-01
3.652000000000000313e+01,1.156479004155120949e-01
3.656000000000000227e+01,1.061281299235871528e-01
3.660000000000000142e+01,1.021093204666094073e-01
3.664000000000000057e+01,1.088538836702480084e-01
3.667999999999999972e+01,1.187074038782340579e-01
3.671999999999999886e+01,1.041618235009496574e-01
3.675999999999999801e+01,9.750921125404504730e-02
3.679999999999999716e+01,8.320153480895602083e-02
3.684000000000000341e+01,9.329166237611172252e-02
3.688000000000000256e+01,7.802588938033450106e-02
3.692000000000000171e+01,9.242033253327650022e-02
3.696000000000000085e+01,8.624288624931800151e-02
3.700000000000000000e+01,9.609122833808850239e-02
3.703999999999999915e+01,8.943409060032760094e-02
3.707999999999999829e+01,8.086270436532624895e-02
3.711999999999999744e+01,1.017123363278503029e-01
3.715999999999999659e+01,1.062956905014805498e-01
3.720000000000000284e+01,9.628717093356978229e-02
3.724000000000000199e+01,1.020652422979996948e-01
3.728000000000000114e+01,1.176498924750489089e-01
3.732000000000000028e+01,1.112274547811203801e-01
3.735999999999999943e+01,1.272892236981389147e-01
3.739999999999999858e+01,1.455031567931189262e-01
3.743999999999999773e+01,1.589324399254546383e-01
3.747999999999999687e+01,1.998691418107963469e-01
3.752000000000000313e+01,2.221475654522825083e-01
3.756000000000000227e+01,3.023118730314617864e-01
3.760000000000000142e+01,3.999371796767784426e-01
3.764000000000000057e+01,5.092826737737320419e-01
3.767999999999999972e+01,6.444611856411714967e-01
3.771999999999999886e+01,7.750942516268259919e-01
3.775999999999999801e+01,9.021386742623852539e-01
3.779999999999999716e+01,1.000000000000000000e+00
3.784000000000000341e+01,9.849580525231005357e-01
3.788000000000000256e+01,9.139425525851075927e-01
3.792000000000000171e+01,8.108735512189336747e-01
3.796000000000000085e+01,7.142623302759767423e-01
3.800000000000000000e+01,5.745943856862805177e-01
3.803999999999999915e+01,4.657826740739618443e-01
3.807999999999999829e+01,4.117472464719331149e-01
3.811999999999999744e+01,3.668008068937751442e-01
3.815999999999999659e+01,3.053489017916388715e-01
3.820000000000000284e+01,2.532251862402052356e-01
3.824000000000000199e+01,2.257384930844283932e-01
3.828000000000000114e+01,1.913143561459322295e-01
3.832000000000000028e+01,1.896600598022204209e-01
3.835999999999999943e+01,1.612146787640513224e-01
3.839999999999999858e+01,1.432934923567175944e-01
3.843999999999999773e+01,1.430725162476569057e-01
3.847999999999999687e+01,1.416549110352100238e-01
3.852000000000000313e+01,1.404758802615088120e-01
3.856000000000000227e+01,1.287714017024105262e-01
3.860000000000000142e+01,1.211327066872059793e-01
3.864000000000000057e+01,1.118189836013948890e-01
3.867999999999999972e+01,1.197270728682474777e-01
3.871999999999999886e+01,9.893047799612333937e-02
3.875999999999999801e+01,1.051629172123376976e-01
3.879999999999999716e+01,1.192883506100103075e-01
3.884000000000000341e+01,1.049483019063435912e-01
3.888000000000000256e+01,1.104612736667996281e-01
3.892000000000000171e+01,1.064056042599919594e-01
3.896000000000000085e+01,1.080901265308747139e-01
3.900000000000000000e+01,1.112092318962740051e-01
3.903999999999999915e+01,1.114573117730160712e-01
3.907999999999999829e+01,1.059639606092533520e-01
3.911999999999999744e+01,1.155396228700247413e-01
3.915999999999999659e+01,1.088490328821752201e-01
3.920000000000000284e+01,1.074202366264066649e-01
3.924000000000000199e+01,1.162764452231671158e-01
3.928000000000000114e+01,1.404408697929045435e-01
3.932000000000000028e+01,1.425982320319370833e-01
3.935999999999999943e+01,1.284893445763760078e-01
3.939999999999999858e+01,1.416486998872618364e-01
3.943999999999999773e+01,1.404554105669335584e-01
3.947999999999999687e+01,1.691615705920949397e-01
3.952000000000000313e+01,1.672494526526201453e-01
3.956000000000000227e+01,1.662935239484962247e-01
3.960000000000000142e+01,2.055226678467844126e-01
3.964000000000000057e+01,2.007383070204728226e-01
3.967999999999999972e+01,2.160461773796142348e-01
3.971999999999999886e+01,2.404430561948447953e-01
3.975999999999999801e+01,2.330256575841665734e-01
3.979999999999999716e+01,2.464180932070209051e-01
3.984000000000000341e+01,2.832515691316451201e-01
3.988000000000000256e+01,2.818123555218081111e-01
3.992000000000000171e+01,2.901797544377506255e-01
3.996000000000000085e+01,3.250978017557533128e-01
4.000000000000000000e+01,3.162415494516264136e-01
4.003999999999999915e+01,3.279559339406437624e-01
4.007999999999999829e+01,3.540217425978629540e-01
4.011999999999999744e+01,3.748245345059617040e-01
4.015999999999999659e+01,3.700322672319539818e-01
4.020000000000000284e+01,4.013586716336821070e-01
4.024000000000000199e+01,4.133092310106628586e-01
4.028000000000000114e+01,4.137775625459968465e-01
4.032000000000000028e+01,4.470157602163880028e-01
4.035999999999999943e+01,4.737949416763859722e-01
4.039999999999999858e+01,4.996167190568808203e-01
4.043999999999999773e+01,5.223282883216885386e-01
4.047999999999999687e+01,5.672849035350480129e-01
4.052000000000000313e+01,5.962144843723932164e-01
4.056000000000000227e+01,6.402130970232687845e-01
4.060000000000000142e+01,6.409158187245391769e-01
4.064000000000000057e+01,6.779764182256261540e-01
4.067999999999999972e+01,6.937475742790571998e-01
4.071999999999999886e+01,6.757908611241419949e-01
4.075999999999999801e+01,6.575943500026362187e-01
4.079999999999999716e+01,6.633172924526732350e-01
4.084000000000000341e+01,6.068475071054727499e-01
4.088000000000000256e+01,5.974996253578701566e-01
4.092000000000000171e+01,5.484438643254220258e-01
4.096000000000000085e+01,5.414867973045398575e-01
4.100000000000000000e+01,4.606161797738096420e-01
4.103999999999999915e+01,4.548539269967645793e-01
4.107999999999999829e+01,4.160814111242857050e-01
4.111999999999999744e+01,3.995539493732458980e-01
4.115999999999999659e+01,3.536042331266991412e-01
4.120000000000000284e+01,3.370755871798346015e-01
4.124000000000000199e+01,3.131311342394127450e-01
4.128000000000000114e+01,3.078437298853357595e-01
4.132000000000000028e+01,3.233661791753988934e-01
4.135999999999999943e+01,3.020511608621290756e-01
4.139999999999999858e+01,2.699715305254287712e-01
4.143999999999999773e+01,2.720969836576647150e-01
4.147999999999999687e+01,2.419297803181847673e-01
4.152000000000000313e+01,2.378348442917355421e-01
4.156000000000000227e+01,2.325433184939205700e-01
4.160000000000000142e+01,2.207927923206815801e-01
4.164000000000000057e+01,2.171744971013095105e-01
4.167999999999999972e+01,2.152300197056407627e-01
4.171999999999999886e+01,1.687936631368140983e-01
4.175999999999999801e+01,1.831136502029064861e-01
4.179999999999999716e+01,1.876258323745071677e-01
4.184000000000000341e+01,1.557789540828826147e-01
4.188000000000000256e+01,1.653131800356867631e-01
4.192000000000000171e+01,1.516443743340355477e-01
4.196000000000000085e+01,1.343869789168623541e-01
4.200000000000000000e+01,1.331554357231005126e-01
4.203999999999999915e+01,1.393385270755969629e-01
4.207999999999999829e+01,1.192089822489860174e-01
4.211999999999999744e+01,1.036236669275912986e-01
4.215999999999999659e+01,1.047818073884931311e-01
4.220000000000000284e+01,7.795290966615629757e-02
4.224000000000000199e+01,7.265147885214826018e-02
4.228000000000000114e+01,7.237268059702063605e-02
4.232000000000000028e+01,7.663811440113654783e-02
4.235999999999999943e+01,7.324855500902685557e-02
4.239999999999999858e+01,6.411760697326560066e-02
4.243999999999999773e+01,6.168369707615391911e-02
4.247999999999999687e+01,6.857803138592927228e-02
4.252000000000000313e+01,6.231576292261609834e-02
4.256000000000000227e+01,5.988012806771606661e-02
4.260000000000000142e+01,5.385591167018136116e-02
4.264000000000000057e+01,4.687431979824936007e-02
4.267999999999999972e+01,4.348016256192577950e-02
4.271999999999999886e+01,5.778627028005940691e-02
4.275999999999999801e+01,4.888935707065224928e-02
4.279999999999999716e+01,5.338710074333396366e-02
4.284000000000000341e+01,4.353224320326556235e-02
4.288000000000000256e+01,4.731124407211788341e-02
4.292000000000000171e+01,5.539528415707464792e-02
4.296000000000000085e+01,3.620989727975980343e-02
4.300000000000000000e+01,4.907680924580464649e-02
4.303999999999999915e+01,5.070072912100056367e-02
4.307999999999999829e+01,3.868965236394233953e-02
4.311999999999999744e+01,2.811321131436301038e-02
4.315999999999999659e+01,4.026025144774345033e-02
4.320000000000000284e+01,3.757629395518072984e-02
4.324000000000000199e+01,3.178216410331286684e-02
4.328000000000000114e+01,3.675149170576746949e-02
4.332000000000000028e+01,4.076345251751757603e-02
4.335999999999999943e+01,2.994441774654633612e-02
4.339999999999999858e+01,1.721121518559716804e-02
4.343999999999999773e+01,3.198550748766735424e-02
4.347999999999999687e+01,3.934402140128599040e-02
4.352000000000000313e+01,2.565232863965711055e-02
4.356000000000000227e+01,3.300971863249518162e-02
4.360000000000000142e+01,4.275855248336190434e-02
4.364000000000000057e+01,3.528438927493480343e-02
4.367999999999999972e+01,2.900566842004192319e-02
4.371999999999999886e+01,3.133760609134194491e-02
4.375999999999999801e+01,4.084499976831388462e-02
4.379999999999999716e+01,2.810618781957132523e-02
4.384000000000000341e+01,1.680202077280591039e-02
4.388000000000000256e+01,3.946376784888883799e-02
4.392000000000000171e+01,3.509530072725228905e-02
4.396000000000000085e+01,3.407508408177783304e-02
4.400000000000000000e+01,4.238313105379770684e-02
4.403999999999999915e+01,3.920899819988403479e-02
4.407999999999999829e+01,3.699111230233820963e-02
4.411999999999999744e+01,2.376944861091185093e-02
4.415999999999999659e+01,5.551692585814150399e-02
4.420000000000000284e+01,3.774934499250900966e-02
4.424000000000000199e+01,3.983485303893070928e-02
4.428000000000000114e+01,4.789982120539007515e-02
4.432000000000000028e+01,1.051614138016191205e-02
4.435999999999999943e+01,3.054003131911270028e-02
4.439999999999999858e+01,2.018490611691435913e-02
4.443999999999999773e+01,2.753006783380807301e-02
4.447999999999999687e+01,3.487467959423973252e-02
4.452000000000000313e+01,2.523550603831878000e-02
4.456000000000000227e+01,3.784143053310649873e-02
4.460000000000000142e+01,3.083236517572069540e-02
4.464000000000000057e+01,3.937078474446449594e-02
4.467999999999999972e+01,3.044702002963536533e-02
4.471999999999999886e+01,3.730994176776773752e-02
4.475999999999999801e+01,3.412589590579136190e-02
4.479999999999999716e+01,3.118050467901778075e-02
4.484000000000000341e+01,2.201535495728346517e-02
4.488000000000000256e+01,2.433128463775322339e-02
4.492000000000000171e+01,2.473306593885251509e-02
4.496000000000000085e+01,1.915429078262848375e-02
4.500000000000000000e+01,2.242539100359323273e-02
4.503999999999999915e+01,1.182231911655020826e-02
4.507999999999999829e+01,2.202914888936043786e-02
4.511999999999999744e+01,2.075381262798447687e-02
4.515999999999999659e+01,2.378354418781876770e-02
4.520000000000000284e+01,1.724471477684640791e-02
4.524000000000000199e+01,2.673177896452767766e-02
4.528000000000000114e+01,1.660386198372822142e-02
4.532000000000000028e+01,3.254826084247834650e-02
4.535999999999999943e+01,1.883125833507361471e-02
4.539999999999999858e+01,3.262177572015586419e-02
4.543999999999999773e+01,3.229892560006383806e-02
4.547999999999999687e+01,2.719152818922485754e-02
4.552000000000000313e+01,2.256199511330806567e-02
4.556000000000000227e+01,2.678234456585632320e-02
4.560000000000000142e+01,3.339416341670625732e-02
4.564000000000000057e+01,1.584619609712419400e-02
4.567999999999999972e+01,2.748015578221482680e-02
4.571999999999999886e+01,1.997754092812685858e-02
4.575999999999999801e+01,1.654080105210984503e-02
4.579999999999999716e+01,2.434595182160149279e-02
4.584000000000000341e+01,2.975856494980597469e-02
4.588000000000000256e+01,1.292499901417997789e-02
4.592000000000000171e+01,1.235653586612136742e-02
4.596000000000000085e+01,1.896355681803493093e-02
4.600000000000000000e+01,1.911163358312510316e-02
4.603999999999999915e+01,2.380398991236650982e-02
4.607999999999999829e+01,1.797099448763725751e-02
4.611999999999999744e+01,1.907428470088087455e-02
4.615999999999999659e+01,2.424345500024997421e-02
4.620000000000000284e+01,2.558488922425483647e-02
4.624000000000000199e+01,2.094578333671105047e-02
4.628000000000000114e+01,1.630615047895098840e-02
4.632000000000000028e+01,2.099481086540195413e-02
4.635999999999999943e+01,1.922453166227851978e-02
4.639999999999999858e+01,1.577932348480769534e-02
4.643999999999999773e+01,1.257279088556340768e-02
4.647999999999999687e+01,1.558494700587808278e-02
4.652000000000000313e+01,3.287746886660580271e-03
4.656000000000000227e+01,6.777256717455659718e-03
4.660000000000000142e+01,7.635038107046441397e-03
4.664000000000000057e+01,1.231950520720709666e-02
4.667999999999999972e+01,1.556824741387969994e-02
4.671999999999999886e+01,1.164045311256386300e-02
4.675999999999999801e+01,2.086816575785616773e-02
4.679999999999999716e+01,1.382972371837024733e-02
4.684000000000000341e+01,1.588038105834525468e-02
4.688000000000000256e+01,1.577771454319613562e-02
4.692000000000000171e+01,1.304332367328633543e-02
4.696000000000000085e+01,1.748442967348514190e-02
4.700000000000000000e+01,2.742662951805058605e-02
4.703999999999999915e+01,2.301628178443914166e-02
4.707999999999999829e+01,1.788781578105733822e-02
4.711999999999999744e+01,1.873884616490070418e-02
4.715999999999999659e+01,5.237330502983523865e-03
4.720000000000000284e+01,2.020015974068320452e-02
4.724000000000000199e+01,0.000000000000000000e+00
4.728000000000000114e+01,1.113459224319741057e-02
4.732000000000000028e+01,1.413585361960405413e-02
4.735999999999999943e+01,8.046982619140989612e-03
4.739999999999999858e+01,6.263208044993806567e-03
4.743999999999999773e+01,2.026615465857938003e-02
4.747999999999999687e+01,2.206936385983775117e-02
4.752000000000000313e+01,1.865615445510458974e-03
4.756000000000000227e+01,1.706303117946022380e-02
4.760000000000000142e+01,9.535888803771996186e-03
4.764000000000000057e+01,1.229385854975916306e-02
4.767999999999999972e+01,1.720412375071071753e-02
4.771999999999999886e+01,1.374186268770504100e-02
4.775999999999999801e+01,1.936871275268573639e-02
4.779999999999999716e+01,9.925423429130081354e-03
4.784000000000000341e+01,7.208275619920847610e-04
4.788000000000000256e+01,1.113016658498409105e-02
4.792000000000000171e+01,2.536620766432075291e-02
4.796000000000000085e+01,1.018008108507851596e-02
4.800000000000000000e+01,3.604667688213344153e-03
4.803999999999999915e+01,2.238400335000576002e-02
4.807999999999999829e+01,1.508997995873060521e-02
4.811999999999999744e+01,1.162266117782746050e-02
4.815999999999999659e+01,1.413485206509135401e-02
4.820000000000000284e+01,1.377613443814819545e-02
4.824000000000000199e+01,1.772252396443550412e-02
4.828000000000000114e+01,9.229985789283695272e-03
4.832000000000000028e+01,1.939458610223766116e-02
4.835999999999999943e+01,1.664185872492130597e-02
4.839999999999999858e+01,1.580223549184656476e-02
4.843999999999999773e+01,1.209170680939745252e-02
4.847999999999999687e+01,1.125108531368513090e-02
4.852000000000000313e+01,2.213079020869481578e-02
4.856000000000000227e+01,1.698356339958748476e-02
4.860000000000000142e+01,2.642707006546591089e-02
4.864000000000000057e+01,2.032204705928045835e-02
4.867999999999999972e+01,1.541253025731153907e-02
4.871999999999999886e+01,2.318014442097624320e-02
4.875999999999999801e+01,2.042244105463592724e-02
4.879999999999999716e+01,1.814264390926535048e-02
4.884000000000000341e+01,1.179594389646964128e-02
4.888000000000000256e+01,2.458479053349827900e-02
4.892000000000000171e+01,2.278191309498548561e-02
4.896000000000000085e+01,1.117132219615819301e-02
4.900000000000000000e+01,1.558667291169767155e-02
4.903999999999999915e+01,1.258631624074433436e-02
4.907999999999999829e+01,1.413027795515715314e-02
4.911999999999999744e+01,2.213216260751026815e-02
4.915999999999999659e+01,9.801514123848971763e-03
4.920000000000000284e+01,1.660641637645569185e-02
4.924000000000000199e+01,1.456041076527044009e-02
4.928000000000000114e+01,2.734434781798475780e-02
4.932000000000000028e+01,6.878926495968658121e-03
4.935999999999999943e+01,1.655228119361172590e-02
4.939999999999999858e+01,3.292276291005431788e-02
4.943999999999999773e+01,2.967831658178396101e-02
4.947999999999999687e+01,2.356297808508117306e-02
4.952000000000000313e+01,1.409834692030929350e-02
4.956000000000000227e+01,2.687887765692846542e-02
4.960000000000000142e+01,2.100128441294077039e-02
4.964000000000000057e+01,3.138884146142836146e-02
4.967999999999999972e+01,2.311827555091994224e-02
4.971999999999999886e+01,1.700003114645442723e-02
4.975999999999999801e+01,2.738613907210152645e-02
4.979999999999999716e+01,3.227015335832807141e-02
4.984000000000000341e+01,1.777844521311731582e-02
4.988000000000000256e+01,3.294711871759455069e-02
4.992000000000000171e+01,1.486644150942325639e-02
4.996000000000000085e+01,2.142293636290834233e-02
5.000000000000000000e+01,1.649732750047333552e-02
5.003999999999999915e+01,3.429528767953710089e-02
5.007999999999999829e+01,2.721591687191160167e-02
5.011999999999999744e+01,3.185689288722644980e-02
5.015999999999999659e+01,3.912859703788638260e-02
5.020000000000000284e+01,2.678538284913704187e-02
5.024000000000000199e+01,2.831532156273406514e-02
5.028000000000000114e+01,3.630319802762966425e-02
5.032000000000000028e+01,3.233057385260672961e-02
5.035999999999999943e+01,2.237746217899751547e-02
5.039999999999999858e+01,3.682232768068367107e-02
5.043999999999999773e+01,3.834989205398336987e-02
5.047999999999999687e+01,3.915938157597677327e-02
5.052000000000000313e+01,4.092520029401684745e-02
5.056000000000000227e+01,3.814573709882438518e-02
5.060000000000000142e+01,4.852182988756411491e-02
5.064000000000000057e+01,3.641260389310192053e-02
5.067999999999999972e+01,2.621651115879240421e-02
5.071999999999999886e+01,5.166082343161238627e-02
5.075999999999999801e+01,4.433419672914061527e-02
5.079999999999999716e+01,4.585751947064906769e-02
5.084000000000000341e+01,5.072918054685860573e-02
5.088000000000000256e+01,6.756039865653319654e-02
5.092000000000000171e+01,6.597271014740224704e-02
5.096000000000000085e+01,6.845096302105199704e-02
5.100000000000000000e+01,6.016472646458128487e-02
5.103999999999999915e+01,6.479485100568184441e-02
5.107999999999999829e+01,7.468692098808484003e-02
5.111999999999999744e+01,8.194732025030021516e-02
5.115999999999999659e+01,6.409120181235282432e-02
5.120000000000000284e+01,7.015466975536775729e-02
5.124000000000000199e+01,8.195848619334909768e-02
5.128000000000000114e+01,7.271219505234222114e-02
5.132000000000000028e+01,5.150541604155325220e-02
5.135999999999999943e+01,5.661023050715922184e-02
5.139999999999999858e+01,5.693057328122624189e-02
5.143999999999999773e+01,5.940325952597082931e-02
5.147999999999999687e+01,5.685227459556633361e-02
5.152000000000000313e+01,4.616801243294421653e-02
5.156000000000000227e+01,5.007452154491179308e-02
5.160000000000000142e+01,5.230616808724169314e-02
5.164000000000000057e+01,4.138132832012779427e-02
5.167999999999999972e+01,4.935287045399928268e-02
5.171999999999999886e+01,3.723111264862691283e-02
5.175999999999999801e+01,3.898252715620829228e-02
5.179999999999999716e+01,3.594947508030530564e-02
5.184000000000000341e+01,4.296238825542992440e-02
5.188000000000000256e+01,4.088522677470173700e-02
5.192000000000000171e+01,4.167801640997984003e-02
5.196000000000000085e+01,4.701516120861722048e-02
5.200000000000000000e+01,3.297661115931217746e-02
5.203999999999999915e+01,2.635282335763016945e-02
5.207999999999999829e+01,2.499099376738697295e-02
5.211999999999999744e+01,3.391433350903069049e-02
5.215999999999999659e+01,3.829241176966021593e-02
5.220000000000000284e+01,3.118841440866990458e-02
5.224000000000000199e+01,3.508718942764608995e-02
5.228000000000000114e+01,5.238074238960490486e-02
5.232000000000000028e+01,4.001298286555872441e-02
5.235999999999999943e+01,4.654161392619079324e-02
5.239999999999999858e+01,3.130255019472426986e-02
5.243999999999999773e+01,2.658786038680930122e-02
5.247999999999999687e+01,3.383274804457777479e-02
5.252000000000000313e+01,3.892438387079200091e-02
5.256000000000000227e+01,3.253394867263555146e-02
5.260000000000000142e+01,4.240870156655820317e-02
5.264000000000000057e+01,4.462859254125832453e-02
5.267999999999999972e+01,4.565203574851023349e-02
5.271999999999999886e+01,4.787103675133008024e-02
5.275999999999999801e+01,3.549836271593263815e-02
5.279999999999999716e+01,4.130448336841031215e-02
5.284000000000000341e+01,3.969494516091367359e-02
5.288000000000000256e+01,4.047696931831220452e-02
5.292000000000000171e+01,3.719214271044252867e-02
5.296000000000000085e+01,3.605967898385779163e-02
5.300000000000000000e+01,4.616919784776433305e-02
5.303999999999999915e+01,5.197266697359786969e-02
5.307999999999999829e+01,4.509806918942633330e-02
5.311999999999999744e+01,4.731265098117275886e-02
5.315999999999999659e+01,4.880919214557868924e-02
5.320000000000000284e+01,5.341490127698662882e-02
5.324000000000000199e+01,4.151533745807418907e-02
5.328000000000000114e+01,4.564176990971267889e-02
5.332000000000000028e+01,5.000696579811678838e-02
5.335999999999999943e+01,4.049809582604862318e-02
5.339999999999999858e+01,4.821122618305311719e-02
5.343999999999999773e+01,5.113991089959710190e-02
5.347999999999999687e+01,2.823450602703158480e-02
5.352000000000000313e+01,4.360074747540941542e-02
5.356000000000000227e+01,2.236887762134054727e-02
5.360000000000000142e+01,3.247184045841481487e-02
5.364000000000000057e+01,3.826876121949796677e-02
5.367999999999999972e+01,3.521483081619507932e-02
5.371999999999999886e+01,4.077168664045000002e-02
5.375999999999999801e+01,3.723849181670867148e-02
5.379999999999999716e+01,3.059525948630341038e-02
5.384000000000000341e+01,3.064921087410371614e-02
5.388000000000000256e+01,3.596514345958853193e-02
5.392000000000000171e+01,3.530063400817291114e-02
5.396000000000000085e+01,2.578527696800951563e-02
5.400000000000000000e+01,3.444872993988493809e-02
5.403999999999999915e+01,3.569653937594984699e-02
5.407999999999999829e+01,3.455191639665231712e-02
5.411999999999999744e+01,1.738043271519665658e-02
5.415999999999999659e+01,1.575655553156983871e-02
5.420000000000000284e+01,2.920188434613516307e-02
5.424000000000000199e+01,2.470674994919023343e-02
5.428000000000000114e+01,3.408482004594300119e-02
5.432000000000000028e+01,2.480482643713307483e-02
5.435999999999999943e+01,3.274684541672684412e-02
5.439999999999999858e+01,2.537960878546387591e-02
5.443999999999999773e+01,2.447036302926725720e-02
5.447999999999999687e+01,1.590627885089914567e-02
5.452000000000000313e+01,3.150102395556765578e-02
5.456000000000000227e+01,2.437129983074800069e-02
5.460000000000000142e+01,2.920118024430118364e-02
5.464000000000000057e+01,3.044263286766300813e-02
5.467999999999999972e+01,2.187644507589094067e-02
5.471999999999999886e+01,3.292427952198241636e-02
5.475999999999999801e+01,2.674925891269775216e-02
5.479999999999999716e+01,3.325144691147636361e-02
5.484000000000000341e+01,3.185960058011156476e-02
5.488000000000000256e+01,2.951053508081999052e-02
5.492000000000000171e+01,1.735383223122727997e-02
5.496000000000000085e+01,3.174796933574186575e-02
5.500000000000000000e+01,3.083285849148167598e-02
5.503999999999999915e+01,2.250211688154754586e-02
5.507999999999999829e+01,3.235019907539959938e-02
5.511999999999999744e+01,2.856343838944071581e-02
5.515999999999999659e+01,2.692906867906715712e-02
5.520000000000000284e+01,2.601188742375789079e-02
5.524000000000000199e+01,3.131350675440301018e-02
5.528000000000000114e+01,3.470111000429164372e-02
5.532000000000000028e+01,2.708507848582838301e-02
5.535999999999999943e+01,3.382066626325239134e-02
5.539999999999999858e+01,4.557905414374732039e-02
5.543999999999999773e+01,2.241375826619959946e-02
5.547999999999999687e+01,2.245050191013513163e-02
5.552000000000000313e+01,2.320443809557865347e-02
5.556000000000000227e+01,2.754597339598856276e-02
5.560000000000000142e+01,2.471108558722190374e-02
5.564000000000000057e+01,2.665980044113785280e-02
5.567999999999999972e+01,2.502010078580446661e-02
5.571999999999999886e+01,2.912080683564870556e-02
5.575999999999999801e+01,1.623787110547444262e-02
5.579999999999999716e+01,3.660340020251214022e-02
5.584000000000000341e+01,3.591887995238398495e-02
5.588000000000000256e+01,3.786516088278150255e-02
5.592000000000000171e+01,3.550542885309903446e-02
5.596000000000000085e+01,2.477327578538399480e-02
5.600000000000000000e+01,2.408714109246415033e-02
5.603999999999999915e+01,2.961981720160790366e-02
5.607999999999999829e+01,3.563049249831513193e-02
5.611999999999999744e+01,3.039834273755853342e-02
5.615999999999999659e+01,3.329860935305052616e-02
5.620000000000000284e+01,2.495605193268978644e-02
5.624000000000000199e+01,4.005474424433702607e-02
5.628000000000000114e+01,2.597057565016204148e-02
5.632000000000000028e+01,2.456363507465776988e-02
5.635999999999999943e+01,2.770110585111336399e-02
5.639999999999999858e+01,3.490458747989197419e-02
5.643999999999999773e+01,3.493165672640878572e-02
5.647999999999999687e+01,2.897831662757464552e-02
5.652000000000000313e+01,3.570220710143848925e-02
5.656000000000000227e+01,3.237928066280403722e-02
5.660000000000000142e+01,3.192636510441467651e-02
5.664000000000000057e+01,3.171225537964392910e-02
5.667999999999999972e+01,3.388975654628707118e-02
5.671999999999999886e+01,2.984765092719086216e-02
5.675999999999999801e+01,2.245634509581365471e-02
5.679999999999999716e+01,1.099823804729766277e-02
5.684000000000000341e+01,2.920060152861954708e-02
5.688000000000000256e+01,2.683132995415964117e-02
5.692000000000000171e+01,2.948487789337806905e-02
5.696000000000000085e+01,3.357323827876421835e-02
5.700000000000000000e+01,2.546198282352248390e-02
5.703999999999999915e+01,1.735033780473295081e-02
5.707999999999999829e+01,3.124475021353970844e-02
5.711999999999999744e+01,2.743793669405027863e-02
5.715999999999999659e+01,2.243473261732418719e-02
5.720000000000000284e+01,3.202237183875745324e-02
5.724000000000000199e+01,2.845359626351127644e-02
5.728000000000000114e+01,2.751563974698190834e-02
5.732000000000000028e+01,3.064370583130116357e-02
5.735999999999999943e+01,2.946577734453698430e-02
5.739999999999999858e+01,1.848024317741027434e-02
5.743999999999999773e+01,1.371353769053820087e-02
5.747999999999999687e+01,2.951769170799061620e-02
5.752000000000000313e+01,1.877020621202179704e-02
5.756000000000000227e+01,2.404877164278795137e-02
5.760000000000000142e+01,2.262934051509273709e-02
5.764000000000000057e+01,3.293035224176420195e-02
5.767999999999999972e+01,2.576934569663695898e-02
5.771999999999999886e+01,2.387036938651830240e-02
5.775999999999999801e+01,2.723342382221371344e-02
5.779999999999999716e+01,2.629048930568583797e-02
5.784000000000000341e+01,2.415117291561395818e-02
5.788000000000000256e+01,2.129387617324568494e-02
5.792000000000000171e+01,2.848262232433485322e-02
5.796000000000000085e+01,2.921257701943279564e-02
5.800000000000000000e+01,2.563654531633469819e-02
5.803999999999999915e+01,2.540894389292030695e-02
5.807999999999999829e+01,2.805137224955295619e-02
5.811999999999999744e+01,2.590941472996378947e-02
5.815999999999999659e+01,2.879029255902219864e-02
5.820000000000000284e+01,2.927879058568044757e-02
5.824000000000000199e+01,2.904931285729142609e-02
5.828000000000000114e+01,3.360347150474532474e-02
5.832000000000000028e+01,3.528685087177334256e-02
5.835999999999999943e+01,2.309622822901144165e-02
5.839999999999999858e+01,2.358286016680421690e-02
5.843999999999999773e+01,3.339794012286211727e-02
5.847999999999999687e+01,3.220942566419951469e-02
5.852000000000000313e+01,2.623653043736957208e-02
5.856000000000000227e+01,3.533289688652690302e-02
5.860000000000000142e+01,3.557847500036975807e-02
5.864000000000000057e+01,3.271407741500916705e-02
5.867999999999999972e+01,8.082065234007066584e-03
5.871999999999999886e+01,2.315696880998449614e-02
5.875999999999999801e+01,2.579307851555309727e-02
5.879999999999999716e+01,3.416963325831986337e-02
5.884000000000000341e+01,2.293137999565656587e-02
5.888000000000000256e+01,3.609121219904606881e-02
5.892000000000000171e+01,3.083223994472172880e-02
5.896000000000000085e+01,2.413769961418522556e-02
5.900000000000000000e+01,3.275162708371712889e-02
5.903999999999999915e+01,3.514597739422628542e-02
5.907999999999999829e+01,3.682236267660285445e-02
5.911999999999999744e+01,3.180077081112556159e-02
5.915999999999999659e+01,3.347643060097979517e-02
5.920000000000000284e+01,2.869331476981207621e-02
5.924000000000000199e+01,2.606264201638659739e-02
5.928000000000000114e+01,3.371723002902503319e-02
5.932000000000000028e+01,3.443464294261579239e-02
5.935999999999999943e+01,3.634769844548078888e-02
5.939999999999999858e+01,3.132357987090901574e-02
5.943999999999999773e+01,1.601348065661091849e-02
5.947999999999999687e+01,2.749347962265808604e-02
5.952000000000000313e+01,3.753791766376959882e-02
5.956000000000000227e+01,2.868515840961246427e-02
5.960000000000000142e+01,4.136008775335350135e-02
5.964000000000000057e+01,3.609462284432120305e-02
5.967999999999999972e+01,3.561281218932281500e-02
5.971999999999999886e+01,4.230666135137457068e-02
5.975999999999999801e+01,4.110653901235442054e-02
5.979999999999999716e+01,3.655725528226821952e-02
5.984000000000000341e+01,2.889801117714236450e-02
5.988000000000000256e+01,2.913203044795182467e-02
5.992000000000000171e+01,3.438890754284899820e-02
5.996000000000000085e+01,3.318701872202795000e-02
