2.003999999999999915e+01,1.972164882470955546e-02
2.007999999999999829e+01,1.992536371840405648e-02
2.012000000000000099e+01,2.451117752853244208e-02
2.016000000000000014e+01,1.688254093884597462e-02
2.019999999999999929e+01,2.202751635591303214e-02
2.023999999999999844e+01,1.719577784082438124e-02
2.028000000000000114e+01,1.851767902510881303e-02
2.032000000000000028e+01,1.844085744703072988e-02
2.035999999999999943e+01,1.500729302909011367e-02
2.039999999999999858e+01,1.437076215092898505e-02
2.044000000000000128e+01,1.681098168874144844e-02
2.048000000000000043e+01,1.673360901527459754e-02
2.051999999999999957e+01,1.544399044383255003e-02
2.055999999999999872e+01,2.170659546670053106e-02
2.060000000000000142e+01,2.162880692000901384e-02
2.064000000000000057e+01,1.446471224284259088e-02
2.067999999999999972e+01,2.091337801385590583e-02
2.071999999999999886e+01,1.915686869151223687e-02
2.076000000000000156e+01,1.870556608599486387e-02
2.080000000000000071e+01,1.741497204032938992e-02
2.083999999999999986e+01,1.537832535123558400e-02
2.087999999999999901e+01,2.564909133891264681e-02
2.092000000000000171e+01,1.512741065361527561e-02
2.096000000000000085e+01,1.598075176168132702e-02
2.100000000000000000e+01,1.217199958528433421e-02
2.103999999999999915e+01,2.132333239174939721e-02
2.107999999999999829e+01,2.935565493773240747e-02
2.112000000000000099e+01,1.212005568826536074e-02
2.116000000000000014e+01,9.895799566827732582e-03
2.119999999999999929e+01,2.622596984041808410e-02
2.123999999999999844e+01,1.850032510609035674e-02
2.128000000000000114e+01,1.739450919438629423e-02
2.132000000000000028e+01,1.591559388199373024e-02
2.135999999999999943e+01,1.052049541587937384e-02
2.139999999999999858e+01,1.584774279177586856e-02
2.144000000000000128e+01,1.399544013711150926e-02
2.148000000000000043e+01,1.717790141445015364e-02
2.151999999999999957e+01,1.830895936074250149e-02
2.155999999999999872e+01,1.888043836876725570e-02
2.160000000000000142e+01,2.374076826184466638e-02
2.164000000000000057e+01,1.545424836608932928e-02
2.167999999999999972e+01,1.565233565752852801e-02
2.171999999999999886e+01,1.585027727705402498e-02
2.176000000000000156e+01,2.052354688903694491e-02
2.180000000000000071e+01,2.528990938280848561e-02
2.183999999999999986e+01,1.364605448185604412e-02
2.187999999999999901e+01,1.561495273856027856e-02
2.192000000000000171e+01,1.320146924061244183e-02
2.196000000000000085e+01,1.535655155977209453e-02
2.200000000000000000e+01,1.835063786353131887e-02
2.203999999999999915e+01,1.947979575649221376e-02
2.207999999999999829e+01,2.154119618775512598e-02
2.212000000000000099e+01,2.024584308638858673e-02
2.216000000000000014e+01,2.006921011676376237e-02
2.219999999999999929e+01,3.080139620827555477e-02
2.223999999999999844e+01,2.549631863383813174e-02
2.228000000000000114e+01,2.392065357473341369e-02
2.232000000000000028e+01,1.591134545658239377e-02
2.235999999999999943e+01,1.862437734802387460e-02
2.239999999999999858e+01,2.404119158863591774e-02
2.244000000000000128e+01,2.563505515379273930e-02
2.248000000000000043e+01,2.955974442313622982e-02
2.251999999999999957e+01,3.171274140520942419e-02
2.255999999999999872e+01,4.645285797653309068e-02
2.260000000000000142e+01,5.112300723793532925e-02
2.264000000000000057e+01,5.131753133063443606e-02
2.267999999999999972e+01,5.580089974691547494e-02
2.271999999999999886e+01,6.531902456165905591e-02
2.276000000000000156e+01,6.989532827996094988e-02
2.280000000000000071e+01,7.596330440067465550e-02
2.283999999999999986e+01,6.646020840886385228e-02
2.287999999999999901e+01,4.520884069073885514e-02
2.292000000000000171e+01,2.740716448045593320e-02
2.296000000000000085e+01,2.629512317768871454e-02
2.300000000000000000e+01,1.996154220116327233e-02
2.303999999999999915e+01,2.341790670556145523e-02
2.307999999999999829e+01,2.687411727545322218e-02
2.312000000000000099e+01,2.100626969409499431e-02
2.316000000000000014e+01,1.868135120221151371e-02
2.319999999999999929e+01,2.614637721918179614e-02
2.323999999999999844e+01,1.552287462054724280e-02
2.328000000000000114e+01,1.813916051501024071e-02
2.332000000000000028e+01,1.683925134789738751e-02
2.335999999999999943e+01,1.180962495566557392e-02
2.339999999999999858e+01,1.246742410876094768e-02
2.344000000000000128e+01,1.965179992180132729e-02
2.348000000000000043e+01,2.021604754881549393e-02
2.351999999999999957e+01,1.229538595204068309e-02
2.355999999999999872e+01,2.115759465725744123e-02
2.360000000000000142e+01,1.836476630158349541e-02
2.364000000000000057e+01,9.697721105711648928e-03
2.367999999999999972e+01,1.165976886011974023e-02
2.371999999999999886e+01,1.921600117597829088e-02
2.376000000000000156e+01,1.017552635280157512e-02
2.380000000000000071e+01,1.446807590323308246e-02
2.383999999999999986e+01,9.529801967838168186e-03
2.387999999999999901e+01,1.251668761525538166e-02
2.392000000000000171e+01,1.382511150952955847e-02
2.396000000000000085e+01,2.138039178531032578e-02
2.400000000000000000e+01,2.390060439137169784e-02
2.403999999999999915e+01,1.886829501179011423e-02
2.407999999999999829e+01,1.644651873490973054e-02
2.412000000000000099e+01,9.362630218206664801e-03
2.416000000000000014e+01,1.402670021242150358e-02
2.419999999999999929e+01,9.832900692602042012e-03
2.423999999999999844e+01,1.020765313789653156e-02
2.428000000000000114e+01,1.897375793451520562e-02
2.432000000000000028e+01,1.561862609724311464e-02
2.435999999999999943e+01,1.589965509866012386e-02
2.439999999999999858e+01,1.356982903335211821e-02
2.444000000000000128e+01,9.561538055674370998e-03
2.448000000000000043e+01,8.070538710786164666e-03
2.451999999999999957e+01,1.497089025911763939e-02
2.455999999999999872e+01,2.709246510658447002e-02
2.460000000000000142e+01,1.720946340688873574e-02
2.464000000000000057e+01,2.690649663983175899e-02
2.467999999999999972e+01,2.905100399885291243e-02
2.471999999999999886e+01,3.278041113518646160e-02
2.476000000000000156e+01,3.054235558709677417e-02
2.480000000000000071e+01,1.767488512470333575e-02
2.483999999999999986e+01,1.459734920744899626e-02
2.487999999999999901e+01,1.758018600282587954e-02
2.492000000000000171e+01,1.459555914170978727e-02
2.496000000000000085e+01,1.552680659323303972e-02
2.500000000000000000e+01,1.916182059779380012e-02
2.503999999999999915e+01,1.925358524997807311e-02
2.507999999999999829e+01,1.403055855176051601e-02
2.512000000000000099e+01,1.580029350544214992e-02
2.516000000000000014e+01,1.486592973533043364e-02
2.519999999999999929e+01,1.094774987919608367e-02
2.523999999999999844e+01,1.169135495247709822e-02
2.528000000000000114e+01,1.476576871872462525e-02
2.532000000000000028e+01,2.045070805413288714e-02
2.535999999999999943e+01,1.559946811273067030e-02
2.539999999999999858e+01,1.988548603606260165e-02
2.544000000000000128e+01,1.512714883234539225e-02
2.548000000000000043e+01,2.127761076233546794e-02
2.551999999999999957e+01,1.605274108580997602e-02
2.555999999999999872e+01,1.903273790457642514e-02
2.560000000000000142e+01,1.287513958448657271e-02
2.564000000000000057e+01,1.137932376363788578e-02
2.567999999999999972e+01,0.000000000000000000e+00
2.571999999999999886e+01,1.528687162756212255e-02
2.576000000000000156e+01,1.397702396521739200e-02
2.580000000000000071e+01,6.419990180784387011e-03
2.583999999999999986e+01,1.079738278001175951e-02
2.587999999999999901e+01,1.582727771167335637e-02
2.592000000000000171e+01,1.199929267955110110e-02
2.596000000000000085e+01,9.569721811726317889e-03
2.600000000000000000e+01,1.795570787864503304e-02
2.603999999999999915e+01,1.067736335190745678e-02
2.607999999999999829e+01,1.328218487650593277e-02
2.612000000000000099e+01,1.532739975884961532e-02
2.616000000000000014e+01,1.522794408038770191e-02
2.619999999999999929e+01,1.540803263127157353e-02
2.623999999999999844e+01,6.357283115283023610e-03
2.628000000000000114e+01,1.660684144900676992e-02
2.632000000000000028e+01,1.165826268663853506e-02
2.635999999999999943e+01,8.667529896817079138e-03
2.639999999999999858e+01,1.183039962470164297e-02
2.644000000000000128e+01,1.834970043515703544e-02
2.648000000000000043e+01,7.060170064807417406e-03
2.651999999999999957e+01,1.348588241053206779e-02
2.655999999999999872e+01,1.851283408317480964e-02
2.660000000000000142e+01,1.029966679308610619e-02
2.664000000000000057e+01,3.671387615473019686e-03
2.667999999999999972e+01,1.475835018186446267e-02
2.671999999999999886e+01,1.288491017568392343e-02
2.676000000000000156e+01,1.567324586425641875e-02
2.680000000000000071e+01,1.631690710374432071e-02
2.683999999999999986e+01,1.323082997559686842e-02
2.687999999999999901e+01,1.294174701840492339e-02
2.692000000000000171e+01,1.237276967782137069e-02
2.696000000000000085e+01,1.143065867109146864e-02
2.700000000000000000e+01,1.002217471546077397e-02
2.703999999999999915e+01,1.224983531635106572e-02
2.707999999999999829e+01,1.223958072729756583e-02
2.712000000000000099e+01,1.866264140084820250e-02
2.716000000000000014e+01,1.883850768971788783e-02
2.719999999999999929e+01,1.239422319194021828e-02
2.723999999999999844e+01,1.266297034692614315e-02
2.728000000000000114e+01,1.488955788505786325e-02
2.732000000000000028e+01,1.543766301356479242e-02
2.735999999999999943e+01,6.195489032287642382e-03
2.739999999999999858e+01,1.457531338096404970e-02
2.744000000000000128e+01,1.428372661066867021e-02
2.748000000000000043e+01,1.772152076343996505e-02
2.751999999999999957e+01,1.593774778148327950e-02
2.755999999999999872e+01,9.398602620467629357e-03
2.760000000000000142e+01,1.581950258745516355e-02
2.764000000000000057e+01,1.086505806800324749e-02
2.767999999999999972e+01,7.961690541260030285e-03
2.771999999999999886e+01,1.270374214844391392e-02
2.776000000000000156e+01,1.697941618939565259e-02
2.780000000000000071e+01,1.314311116264225109e-02
2.783999999999999986e+01,1.284970679232409936e-02
2.787999999999999901e+01,1.460737819962760684e-02
2.792000000000000171e+01,1.188939235992694105e-02
2.796000000000000085e+01,1.579119475893886113e-02
2.800000000000000000e+01,9.622997040676092156e-03
2.803999999999999915e+01,1.333795346589515193e-02
2.807999999999999829e+01,1.369612014888748133e-02
2.812000000000000099e+01,1.750394674745577722e-02
2.816000000000000014e+01,1.329303113089938711e-02
2.819999999999999929e+01,5.911803122538497775e-03
2.823999999999999844e+01,5.336839731242684799e-03
2.828000000000000114e+01,1.110194551530820431e-02
2.832000000000000028e+01,2.022347096012527476e-02
2.835999999999999943e+01,1.312121747785143996e-02
2.839999999999999858e+01,1.879252618375771428e-02
2.844000000000000128e+01,1.019807531102076559e-02
2.848000000000000043e+01,1.130029782909940973e-02
2.851999999999999957e+01,7.180947137014337400e-03
2.855999999999999872e+01,1.070701047549027160e-02
2.860000000000000142e+01,8.545304919081283396e-03
2.864000000000000057e+01,1.300338347008860376e-02
2.867999999999999972e+01,5.619916017516811760e-03
2.871999999999999886e+01,1.259507248451919789e-02
2.876000000000000156e+01,3.253208554519121214e-03
2.880000000000000071e+01,1.311839812439583898e-02
2.883999999999999986e+01,1.337977767231815669e-02
2.887999999999999901e+01,1.289505573030842213e-02
2.892000000000000171e+01,2.173404834697348353e-02
2.896000000000000085e+01,9.500828324948619452e-03
2.900000000000000000e+01,1.060060108426592873e-02
2.903999999999999915e+01,1.785396032213888012e-02
2.907999999999999829e+01,1.643589847732539883e-02
2.912000000000000099e+01,1.632299255869503612e-02
2.916000000000000014e+01,1.956650119745012920e-02
2.919999999999999929e+01,1.898701809080412944e-02
2.923999999999999844e+01,2.717181336026991759e-02
2.928000000000000114e+01,3.908597861701789550e-02
2.932000000000000028e+01,6.442637375070593697e-02
2.935999999999999943e+01,6.030304023917611167e-02
2.939999999999999858e+01,3.445481813760381540e-02
2.944000000000000128e+01,3.033109972053547182e-02
2.948000000000000043e+01,3.068266239356031225e-02
2.951999999999999957e+01,1.937915203911459369e-02
2.955999999999999872e+01,1.721287427559027236e-02
2.960000000000000142e+01,2.231904806522464965e-02
2.964000000000000057e+01,2.649263766812126608e-02
2.967999999999999972e+01,3.495502906654935488e-02
2.971999999999999886e+01,1.656438274524611037e-02
2.976000000000000156e+01,1.467685193902076683e-02
2.980000000000000071e+01,1.269588733162329078e-02
2.983999999999999986e+01,1.574963586558564277e-02
2.987999999999999901e+01,1.498038852285054311e-02
2.992000000000000171e+01,1.644868264332259231e-02
2.996000000000000085e+01,1.567904407659577795e-02
3.000000000000000000e+01,2.236833271232788189e-02
3.003999999999999915e+01,2.905742512852051498e-02
3.007999999999999829e+01,2.269285551893969119e-02
3.012000000000000099e+01,3.320435539622885318e-02
3.016000000000000014e+01,2.338954766220329579e-02
3.019999999999999929e+01,3.073052604822465103e-02
3.023999999999999844e+01,2.539079759535185776e-02
3.028000000000000114e+01,3.730009381622844539e-02
3.032000000000000028e+01,4.809032363959640788e-02
3.035999999999999943e+01,4.452154317974717918e-02
3.039999999999999858e+01,4.449564782321756284e-02
3.044000000000000128e+01,4.875854964488823134e-02
3.048000000000000043e+01,5.124971081881974505e-02
3.051999999999999957e+01,5.998768851939918073e-02
3.055999999999999872e+01,6.406351485434945425e-02
3.060000000000000142e+01,6.291775534222958377e-02
3.064000000000000057e+01,7.566441288616078398e-02
3.067999999999999972e+01,7.004277949403310555e-02
3.071999999999999886e+01,8.250931946009838758e-02
3.076000000000000156e+01,8.276134462672919689e-02
3.080000000000000071e+01,8.301316895648937211e-02
3.083999999999999986e+01,6.676148217286612119e-02
3.087999999999999901e+01,5.768900012610653216e-02
3.092000000000000171e+01,4.712449187762789149e-02
3.096000000000000085e+01,5.296985281396686396e-02
3.100000000000000000e+01,4.967758580409636221e-02
3.103999999999999915e+01,4.321498914818378001e-02
3.107999999999999829e+01,4.038851250403172749e-02
3.112000000000000099e+01,3.728211595965781611e-02
3.116000000000000014e+01,3.128510615940123529e-02
3.119999999999999929e+01,3.377264570819052403e-02
3.123999999999999844e+01,1.723921764051607533e-02
3.128000000000000114e+01,2.699899502566956849e-02
3.132000000000000028e+01,2.128088781834037296e-02
3.135999999999999943e+01,2.731069537879148371e-02
3.139999999999999858e+01,2.709328279471394027e-02
3.144000000000000128e+01,2.379877717415720267e-02
3.148000000000000043e+01,1.882576387016277747e-02
3.151999999999999957e+01,2.177786373265119813e-02
3.155999999999999872e+01,1.549909320694888883e-02
3.160000000000000142e+01,1.677247920274548693e-02
3.164000000000000057e+01,2.158874276832132427e-02
3.167999999999999972e+01,1.754709137560316393e-02
3.171999999999999886e+01,1.257284315924084815e-02
3.176000000000000156e+01,8.157822512013078106e-03
3.180000000000000071e+01,1.856760227070348643e-02
3.183999999999999986e+01,1.368597235715913497e-02
3.187999999999999901e+01,1.961986365479584729e-02
3.192000000000000171e+01,2.005244396657540618e-02
3.196000000000000085e+01,1.386484457263319724e-02
3.200000000000000000e+01,1.867924374029432746e-02
3.203999999999999915e+01,8.295471060370764385e-03
3.207999999999999829e+01,1.040552109181183509e-02
3.211999999999999744e+01,1.876237792920352684e-02
3.215999999999999659e+01,2.124496616368444848e-02
3.220000000000000284e+01,1.384400684353488849e-02
3.224000000000000199e+01,1.147774608369926154e-02
3.228000000000000114e+01,2.197826297909017540e-02
3.232000000000000028e+01,1.616173784892722259e-02
3.235999999999999943e+01,2.209312141110880007e-02
3.239999999999999858e+01,2.690542593887533529e-02
3.243999999999999773e+01,1.950320546047527165e-02
3.247999999999999687e+01,1.573709648822563603e-02
3.252000000000000313e+01,7.215585202755471321e-03
3.256000000000000227e+01,9.975786195856333263e-03
3.260000000000000142e+01,1.404112197262379763e-02
3.264000000000000057e+01,1.167275199184772752e-02
3.267999999999999972e+01,1.452555597766838451e-02
3.271999999999999886e+01,1.560660570677376707e-02
3.275999999999999801e+01,1.678068173089157858e-02
3.279999999999999716e+01,2.382860427071466919e-02
3.284000000000000341e+01,1.567835010260447415e-02
3.288000000000000256e+01,1.769093779207870851e-02
3.292000000000000171e+01,1.420220842026001518e-02
3.296000000000000085e+01,1.323071916153541368e-02
3.300000000000000000e+01,1.822631424316626184e-02
3.303999999999999915e+01,1.557609362049479189e-02
3.307999999999999829e+01,1.376480966659443354e-02
3.311999999999999744e+01,1.260598405897327828e-02
3.315999999999999659e+01,1.107398711750394969e-02
3.320000000000000284e+01,1.215246787076146480e-02
3.324000000000000199e+01,8.568780976221915605e-03
3.328000000000000114e+01,1.281695751566093618e-02
3.332000000000000028e+01,1.547985423259771488e-02
3.335999999999999943e+01,1.515888528795585055e-02
3.339999999999999858e+01,1.222700659766698394e-02
3.343999999999999773e+01,1.022730142872961892e-02
3.347999999999999687e+01,1.055835513418524815e-02
3.352000000000000313e+01,9.117649722576927351e-03
3.356000000000000227e+01,1.215220061328373992e-02
3.360000000000000142e+01,1.313527478167995921e-02
3.364000000000000057e+01,1.253306718343448131e-02
3.367999999999999972e+01,1.053205565500436175e-02
3.371999999999999886e+01,9.836172105752759645e-03
3.375999999999999801e+01,1.352230460399189531e-02
3.379999999999999716e+01,1.870004267484922517e-02
3.384000000000000341e+01,1.035790067760818459e-02
3.388000000000000256e+01,1.078000886645686350e-02
3.392000000000000171e+01,1.698271772678550118e-02
3.396000000000000085e+01,1.292891218076758914e-02
3.400000000000000000e+01,9.900515793594447458e-03
3.403999999999999915e+01,9.482591997782008342e-03
3.407999999999999829e+01,1.633709253717595747e-02
3.411999999999999744e+01,1.209592634051835300e-02
3.415999999999999659e+01,1.428803263539690262e-02
3.420000000000000284e+01,2.235397694037062968e-02
3.424000000000000199e+01,2.914182786482419091e-03
3.428000000000000114e+01,1.069996625648743024e-02
3.432000000000000028e+01,1.056020912642060584e-02
3.435999999999999943e+01,9.954034332245441721e-03
3.439999999999999858e+01,1.624732577018814239e-02
3.443999999999999773e+01,1.825139842875992888e-02
3.447999999999999687e+01,1.736483766100225742e-02
3.452000000000000313e+01,1.806311713128628746e-02
3.456000000000000227e+01,1.419245997393527546e-02
3.460000000000000142e+01,1.656859455545420245e-02
3.464000000000000057e+01,1.530818242067585877e-02
3.467999999999999972e+01,1.376782875712420119e-02
3.471999999999999886e+01,1.092190388467199728e-02
3.475999999999999801e+01,1.264446706374926233e-02
3.479999999999999716e+01,1.800312765396593420e-02
3.484000000000000341e+01,1.804693759752748136e-02
3.488000000000000256e+01,1.175026721430656555e-02
3.492000000000000171e+01,1.542994821530660303e-02
3.496000000000000085e+01,2.041474966194477617e-02
3.500000000000000000e+01,1.877935293353644175e-02
3.503999999999999915e+01,1.416008033681735029e-02
3.507999999999999829e+01,2.194137318541826073e-02
3.511999999999999744e+01,1.844051514305729972e-02
3.515999999999999659e+01,1.559210305308646530e-02
3.520000000000000284e+01,2.309299680516360351e-02
3.524000000000000199e+01,2.332101764592879947e-02
3.528000000000000114e+01,2.103135635896493522e-02
3.532000000000000028e+01,2.275074548286296072e-02
3.535999999999999943e+01,2.083358351614995538e-02
3.539999999999999858e+01,2.506996938822096677e-02
3.543999999999999773e+01,2.669543312075596531e-02
3.547999999999999687e+01,3.410148804709108028e-02
3.552000000000000313e+01,3.069158485097628342e-02
3.556000000000000227e+01,3.324875044210123809e-02
3.560000000000000142e+01,3.822990106743259092e-02
3.564000000000000057e+01,4.311758241104683004e-02
3.567999999999999972e+01,3.234087459380385887e-02
3.571999999999999886e+01,3.592274816808444654e-02
3.575999999999999801e+01,3.157907239366569002e-02
3.579999999999999716e+01,3.040529275626424610e-02
3.584000000000000341e+01,2.951099878100758855e-02
3.588000000000000256e+01,2.982858062225086926e-02
3.592000000000000171e+01,3.014593052039233473e-02
3.596000000000000085e+01,4.155849396114861399e-02
3.600000000000000000e+01,3.665399301874738142e-02
3.603999999999999915e+01,3.398699635788628159e-02
3.607999999999999829e+01,2.861583462947298387e-02
3.611999999999999744e+01,3.471284163055385341e-02
3.615999999999999659e+01,2.402658807772117475e-02
3.620000000000000284e+01,1.790881382779044295e-02
3.624000000000000199e+01,1.663923575695598622e-02
3.628000000000000114e+01,1.770039954929436554e-02
3.632000000000000028e+01,1.764246049150939785e-02
3.635999999999999943e+01,2.084765320823497164e-02
3.639999999999999858e+01,1.510166325087240052e-02
3.643999999999999773e+01,1.877258120464478028e-02
3.647999999999999687e+01,1.339907695855687732e-02
3.652000000000000313e+01,1.156842063412157236e-02
3.656000000000000227e+01,1.738312973676095843e-02
3.660000000000000142e+01,1.965451925498622535e-02
3.664000000000000057e+01,2.453636556843917516e-02
3.667999999999999972e+01,1.841576863246217194e-02
3.671999999999999886e+01,2.087292654886278159e-02
3.675999999999999801e+01,1.950704678956771340e-02
3.679999999999999716e+01,1.795445166131278206e-02
3.684000000000000341e+01,2.395398121927326193e-02
3.688000000000000256e+01,1.764571975639497858e-02
3.692000000000000171e+01,1.562621610289308127e-02
3.696000000000000085e+01,2.125207544629157189e-02
3.700000000000000000e+01,2.249546141746622610e-02
3.703999999999999915e+01,2.523043327684716328e-02
3.707999999999999829e+01,2.265054088059677631e-02
3.711999999999999744e+01,2.771601050917706088e-02
3.715999999999999659e+01,3.390010913796222269e-02
3.720000000000000284e+01,4.409324675578998876e-02
3.724000000000000199e+01,5.960076967596457387e-02
3.728000000000000114e+01,7.874437494019784212e-02
3.732000000000000028e+01,8.697877210645948987e-02
3.735999999999999943e+01,8.747408828279906734e-02
3.739999999999999858e+01,6.922811653720219172e-02
3.743999999999999773e+01,5.722891927623758451e-02
3.747999999999999687e+01,4.569567579317762585e-02
3.752000000000000313e+01,2.950023865945545359e-02
3.756000000000000227e+01,3.111321620873370303e-02
3.760000000000000142e+01,2.908962905842476035e-02
3.764000000000000057e+01,2.548073583973098702e-02
3.767999999999999972e+01,2.634707389255689508e-02
3.771999999999999886e+01,2.646725674859844515e-02
3.775999999999999801e+01,2.891817247616784020e-02
3.779999999999999716e+01,2.540154629563132552e-02
3.784000000000000341e+01,2.300354498400337608e-02
3.788000000000000256e+01,2.386866621222359652e-02
3.792000000000000171e+01,2.902253917438443048e-02
3.796000000000000085e+01,2.867506445505593748e-02
3.800000000000000000e+01,2.758143283782105507e-02
3.803999999999999915e+01,2.201208249017190879e-02
3.807999999999999829e+01,2.968243071917074302e-02
3.811999999999999744e+01,2.933397622170447888e-02
3.815999999999999659e+01,3.327427200007423980e-02
3.820000000000000284e+01,2.826337416857141113e-02
3.824000000000000199e+01,3.378824178926626703e-02
3.828000000000000114e+01,3.045515435379095998e-02
3.832000000000000028e+01,4.176034963291798408e-02
3.835999999999999943e+01,3.544311963453736919e-02
3.839999999999999858e+01,4.068728355339459174e-02
3.843999999999999773e+01,4.341374614614570970e-02
3.847999999999999687e+01,5.005600091164432580e-02
3.852000000000000313e+01,5.557913946106091130e-02
3.856000000000000227e+01,6.613693817403729081e-02
3.860000000000000142e+01,9.086682270180766741e-02
3.864000000000000057e+01,1.160626539599771828e-01
3.867999999999999972e+01,1.343585475662846807e-01
3.871999999999999886e+01,1.334469500323942071e-01
3.875999999999999801e+01,1.404604216788314930e-01
3.879999999999999716e+01,1.539071376267828750e-01
3.884000000000000341e+01,1.787287667393058777e-01
3.888000000000000256e+01,2.466265822840519595e-01
3.892000000000000171e+01,4.073902312377014057e-01
3.896000000000000085e+01,5.947267561040439077e-01
3.900000000000000000e+01,7.341381638899897588e-01
3.903999999999999915e+01,8.564865765055551527e-01
3.907999999999999829e+01,1.000000000000000000e+00
3.911999999999999744e+01,9.399723483635062937e-01
3.915999999999999659e+01,7.143519105261221247e-01
3.920000000000000284e+01,5.672384922769809767e-01
3.924000000000000199e+01,3.929922613507478291e-01
3.928000000000000114e+01,2.421487770420014118e-01
3.932000000000000028e+01,1.713041362282419766e-01
3.935999999999999943e+01,1.525798657850108708e-01
3.939999999999999858e+01,1.553003213957315498e-01
3.943999999999999773e+01,1.857125184797830952e-01
3.947999999999999687e+01,2.109963148066320016e-01
3.952000000000000313e+01,2.254641287092878921e-01
3.956000000000000227e+01,2.209109244478542344e-01
3.960000000000000142e+01,2.037701955211846661e-01
3.964000000000000057e+01,1.588439782090881880e-01
3.967999999999999972e+01,1.497212973693597682e-01
3.971999999999999886e+01,1.356566923937986002e-01
3.975999999999999801e+01,1.553443645303509424e-01
3.979999999999999716e+01,1.947984575754100056e-01
3.984000000000000341e+01,2.542054493654329339e-01
3.988000000000000256e+01,3.043815202196393788e-01
3.992000000000000171e+01,3.447672356565883445e-01
3.996000000000000085e+01,3.351765693065026364e-01
4.000000000000000000e+01,2.840010345027182970e-01
4.003999999999999915e+01,2.315198961687150725e-01
4.007999999999999829e+01,1.733509191938240879e-01
4.011999999999999744e+01,1.340159707859278626e-01
4.015999999999999659e+01,1.311372292123512695e-01
4.020000000000000284e+01,1.273258392954351170e-01
4.024000000000000199e+01,1.140970481760710392e-01
4.028000000000000114e+01,1.067420581281525727e-01
4.032000000000000028e+01,8.941023215332777330e-02
4.035999999999999943e+01,8.168176835340421049e-02
4.039999999999999858e+01,6.668040029292003623e-02
4.043999999999999773e+01,4.645738660307758422e-02
4.047999999999999687e+01,4.208475002148057142e-02
4.052000000000000313e+01,4.032254666242041097e-02
4.056000000000000227e+01,3.315221886547517482e-02
4.060000000000000142e+01,3.260160251373416668e-02
4.064000000000000057e+01,3.363578921836785779e-02
4.067999999999999972e+01,2.870241651764057073e-02
4.071999999999999886e+01,3.001579837411621002e-02
4.075999999999999801e+01,2.424275186234887969e-02
4.079999999999999716e+01,1.604522872618424981e-02
4.084000000000000341e+01,1.838345524608426748e-02
4.088000000000000256e+01,2.584956687427033065e-02
4.092000000000000171e+01,2.249968757265321390e-02
4.096000000000000085e+01,2.241291209854208086e-02
4.100000000000000000e+01,1.663829239414230804e-02
4.103999999999999915e+01,1.813605473991584949e-02
4.107999999999999829e+01,1.963355379333888567e-02
4.111999999999999744e+01,1.264603669530317727e-02
4.115999999999999659e+01,2.178860969342832563e-02
4.120000000000000284e+01,1.573295519297703698e-02
4.124000000000000199e+01,1.387279321628227119e-02
4.128000000000000114e+01,2.096331454692696231e-02
4.132000000000000028e+01,2.152683834550823613e-02
4.135999999999999943e+01,1.463097397163603056e-02
4.139999999999999858e+01,1.416833810314491182e-02
4.143999999999999773e+01,1.118798268224032583e-02
4.147999999999999687e+01,1.025862041303066477e-02
4.152000000000000313e+01,1.091405585381220560e-02
4.156000000000000227e+01,1.212865932445761526e-02
4.160000000000000142e+01,1.259708402562780341e-02
4.164000000000000057e+01,1.558269610510949754e-02
4.167999999999999972e+01,1.157511326668459427e-02
4.171999999999999886e+01,1.586553778424655559e-02
4.175999999999999801e+01,1.791795792446738977e-02
4.179999999999999716e+01,1.092592354350953310e-02
4.184000000000000341e+01,9.248246517893890864e-03
4.188000000000000256e+01,1.232549236617947082e-02
4.192000000000000171e+01,2.053061700429785474e-02
4.196000000000000085e+01,1.577524648020285636e-02
4.200000000000000000e+01,1.474916866384689239e-02
4.203999999999999915e+01,1.754562235194979600e-02
4.207999999999999829e+01,1.782435259936029914e-02
4.211999999999999744e+01,1.110988525567245359e-02
4.215999999999999659e+01,1.632974514453296166e-02
4.220000000000000284e+01,8.402630333600977913e-03
4.224000000000000199e+01,1.352871074602957947e-02
4.228000000000000114e+01,1.128863643634104783e-02
4.232000000000000028e+01,1.240489673130307051e-02
4.235999999999999943e+01,1.818283794421984498e-02
4.239999999999999858e+01,1.445012579201016348e-02
4.243999999999999773e+01,1.537909407172040853e-02
4.247999999999999687e+01,1.425653167925026478e-02
4.252000000000000313e+01,1.481199996107278143e-02
4.256000000000000227e+01,1.471452268073900060e-02
4.260000000000000142e+01,1.349790439654515589e-02
4.264000000000000057e+01,1.032299350783847866e-02
4.267999999999999972e+01,1.311510814926876434e-02
4.271999999999999886e+01,1.012612907092364477e-02
4.275999999999999801e+01,1.431628255326503237e-02
4.279999999999999716e+01,9.368736399254702987e-03
4.284000000000000341e+01,1.243947367753137599e-02
4.288000000000000256e+01,2.306229894639133179e-02
4.292000000000000171e+01,1.951251570403513685e-02
4.296000000000000085e+01,1.875962893962699468e-02
4.300000000000000000e+01,2.322785344331830884e-02
4.303999999999999915e+01,2.135554804467114723e-02
4.307999999999999829e+01,2.479759246782579918e-02
4.311999999999999744e+01,1.481293948257529809e-02
4.315999999999999659e+01,2.049216924392776792e-02
4.320000000000000284e+01,1.628778462085614387e-02
4.324000000000000199e+01,1.749098788725386364e-02
4.328000000000000114e+01,1.375224538926750513e-02
4.332000000000000028e+01,2.082895459947678440e-02
4.335999999999999943e+01,1.923415596977664371e-02
4.339999999999999858e+01,1.493514780033439009e-02
4.343999999999999773e+01,1.445866262974088157e-02
4.347999999999999687e+01,9.972620877048725060e-03
4.352000000000000313e+01,9.775296835856742486e-03
4.356000000000000227e+01,1.461260258104566528e-02
4.360000000000000142e+01,1.739837084956611518e-02
4.364000000000000057e+01,1.235178093469045495e-02
4.367999999999999972e+01,1.261953719635516315e-02
4.371999999999999886e+01,1.419236068284054561e-02
4.375999999999999801e+01,1.380688476032500799e-02
4.379999999999999716e+01,1.649801733160323816e-02
4.384000000000000341e+01,1.303509321966895423e-02
4.388000000000000256e+01,1.470003598971330629e-02
4.392000000000000171e+01,1.095683390840836678e-02
4.396000000000000085e+01,1.019700030909020602e-02
4.400000000000000000e+01,1.531094518059652500e-02
4.403999999999999915e+01,1.473702735248942110e-02
4.407999999999999829e+01,1.351015472756364640e-02
4.411999999999999744e+01,1.153708802306444188e-02
4.415999999999999659e+01,1.012317355229610909e-02
4.420000000000000284e+01,1.542218769490041885e-02
4.424000000000000199e+01,1.466038176385513724e-02
4.428000000000000114e+01,1.762785468855529100e-02
4.432000000000000028e+01,1.817082960332418520e-02
4.435999999999999943e+01,2.468081984149792657e-02
4.439999999999999858e+01,2.969870198107817452e-02
4.443999999999999773e+01,3.219884634193757172e-02
4.447999999999999687e+01,4.439556688664002271e-02
4.452000000000000313e+01,5.603256900106928090e-02
4.456000000000000227e+01,5.918453406454068227e-02
4.460000000000000142e+01,5.254611527771511914e-02
4.464000000000000057e+01,4.870458276210547222e-02
4.467999999999999972e+01,3.348760223463057711e-02
4.471999999999999886e+01,2.582269851893710666e-02
4.475999999999999801e+01,2.160735362356810615e-02
4.479999999999999716e+01,2.317254329893768394e-02
4.484000000000000341e+01,2.156731948725130327e-02
4.488000000000000256e+01,1.986857025682119138e-02
4.492000000000000171e+01,1.602503649041008352e-02
4.496000000000000085e+01,1.218121585895764331e-02
4.500000000000000000e+01,1.747453401369802178e-02
4.503999999999999915e+01,1.316394372442422807e-02
4.507999999999999829e+01,1.668514517898678218e-02
4.511999999999999744e+01,1.321313081614360063e-02
4.515999999999999659e+01,1.458925843950951984e-02
4.520000000000000284e+01,1.913522509079638306e-02
4.524000000000000199e+01,1.612854095720166886e-02
4.528000000000000114e+01,1.554578304759493372e-02
4.532000000000000028e+01,2.018412231107660423e-02
4.535999999999999943e+01,1.587122446456549346e-02
4.539999999999999858e+01,1.314310075535470024e-02
4.543999999999999773e+01,1.451720501333289906e-02
4.547999999999999687e+01,1.020343782307015119e-02
4.552000000000000313e+01,8.966268676851626290e-03
4.556000000000000227e+01,1.416230276220133491e-02
4.560000000000000142e+01,1.562848450474032050e-02
4.564000000000000057e+01,1.308509654223935156e-02
4.567999999999999972e+01,1.566956452593263813e-02
4.571999999999999886e+01,1.797402390804157118e-02
4.575999999999999801e+01,1.598919573684650167e-02
4.579999999999999716e+01,1.736068102778538791e-02
4.584000000000000341e+01,1.901159122651124161e-02
4.588000000000000256e+01,1.683940834156707686e-02
4.592000000000000171e+01,2.296520729577949602e-02
4.596000000000000085e+01,2.293693668685545944e-02
4.600000000000000000e+01,1.833965994731103291e-02
4.603999999999999915e+01,2.595640398683587632e-02
4.607999999999999829e+01,2.443542846257965029e-02
4.611999999999999744e+01,2.132909535024309772e-02
4.615999999999999659e+01,2.391004950631517648e-02
4.620000000000000284e+01,1.763300048876566967e-02
4.624000000000000199e+01,1.592436977674282009e-02
4.628000000000000114e+01,1.729233249143301634e-02
4.632000000000000028e+01,2.136393223086976989e-02
4.635999999999999943e+01,1.946793805647028044e-02
4.639999999999999858e+01,1.934319002340987789e-02
4.643999999999999773e+01,2.033701461051031986e-02
4.647999999999999687e+01,1.629563495209485416e-02
4.652000000000000313e+01,2.083195060678627933e-02
4.656000000000000227e+01,1.809532457623265478e-02
4.660000000000000142e+01,1.862176810772716434e-02
4.664000000000000057e+01,1.252794274610260876e-02
4.667999999999999972e+01,1.902109043421745457e-02
4.671999999999999886e+01,1.926692490212741915e-02
4.675999999999999801e+01,1.634233421814472800e-02
4.679999999999999716e+01,1.724024611954654007e-02
4.684000000000000341e+01,1.431505910485998331e-02
4.688000000000000256e+01,1.735687210348012266e-02
4.692000000000000171e+01,1.834712745498498845e-02
4.696000000000000085e+01,8.801072300266344836e-03
4.700000000000000000e+01,1.277437864852028551e-02
4.703999999999999915e+01,1.395021430270858634e-02
4.707999999999999829e+01,1.167590574165297893e-02
4.711999999999999744e+01,1.210522934499528441e-02
4.715999999999999659e+01,8.618213048372505222e-03
4.720000000000000284e+01,1.436156121172111645e-02
4.724000000000000199e+01,1.227252932010479761e-02
4.728000000000000114e+01,1.298036766055393754e-02
4.732000000000000028e+01,1.154340688397625589e-02
4.735999999999999943e+01,1.038586178052308684e-02
4.739999999999999858e+01,1.202518618008310142e-02
4.743999999999999773e+01,1.291829632962292890e-02
4.747999999999999687e+01,1.306519198612508294e-02
4.752000000000000313e+01,1.293206810525851166e-02
4.756000000000000227e+01,1.457018331822548633e-02
4.760000000000000142e+01,1.089337036197671887e-02
4.764000000000000057e+01,1.178496720564450179e-02
4.767999999999999972e+01,1.239654353987379790e-02
4.771999999999999886e+01,1.627118263166311973e-02
4.775999999999999801e+01,1.175400427083733539e-02
4.779999999999999716e+01,1.795901136051765087e-02
4.784000000000000341e+01,9.898141008100503832e-03
4.788000000000000256e+01,1.227973850094280298e-02
4.792000000000000171e+01,1.130442571491240000e-02
4.796000000000000085e+01,1.517723790387086671e-02
4.800000000000000000e+01,1.494722701002368891e-02
4.803999999999999915e+01,2.301518507540920369e-02
4.807999999999999829e+01,1.914824023402422054e-02
4.811999999999999744e+01,1.835787764055043375e-02
4.815999999999999659e+01,1.421060331009933730e-02
4.820000000000000284e+01,1.714918945022681288e-02
4.824000000000000199e+01,1.794297088392655601e-02
4.828000000000000114e+01,1.920264048082441846e-02
4.832000000000000028e+01,1.253668442154944919e-02
4.835999999999999943e+01,1.584699809263843961e-02
4.839999999999999858e+01,1.962319919787326380e-02
4.843999999999999773e+01,1.883037934842438435e-02
4.847999999999999687e+01,1.216319174495267448e-02
4.852000000000000313e+01,1.323453594608094315e-02
4.856000000000000227e+01,1.812837203982674283e-02
4.860000000000000142e+01,1.938557660419169826e-02
4.864000000000000057e+01,1.271715356824437530e-02
4.867999999999999972e+01,9.498265536913241824e-03
4.871999999999999886e+01,1.327199577719683117e-02
4.875999999999999801e+01,1.033220520470022954e-02
4.879999999999999716e+01,1.205405642435191868e-02
4.884000000000000341e+01,8.647450020722006678e-03
4.888000000000000256e+01,1.158078763847624794e-02
4.892000000000000171e+01,1.255579449798091898e-02
4.896000000000000085e+01,1.278457787280300011e-02
4.900000000000000000e+01,1.413191831467029182e-02
4.903999999999999915e+01,1.174938551422773612e-02
4.907999999999999829e+01,1.589327359955669539e-02
4.911999999999999744e+01,1.640052699627823907e-02
4.915999999999999659e+01,1.345762354084941922e-02
4.920000000000000284e+01,1.853296487793601802e-02
4.924000000000000199e+01,1.260578665811920747e-02
4.928000000000000114e+01,2.290188824166195999e-02
4.932000000000000028e+01,1.865238627225054499e-02
4.935999999999999943e+01,1.990367405037872864e-02
4.939999999999999858e+01,2.255323358458957012e-02
4.943999999999999773e+01,2.697402079081471366e-02
4.947999999999999687e+01,3.372546966446027944e-02
4.952000000000000313e+01,3.031354863771577868e-02
4.956000000000000227e+01,2.624863952076449472e-02
4.960000000000000142e+01,2.600621597797750026e-02
4.964000000000000057e+01,2.632291137553327207e-02
4.967999999999999972e+01,1.908692901327255220e-02
4.971999999999999886e+01,1.660582189349648144e-02
4.975999999999999801e+01,1.151370563394395023e-02
4.979999999999999716e+01,1.947473866745748697e-02
4.984000000000000341e+01,9.440320518511532630e-03
4.988000000000000256e+01,1.255229021633401734e-02
4.992000000000000171e+01,1.911378738523236004e-02
4.996000000000000085e+01,1.746993181503139064e-02
5.000000000000000000e+01,1.657167107749076690e-02
5.003999999999999915e+01,1.958913228065997658e-02
5.007999999999999829e+01,1.281617634014412845e-02
5.011999999999999744e+01,1.592624039748801942e-02
5.015999999999999659e+01,2.108724487174422346e-02
5.020000000000000284e+01,1.263503084403531235e-02
5.024000000000000199e+01,1.210781625065136813e-02
5.028000000000000114e+01,1.391125846433919136e-02
5.032000000000000028e+01,1.039975598362596378e-02
5.035999999999999943e+01,1.416057893002451579e-02
5.039999999999999858e+01,1.363208613309699682e-02
5.043999999999999773e+01,1.683283476723049232e-02
5.047999999999999687e+01,1.900763356280719962e-02
5.052000000000000313e+01,1.987676515759791498e-02
5.056000000000000227e+01,1.916051218937342426e-02
5.060000000000000142e+01,2.189378256092841188e-02
5.064000000000000057e+01,1.492987142629156015e-02
5.067999999999999972e+01,2.176501655623538575e-02
5.071999999999999886e+01,1.871650161447801011e-02
5.075999999999999801e+01,2.294030966965809534e-02
5.079999999999999716e+01,2.073030163738078663e-02
5.084000000000000341e+01,2.625881131469242138e-02
5.088000000000000256e+01,2.134422570980952158e-02
5.092000000000000171e+01,2.444787444769249557e-02
5.096000000000000085e+01,2.624585331159771592e-02
5.100000000000000000e+01,2.599224974060969362e-02
5.103999999999999915e+01,2.788282027988771630e-02
5.107999999999999829e+01,2.473815862664527354e-02
5.111999999999999744e+01,3.194270609451305143e-02
5.115999999999999659e+01,3.196752296986847541e-02
5.120000000000000284e+01,2.471936996995680036e-02
5.124000000000000199e+01,2.511649320972248606e-02
5.128000000000000114e+01,2.402146655189647470e-02
5.132000000000000028e+01,2.357878766741832929e-02
5.135999999999999943e+01,2.649238846565121416e-02
5.139999999999999858e+01,2.315864761063973765e-02
5.143999999999999773e+01,2.066373187939836778e-02
5.147999999999999687e+01,2.236424645945109257e-02
5.152000000000000313e+01,2.247937064407025745e-02
5.156000000000000227e+01,2.427247058104257255e-02
5.160000000000000142e+01,1.133347503359258268e-02
5.164000000000000057e+01,1.750815518332881141e-02
5.167999999999999972e+01,1.333297423025915640e-02
5.171999999999999886e+01,1.624363236223412554e-02
5.175999999999999801e+01,1.784861575988271054e-02
5.179999999999999716e+01,1.376568931253622022e-02
5.184000000000000341e+01,1.826042585697822823e-02
5.188000000000000256e+01,1.902527190487276337e-02
5.192000000000000171e+01,2.044246208085369679e-02
5.196000000000000085e+01,1.663793663845612378e-02
5.200000000000000000e+01,1.618968699049069121e-02
5.203999999999999915e+01,1.919095193367718541e-02
5.207999999999999829e+01,1.352065605915421173e-02
5.211999999999999744e+01,1.074044005132475735e-02
5.215999999999999659e+01,1.560549469377174592e-02
5.220000000000000284e+01,1.496911514052383374e-02
5.224000000000000199e+01,1.405268737385027659e-02
5.228000000000000114e+01,1.285621115073361763e-02
5.232000000000000028e+01,1.026081775130927194e-02
5.235999999999999943e+01,3.842291899391031117e-03
5.239999999999999858e+01,1.150252898151570696e-02
5.243999999999999773e+01,1.375456944957814676e-02
5.247999999999999687e+01,1.311586713346702369e-02
5.252000000000000313e+01,1.490104705518880378e-02
5.256000000000000227e+01,1.612645970013367597e-02
5.260000000000000142e+01,1.334226035500551098e-02
5.264000000000000057e+01,1.400757195576787621e-02
5.267999999999999972e+01,8.891729325414349239e-03
5.271999999999999886e+01,1.403184705573656994e-02
5.275999999999999801e+01,1.320433198943355042e-02
5.279999999999999716e+01,1.480069745984144078e-02
5.284000000000000341e+01,2.087220209816249492e-02
5.288000000000000256e+01,1.146569115760533511e-02
5.292000000000000171e+01,1.585822287265272953e-02
5.296000000000000085e+01,1.185890554281887783e-02
5.300000000000000000e+01,1.466570240226006995e-02
5.303999999999999915e+01,1.570062155213079735e-02
5.307999999999999829e+01,1.645548738520977161e-02
5.311999999999999744e+01,1.646410445979329049e-02
5.315999999999999659e+01,1.292930134074606746e-02
5.320000000000000284e+01,1.377639616271789623e-02
5.324000000000000199e+01,1.219893878187125469e-02
5.328000000000000114e+01,1.276564190231454544e-02
5.332000000000000028e+01,1.780748127446188725e-02
5.335999999999999943e+01,1.538985956892629722e-02
5.339999999999999858e+01,1.157331412561239843e-02
5.343999999999999773e+01,1.074007956915405855e-02
5.347999999999999687e+01,9.720028305466933347e-03
5.352000000000000313e+01,1.671819558841263278e-02
5.356000000000000227e+01,1.131523147251340712e-02
5.360000000000000142e+01,1.327781213905131555e-02
5.364000000000000057e+01,1.607920456340057591e-02
5.367999999999999972e+01,1.477773939646891653e-02
5.371999999999999886e+01,1.086524103103509928e-02
5.375999999999999801e+01,1.254674472096072198e-02
5.379999999999999716e+01,1.320227840188272633e-02
5.384000000000000341e+01,1.590873014211338643e-02
5.388000000000000256e+01,1.814864562572914009e-02
5.392000000000000171e+01,1.563302878179855318e-02
5.396000000000000085e+01,1.311707039390454764e-02
5.400000000000000000e+01,1.600863452379083438e-02
5.403999999999999915e+01,1.899309566341609440e-02
5.407999999999999829e+01,1.069529072181696176e-02
5.411999999999999744e+01,1.666271634398572288e-02
5.415999999999999659e+01,1.041548500152261400e-02
5.420000000000000284e+01,1.470392214730203984e-02
5.424000000000000199e+01,1.088021959085428564e-02
5.428000000000000114e+01,1.339642824843739408e-02
5.432000000000000028e+01,1.600553221463747039e-02
5.435999999999999943e+01,1.460501349799756508e-02
5.439999999999999858e+01,1.422978000131234350e-02
5.443999999999999773e+01,1.170970413049748915e-02
5.447999999999999687e+01,1.506334305994006841e-02
5.452000000000000313e+01,1.459383641394747765e-02
5.456000000000000227e+01,7.783729876596179841e-03
5.460000000000000142e+01,1.384026539074464587e-02
5.464000000000000057e+01,1.159818069301707909e-02
5.467999999999999972e+01,1.289883358702823175e-02
5.471999999999999886e+01,1.102901296867789087e-02
5.475999999999999801e+01,1.242221233681964354e-02
5.479999999999999716e+01,8.407200752870712043e-03
5.484000000000000341e+01,1.688587360336790688e-02
5.488000000000000256e+01,1.156482143938607210e-02
5.492000000000000171e+01,1.109185196536002088e-02
5.496000000000000085e+01,1.546696493827233974e-02
5.500000000000000000e+01,1.350147534663423236e-02
5.503999999999999915e+01,1.573139443773884788e-02
5.507999999999999829e+01,1.292605703457978990e-02
5.511999999999999744e+01,1.123923951679894548e-02
5.515999999999999659e+01,1.635852306535183487e-02
5.520000000000000284e+01,1.261974876136106108e-02
5.524000000000000199e+01,1.466144560055924161e-02
5.528000000000000114e+01,1.409209976357546704e-02
5.532000000000000028e+01,8.580735013960684096e-03
5.535999999999999943e+01,9.875470115592505094e-03
5.539999999999999858e+01,1.144957204384512012e-02
5.543999999999999773e+01,1.591373366834447287e-02
5.547999999999999687e+01,1.496968020945681557e-02
5.552000000000000313e+01,1.150782165601983362e-02
5.556000000000000227e+01,1.951401372560537112e-02
5.560000000000000142e+01,1.390695448587256529e-02
5.564000000000000057e+01,1.146967084651110205e-02
5.567999999999999972e+01,1.863565630637463791e-02
5.571999999999999886e+01,1.675710267499333148e-02
5.575999999999999801e+01,1.655649927913490846e-02
5.579999999999999716e+01,1.710145547840929980e-02
5.584000000000000341e+01,1.745958063242647809e-02
5.588000000000000256e+01,1.688496218027088491e-02
5.592000000000000171e+01,1.668294643524675241e-02
5.596000000000000085e+01,1.498875235959146179e-02
5.600000000000000000e+01,1.944798096874298526e-02
5.603999999999999915e+01,2.148264036385585246e-02
5.607999999999999829e+01,2.361018437481868931e-02
5.611999999999999744e+01,2.788187163283378442e-02
5.615999999999999659e+01,2.236310480851427460e-02
5.620000000000000284e+01,2.896505799709920420e-02
5.624000000000000199e+01,3.379511403471911063e-02
5.628000000000000114e+01,3.303047204912887280e-02
5.632000000000000028e+01,4.559865686397514967e-02
5.635999999999999943e+01,4.968173293772134430e-02
5.639999999999999858e+01,4.425407059024005080e-02
5.643999999999999773e+01,4.805671656570349032e-02
5.647999999999999687e+01,4.029736475968490744e-02
5.652000000000000313e+01,3.430919761159522546e-02
5.656000000000000227e+01,2.990573679894250811e-02
5.660000000000000142e+01,2.662078688002305488e-02
5.664000000000000057e+01,2.296252297602320233e-02
5.667999999999999972e+01,2.079572563867077006e-02
5.671999999999999886e+01,1.713674535335594704e-02
5.675999999999999801e+01,2.056357353288940440e-02
5.679999999999999716e+01,1.830246149024880239e-02
5.684000000000000341e+01,1.436268769111902210e-02
5.688000000000000256e+01,2.039913185964030082e-02
5.692000000000000171e+01,1.254259958005624412e-02
5.696000000000000085e+01,1.596763133841005988e-02
5.700000000000000000e+01,1.836667364636577343e-02
5.703999999999999915e+01,2.141802897617666943e-02
5.707999999999999829e+01,2.502845804508804436e-02
5.711999999999999744e+01,2.089968607346618518e-02
5.715999999999999659e+01,2.609445709021259233e-02
5.720000000000000284e+01,3.343336479254059579e-02
5.724000000000000199e+01,4.263669181822102305e-02
5.728000000000000114e+01,5.305176464607564563e-02
5.732000000000000028e+01,4.966709763538784683e-02
5.735999999999999943e+01,5.775047031193814018e-02
5.739999999999999858e+01,5.483127385602902526e-02
5.743999999999999773e+01,5.396297358785969583e-02
5.747999999999999687e+01,5.048361727754963058e-02
5.752000000000000313e+01,4.196898964891262324e-02
5.756000000000000227e+01,3.643764787633572283e-02
5.760000000000000142e+01,3.193157188231900839e-02
5.764000000000000057e+01,2.938315182121768732e-02
5.767999999999999972e+01,2.468986970157478755e-02
5.771999999999999886e+01,2.577704365804010800e-02
5.775999999999999801e+01,1.875205652674424850e-02
5.779999999999999716e+01,1.918582770079249253e-02
5.784000000000000341e+01,2.017866799661001756e-02
5.788000000000000256e+01,1.697538614457905215e-02
5.792000000000000171e+01,1.591623660381598707e-02
5.796000000000000085e+01,2.166317111816641605e-02
5.800000000000000000e+01,1.761964037138039410e-02
5.803999999999999915e+01,1.432165561075100270e-02
5.807999999999999829e+01,1.354075834826882173e-02
5.811999999999999744e+01,1.583638257933998872e-02
5.815999999999999659e+01,1.822487878935467182e-02
5.820000000000000284e+01,1.893470498028750060e-02
5.824000000000000199e+01,2.356020329335671223e-02
5.828000000000000114e+01,2.473548934630121626e-02
5.832000000000000028e+01,2.544421216769596553e-02
5.835999999999999943e+01,1.729485793816995173e-02
5.839999999999999858e+01,1.884199532242084724e-02
5.843999999999999773e+01,2.085495914344227125e-02
5.847999999999999687e+01,2.174868548268341431e-02
5.852000000000000313e+01,1.303842148103596769e-02
5.856000000000000227e+01,1.570295083636641387e-02
5.860000000000000142e+01,2.004541317298210931e-02
5.864000000000000057e+01,1.599599195624132331e-02
5.867999999999999972e+01,1.530280595002161265e-02
5.871999999999999886e+01,1.675374739472117527e-02
5.875999999999999801e+01,1.643277637835754978e-02
5.879999999999999716e+01,1.629791249239579895e-02
5.884000000000000341e+01,1.560324317592042334e-02
5.888000000000000256e+01,1.863776401382803011e-02
5.892000000000000171e+01,2.036656661728903153e-02
5.896000000000000085e+01,1.817895763064270032e-02
5.900000000000000000e+01,1.151550257244801125e-02
5.903999999999999915e+01,1.445529620001406029e-02
5.907999999999999829e+01,1.385163366736948815e-02
5.911999999999999744e+01,1.492590095678358528e-02
5.915999999999999659e+01,1.432149239469741875e-02
5.920000000000000284e+01,1.446262277126240253e-02
5.924000000000000199e+01,1.879913631373981639e-02
5.928000000000000114e+01,1.670178224906432654e-02
5.932000000000000028e+01,1.572292255293673488e-02
5.935999999999999943e+01,1.548960082339056847e-02
5.939999999999999858e+01,1.469647026108674391e-02
5.943999999999999773e+01,1.371648678195684298e-02
5.947999999999999687e+01,1.450766997746595795e-02
5.952000000000000313e+01,1.436608745221606628e-02
5.956000000000000227e+01,1.627538823478208788e-02
5.960000000000000142e+01,1.958289880398578556e-02
5.964000000000000057e+01,1.524443206229532041e-02
5.967999999999999972e+01,1.426219445569015289e-02
5.971999999999999886e+01,1.458492686693308414e-02
5.975999999999999801e+01,1.220335034430444776e-02
5.979999999999999716e+01,1.541573918140311424e-02
5.984000000000000341e+01,1.396579876411282312e-02
5.988000000000000256e+01,1.615180338603247959e-02
5.992000000000000171e+01,1.311604402910475017e-02
5.996000000000000085e+01,1.492833674193648139e-02
