2.003999999999999915e+01,1.930973461369848293e-02
2.007999999999999829e+01,1.604433649485922583e-02
2.012000000000000099e+01,1.098224688568109550e-02
2.016000000000000014e+01,1.840042134497624909e-02
2.019999999999999929e+01,2.392735490704973531e-02
2.023999999999999844e+01,7.140382627434184275e-03
2.028000000000000114e+01,2.136535180296015093e-02
2.032000000000000028e+01,1.176362510988775666e-02
2.035999999999999943e+01,1.208932928870298101e-02
2.039999999999999858e+01,2.581645017616822097e-03
2.044000000000000128e+01,1.273997717704046517e-02
2.048000000000000043e+01,1.665779709174312201e-02
2.051999999999999957e+01,1.528059849230025032e-02
2.055999999999999872e+01,1.664507820941188779e-02
2.060000000000000142e+01,1.838750186026177902e-02
2.064000000000000057e+01,2.277705442078191422e-02
2.067999999999999972e+01,1.166025593854460793e-02
2.071999999999999886e+01,1.879123315403609384e-02
2.076000000000000156e+01,9.470365547870821313e-03
2.080000000000000071e+01,2.199014984461494793e-02
2.083999999999999986e+01,1.333062055406981222e-02
2.087999999999999901e+01,8.925559445908360159e-03
2.092000000000000171e+01,1.038230587338429857e-02
2.096000000000000085e+01,1.675536607370630218e-02
2.100000000000000000e+01,1.528057445054170974e-02
2.103999999999999915e+01,7.092523483802323607e-03
2.107999999999999829e+01,1.308662495908146858e-02
2.112000000000000099e+01,6.883603327806750785e-03
2.116000000000000014e+01,1.467363535699776726e-02
2.119999999999999929e+01,1.348122298614212212e-02
2.123999999999999844e+01,1.332859991397486801e-02
2.128000000000000114e+01,1.128473550966982777e-02
2.132000000000000028e+01,1.614272160127368586e-02
2.135999999999999943e+01,1.022182510970056496e-02
2.139999999999999858e+01,1.403926032187025920e-02
2.144000000000000128e+01,1.180528165206346999e-02
2.148000000000000043e+01,9.854697186950464594e-03
2.151999999999999957e+01,9.983945029121378198e-03
2.155999999999999872e+01,1.200392641313166066e-02
2.160000000000000142e+01,1.695468444422484205e-02
2.164000000000000057e+01,2.077059599555482194e-02
2.167999999999999972e+01,9.080156101427186779e-03
2.171999999999999886e+01,1.308465838628314511e-02
2.176000000000000156e+01,7.917617296243639052e-03
2.180000000000000071e+01,1.352895087021849414e-02
2.183999999999999986e+01,2.339475223998485620e-02
2.187999999999999901e+01,1.491772084370377761e-02
2.192000000000000171e+01,1.343708907637967791e-02
2.196000000000000085e+01,1.857465942323140856e-02
2.200000000000000000e+01,1.680987129057960952e-02
2.203999999999999915e+01,1.807040900249093709e-02
2.207999999999999829e+01,1.677785943742599387e-02
2.212000000000000099e+01,1.189217945792500272e-02
2.216000000000000014e+01,1.400289901073307509e-02
2.219999999999999929e+01,1.686975935163235671e-02
2.223999999999999844e+01,1.481979798441496188e-02
2.228000000000000114e+01,1.399872424641443458e-02
2.232000000000000028e+01,1.440653812152273804e-02
2.235999999999999943e+01,1.717783208965172406e-02
2.239999999999999858e+01,1.474865616122718499e-02
2.244000000000000128e+01,6.646263446799228168e-03
2.248000000000000043e+01,1.225327573726775997e-02
2.251999999999999957e+01,2.703132303244486223e-02
2.255999999999999872e+01,1.391705044623680991e-02
2.260000000000000142e+01,1.385033719392293750e-02
2.264000000000000057e+01,6.124870207030746853e-03
2.267999999999999972e+01,8.137734408424990643e-03
2.271999999999999886e+01,1.402686855256126894e-02
2.276000000000000156e+01,5.922440811017028878e-03
2.280000000000000071e+01,1.738947917494169243e-02
2.283999999999999986e+01,7.750987953885246813e-04
2.287999999999999901e+01,9.121498845183036858e-03
2.292000000000000171e+01,2.389700187322451805e-02
2.296000000000000085e+01,1.380576484818737265e-02
2.300000000000000000e+01,1.118367389053269087e-02
2.303999999999999915e+01,6.575791517319522390e-03
2.307999999999999829e+01,1.028799955128771246e-02
2.312000000000000099e+01,1.730918111890791464e-02
2.316000000000000014e+01,1.582066437053061825e-02
2.319999999999999929e+01,1.556103488088600613e-02
2.323999999999999844e+01,1.709758888187600662e-02
2.328000000000000114e+01,1.192088263724278355e-02
2.332000000000000028e+01,7.689415479013216904e-03
2.335999999999999943e+01,8.657909251154149652e-03
2.339999999999999858e+01,1.161168519883427723e-02
2.344000000000000128e+01,1.617254580727232188e-02
2.348000000000000043e+01,7.685337986769002865e-03
2.351999999999999957e+01,6.478177274907382342e-03
2.355999999999999872e+01,4.892564307444679378e-03
2.360000000000000142e+01,8.885109672377752843e-03
2.364000000000000057e+01,6.637141520057225630e-03
2.367999999999999972e+01,1.668033726936790292e-02
2.371999999999999886e+01,1.320271761974753030e-02
2.376000000000000156e+01,1.322316999538761771e-02
2.380000000000000071e+01,9.177744406713622682e-03
2.383999999999999986e+01,1.156142142580237134e-02
2.387999999999999901e+01,1.952325666453077341e-02
2.392000000000000171e+01,1.292423330243642338e-02
2.396000000000000085e+01,1.275431249978066506e-02
2.400000000000000000e+01,9.653106148290870742e-03
2.403999999999999915e+01,9.388126086627132660e-03
2.407999999999999829e+01,6.191860443913244257e-03
2.412000000000000099e+01,1.585405477365247132e-02
2.416000000000000014e+01,1.729019850869903743e-02
2.419999999999999929e+01,1.286402599965320512e-02
2.423999999999999844e+01,1.968897404537485463e-02
2.428000000000000114e+01,1.166941522129663622e-02
2.432000000000000028e+01,1.887205065583974495e-02
2.435999999999999943e+01,1.321571605640198092e-02
2.439999999999999858e+01,1.096290384982812754e-02
2.444000000000000128e+01,1.958301461880838229e-02
2.448000000000000043e+01,1.761334029752363584e-02
2.451999999999999957e+01,1.365787396468401763e-02
2.455999999999999872e+01,1.348412745894957479e-02
2.460000000000000142e+01,1.236463203079592177e-02
2.464000000000000057e+01,8.786597669421643275e-03
2.467999999999999972e+01,9.652128709506846774e-03
2.471999999999999886e+01,1.619036700563191225e-02
2.476000000000000156e+01,1.686628883215250327e-02
2.480000000000000071e+01,1.385452979033216514e-02
2.483999999999999986e+01,1.169345984814269997e-02
2.487999999999999901e+01,1.548874522156603976e-02
2.492000000000000171e+01,9.261541575546294522e-03
2.496000000000000085e+01,1.107077945562658441e-02
2.500000000000000000e+01,1.146152137886583162e-02
2.503999999999999915e+01,8.542779835789427595e-03
2.507999999999999829e+01,8.460264163730831302e-03
2.512000000000000099e+01,1.452320245997363798e-02
2.516000000000000014e+01,1.056365164012531416e-02
2.519999999999999929e+01,1.170951163501067135e-02
2.523999999999999844e+01,1.389515931778356576e-02
2.528000000000000114e+01,1.059668782022114321e-02
2.532000000000000028e+01,8.999849601008514527e-03
2.535999999999999943e+01,1.137382963607758146e-02
2.539999999999999858e+01,5.521758577105769297e-03
2.544000000000000128e+01,1.214994946034946358e-02
2.548000000000000043e+01,1.707599606945094106e-02
2.551999999999999957e+01,1.320869528817750910e-02
2.555999999999999872e+01,1.312311393130912406e-02
2.560000000000000142e+01,6.797018267894661472e-03
2.564000000000000057e+01,1.370757946350225839e-02
2.567999999999999972e+01,1.551221881636784608e-02
2.571999999999999886e+01,2.062583065586469366e-02
2.576000000000000156e+01,5.032873800128882628e-03
2.580000000000000071e+01,1.825629366968149064e-03
2.583999999999999986e+01,1.204414046162610719e-02
2.587999999999999901e+01,7.701792166168877109e-03
2.592000000000000171e+01,1.791979186233428126e-02
2.596000000000000085e+01,1.168594464280185014e-02
2.600000000000000000e+01,9.139267295818008507e-03
2.603999999999999915e+01,1.113070417728977309e-02
2.607999999999999829e+01,1.066360154565256131e-02
2.612000000000000099e+01,9.534397503496718287e-03
2.616000000000000014e+01,1.020137577609083260e-02
2.619999999999999929e+01,8.458645137855227980e-04
2.623999999999999844e+01,1.068362047298701545e-02
2.628000000000000114e+01,1.456450997581129440e-02
2.632000000000000028e+01,6.437373027377189631e-03
2.635999999999999943e+01,4.266590798559588907e-03
2.639999999999999858e+01,1.277963200666689531e-02
2.644000000000000128e+01,1.155383170723173723e-02
2.648000000000000043e+01,8.153139857612670335e-03
2.651999999999999957e+01,6.075883304429683524e-03
2.655999999999999872e+01,1.515519699708135597e-02
2.660000000000000142e+01,5.229830400262105126e-03
2.664000000000000057e+01,1.099940400114132397e-02
2.667999999999999972e+01,9.772067863211574001e-03
2.671999999999999886e+01,1.469018504926286259e-02
2.676000000000000156e+01,1.251684308962091804e-02
2.680000000000000071e+01,1.119418944031745286e-02
2.683999999999999986e+01,1.705703218802256949e-02
2.687999999999999901e+01,9.871805137605616995e-03
2.692000000000000171e+01,8.075636333282962612e-03
2.696000000000000085e+01,1.025028513892168106e-02
2.700000000000000000e+01,1.431566529571056193e-02
2.703999999999999915e+01,1.110048744471336252e-02
2.707999999999999829e+01,5.048572179233651661e-03
2.712000000000000099e+01,1.459704754348808455e-02
2.716000000000000014e+01,7.410027384799290975e-03
2.719999999999999929e+01,3.248330992740557522e-03
2.723999999999999844e+01,1.156689581803691316e-02
2.728000000000000114e+01,4.095458818749452522e-03
2.732000000000000028e+01,1.014432612595266014e-02
2.735999999999999943e+01,9.479931544515762809e-03
2.739999999999999858e+01,1.042262002914388225e-02
2.744000000000000128e+01,9.190416576995747919e-03
2.748000000000000043e+01,1.069988865471661194e-02
2.751999999999999957e+01,1.041266626211851710e-02
2.755999999999999872e+01,1.125977999781178039e-02
2.760000000000000142e+01,1.172843985099498651e-02
2.764000000000000057e+01,7.563923945485328225e-03
2.767999999999999972e+01,1.483962595879101398e-02
2.771999999999999886e+01,6.325325970324788098e-03
2.776000000000000156e+01,3.861929512363050047e-03
2.780000000000000071e+01,1.179870780354094068e-02
2.783999999999999986e+01,1.481866213148095614e-02
2.787999999999999901e+01,1.594737246946158551e-02
2.792000000000000171e+01,7.337240703903443427e-03
2.796000000000000085e+01,6.196253008334650335e-03
2.800000000000000000e+01,9.971576250602329911e-03
2.803999999999999915e+01,1.091016169179532050e-02
2.807999999999999829e+01,8.822910566468963531e-03
2.812000000000000099e+01,1.515029719338322617e-02
2.816000000000000014e+01,1.154974287077397202e-02
2.819999999999999929e+01,1.466193752415943623e-02
2.823999999999999844e+01,1.474829554659345607e-02
2.828000000000000114e+01,7.364996312556580833e-03
2.832000000000000028e+01,3.668866016803753061e-03
2.835999999999999943e+01,1.094020649268848469e-02
2.839999999999999858e+01,1.433476590117476607e-02
2.844000000000000128e+01,7.990482996718133515e-03
2.848000000000000043e+01,7.224356459480171279e-03
2.851999999999999957e+01,1.269823189603114764e-02
2.855999999999999872e+01,8.716913095320211538e-03
2.860000000000000142e+01,4.262590634730686542e-03
2.864000000000000057e+01,6.048270099606076547e-03
2.867999999999999972e+01,1.029197648710519948e-02
2.871999999999999886e+01,4.607741699568644600e-03
2.876000000000000156e+01,6.392650659861318085e-03
2.880000000000000071e+01,3.166185895655510875e-03
2.883999999999999986e+01,1.109629045912777223e-02
2.887999999999999901e+01,4.370985049715843396e-03
2.892000000000000171e+01,8.140403313087669554e-03
2.896000000000000085e+01,1.710978025170869013e-02
2.900000000000000000e+01,4.237994694328329343e-03
2.903999999999999915e+01,6.399302745487542299e-03
2.907999999999999829e+01,9.033100690155488818e-03
2.912000000000000099e+01,6.750074156129139136e-03
2.916000000000000014e+01,3.332198114033838986e-03
2.919999999999999929e+01,1.267823062400617526e-02
2.923999999999999844e+01,2.051121609502018842e-02
2.928000000000000114e+01,5.746643959930075596e-03
2.932000000000000028e+01,1.017533780603005304e-02
2.935999999999999943e+01,1.573836705556096865e-02
2.939999999999999858e+01,9.955214236195095157e-03
2.944000000000000128e+01,1.097935926814396120e-02
2.948000000000000043e+01,9.734062167139810595e-03
2.951999999999999957e+01,1.302687789319441000e-02
2.955999999999999872e+01,7.148147103291846091e-03
2.960000000000000142e+01,2.403751620172133244e-03
2.964000000000000057e+01,1.325974575198186553e-02
2.967999999999999972e+01,5.678354602013947414e-03
2.971999999999999886e+01,1.209001366539783247e-02
2.976000000000000156e+01,3.278966153511349377e-03
2.980000000000000071e+01,5.057191334700730616e-03
2.983999999999999986e+01,1.496640545148137866e-02
2.987999999999999901e+01,1.286759168339084505e-02
2.992000000000000171e+01,8.499335605159178200e-03
2.996000000000000085e+01,1.254571653819974014e-02
3.000000000000000000e+01,1.262076638485322942e-02
3.003999999999999915e+01,5.226158266283377138e-03
3.007999999999999829e+01,1.896915875918491270e-03
3.012000000000000099e+01,1.152068041647369770e-02
3.016000000000000014e+01,1.083830570343161798e-02
3.019999999999999929e+01,7.791939192823984540e-03
3.023999999999999844e+01,1.221471583404925426e-02
3.028000000000000114e+01,3.873069431976591034e-03
3.032000000000000028e+01,7.633485508268960523e-03
3.035999999999999943e+01,1.082634784126209997e-02
3.039999999999999858e+01,6.360453314723107238e-03
3.044000000000000128e+01,9.363701859476946526e-03
3.048000000000000043e+01,9.719310369904232347e-03
3.051999999999999957e+01,7.332729455228568019e-03
3.055999999999999872e+01,5.702285962070233888e-03
3.060000000000000142e+01,1.768669482921416541e-02
3.064000000000000057e+01,8.680884911943347049e-03
3.067999999999999972e+01,5.820526723960640914e-03
3.071999999999999886e+01,7.971027753138104285e-03
3.076000000000000156e+01,1.257955486732280186e-02
3.080000000000000071e+01,1.529683681566347715e-02
3.083999999999999986e+01,9.031670481927336902e-03
3.087999999999999901e+01,7.871912675587650066e-03
3.092000000000000171e+01,1.200666212987308405e-02
3.096000000000000085e+01,9.617246995134238335e-03
3.100000000000000000e+01,5.714784112684687632e-03
3.103999999999999915e+01,1.069970467993278627e-02
3.107999999999999829e+01,6.229429995114358840e-03
3.112000000000000099e+01,5.446323121019367580e-03
3.116000000000000014e+01,1.052501965891139597e-02
3.119999999999999929e+01,3.406589031031292784e-03
3.123999999999999844e+01,1.538687423648849896e-02
3.128000000000000114e+01,1.110440913321934786e-02
3.132000000000000028e+01,1.306194487617848288e-02
3.135999999999999943e+01,1.048085273706823861e-02
3.139999999999999858e+01,1.300516891595034259e-02
3.144000000000000128e+01,1.165270280322534130e-02
3.148000000000000043e+01,8.598090000156840759e-03
3.151999999999999957e+01,9.514292970736719021e-03
3.155999999999999872e+01,8.161052970747043750e-03
3.160000000000000142e+01,0.000000000000000000e+00
3.164000000000000057e+01,1.766373358682103885e-03
3.167999999999999972e+01,1.582390739739362312e-02
3.171999999999999886e+01,1.267319720350735743e-02
3.176000000000000156e+01,8.671284578536503015e-03
3.180000000000000071e+01,6.654650746422990058e-03
3.183999999999999986e+01,1.343085066717855831e-02
3.187999999999999901e+01,4.606145660265987575e-03
3.192000000000000171e+01,1.128727997545799291e-02
3.196000000000000085e+01,9.647811180227228167e-03
3.200000000000000000e+01,1.415379358272031082e-02
3.203999999999999915e+01,8.826382847881323115e-03
3.207999999999999829e+01,3.309615175771998645e-03
3.211999999999999744e+01,1.669113661022556851e-03
3.215999999999999659e+01,8.159600147599841563e-03
3.220000000000000284e+01,8.976865917819596905e-03
3.224000000000000199e+01,1.622323091312011592e-02
3.228000000000000114e+01,9.759678313038944522e-03
3.232000000000000028e+01,5.943249919089315346e-03
3.235999999999999943e+01,2.410211348454933521e-03
3.239999999999999858e+01,1.050648754522748481e-02
3.243999999999999773e+01,7.634777947567892784e-03
3.247999999999999687e+01,2.871822507527926806e-03
3.252000000000000313e+01,7.185348670525928440e-03
3.256000000000000227e+01,7.905740214897592419e-03
3.260000000000000142e+01,7.680379615248124348e-03
3.264000000000000057e+01,6.887464354142899293e-03
3.267999999999999972e+01,7.607080658177115678e-03
3.271999999999999886e+01,8.231889141881209085e-03
3.275999999999999801e+01,9.612834161162091273e-03
3.279999999999999716e+01,1.212811319858511129e-02
3.284000000000000341e+01,4.809998776515899549e-03
3.288000000000000256e+01,6.473816437844225578e-03
3.292000000000000171e+01,8.137375572970676624e-03
3.296000000000000085e+01,1.745917551392206848e-02
3.300000000000000000e+01,9.305982853895541917e-02
3.303999999999999915e+01,1.563688042825798763e-01
3.307999999999999829e+01,5.686349825670482944e-02
3.311999999999999744e+01,1.295296592906641613e-02
3.315999999999999659e+01,1.433132544470846169e-02
3.320000000000000284e+01,9.941914466624445293e-03
3.324000000000000199e+01,1.160340481224763146e-02
3.328000000000000114e+01,1.458832773205348890e-02
3.332000000000000028e+01,1.152183198580421578e-02
3.335999999999999943e+01,7.793231913486688492e-03
3.339999999999999858e+01,7.373601235062744903e-03
3.343999999999999773e+01,1.300487179980597610e-02
3.347999999999999687e+01,6.628113029957229119e-03
3.352000000000000313e+01,1.528444606455102613e-02
3.356000000000000227e+01,1.297279285368846749e-02
3.360000000000000142e+01,8.013498352074608158e-03
3.364000000000000057e+01,1.127974063045951436e-02
3.367999999999999972e+01,1.029100221651549872e-02
3.371999999999999886e+01,1.176028869558600615e-02
3.375999999999999801e+01,1.020373632079989504e-02
3.379999999999999716e+01,1.119975818148062109e-02
3.384000000000000341e+01,2.173287430632217260e-03
3.388000000000000256e+01,9.787247708615947825e-03
3.392000000000000171e+01,8.548084907397018916e-04
3.396000000000000085e+01,7.239109024122928997e-03
3.400000000000000000e+01,1.192126185235808412e-02
3.403999999999999915e+01,9.039205729900660555e-03
3.407999999999999829e+01,1.239714934221892821e-02
3.411999999999999744e+01,1.102736521167853485e-02
3.415999999999999659e+01,7.671785187553029073e-03
3.420000000000000284e+01,1.121805047255751767e-02
3.424000000000000199e+01,8.996544845027652434e-03
3.428000000000000114e+01,6.018385146276984676e-03
3.432000000000000028e+01,1.315674944705551644e-02
3.435999999999999943e+01,1.500008966031731589e-02
3.439999999999999858e+01,7.104585160542850782e-03
3.443999999999999773e+01,1.358032647204846129e-02
3.447999999999999687e+01,5.306106180880233204e-03
3.452000000000000313e+01,8.093903555384482709e-03
3.456000000000000227e+01,9.841398621906846667e-03
3.460000000000000142e+01,6.199320129596092889e-03
3.464000000000000057e+01,8.513593022543950936e-03
3.467999999999999972e+01,6.005588572452645255e-03
3.471999999999999886e+01,5.671960488670688312e-03
3.475999999999999801e+01,8.080005003100030128e-03
3.479999999999999716e+01,8.218605242211150796e-03
3.484000000000000341e+01,7.033254936579304631e-03
3.488000000000000256e+01,8.495027806166455253e-03
3.492000000000000171e+01,1.685864569493940313e-02
3.496000000000000085e+01,7.257623049019173642e-03
3.500000000000000000e+01,9.758660996826941034e-03
3.503999999999999915e+01,8.950211451316773467e-03
3.507999999999999829e+01,1.409811311387709938e-02
3.511999999999999744e+01,9.412620398788665299e-03
3.515999999999999659e+01,8.792491366188056809e-03
3.520000000000000284e+01,4.201029153159215566e-03
3.524000000000000199e+01,6.322313081115435093e-03
3.528000000000000114e+01,1.156346689655215164e-02
3.532000000000000028e+01,7.443973127141698641e-03
3.535999999999999943e+01,1.192821294375894479e-02
3.539999999999999858e+01,3.269830156579803856e-03
3.543999999999999773e+01,1.181917401803038621e-02
3.547999999999999687e+01,1.072422210619680162e-02
3.552000000000000313e+01,7.832572502442488108e-03
3.556000000000000227e+01,1.467924890019576926e-02
3.560000000000000142e+01,6.492315120245974007e-03
3.564000000000000057e+01,1.456761416170258491e-02
3.567999999999999972e+01,1.129672860530502379e-02
3.571999999999999886e+01,1.738597148730967878e-02
3.575999999999999801e+01,1.477641222995739433e-02
3.579999999999999716e+01,1.396303140532489419e-02
3.584000000000000341e+01,2.364437146679057578e-02
3.588000000000000256e+01,1.025540439098899213e-02
3.592000000000000171e+01,1.624879938789268105e-02
3.596000000000000085e+01,2.139099026237083201e-02
3.600000000000000000e+01,1.159412017273418923e-02
3.603999999999999915e+01,1.550664962737888404e-02
3.607999999999999829e+01,1.620424054456575530e-02
3.611999999999999744e+01,1.293049791084016804e-02
3.615999999999999659e+01,2.052967353302199288e-02
3.620000000000000284e+01,1.848455309197547317e-02
3.624000000000000199e+01,2.343582651321880761e-02
3.628000000000000114e+01,2.299752569909264965e-02
3.632000000000000028e+01,1.783149625616735345e-02
3.635999999999999943e+01,1.956731125253952097e-02
3.639999999999999858e+01,2.243745881733299335e-02
3.643999999999999773e+01,2.247086519836989996e-02
3.647999999999999687e+01,1.408911727411069591e-02
3.652000000000000313e+01,1.998406494884672965e-02
3.656000000000000227e+01,1.888209890609559433e-02
3.660000000000000142e+01,1.541613848849750223e-02
3.664000000000000057e+01,2.584867612289732178e-02
3.667999999999999972e+01,2.342223876204944238e-02
3.671999999999999886e+01,2.421022008346204735e-02
3.675999999999999801e+01,1.696124448549584871e-02
3.679999999999999716e+01,2.625814936580872505e-02
3.684000000000000341e+01,3.054367728391333553e-02
3.688000000000000256e+01,2.764319260633006994e-02
3.692000000000000171e+01,2.587704028776399712e-02
3.696000000000000085e+01,2.174689344937886029e-02
3.700000000000000000e+01,2.820601640462797738e-02
3.703999999999999915e+01,2.502084295838053613e-02
3.707999999999999829e+01,3.327588364556632872e-02
3.711999999999999744e+01,3.434491164041612865e-02
3.715999999999999659e+01,3.796651251766006152e-02
3.720000000000000284e+01,3.629308816371863700e-02
3.724000000000000199e+01,2.998648418516214331e-02
3.728000000000000114e+01,4.381863672898527601e-02
3.732000000000000028e+01,4.734464713587745871e-02
3.735999999999999943e+01,4.642657661916721468e-02
3.739999999999999858e+01,5.184305387493626238e-02
3.743999999999999773e+01,5.744836953363507970e-02
3.747999999999999687e+01,6.116243733645239378e-02
3.752000000000000313e+01,6.071607227524020156e-02
3.756000000000000227e+01,7.189901990350179573e-02
3.760000000000000142e+01,8.553999086230108795e-02
3.764000000000000057e+01,8.688928268727043325e-02
3.767999999999999972e+01,9.892239340670619385e-02
3.771999999999999886e+01,1.184246442657771181e-01
3.775999999999999801e+01,1.328209684174872229e-01
3.779999999999999716e+01,1.478788777004966526e-01
3.784000000000000341e+01,1.831700926550418884e-01
3.788000000000000256e+01,2.239449108167553548e-01
3.792000000000000171e+01,2.709597271668756635e-01
3.796000000000000085e+01,3.379242010162026300e-01
3.800000000000000000e+01,4.208672586125585813e-01
3.803999999999999915e+01,5.472082185936513188e-01
3.807999999999999829e+01,6.737380167199457093e-01
3.811999999999999744e+01,8.337380328585860534e-01
3.815999999999999659e+01,9.613073528496379749e-01
3.820000000000000284e+01,1.000000000000000000e+00
3.824000000000000199e+01,9.826246073034746731e-01
3.828000000000000114e+01,8.959442622903878162e-01
3.832000000000000028e+01,7.793860541813252274e-01
3.835999999999999943e+01,6.263315267333959824e-01
3.839999999999999858e+01,4.982377734649069967e-01
3.843999999999999773e+01,4.076798611906382597e-01
3.847999999999999687e+01,3.290349093593639140e-01
3.852000000000000313e+01,2.666521891897193353e-01
3.856000000000000227e+01,2.173170219268733827e-01
3.860000000000000142e+01,1.812185063040545052e-01
3.864000000000000057e+01,1.559929079384464734e-01
3.867999999999999972e+01,1.340762768404748784e-01
3.871999999999999886e+01,1.270981860782363637e-01
3.875999999999999801e+01,1.062210763617820325e-01
3.879999999999999716e+01,9.659508133677985331e-02
3.884000000000000341e+01,8.848161539628376926e-02
3.888000000000000256e+01,7.592406792008092598e-02
3.892000000000000171e+01,7.055201197626796705e-02
3.896000000000000085e+01,6.933986755935035717e-02
3.900000000000000000e+01,5.262136472220723532e-02
3.903999999999999915e+01,5.698711144537462608e-02
3.907999999999999829e+01,6.352723277907834643e-02
3.911999999999999744e+01,4.548425567607278924e-02
3.915999999999999659e+01,5.070016370242535347e-02
3.920000000000000284e+01,4.012606510400737458e-02
3.924000000000000199e+01,3.626471103577358357e-02
3.928000000000000114e+01,3.987249647896259214e-02
3.932000000000000028e+01,3.761795958923178779e-02
3.935999999999999943e+01,3.555226032924632684e-02
3.939999999999999858e+01,2.488230683874342181e-02
3.943999999999999773e+01,3.397291150211428218e-02
3.947999999999999687e+01,2.954269441999851295e-02
3.952000000000000313e+01,3.069062925929089483e-02
3.956000000000000227e+01,2.588169229434706189e-02
3.960000000000000142e+01,2.343622847987210378e-02
3.964000000000000057e+01,2.363788592376303913e-02
3.967999999999999972e+01,1.703172714307874328e-02
3.971999999999999886e+01,2.129848518468907895e-02
3.975999999999999801e+01,1.875742696950817925e-02
3.979999999999999716e+01,2.378005743101431479e-02
3.984000000000000341e+01,2.473680346889480658e-02
3.988000000000000256e+01,2.096581944436332057e-02
3.992000000000000171e+01,1.832916657074832797e-02
3.996000000000000085e+01,1.890693107464511483e-02
4.000000000000000000e+01,1.816074295586580720e-02
4.003999999999999915e+01,1.713064531965402190e-02
4.007999999999999829e+01,1.241286066184185341e-02
4.011999999999999744e+01,1.667700517187759718e-02
4.015999999999999659e+01,1.696981450409194847e-02
4.020000000000000284e+01,1.291309114370359050e-02
4.024000000000000199e+01,1.367812441743254497e-02
4.028000000000000114e+01,1.359195182907096955e-02
4.032000000000000028e+01,1.227637586383760991e-02
4.035999999999999943e+01,2.041547584314572228e-02
4.039999999999999858e+01,1.493920433181462892e-02
4.043999999999999773e+01,9.368121891307678792e-03
4.047999999999999687e+01,1.637184471107312744e-02
4.052000000000000313e+01,8.909251619860360932e-03
4.056000000000000227e+01,2.149086435550212962e-02
4.060000000000000142e+01,1.544598866254314092e-02
4.064000000000000057e+01,1.658660380932966416e-02
4.067999999999999972e+01,1.678146355827723687e-02
4.071999999999999886e+01,1.659786414128787066e-02
4.075999999999999801e+01,1.471211429689689605e-02
4.079999999999999716e+01,1.575713336774452189e-02
4.084000000000000341e+01,1.926017446438110792e-02
4.088000000000000256e+01,1.803548509590544024e-02
4.092000000000000171e+01,1.889062022232940175e-02
4.096000000000000085e+01,1.634171609678174847e-02
4.100000000000000000e+01,1.568353768458103856e-02
4.103999999999999915e+01,1.445780122824263242e-02
4.107999999999999829e+01,1.540643857704009773e-02
4.111999999999999744e+01,1.503112285213721415e-02
4.115999999999999659e+01,1.115721842005434720e-02
4.120000000000000284e+01,1.352331085552158606e-02
4.124000000000000199e+01,9.270685187537885258e-03
4.128000000000000114e+01,1.551277821496316149e-02
4.132000000000000028e+01,1.371791248669657765e-02
4.135999999999999943e+01,9.180852968056584310e-03
4.139999999999999858e+01,1.334207397780325099e-02
4.143999999999999773e+01,1.192461992491057263e-02
4.147999999999999687e+01,1.268153951607372924e-02
4.152000000000000313e+01,1.826021522589790780e-02
4.156000000000000227e+01,1.589648145805050081e-02
4.160000000000000142e+01,1.088510317785000049e-02
4.164000000000000057e+01,1.447745595471975309e-02
4.167999999999999972e+01,1.296388044564378283e-02
4.171999999999999886e+01,1.400287598264888383e-02
4.175999999999999801e+01,1.749989317495872013e-02
4.179999999999999716e+01,1.560733390899383087e-02
4.184000000000000341e+01,1.447090752208767157e-02
4.188000000000000256e+01,1.219962650476565449e-02
4.192000000000000171e+01,1.342641019966796592e-02
4.196000000000000085e+01,1.068185799188848574e-02
4.200000000000000000e+01,1.162446921345396643e-02
4.203999999999999915e+01,1.738883634427638644e-02
4.207999999999999829e+01,1.672358378271638843e-02
4.211999999999999744e+01,1.161424838070085862e-02
4.215999999999999659e+01,1.132666883961826361e-02
4.220000000000000284e+01,1.094427766060734539e-02
4.224000000000000199e+01,1.765282730235327724e-02
4.228000000000000114e+01,1.708081279916175144e-02
4.232000000000000028e+01,1.537394348836623043e-02
4.235999999999999943e+01,1.035758373648714391e-02
4.239999999999999858e+01,1.451225098363612478e-02
4.243999999999999773e+01,1.233184776809892295e-02
4.247999999999999687e+01,2.007886651672043110e-02
4.252000000000000313e+01,1.884343227972644016e-02
4.256000000000000227e+01,2.129516124656531326e-02
4.260000000000000142e+01,1.523718406891436984e-02
4.264000000000000057e+01,1.523010442958852226e-02
4.267999999999999972e+01,1.616825608038988810e-02
4.271999999999999886e+01,1.738979338253217322e-02
4.275999999999999801e+01,1.416724758649079950e-02
4.279999999999999716e+01,1.680650051500584205e-02
4.284000000000000341e+01,1.443437406511121138e-02
4.288000000000000256e+01,2.142237317028524227e-02
4.292000000000000171e+01,1.621324039004044815e-02
4.296000000000000085e+01,2.102607875532656878e-02
4.300000000000000000e+01,1.638371706835948377e-02
4.303999999999999915e+01,2.185787586937560853e-02
4.307999999999999829e+01,1.589129771788753628e-02
4.311999999999999744e+01,2.514690625425655343e-02
4.315999999999999659e+01,1.889615469516713053e-02
4.320000000000000284e+01,1.983089294491065593e-02
4.324000000000000199e+01,2.492554099799252840e-02
4.328000000000000114e+01,2.793984011019489885e-02
4.332000000000000028e+01,2.603730902535986505e-02
4.335999999999999943e+01,2.564730520482587373e-02
4.339999999999999858e+01,2.988995799653983501e-02
4.343999999999999773e+01,3.053947178824900285e-02
4.347999999999999687e+01,2.967593280654860430e-02
4.352000000000000313e+01,2.975762477670724354e-02
4.356000000000000227e+01,3.778120140807338795e-02
4.360000000000000142e+01,3.530953462421454470e-02
4.364000000000000057e+01,4.361623370939710781e-02
4.367999999999999972e+01,4.265683121782693626e-02
4.371999999999999886e+01,4.311540647091741812e-02
4.375999999999999801e+01,4.319552133386226483e-02
4.379999999999999716e+01,5.197391575871319891e-02
4.384000000000000341e+01,5.347174541041432860e-02
4.388000000000000256e+01,5.421291712497244841e-02
4.392000000000000171e+01,7.480919456397568112e-02
4.396000000000000085e+01,7.432069847992878175e-02
4.400000000000000000e+01,7.317009378508318451e-02
4.403999999999999915e+01,8.648528041026380675e-02
4.407999999999999829e+01,1.011238952604646552e-01
4.411999999999999744e+01,1.091437908474379714e-01
4.415999999999999659e+01,1.335204651994800484e-01
4.420000000000000284e+01,1.418234827892455308e-01
4.424000000000000199e+01,1.590138785130656152e-01
4.428000000000000114e+01,1.766767580093509538e-01
4.432000000000000028e+01,1.949066706366618662e-01
4.435999999999999943e+01,2.025467901680271521e-01
4.439999999999999858e+01,2.243690527504416388e-01
4.443999999999999773e+01,2.130042216589636273e-01
4.447999999999999687e+01,2.084466823621888287e-01
4.452000000000000313e+01,1.983104667624581152e-01
4.456000000000000227e+01,1.807045873502967359e-01
4.460000000000000142e+01,1.629093459590581494e-01
4.464000000000000057e+01,1.435065019526094166e-01
4.467999999999999972e+01,1.288308634176207335e-01
4.471999999999999886e+01,1.095220422458192816e-01
4.475999999999999801e+01,1.020316296133866180e-01
4.479999999999999716e+01,8.499146682917199658e-02
4.484000000000000341e+01,7.504224381869362137e-02
4.488000000000000256e+01,5.951434436028713026e-02
4.492000000000000171e+01,5.854678524219900093e-02
4.496000000000000085e+01,5.445883338534337342e-02
4.500000000000000000e+01,5.055971688700378747e-02
4.503999999999999915e+01,4.382385574168569387e-02
4.507999999999999829e+01,4.285524302809912839e-02
4.511999999999999744e+01,4.008992875666962663e-02
4.515999999999999659e+01,3.779709790332916319e-02
4.520000000000000284e+01,2.652181298513661342e-02
4.524000000000000199e+01,2.819952890903676054e-02
4.528000000000000114e+01,2.732414821331527119e-02
4.532000000000000028e+01,2.824494211660741327e-02
4.535999999999999943e+01,2.264156563199203401e-02
4.539999999999999858e+01,2.063080183287251124e-02
4.543999999999999773e+01,1.956526821242760700e-02
4.547999999999999687e+01,1.963406350388595054e-02
4.552000000000000313e+01,2.112083581514454661e-02
4.556000000000000227e+01,2.024361014336214376e-02
4.560000000000000142e+01,1.785333084444569798e-02
4.564000000000000057e+01,1.527368914764385029e-02
4.567999999999999972e+01,1.411202440621020168e-02
4.571999999999999886e+01,1.824486096543830038e-02
4.575999999999999801e+01,1.783906384371375733e-02
4.579999999999999716e+01,8.734460539521978623e-03
4.584000000000000341e+01,1.456839470383768272e-02
4.588000000000000256e+01,1.454000389352008878e-02
4.592000000000000171e+01,1.791512680995758708e-02
4.596000000000000085e+01,8.431270994089244339e-03
4.600000000000000000e+01,1.643878569834128847e-02
4.603999999999999915e+01,5.441612284630005514e-03
4.607999999999999829e+01,1.382679685218968745e-02
4.611999999999999744e+01,8.123860752323233334e-03
4.615999999999999659e+01,1.074100576531697611e-02
4.620000000000000284e+01,1.118325128687827456e-02
4.624000000000000199e+01,8.694202303552433023e-03
4.628000000000000114e+01,1.074325939802955356e-02
4.632000000000000028e+01,1.090106507675517658e-02
4.635999999999999943e+01,1.635337179841439212e-02
4.639999999999999858e+01,1.452511271601124310e-02
4.643999999999999773e+01,1.704586089764233842e-02
4.647999999999999687e+01,1.048960512429678547e-02
4.652000000000000313e+01,1.367167093886432691e-02
4.656000000000000227e+01,1.023501650761577363e-02
4.660000000000000142e+01,1.029642490395448091e-02
4.664000000000000057e+01,6.102847388969314009e-03
4.667999999999999972e+01,1.079664702545026812e-02
4.671999999999999886e+01,3.766060119593227142e-03
4.675999999999999801e+01,5.906498456991238731e-03
4.679999999999999716e+01,7.573925805366605452e-03
4.684000000000000341e+01,1.198302088733453098e-02
4.688000000000000256e+01,1.005704371862728083e-02
4.692000000000000171e+01,5.861617393875035407e-03
4.696000000000000085e+01,9.135327487807889946e-03
4.700000000000000000e+01,1.401611275488128493e-02
4.703999999999999915e+01,8.130825062781873883e-05
4.707999999999999829e+01,8.270793190326667862e-03
4.711999999999999744e+01,6.437780170637362465e-03
4.715999999999999659e+01,1.141205786641477822e-02
4.720000000000000284e+01,6.363837570588043620e-03
4.724000000000000199e+01,5.664624216635399771e-03
4.728000000000000114e+01,6.667035297735589630e-03
4.732000000000000028e+01,8.992873299107296409e-03
4.735999999999999943e+01,8.009218845894273270e-03
4.739999999999999858e+01,6.458003787370121714e-03
4.743999999999999773e+01,5.095623104773473397e-03
4.747999999999999687e+01,4.394823655337968746e-03
4.752000000000000313e+01,7.002987913668867574e-03
4.756000000000000227e+01,5.923462138201682735e-03
4.760000000000000142e+01,9.003844410299870898e-03
4.764000000000000057e+01,1.019297473508223341e-02
4.767999999999999972e+01,8.639908724425786682e-03
4.771999999999999886e+01,6.235633855589147248e-03
4.775999999999999801e+01,1.101684695927241005e-02
4.779999999999999716e+01,1.088122806182125271e-02
4.784000000000000341e+01,6.585172144474280009e-03
4.788000000000000256e+01,9.474604151323185938e-03
4.792000000000000171e+01,1.132372847011520536e-02
4.796000000000000085e+01,1.307803883142559173e-02
4.800000000000000000e+01,9.726418361724855494e-03
4.803999999999999915e+01,1.025105763839639396e-02
4.807999999999999829e+01,8.978994165232321439e-03
4.811999999999999744e+01,1.092134478354619964e-02
4.815999999999999659e+01,1.040514699713014114e-02
4.820000000000000284e+01,7.808598288549498459e-03
4.824000000000000199e+01,7.386420501771123227e-03
4.828000000000000114e+01,9.989557992701979250e-03
4.832000000000000028e+01,1.259243075584747483e-02
4.835999999999999943e+01,7.441990052296478669e-03
4.839999999999999858e+01,7.869697694175633793e-03
4.843999999999999773e+01,6.122504942573786350e-03
4.847999999999999687e+01,1.269539236956766792e-02
4.852000000000000313e+01,7.071145656021480229e-03
4.856000000000000227e+01,8.065090344825024890e-03
4.860000000000000142e+01,1.151705393446375396e-02
4.864000000000000057e+01,7.783000192659927062e-03
4.867999999999999972e+01,4.521428451440295815e-03
4.871999999999999886e+01,4.852468058751794634e-03
4.875999999999999801e+01,1.113985336519468169e-02
4.879999999999999716e+01,1.213220876912957102e-02
4.884000000000000341e+01,4.614855515725242198e-03
4.888000000000000256e+01,6.646724150524798043e-03
4.892000000000000171e+01,3.761760333165689758e-03
4.896000000000000085e+01,9.291425875774509194e-03
4.900000000000000000e+01,1.122795017936525572e-02
4.903999999999999915e+01,7.585796359794968677e-03
4.907999999999999829e+01,5.361618126412093753e-03
4.911999999999999744e+01,6.446402956475276100e-03
4.915999999999999659e+01,1.084015083387649021e-02
4.920000000000000284e+01,8.047881154323010752e-03
4.924000000000000199e+01,9.510068236574841308e-03
4.928000000000000114e+01,7.662762091057544363e-03
4.932000000000000028e+01,1.271729516584278220e-02
4.935999999999999943e+01,5.763792511156448119e-03
4.939999999999999858e+01,1.355972714202807045e-02
4.943999999999999773e+01,1.246775537526702803e-02
4.947999999999999687e+01,1.014637654290004472e-02
4.952000000000000313e+01,7.541084375502473715e-03
4.956000000000000227e+01,1.297222382777935522e-02
4.960000000000000142e+01,9.610006192659835064e-03
4.964000000000000057e+01,6.436622047527340053e-03
4.967999999999999972e+01,1.063782385106693679e-02
4.971999999999999886e+01,7.463909138911105183e-03
4.975999999999999801e+01,7.504407857804821363e-03
4.979999999999999716e+01,4.991808136871900455e-03
4.984000000000000341e+01,3.424436822732599816e-03
4.988000000000000256e+01,7.907960131368749548e-03
4.992000000000000171e+01,1.021658245052759623e-02
4.996000000000000085e+01,8.553865645402815299e-03
5.000000000000000000e+01,6.607235311951275072e-03
5.003999999999999915e+01,7.969567671461608854e-03
5.007999999999999829e+01,7.156998977062536266e-03
5.011999999999999744e+01,8.707899196726010330e-03
5.015999999999999659e+01,7.894799580927409563e-03
5.020000000000000284e+01,5.474095110905420267e-03
5.024000000000000199e+01,4.849563258611927323e-03
5.028000000000000114e+01,9.803178994672149399e-03
5.032000000000000028e+01,8.989017342778382255e-03
5.035999999999999943e+01,9.025534513605769013e-03
5.039999999999999858e+01,7.076249250996382266e-03
5.043999999999999773e+01,9.097772142947060936e-03
5.047999999999999687e+01,6.202461954526680178e-03
5.052000000000000313e+01,6.237916767098716612e-03
5.056000000000000227e+01,6.934951572515195804e-03
5.060000000000000142e+01,1.065730072137637333e-02
5.064000000000000057e+01,6.531786110716241225e-03
5.067999999999999972e+01,1.072635079271130540e-02
5.071999999999999886e+01,6.883952933632369806e-03
5.075999999999999801e+01,7.201461849586076984e-03
5.079999999999999716e+01,6.856859416379539225e-03
5.084000000000000341e+01,1.360319434070791401e-02
5.088000000000000256e+01,1.174527041152021237e-02
5.092000000000000171e+01,5.916006971456676949e-03
5.096000000000000085e+01,1.171605082468389972e-02
5.100000000000000000e+01,5.697157037347787625e-03
5.103999999999999915e+01,7.998342397694827022e-03
5.107999999999999829e+01,1.086655816681387360e-02
5.111999999999999744e+01,1.165442183788364082e-02
5.115999999999999659e+01,9.038242149439511264e-03
5.120000000000000284e+01,7.556389069453332136e-03
5.124000000000000199e+01,8.910751325847052207e-03
5.128000000000000114e+01,1.035939703713109790e-02
5.132000000000000028e+01,7.553054952454211872e-03
5.135999999999999943e+01,1.136490314256644735e-02
5.139999999999999858e+01,9.408973509808420468e-03
5.143999999999999773e+01,9.721962884880291228e-03
5.147999999999999687e+01,8.332797515604145611e-03
5.152000000000000313e+01,6.943366129901896826e-03
5.156000000000000227e+01,6.499162458348879852e-03
5.160000000000000142e+01,8.134778980857038447e-03
5.164000000000000057e+01,1.099927130930339336e-02
5.167999999999999972e+01,1.093246694217336196e-02
5.171999999999999886e+01,7.839816488690639490e-03
5.175999999999999801e+01,9.474368655550310589e-03
5.179999999999999716e+01,7.043031582489612044e-03
5.184000000000000341e+01,8.487952725540343080e-03
5.188000000000000256e+01,9.270762084514575993e-03
5.192000000000000171e+01,9.958755891314303305e-03
5.196000000000000085e+01,1.215927349919314511e-02
5.200000000000000000e+01,9.064759915923287226e-03
5.203999999999999915e+01,8.806461346873135920e-03
5.207999999999999829e+01,9.115192783894757525e-03
5.211999999999999744e+01,2.616102986750384451e-03
5.215999999999999659e+01,7.368122500983099142e-03
5.220000000000000284e+01,6.446913244853750419e-03
5.224000000000000199e+01,7.700073299725783242e-03
5.228000000000000114e+01,1.018210890280785326e-02
5.232000000000000028e+01,1.360937191398697670e-02
5.235999999999999943e+01,9.850616095678662448e-03
5.239999999999999858e+01,1.110271076398963025e-02
5.243999999999999773e+01,6.965224689295430524e-03
5.247999999999999687e+01,6.893095322321173349e-03
5.252000000000000313e+01,7.482545158898924569e-03
5.256000000000000227e+01,9.489969180267295024e-03
5.260000000000000142e+01,1.149712675029334989e-02
5.264000000000000057e+01,3.765432262031041376e-03
5.267999999999999972e+01,1.068862436380160590e-02
5.271999999999999886e+01,5.225581884354512339e-03
5.275999999999999801e+01,8.082617859946138877e-03
5.279999999999999716e+01,9.521146683630490187e-03
5.284000000000000341e+01,1.199945208067606725e-02
5.288000000000000256e+01,1.173555904824164289e-02
5.292000000000000171e+01,7.783973823535970775e-03
5.296000000000000085e+01,7.803195738585737458e-03
5.300000000000000000e+01,8.389447289223082513e-03
5.303999999999999915e+01,9.731827208676661206e-03
5.307999999999999829e+01,8.426557992778542852e-03
5.311999999999999744e+01,8.066515862817270552e-03
5.315999999999999659e+01,8.557151428016543035e-03
5.320000000000000284e+01,9.047520300253335951e-03
5.324000000000000199e+01,6.417493099364758417e-03
5.328000000000000114e+01,7.758272909367589995e-03
5.332000000000000028e+01,1.401535346083714398e-02
5.335999999999999943e+01,8.737143545375830600e-03
5.339999999999999858e+01,1.149536370322011905e-02
5.343999999999999773e+01,5.932972100640811555e-03
5.347999999999999687e+01,9.257954911166054596e-03
5.352000000000000313e+01,8.138850290453204447e-03
5.356000000000000227e+01,8.248620702494140894e-03
5.360000000000000142e+01,6.561686141794231472e-03
5.364000000000000057e+01,9.034657196350293420e-03
5.367999999999999972e+01,8.387232000592879586e-03
5.371999999999999886e+01,1.379069988124207759e-02
5.375999999999999801e+01,1.125175337127688920e-02
5.379999999999999716e+01,9.847132422749078559e-03
5.384000000000000341e+01,1.108962701424391628e-02
5.388000000000000256e+01,1.015721902156853547e-02
5.392000000000000171e+01,1.461385840208136687e-02
5.396000000000000085e+01,1.131718206077646401e-02
5.400000000000000000e+01,1.407139868312207338e-02
5.403999999999999915e+01,1.086873767013220304e-02
5.407999999999999829e+01,1.012409335118026436e-02
5.411999999999999744e+01,1.618673694490148363e-02
5.415999999999999659e+01,7.310312261471748133e-03
5.420000000000000284e+01,1.091413793859898236e-02
5.424000000000000199e+01,1.168121526390563519e-02
5.428000000000000114e+01,1.547360545072012407e-02
5.432000000000000028e+01,1.113448227207146368e-02
5.435999999999999943e+01,1.322444941077458198e-02
5.439999999999999858e+01,6.899255027793523530e-03
5.443999999999999773e+01,6.341305307269886823e-03
5.447999999999999687e+01,1.022690898773904664e-02
5.452000000000000313e+01,3.428166106160087951e-03
5.456000000000000227e+01,1.014971656151764795e-02
5.460000000000000142e+01,1.242717915072088369e-02
5.464000000000000057e+01,1.366433134572170305e-02
5.467999999999999972e+01,9.322803146332199128e-03
5.471999999999999886e+01,7.250192633915839013e-03
5.475999999999999801e+01,8.297444164379596046e-03
5.479999999999999716e+01,1.322095271896206112e-02
5.484000000000000341e+01,1.143118831870220710e-02
5.488000000000000256e+01,6.804675308893603884e-03
5.492000000000000171e+01,1.390201737235114733e-02
5.496000000000000085e+01,8.802222701879171274e-03
5.500000000000000000e+01,1.050971558970413902e-02
5.503999999999999915e+01,8.813163555538346822e-03
5.507999999999999829e+01,1.278930655143348943e-02
5.511999999999999744e+01,6.837497741006995887e-03
5.515999999999999659e+01,1.412233390189193867e-02
5.520000000000000284e+01,1.365385384161082322e-02
5.524000000000000199e+01,9.024933781452221249e-03
5.528000000000000114e+01,1.177059741484451881e-02
5.532000000000000028e+01,9.504876644128312096e-03
5.535999999999999943e+01,1.319549891472199428e-02
5.539999999999999858e+01,1.263113174633784253e-02
5.543999999999999773e+01,1.187739823360606586e-02
5.547999999999999687e+01,1.235253898044360449e-02
5.552000000000000313e+01,1.159827022936584136e-02
5.556000000000000227e+01,8.196351344239861600e-03
5.560000000000000142e+01,1.103442352778067660e-02
5.564000000000000057e+01,1.330493178776049473e-02
5.567999999999999972e+01,1.188774674401641383e-02
5.571999999999999886e+01,1.198308398719857490e-02
5.575999999999999801e+01,1.198360413183735887e-02
5.579999999999999716e+01,1.453668965253801688e-02
5.584000000000000341e+01,1.264568680773610169e-02
5.588000000000000256e+01,9.147076821373464547e-03
5.592000000000000171e+01,1.340124776950688337e-02
5.596000000000000085e+01,1.141489218511539117e-02
5.600000000000000000e+01,1.084650940022576122e-02
5.603999999999999915e+01,1.689631500548816403e-02
5.607999999999999829e+01,9.803489679113505315e-03
5.611999999999999744e+01,1.225988332539311443e-02
5.615999999999999659e+01,1.291957096801930188e-02
5.620000000000000284e+01,7.906028229482539582e-03
5.624000000000000199e+01,6.863291309844496077e-03
5.628000000000000114e+01,1.168234768636379484e-02
5.632000000000000028e+01,9.126284889366113873e-03
5.635999999999999943e+01,1.167562035896315201e-02
5.639999999999999858e+01,1.318464472560533680e-02
5.643999999999999773e+01,1.072232735846644081e-02
5.647999999999999687e+01,6.085106360136745794e-03
5.652000000000000313e+01,1.033525855070291377e-02
5.656000000000000227e+01,1.496334019390718750e-02
5.660000000000000142e+01,1.013621630813516493e-02
5.664000000000000057e+01,7.578009336151823525e-03
5.667999999999999972e+01,1.258348424327571970e-02
5.671999999999999886e+01,9.646543567792539159e-03
5.675999999999999801e+01,1.105860600047734940e-02
5.679999999999999716e+01,1.152490654379553434e-02
5.684000000000000341e+01,9.154457688272528773e-03
5.688000000000000256e+01,1.245670313795007103e-02
5.692000000000000171e+01,1.415134102725869140e-02
5.696000000000000085e+01,1.310377884407038819e-02
5.700000000000000000e+01,1.356873843235209369e-02
5.703999999999999915e+01,1.072420166791086121e-02
5.707999999999999829e+01,5.988409154663668250e-03
5.711999999999999744e+01,1.222007583139549623e-02
5.715999999999999659e+01,1.145482049501553128e-02
5.720000000000000284e+01,1.456582121627372425e-02
5.724000000000000199e+01,1.654196112164057694e-02
5.728000000000000114e+01,1.227757396291822255e-02
5.732000000000000028e+01,1.207854156284667545e-02
5.735999999999999943e+01,9.137308929198140542e-03
5.739999999999999858e+01,1.243606663935604636e-02
5.743999999999999773e+01,6.185069107601117756e-03
5.747999999999999687e+01,1.213067249154138952e-02
5.752000000000000313e+01,1.107935371739779407e-02
5.756000000000000227e+01,7.853130877147103048e-03
5.760000000000000142e+01,7.179472688097920767e-03
5.764000000000000057e+01,1.539318723692034360e-02
5.767999999999999972e+01,1.367894894850857530e-02
5.771999999999999886e+01,1.423362713896923412e-02
5.775999999999999801e+01,1.214065430944114704e-02
5.779999999999999716e+01,1.146565355455454564e-02
5.784000000000000341e+01,9.939439866161412993e-03
5.788000000000000256e+01,1.578780882429858118e-02
5.792000000000000171e+01,1.123547797521184596e-02
5.796000000000000085e+01,1.216674224707273329e-02
5.800000000000000000e+01,1.082855290097013354e-02
5.803999999999999915e+01,9.773743036840970913e-03
5.807999999999999829e+01,1.146059637995385828e-02
5.811999999999999744e+01,1.087799605677922284e-02
5.815999999999999659e+01,1.341525640730389934e-02
5.820000000000000284e+01,1.661409367404333495e-02
5.824000000000000199e+01,1.262690974341799770e-02
5.828000000000000114e+01,9.774049570133015383e-03
5.832000000000000028e+01,1.457941999019522934e-02
5.835999999999999943e+01,1.475160228061358526e-02
5.839999999999999858e+01,1.435621953601831473e-02
5.843999999999999773e+01,1.216412986961311338e-02
5.847999999999999687e+01,1.526653636541480154e-02
5.852000000000000313e+01,1.657223590719051134e-02
5.856000000000000227e+01,1.551393223082227907e-02
5.860000000000000142e+01,1.473900781091539228e-02
5.864000000000000057e+01,1.415291325669344041e-02
5.867999999999999972e+01,1.356654980271178833e-02
5.871999999999999886e+01,1.137257806350081869e-02
5.875999999999999801e+01,1.362215800172564793e-02
5.879999999999999716e+01,1.473687649584679710e-02
5.884000000000000341e+01,1.206935103904295536e-02
5.888000000000000256e+01,1.299443283933597766e-02
5.892000000000000171e+01,1.183915940051792279e-02
5.896000000000000085e+01,1.021087007584247676e-02
5.900000000000000000e+01,1.510621857465807572e-02
5.903999999999999915e+01,1.215369993127042754e-02
5.907999999999999829e+01,1.147009721908291702e-02
5.911999999999999744e+01,1.504094729002253099e-02
5.915999999999999659e+01,1.501865203050973228e-02
5.920000000000000284e+01,1.111956330043153453e-02
5.924000000000000199e+01,1.771518603326627250e-02
5.928000000000000114e+01,1.287006528985310677e-02
5.932000000000000028e+01,1.643956973443353939e-02
5.935999999999999943e+01,1.178300940927334665e-02
5.939999999999999858e+01,1.251549425050414895e-02
5.943999999999999773e+01,1.476049988061636439e-02
5.947999999999999687e+01,1.587064379278871687e-02
5.952000000000000313e+01,1.490043222422992621e-02
5.956000000000000227e+01,1.411905015087186119e-02
5.960000000000000142e+01,1.645752817132482143e-02
5.964000000000000057e+01,1.671565066272260452e-02
5.967999999999999972e+01,1.186783761957055545e-02
5.971999999999999886e+01,1.089627961925215306e-02
5.975999999999999801e+01,1.493556914167932202e-02
5.979999999999999716e+01,1.443621932924267666e-02
5.984000000000000341e+01,1.223471140588409424e-02
5.988000000000000256e+01,1.268031659023884268e-02
5.992000000000000171e+01,1.350384987415890331e-02
5.996000000000000085e+01,1.621810123622956581e-02
