2.003999999999999915e+01,6.864494207135074522e-02
2.007999999999999829e+01,5.279454853885318794e-02
2.012000000000000099e+01,2.205070486331779656e-02
2.016000000000000014e+01,7.171927878650362354e-02
2.019999999999999929e+01,8.394435686832787957e-02
2.023999999999999844e+01,7.872315361863277405e-02
2.028000000000000114e+01,5.009905390236778222e-02
2.032000000000000028e+01,1.014619051867348687e-01
2.035999999999999943e+01,5.581510025067081687e-02
2.039999999999999858e+01,6.377594706273895242e-02
2.044000000000000128e+01,6.450186287819835440e-02
2.048000000000000043e+01,3.331543740830586464e-02
2.051999999999999957e+01,8.509427878275617474e-02
2.055999999999999872e+01,5.262764997446237047e-02
2.060000000000000142e+01,6.951395426681233891e-02
2.064000000000000057e+01,8.767478742894645183e-02
2.067999999999999972e+01,5.222418335593545513e-02
2.071999999999999886e+01,7.889069541173289457e-02
2.076000000000000156e+01,1.004496515946569912e-01
2.080000000000000071e+01,6.158961318264895984e-02
2.083999999999999986e+01,3.889565276375898939e-02
2.087999999999999901e+01,7.193672523578095723e-02
2.092000000000000171e+01,5.732298614103586293e-02
2.096000000000000085e+01,6.568289142776198575e-02
2.100000000000000000e+01,1.016966413891439852e-01
2.103999999999999915e+01,3.516961668835071747e-02
2.107999999999999829e+01,5.203335251568537434e-02
2.112000000000000099e+01,7.272447097271307614e-02
2.116000000000000014e+01,3.469849884617589447e-02
2.119999999999999929e+01,4.006886575188739474e-02
2.123999999999999844e+01,5.649965429277500201e-02
2.128000000000000114e+01,6.867385175694179500e-02
2.132000000000000028e+01,5.021215738712766358e-02
2.135999999999999943e+01,6.876471881166495992e-02
2.139999999999999858e+01,4.349174028073248682e-02
2.144000000000000128e+01,7.565570617588435187e-02
2.148000000000000043e+01,3.080727098899636515e-02
2.151999999999999957e+01,6.892414026547809269e-02
2.155999999999999872e+01,7.470323626802731487e-02
2.160000000000000142e+01,6.729082827222754304e-02
2.164000000000000057e+01,5.051617133700439521e-02
2.167999999999999972e+01,5.331140493191677959e-02
2.171999999999999886e+01,3.823494025434023141e-02
2.176000000000000156e+01,8.272279512658362033e-02
2.180000000000000071e+01,9.189457743355526620e-02
2.183999999999999986e+01,1.027664063702728309e-01
2.187999999999999901e+01,7.023818602578245363e-02
2.192000000000000171e+01,5.004683074879460319e-02
2.196000000000000085e+01,7.793204188293892387e-02
2.200000000000000000e+01,8.283989387236920243e-02
2.203999999999999915e+01,8.008740243850377694e-02
2.207999999999999829e+01,8.626800115415032832e-02
2.212000000000000099e+01,6.862030000510732641e-02
2.216000000000000014e+01,4.288678732992263348e-02
2.219999999999999929e+01,6.948457626573041612e-02
2.223999999999999844e+01,6.587198059419077656e-02
2.228000000000000114e+01,6.991606474458045284e-02
2.232000000000000028e+01,6.417245291935505525e-02
2.235999999999999943e+01,5.332134541169925024e-02
2.239999999999999858e+01,6.672035430830204616e-02
2.244000000000000128e+01,4.310142424729258154e-02
2.248000000000000043e+01,7.053738847921471600e-02
2.251999999999999957e+01,5.074407395194187320e-02
2.255999999999999872e+01,3.350177837437265382e-02
2.260000000000000142e+01,4.901905906745490649e-02
2.264000000000000057e+01,6.581094386837513244e-02
2.267999999999999972e+01,3.835186424904991204e-02
2.271999999999999886e+01,5.641654392854083405e-02
2.276000000000000156e+01,6.554448941904743309e-02
2.280000000000000071e+01,1.036027651498464264e-01
2.283999999999999986e+01,7.273267068594019280e-02
2.287999999999999901e+01,9.206654032831776413e-02
2.292000000000000171e+01,6.459661887623981136e-02
2.296000000000000085e+01,9.711653473394377123e-02
2.300000000000000000e+01,5.985714118172762166e-02
2.303999999999999915e+01,6.301584756086386907e-02
2.307999999999999829e+01,6.021614010901005232e-02
2.312000000000000099e+01,1.042166248549712820e-01
2.316000000000000014e+01,4.227263375405913154e-02
2.319999999999999929e+01,7.095251742481124835e-02
2.323999999999999844e+01,7.325130766140672267e-02
2.328000000000000114e+01,8.703606889312265338e-02
2.332000000000000028e+01,4.720949220392414020e-02
2.335999999999999943e+01,8.311525470590548637e-02
2.339999999999999858e+01,4.924172284557721407e-02
2.344000000000000128e+01,4.685138100449496440e-02
2.348000000000000043e+01,3.892811299716267964e-02
2.351999999999999957e+01,5.525500352739888543e-02
2.355999999999999872e+01,6.775086136942497228e-02
2.360000000000000142e+01,6.450245474837947024e-02
2.364000000000000057e+01,6.508152555697452324e-02
2.367999999999999972e+01,5.927673248886677210e-02
2.371999999999999886e+01,5.049185798585192897e-02
2.376000000000000156e+01,1.110572484646865921e-01
2.380000000000000071e+01,4.823380987052029722e-02
2.383999999999999986e+01,5.731347497050209849e-02
2.387999999999999901e+01,6.000928371758607049e-02
2.392000000000000171e+01,6.355427210773272051e-02
2.396000000000000085e+01,5.518426313182211995e-02
2.400000000000000000e+01,6.553328672793014287e-02
2.403999999999999915e+01,7.673149448138458228e-02
2.407999999999999829e+01,2.197968700763222941e-02
2.412000000000000099e+01,6.551029602337755942e-02
2.416000000000000014e+01,8.393626406585956434e-02
2.419999999999999929e+01,4.364525588661787026e-02
2.423999999999999844e+01,7.993756523755843335e-02
2.428000000000000114e+01,5.410912043926219273e-02
2.432000000000000028e+01,7.125165942744862702e-02
2.435999999999999943e+01,8.286130535412897236e-02
2.439999999999999858e+01,7.319557289027675551e-02
2.444000000000000128e+01,6.267714916286373783e-02
2.448000000000000043e+01,5.088056305952192576e-02
2.451999999999999957e+01,4.503885057621129229e-02
2.455999999999999872e+01,3.408972517232942978e-02
2.460000000000000142e+01,1.001494034586086768e-01
2.464000000000000057e+01,3.643819501492850943e-02
2.467999999999999972e+01,5.399051944222521549e-02
2.471999999999999886e+01,3.835424423745544681e-02
2.476000000000000156e+01,7.504936694838701405e-02
2.480000000000000071e+01,8.536345491084390558e-02
2.483999999999999986e+01,7.227481794949341953e-02
2.487999999999999901e+01,4.812216346584852200e-02
2.492000000000000171e+01,8.608678311092488045e-02
2.496000000000000085e+01,5.937783848492659416e-02
2.500000000000000000e+01,4.798418311293894262e-02
2.503999999999999915e+01,3.829069475158330266e-02
2.507999999999999829e+01,4.901817005931291549e-02
2.512000000000000099e+01,8.144302839227773871e-02
2.516000000000000014e+01,3.047353482427988050e-02
2.519999999999999929e+01,6.885157341461152491e-02
2.523999999999999844e+01,6.765894267782952831e-02
2.528000000000000114e+01,6.603912489459860813e-02
2.532000000000000028e+01,5.207888829005733605e-02
2.535999999999999943e+01,4.322261167127129655e-02
2.539999999999999858e+01,4.202313224577771539e-02
2.544000000000000128e+01,7.996542518591247262e-02
2.548000000000000043e+01,3.791715920020852920e-02
2.551999999999999957e+01,5.713524468038300858e-02
2.555999999999999872e+01,6.826764653910741276e-02
2.560000000000000142e+01,4.578600925337900085e-02
2.564000000000000057e+01,4.287441146913276852e-02
2.567999999999999972e+01,6.080927254251754926e-02
2.571999999999999886e+01,8.427357976163660225e-02
2.576000000000000156e+01,8.093141572941774109e-02
2.580000000000000071e+01,6.141959737885657050e-02
2.583999999999999986e+01,8.104956644153442358e-02
2.587999999999999901e+01,8.833913774955658160e-02
2.592000000000000171e+01,5.690901054566216422e-02
2.596000000000000085e+01,1.046151012794525603e-01
2.600000000000000000e+01,4.382398730162898048e-02
2.603999999999999915e+01,7.663516325341142299e-02
2.607999999999999829e+01,5.881341343269883698e-02
2.612000000000000099e+01,6.524191995902402230e-02
2.616000000000000014e+01,4.146018934458689520e-02
2.619999999999999929e+01,7.383916437141395395e-02
2.623999999999999844e+01,5.133049347349635111e-02
2.628000000000000114e+01,6.030511943286078619e-02
2.632000000000000028e+01,7.268185102372827500e-02
2.635999999999999943e+01,7.739840170549659726e-02
2.639999999999999858e+01,7.275288251440883980e-02
2.644000000000000128e+01,6.385096636077881860e-02
2.648000000000000043e+01,7.239175822296609053e-02
2.651999999999999957e+01,7.157048472658081306e-02
2.655999999999999872e+01,6.351451046203050732e-02
2.660000000000000142e+01,3.460871318593625179e-02
2.664000000000000057e+01,9.930522841086368568e-02
2.667999999999999972e+01,5.039889309956319119e-02
2.671999999999999886e+01,7.041746150530242554e-02
2.676000000000000156e+01,7.511735694122377571e-02
2.680000000000000071e+01,9.343071887688686461e-02
2.683999999999999986e+01,4.196491585969268356e-02
2.687999999999999901e+01,5.219098808738285855e-02
2.692000000000000171e+01,5.986257187818128100e-02
2.696000000000000085e+01,5.008812713732026245e-02
2.700000000000000000e+01,6.456397184824078095e-02
2.703999999999999915e+01,9.946085396153975244e-02
2.707999999999999829e+01,6.713141585332410566e-02
2.712000000000000099e+01,5.352112768849155017e-02
2.716000000000000014e+01,7.947814921114260134e-02
2.719999999999999929e+01,5.310039662609095795e-02
2.723999999999999844e+01,6.671542935517461859e-02
2.728000000000000114e+01,6.160802773929953402e-02
2.732000000000000028e+01,6.628485863089543517e-02
2.735999999999999943e+01,7.351288904352380749e-02
2.739999999999999858e+01,6.712416103102913922e-02
2.744000000000000128e+01,5.052245703520762132e-02
2.748000000000000043e+01,6.157484148533567264e-02
2.751999999999999957e+01,7.475295885841119758e-02
2.755999999999999872e+01,4.495671324348005093e-02
2.760000000000000142e+01,5.642968433692219926e-02
2.764000000000000057e+01,4.067078228566719383e-02
2.767999999999999972e+01,4.405652386157956485e-02
2.771999999999999886e+01,5.509914990692664494e-02
2.776000000000000156e+01,3.465518115056615001e-02
2.780000000000000071e+01,3.293038791852648944e-02
2.783999999999999986e+01,8.906825249147248824e-02
2.787999999999999901e+01,5.372788776175074776e-02
2.792000000000000171e+01,5.284918990442044606e-02
2.796000000000000085e+01,9.111235921266597204e-02
2.800000000000000000e+01,1.832556334457504169e-02
2.803999999999999915e+01,5.828740041496583563e-02
2.807999999999999829e+01,6.548623687034955954e-02
2.812000000000000099e+01,5.694097890066245754e-02
2.816000000000000014e+01,8.158097898054522679e-02
2.819999999999999929e+01,6.750136631989238356e-02
2.823999999999999844e+01,3.640124589706398434e-02
2.828000000000000114e+01,9.039404732787376107e-02
2.832000000000000028e+01,8.056435612179753403e-02
2.835999999999999943e+01,4.690659979375873256e-02
2.839999999999999858e+01,4.941241886376178394e-02
2.844000000000000128e+01,2.553734011854811095e-02
2.848000000000000043e+01,5.612116231746194783e-02
2.851999999999999957e+01,6.968448728752764387e-02
2.855999999999999872e+01,4.835746661407233637e-02
2.860000000000000142e+01,2.915621949211312167e-02
2.864000000000000057e+01,4.314024847685663661e-02
2.867999999999999972e+01,5.159154691428965295e-02
2.871999999999999886e+01,8.429319950823041530e-02
2.876000000000000156e+01,4.976859508062194543e-02
2.880000000000000071e+01,3.906887520191377333e-02
2.883999999999999986e+01,3.517513669169171353e-02
2.887999999999999901e+01,4.475044301495274129e-03
2.892000000000000171e+01,6.439904186379620532e-02
2.896000000000000085e+01,1.412405559828508982e-02
2.900000000000000000e+01,1.618062675314864418e-02
2.903999999999999915e+01,4.716776289103175035e-02
2.907999999999999829e+01,6.538914903801552880e-02
2.912000000000000099e+01,5.552777248220324563e-02
2.916000000000000014e+01,4.268651913898956207e-02
2.919999999999999929e+01,5.281922015802836129e-02
2.923999999999999844e+01,4.508050579965954680e-02
2.928000000000000114e+01,5.393365955612455798e-02
2.932000000000000028e+01,8.065510078357240875e-02
2.935999999999999943e+01,6.014752056596828211e-02
2.939999999999999858e+01,7.112335457700953711e-02
2.944000000000000128e+01,3.444469753539145668e-02
2.948000000000000043e+01,5.988348616525676626e-02
2.951999999999999957e+01,7.596032229362979782e-02
2.955999999999999872e+01,6.437988488870789727e-02
2.960000000000000142e+01,4.088466228903938487e-02
2.964000000000000057e+01,5.397853435213532947e-02
2.967999999999999972e+01,5.047742544158363015e-02
2.971999999999999886e+01,6.441914643249621597e-02
2.976000000000000156e+01,8.899613695556408965e-02
2.980000000000000071e+01,4.847427266651752747e-02
2.983999999999999986e+01,5.007265458672264385e-02
2.987999999999999901e+01,3.082133688579170167e-02
2.992000000000000171e+01,7.283653617445715045e-02
2.996000000000000085e+01,2.677736534506564708e-02
3.000000000000000000e+01,5.772720134857986518e-02
3.003999999999999915e+01,4.825560336205050871e-02
3.007999999999999829e+01,4.729192386011805971e-02
3.012000000000000099e+01,2.845686208552135679e-02
3.016000000000000014e+01,2.238444797633760627e-02
3.019999999999999929e+01,7.247288998452512676e-02
3.023999999999999844e+01,7.618328888666289767e-02
3.028000000000000114e+01,6.117136630092229188e-02
3.032000000000000028e+01,6.998438544500265590e-02
3.035999999999999943e+01,8.645438837274876942e-02
3.039999999999999858e+01,3.867650429405516954e-02
3.044000000000000128e+01,7.343878762332113619e-02
3.048000000000000043e+01,4.395318695566974992e-02
3.051999999999999957e+01,0.000000000000000000e+00
3.055999999999999872e+01,3.220489570963241954e-02
3.060000000000000142e+01,2.058459755884112230e-02
3.064000000000000057e+01,4.342606860419429698e-02
3.067999999999999972e+01,4.286503442085629056e-02
3.071999999999999886e+01,3.762229166728119079e-02
3.076000000000000156e+01,3.280351325378291771e-02
3.080000000000000071e+01,3.223795423928698528e-02
3.083999999999999986e+01,4.443506847114192526e-02
3.087999999999999901e+01,4.173913734069904097e-02
3.092000000000000171e+01,7.307951332259862709e-02
3.096000000000000085e+01,3.591729719341966998e-02
3.100000000000000000e+01,5.874522083099798647e-02
3.103999999999999915e+01,5.817065278273490792e-02
3.107999999999999829e+01,3.929926595894397273e-02
3.112000000000000099e+01,7.063215322221763626e-02
3.116000000000000014e+01,3.644076421812394995e-02
3.119999999999999929e+01,2.054320602591291206e-02
3.123999999999999844e+01,5.016972764662643719e-02
3.128000000000000114e+01,5.298998567302999618e-02
3.132000000000000028e+01,6.346726359736466760e-02
3.135999999999999943e+01,5.734962374801663709e-02
3.139999999999999858e+01,1.932005341308927135e-02
3.144000000000000128e+01,5.191745482552537899e-02
3.148000000000000043e+01,6.281427157300961683e-02
3.151999999999999957e+01,9.923796566166460942e-02
3.155999999999999872e+01,4.460904150279967895e-02
3.160000000000000142e+01,3.422779284832080243e-02
3.164000000000000057e+01,4.511869987800218307e-02
3.167999999999999972e+01,7.685629147947539708e-02
3.171999999999999886e+01,4.647340881727130696e-02
3.176000000000000156e+01,3.608626850212244552e-02
3.180000000000000071e+01,5.207696129573075039e-02
3.183999999999999986e+01,4.211235679594272502e-02
3.187999999999999901e+01,7.043882169405685234e-02
3.192000000000000171e+01,3.877218293794591070e-02
3.196000000000000085e+01,3.901452733231836056e-02
3.200000000000000000e+01,2.691670420047929599e-02
3.203999999999999915e+01,4.332408629161061536e-02
3.207999999999999829e+01,3.888185152346477352e-02
3.211999999999999744e+01,6.209387975355271094e-02
3.215999999999999659e+01,4.318266327741634297e-02
3.220000000000000284e+01,3.448133550673122827e-02
3.224000000000000199e+01,1.556721232404763462e-02
3.228000000000000114e+01,3.536964620400632336e-02
3.232000000000000028e+01,7.431689826341650318e-02
3.235999999999999943e+01,4.433613826125633317e-02
3.239999999999999858e+01,2.626716495687030431e-02
3.243999999999999773e+01,4.648928211704129315e-02
3.247999999999999687e+01,5.224388672248655302e-02
3.252000000000000313e+01,3.331963746686199268e-02
3.256000000000000227e+01,6.119593553266534230e-02
3.260000000000000142e+01,8.651795883764915041e-02
3.264000000000000057e+01,6.588750193937686905e-02
3.267999999999999972e+01,5.929620535785307123e-02
3.271999999999999886e+01,3.313173384461752524e-02
3.275999999999999801e+01,5.972443381642655175e-02
3.279999999999999716e+01,4.419391315818847754e-02
3.284000000000000341e+01,5.461579211536603945e-02
3.288000000000000256e+01,6.078151637653374934e-02
3.292000000000000171e+01,3.631178518443091419e-02
3.296000000000000085e+01,6.545017823543705648e-02
3.300000000000000000e+01,4.565779630613116258e-02
3.303999999999999915e+01,5.437065721882247682e-02
3.307999999999999829e+01,4.946697338246296149e-02
3.311999999999999744e+01,8.498176867724564765e-02
3.315999999999999659e+01,7.667146641631321369e-02
3.320000000000000284e+01,4.623517157802537608e-02
3.324000000000000199e+01,7.578910077311479254e-02
3.328000000000000114e+01,7.343117020639515491e-02
3.332000000000000028e+01,8.255958832982487894e-02
3.335999999999999943e+01,4.616102595282717269e-02
3.339999999999999858e+01,4.209697351484099209e-02
3.343999999999999773e+01,6.696365158359213199e-02
3.347999999999999687e+01,5.311091554026938638e-02
3.352000000000000313e+01,3.627846672850221221e-02
3.356000000000000227e+01,2.284839590999243955e-02
3.360000000000000142e+01,2.388299263486530141e-02
3.364000000000000057e+01,4.363698457917556534e-02
3.367999999999999972e+01,4.807256387733357950e-02
3.371999999999999886e+01,6.314356167899279337e-02
3.375999999999999801e+01,2.077436074821271267e-02
3.379999999999999716e+01,3.286426089478266394e-02
3.384000000000000341e+01,3.303953535127972241e-02
3.388000000000000256e+01,2.725680226227647843e-02
3.392000000000000171e+01,7.635864738203586299e-02
3.396000000000000085e+01,5.738348586492651032e-02
3.400000000000000000e+01,4.861828076751671668e-02
3.403999999999999915e+01,3.985169078346199878e-02
3.407999999999999829e+01,5.363376612538117705e-02
3.411999999999999744e+01,4.784271920222583907e-02
3.415999999999999659e+01,2.332949675301603312e-02
3.420000000000000284e+01,5.753011660006090294e-02
3.424000000000000199e+01,6.152080326808009175e-02
3.428000000000000114e+01,4.678931892432779127e-02
3.432000000000000028e+01,3.035456975874073829e-02
3.435999999999999943e+01,4.242511309226631999e-02
3.439999999999999858e+01,3.917727086533886321e-02
3.443999999999999773e+01,5.720168965584669640e-02
3.447999999999999687e+01,5.267469140422395557e-02
3.452000000000000313e+01,7.027090241381744873e-02
3.456000000000000227e+01,8.063271360746054883e-02
3.460000000000000142e+01,4.887137188530465970e-02
3.464000000000000057e+01,6.731443666918758562e-02
3.467999999999999972e+01,4.703813248382869572e-02
3.471999999999999886e+01,5.356524387191458764e-02
3.475999999999999801e+01,4.222114753962072364e-02
3.479999999999999716e+01,6.406255904723466565e-02
3.484000000000000341e+01,2.591097674818181387e-02
3.488000000000000256e+01,5.242987896613335308e-02
3.492000000000000171e+01,5.512096284293807602e-02
3.496000000000000085e+01,4.121726437455650732e-02
3.500000000000000000e+01,4.348017658471271807e-02
3.503999999999999915e+01,6.063328312677931931e-02
3.507999999999999829e+01,5.098026902683770040e-02
3.511999999999999744e+01,7.408730218776296561e-02
3.515999999999999659e+01,4.571080592269777948e-02
3.520000000000000284e+01,4.201038020256335492e-02
3.524000000000000199e+01,3.107558024741656835e-02
3.528000000000000114e+01,6.226123114902760991e-02
3.532000000000000028e+01,6.068415379738536369e-02
3.535999999999999943e+01,4.676703531946147657e-02
3.539999999999999858e+01,4.263445331074511985e-02
3.543999999999999773e+01,6.828362228107859311e-02
3.547999999999999687e+01,6.031912378294437133e-02
3.552000000000000313e+01,2.980324736646747241e-02
3.556000000000000227e+01,5.715031917386308863e-02
3.560000000000000142e+01,2.918462455347559797e-02
3.564000000000000057e+01,6.716586089194090392e-02
3.567999999999999972e+01,6.472587541167375280e-02
3.571999999999999886e+01,9.079123359239565927e-02
3.575999999999999801e+01,5.643815995882608266e-02
3.579999999999999716e+01,9.951978396564713225e-02
3.584000000000000341e+01,9.664904815009810191e-02
3.588000000000000256e+01,5.080426233684535303e-02
3.592000000000000171e+01,6.877905493012623217e-02
3.596000000000000085e+01,6.973363018011830006e-02
3.600000000000000000e+01,8.302560017351033606e-02
3.603999999999999915e+01,5.504541665676067341e-02
3.607999999999999829e+01,5.939984389801427483e-02
3.611999999999999744e+01,9.864171910480847016e-02
3.615999999999999659e+01,7.916706801343950661e-02
3.620000000000000284e+01,5.926564067539408925e-02
3.624000000000000199e+01,5.808370636625593414e-02
3.628000000000000114e+01,6.711181424819812058e-02
3.632000000000000028e+01,5.358857430701938901e-02
3.635999999999999943e+01,5.538105097199581828e-02
3.639999999999999858e+01,4.951372442290170178e-02
3.643999999999999773e+01,2.960450690755748321e-02
3.647999999999999687e+01,3.394593547236884196e-02
3.652000000000000313e+01,6.083612115357931588e-02
3.656000000000000227e+01,4.432680980089515055e-02
3.660000000000000142e+01,5.462098474542613491e-02
3.664000000000000057e+01,7.087048925259338550e-02
3.667999999999999972e+01,6.244129639384225772e-02
3.671999999999999886e+01,4.933062067901485687e-02
3.675999999999999801e+01,8.131875981701053302e-02
3.679999999999999716e+01,5.756870505292565471e-02
3.684000000000000341e+01,2.573339101001285989e-02
3.688000000000000256e+01,6.324883551058120557e-02
3.692000000000000171e+01,6.672519409695110149e-02
3.696000000000000085e+01,6.552007885581125068e-02
3.700000000000000000e+01,5.154951156646435384e-02
3.703999999999999915e+01,2.055876756237745226e-02
3.707999999999999829e+01,5.594048130567165489e-02
3.711999999999999744e+01,4.451893814469096849e-02
3.715999999999999659e+01,7.564338918136782886e-02
3.720000000000000284e+01,6.209194940893896647e-02
3.724000000000000199e+01,6.428173196453841609e-02
3.728000000000000114e+01,7.285234077608070125e-02
3.732000000000000028e+01,5.759522153214039625e-02
3.735999999999999943e+01,6.914161717587563594e-02
3.739999999999999858e+01,6.366784964772066735e-02
3.743999999999999773e+01,5.819282513761211278e-02
3.747999999999999687e+01,3.995236663642928038e-02
3.752000000000000313e+01,8.595701934935226496e-02
3.756000000000000227e+01,4.729136878585688680e-02
3.760000000000000142e+01,7.457272291450693646e-02
3.764000000000000057e+01,6.270934680910530967e-02
3.767999999999999972e+01,6.403437388132716956e-02
3.771999999999999886e+01,1.117346697720261600e-01
3.775999999999999801e+01,9.774019123509888884e-02
3.779999999999999716e+01,8.927561328174972444e-02
3.784000000000000341e+01,9.485038975932737204e-02
3.788000000000000256e+01,8.893616514482964586e-02
3.792000000000000171e+01,1.174839835929912674e-01
3.796000000000000085e+01,7.625305541187397951e-02
3.800000000000000000e+01,9.799083865060707887e-02
3.803999999999999915e+01,9.419903045103952821e-02
3.807999999999999829e+01,1.027446952424476007e-01
3.811999999999999744e+01,1.180966905069103789e-01
3.815999999999999659e+01,1.394040725149301163e-01
3.820000000000000284e+01,1.419894309777635366e-01
3.824000000000000199e+01,1.241508769316543165e-01
3.828000000000000114e+01,1.429017425767010185e-01
3.832000000000000028e+01,1.701608366871253664e-01
3.835999999999999943e+01,1.331723432385634454e-01
3.839999999999999858e+01,1.502176512977456135e-01
3.843999999999999773e+01,1.566249245657661271e-01
3.847999999999999687e+01,1.753696858723731433e-01
3.852000000000000313e+01,1.775197987575293512e-01
3.856000000000000227e+01,1.817960598796888594e-01
3.860000000000000142e+01,1.571389696931673741e-01
3.864000000000000057e+01,1.797081281688862608e-01
3.867999999999999972e+01,1.873845347107163106e-01
3.871999999999999886e+01,1.967616228914643994e-01
3.875999999999999801e+01,1.993299418733040784e-01
3.879999999999999716e+01,1.950894931609963023e-01
3.884000000000000341e+01,2.155252519268767708e-01
3.888000000000000256e+01,2.210682662826735922e-01
3.892000000000000171e+01,2.270355519498058749e-01
3.896000000000000085e+01,2.415110901584928971e-01
3.900000000000000000e+01,2.461995598769322335e-01
3.903999999999999915e+01,2.917322040482817069e-01
3.907999999999999829e+01,3.198192756305766049e-01
3.911999999999999744e+01,2.883389870327688898e-01
3.915999999999999659e+01,2.789820822484615492e-01
3.920000000000000284e+01,3.296156257069312590e-01
3.924000000000000199e+01,3.653564382981668857e-01
3.928000000000000114e+01,3.883318846125766721e-01
3.932000000000000028e+01,4.483222623590596978e-01
3.935999999999999943e+01,4.491707615711358348e-01
3.939999999999999858e+01,5.044785725271121457e-01
3.943999999999999773e+01,5.368096804142017398e-01
3.947999999999999687e+01,5.448876688857771100e-01
3.952000000000000313e+01,6.244438783007114635e-01
3.956000000000000227e+01,6.486874702592085873e-01
3.960000000000000142e+01,6.950544625835782808e-01
3.964000000000000057e+01,7.286561021739715871e-01
3.967999999999999972e+01,8.035274129105816066e-01
3.971999999999999886e+01,8.315955645523865902e-01
3.975999999999999801e+01,9.290145830804700244e-01
3.979999999999999716e+01,9.255954231478388250e-01
3.984000000000000341e+01,9.447251452267751981e-01
3.988000000000000256e+01,9.613008664114072177e-01
3.992000000000000171e+01,1.000000000000000000e+00
3.996000000000000085e+01,9.770044419228255395e-01
4.000000000000000000e+01,9.527313053170181067e-01
4.003999999999999915e+01,9.378174071155729319e-01
4.007999999999999829e+01,8.544012598885739607e-01
4.011999999999999744e+01,8.918181797633584207e-01
4.015999999999999659e+01,7.845732551559509993e-01
4.020000000000000284e+01,7.683783174607924371e-01
4.024000000000000199e+01,6.951688974216175820e-01
4.028000000000000114e+01,6.334460879010186396e-01
4.032000000000000028e+01,5.615107869301576571e-01
4.035999999999999943e+01,5.610537385026382884e-01
4.039999999999999858e+01,5.218775362867104084e-01
4.043999999999999773e+01,4.512152162783347187e-01
4.047999999999999687e+01,4.507547354761954339e-01
4.052000000000000313e+01,3.915778923948496915e-01
4.056000000000000227e+01,3.668631916903941637e-01
4.060000000000000142e+01,3.732068539305548605e-01
4.064000000000000057e+01,3.306200285997681898e-01
4.067999999999999972e+01,2.901594312583216095e-01
4.071999999999999886e+01,2.888411811012328023e-01
4.075999999999999801e+01,2.500802085499732041e-01
4.079999999999999716e+01,1.981284542856791564e-01
4.084000000000000341e+01,2.402050193297167457e-01
4.088000000000000256e+01,2.486681200480313214e-01
4.092000000000000171e+01,2.367074090763949812e-01
4.096000000000000085e+01,2.451682591639898490e-01
4.100000000000000000e+01,2.072514709262632815e-01
4.103999999999999915e+01,2.654903726063207459e-01
4.107999999999999829e+01,2.356553224918992162e-01
4.111999999999999744e+01,2.381550727353759223e-01
4.115999999999999659e+01,2.270385821915382740e-01
4.120000000000000284e+01,2.482568950151210485e-01
4.124000000000000199e+01,2.439457367812888078e-01
4.128000000000000114e+01,2.566523707077412730e-01
4.132000000000000028e+01,2.225559057298314991e-01
4.135999999999999943e+01,2.144121608814456847e-01
4.139999999999999858e+01,2.292428293474391421e-01
4.143999999999999773e+01,1.845062249094719942e-01
4.147999999999999687e+01,1.967818461657573348e-01
4.152000000000000313e+01,1.677855200641677202e-01
4.156000000000000227e+01,1.358097836511091283e-01
4.160000000000000142e+01,1.612717500637154411e-01
4.164000000000000057e+01,1.569495342952236527e-01
4.167999999999999972e+01,1.147591581249364501e-01
4.171999999999999886e+01,1.261772357404328804e-01
4.175999999999999801e+01,7.590068940441033196e-02
4.179999999999999716e+01,1.060373747428449975e-01
4.184000000000000341e+01,1.144738651494452003e-01
4.188000000000000256e+01,6.802329799287988588e-02
4.192000000000000171e+01,8.581800757413823866e-02
4.196000000000000085e+01,8.021063626932786739e-02
4.200000000000000000e+01,9.417391991327761502e-02
4.203999999999999915e+01,1.013285577487269273e-01
4.207999999999999829e+01,7.657166686980283743e-02
4.211999999999999744e+01,6.287598311133450746e-02
4.215999999999999659e+01,8.023872098316416068e-02
4.220000000000000284e+01,7.037013344332697373e-02
4.224000000000000199e+01,8.092315511507532089e-02
4.228000000000000114e+01,8.381659477263078695e-02
4.232000000000000028e+01,5.011831595595597766e-02
4.235999999999999943e+01,5.471150078458419941e-02
4.239999999999999858e+01,4.909227241052638996e-02
4.243999999999999773e+01,5.666162628065974510e-02
4.247999999999999687e+01,5.316762472337047130e-02
4.252000000000000313e+01,5.648011916285388540e-02
4.256000000000000227e+01,6.021702184693004251e-02
4.260000000000000142e+01,8.139723896553587024e-02
4.264000000000000057e+01,7.024047581929381001e-02
4.267999999999999972e+01,5.823170758053982515e-02
4.271999999999999886e+01,4.749829883968171435e-02
4.275999999999999801e+01,6.314313551211450659e-02
4.279999999999999716e+01,7.836144422344787364e-02
4.284000000000000341e+01,6.379561589651512599e-02
4.288000000000000256e+01,6.794953038882749208e-02
4.292000000000000171e+01,5.423254413201890334e-02
4.296000000000000085e+01,6.902117389795335567e-02
4.300000000000000000e+01,4.296338459930198334e-02
4.303999999999999915e+01,5.264424882411562062e-02
4.307999999999999829e+01,9.295809667160226386e-02
4.311999999999999744e+01,4.775090517020089825e-02
4.315999999999999659e+01,7.019281799125165477e-02
4.320000000000000284e+01,6.923269657382682962e-02
4.324000000000000199e+01,7.507909823887379264e-02
4.328000000000000114e+01,7.624426382866035523e-02
4.332000000000000028e+01,6.634610559100675986e-02
4.335999999999999943e+01,7.431676299547236575e-02
4.339999999999999858e+01,3.803723544592783196e-02
4.343999999999999773e+01,5.196244544985786223e-02
4.347999999999999687e+01,8.077816729028479414e-02
4.352000000000000313e+01,6.066350990256147435e-02
4.356000000000000227e+01,6.011956614928015002e-02
4.360000000000000142e+01,6.595668640419098672e-02
4.364000000000000057e+01,7.562203646927892486e-02
4.367999999999999972e+01,5.805611679885952503e-02
4.371999999999999886e+01,7.367604053006693299e-02
4.375999999999999801e+01,8.844399979731114303e-02
4.379999999999999716e+01,7.598069384333155929e-02
4.384000000000000341e+01,5.926164549787566599e-02
4.388000000000000256e+01,8.593978938419630231e-02
4.392000000000000171e+01,6.411304170710671602e-02
4.396000000000000085e+01,6.781363935188150505e-02
4.400000000000000000e+01,7.278964464690640401e-02
4.403999999999999915e+01,7.308444245713129062e-02
4.407999999999999829e+01,8.997166514378646118e-02
4.411999999999999744e+01,7.622385371027116940e-02
4.415999999999999659e+01,8.162130586548467515e-02
4.420000000000000284e+01,8.148661132068354962e-02
4.424000000000000199e+01,8.560564177460490420e-02
4.428000000000000114e+01,9.100009041210389837e-02
4.432000000000000028e+01,8.618219807544841293e-02
4.435999999999999943e+01,9.327654236012744571e-02
4.439999999999999858e+01,1.084538712167376490e-01
4.443999999999999773e+01,9.852732201394806544e-02
4.447999999999999687e+01,8.136674617595382464e-02
4.452000000000000313e+01,1.561072649986629257e-01
4.456000000000000227e+01,1.236276951702838661e-01
4.460000000000000142e+01,1.192283304427225465e-01
4.464000000000000057e+01,1.024892736934481796e-01
4.467999999999999972e+01,1.376568916137593801e-01
4.471999999999999886e+01,1.073007433807064287e-01
4.475999999999999801e+01,1.275748549753729089e-01
4.479999999999999716e+01,1.218941568192303537e-01
4.484000000000000341e+01,1.204672062332263066e-01
4.488000000000000256e+01,1.113807714424989576e-01
4.492000000000000171e+01,1.073990324656910744e-01
4.496000000000000085e+01,1.004380110821052746e-01
4.500000000000000000e+01,8.539203739095008183e-02
4.503999999999999915e+01,1.018300662900193110e-01
4.507999999999999829e+01,1.144378720623352996e-01
4.511999999999999744e+01,1.061965515274833766e-01
4.515999999999999659e+01,1.302901833313979407e-01
4.520000000000000284e+01,1.458733977344190413e-01
4.524000000000000199e+01,1.299706749163210551e-01
4.528000000000000114e+01,1.098122638781455218e-01
4.532000000000000028e+01,1.130538862380636306e-01
4.535999999999999943e+01,1.188473852614965742e-01
4.539999999999999858e+01,1.191087827277472894e-01
4.543999999999999773e+01,1.308569848267519820e-01
4.547999999999999687e+01,1.660052263428947183e-01
4.552000000000000313e+01,1.377570948865417810e-01
4.556000000000000227e+01,1.201448273429673724e-01
4.560000000000000142e+01,1.297618572849786323e-01
4.564000000000000057e+01,1.508656993835494342e-01
4.567999999999999972e+01,1.600553612013245197e-01
4.571999999999999886e+01,1.786044750995342822e-01
4.575999999999999801e+01,1.916215009834112415e-01
4.579999999999999716e+01,1.676214666901420791e-01
4.584000000000000341e+01,1.755309376994481640e-01
4.588000000000000256e+01,1.945017572767508418e-01
4.592000000000000171e+01,2.138971114985764310e-01
4.596000000000000085e+01,2.235056590585807745e-01
4.600000000000000000e+01,2.441755597008648804e-01
4.603999999999999915e+01,2.388906972399330864e-01
4.607999999999999829e+01,2.476454991907089398e-01
4.611999999999999744e+01,2.376785755389907995e-01
4.615999999999999659e+01,2.600466418450658734e-01
4.620000000000000284e+01,2.798609450090858153e-01
4.624000000000000199e+01,2.915903425131293192e-01
4.628000000000000114e+01,2.824706573480763039e-01
4.632000000000000028e+01,2.856887551547797610e-01
4.635999999999999943e+01,3.161361790375292191e-01
4.639999999999999858e+01,2.933986058636318672e-01
4.643999999999999773e+01,2.944865808382675088e-01
4.647999999999999687e+01,2.900424948842697526e-01
4.652000000000000313e+01,2.656002805240005316e-01
4.656000000000000227e+01,2.875336675344050130e-01
4.660000000000000142e+01,2.741519149314022852e-01
4.664000000000000057e+01,2.620456692928804787e-01
4.667999999999999972e+01,2.299413012671315537e-01
4.671999999999999886e+01,2.501691572709121014e-01
4.675999999999999801e+01,2.469951129599523842e-01
4.679999999999999716e+01,2.063785734737438593e-01
4.684000000000000341e+01,2.146904815943129485e-01
4.688000000000000256e+01,2.357656663704229827e-01
4.692000000000000171e+01,2.245040318911199206e-01
4.696000000000000085e+01,1.834584153639413628e-01
4.700000000000000000e+01,1.819808548857380637e-01
4.703999999999999915e+01,1.341258833011354235e-01
4.707999999999999829e+01,1.454107111629819038e-01
4.711999999999999744e+01,1.422285772126550552e-01
4.715999999999999659e+01,1.373436614687973678e-01
4.720000000000000284e+01,1.294795475847818345e-01
4.724000000000000199e+01,1.237419084709222850e-01
4.728000000000000114e+01,1.380005955514138072e-01
4.732000000000000028e+01,1.229007867440086860e-01
4.735999999999999943e+01,1.078000941353957770e-01
4.739999999999999858e+01,1.041862798928294975e-01
4.743999999999999773e+01,9.844422177293050968e-02
4.747999999999999687e+01,1.007852640915652409e-01
4.752000000000000313e+01,1.056782643308128017e-01
4.756000000000000227e+01,7.397974321953057486e-02
4.760000000000000142e+01,9.333706139113331912e-02
4.764000000000000057e+01,7.269908028469340699e-02
4.767999999999999972e+01,8.311972846557932892e-02
4.771999999999999886e+01,8.375363619413112026e-02
4.775999999999999801e+01,6.056020860984025894e-02
4.779999999999999716e+01,8.544431951233390221e-02
4.784000000000000341e+01,5.076139827263850823e-02
4.788000000000000256e+01,6.415601852924980586e-02
4.792000000000000171e+01,5.244689164067443954e-02
4.796000000000000085e+01,6.669073316719989486e-02
4.800000000000000000e+01,7.965729711730645812e-02
4.803999999999999915e+01,8.326260527029689940e-02
4.807999999999999829e+01,6.474248061705067947e-02
4.811999999999999744e+01,6.153851496971488033e-02
4.815999999999999659e+01,6.003558608491015719e-02
4.820000000000000284e+01,7.852901800396126786e-02
4.824000000000000199e+01,7.064229696452618834e-02
4.828000000000000114e+01,7.211512431023434089e-02
4.832000000000000028e+01,2.848700655328547521e-02
4.835999999999999943e+01,6.442142201735071017e-02
4.839999999999999858e+01,7.355021792484466026e-02
4.843999999999999773e+01,6.183001242033972500e-02
4.847999999999999687e+01,7.946657582986460522e-02
4.852000000000000313e+01,4.987483857489085487e-02
4.856000000000000227e+01,4.198136613514014820e-02
4.860000000000000142e+01,4.344745411862119960e-02
4.864000000000000057e+01,8.022693367498782979e-02
4.867999999999999972e+01,6.850170073451183894e-02
4.871999999999999886e+01,7.081623151997426535e-02
4.875999999999999801e+01,4.036853965190356774e-02
4.879999999999999716e+01,5.161633463270348665e-02
4.884000000000000341e+01,5.052459559170294212e-02
4.888000000000000256e+01,3.326407047949859336e-02
4.892000000000000171e+01,3.642540587397876534e-02
4.896000000000000085e+01,3.533119148640008478e-02
4.900000000000000000e+01,2.785406573587670062e-02
4.903999999999999915e+01,4.122427762345044072e-02
4.907999999999999829e+01,3.119267647242610075e-02
4.911999999999999744e+01,1.222533276996395739e-02
4.915999999999999659e+01,2.772045496802247669e-02
4.920000000000000284e+01,2.832322098435386196e-02
4.924000000000000199e+01,4.679502384268205417e-02
4.928000000000000114e+01,1.761308200984258374e-02
4.932000000000000028e+01,5.778236670117771479e-02
4.935999999999999943e+01,4.731960139096165474e-02
4.939999999999999858e+01,3.855791949086988246e-02
4.943999999999999773e+01,5.574926168203850341e-02
4.947999999999999687e+01,3.507273689982079445e-02
4.952000000000000313e+01,2.886147855589226915e-02
4.956000000000000227e+01,3.200981674946129507e-02
4.960000000000000142e+01,7.430083618434586701e-02
4.964000000000000057e+01,2.979464369500914658e-02
4.967999999999999972e+01,1.379432002827539125e-02
4.971999999999999886e+01,4.459518922546964331e-02
4.975999999999999801e+01,5.369616143352161364e-02
4.979999999999999716e+01,3.386420366599269399e-02
4.984000000000000341e+01,4.338906597437018620e-02
4.988000000000000256e+01,3.802159768195871592e-02
4.992000000000000171e+01,3.860995853285949242e-02
4.996000000000000085e+01,3.579375245498695596e-02
5.000000000000000000e+01,3.893337852994865206e-02
5.003999999999999915e+01,3.398824189723601008e-02
5.007999999999999829e+01,3.244610472410346114e-02
5.011999999999999744e+01,4.834756488058188778e-02
5.015999999999999659e+01,4.722934188395198213e-02
5.020000000000000284e+01,4.355750622137401912e-02
5.024000000000000199e+01,3.818300463186785620e-02
5.028000000000000114e+01,2.302185889473615243e-02
5.032000000000000028e+01,3.168640726796152080e-02
5.035999999999999943e+01,3.907376684567134134e-02
5.039999999999999858e+01,5.284244624095546516e-02
5.043999999999999773e+01,4.023105543961232738e-02
5.047999999999999687e+01,4.336138504221227763e-02
5.052000000000000313e+01,4.393811401695267571e-02
5.056000000000000227e+01,3.898293554868896560e-02
5.060000000000000142e+01,5.104589985003961383e-02
5.064000000000000057e+01,2.396462296468679365e-02
5.067999999999999972e+01,2.921850607512838094e-02
5.071999999999999886e+01,4.681033768104448517e-02
5.075999999999999801e+01,4.738250870526833358e-02
5.079999999999999716e+01,3.646616467524295413e-02
5.084000000000000341e+01,2.810190346099942019e-02
5.088000000000000256e+01,2.739539797285122161e-02
5.092000000000000171e+01,4.540893776092353590e-02
5.096000000000000085e+01,3.916978999990956833e-02
5.100000000000000000e+01,4.101387509640343904e-02
5.103999999999999915e+01,5.179213978942524832e-02
5.107999999999999829e+01,3.789224883051451470e-02
5.111999999999999744e+01,4.441430114014718183e-02
5.115999999999999659e+01,4.710635904670936597e-02
5.120000000000000284e+01,3.277877292395108000e-02
5.124000000000000199e+01,4.950995001225412528e-02
5.128000000000000114e+01,4.071203373817123411e-02
5.132000000000000028e+01,3.106243739996773431e-02
5.135999999999999943e+01,3.843101242183907112e-02
5.139999999999999858e+01,3.899129374930056235e-02
5.143999999999999773e+01,4.848576972090062887e-02
5.147999999999999687e+01,4.989553715622496027e-02
5.152000000000000313e+01,2.875452857763539927e-02
5.156000000000000227e+01,4.165060356810139364e-02
5.160000000000000142e+01,6.433182445600914290e-02
5.164000000000000057e+01,3.935938943365232395e-02
5.167999999999999972e+01,4.927498772889309098e-02
5.171999999999999886e+01,3.876718061967238810e-02
5.175999999999999801e+01,3.421527187277303289e-02
5.179999999999999716e+01,2.498244756472168746e-02
5.184000000000000341e+01,4.893577212479454513e-02
5.188000000000000256e+01,4.906191636241500481e-02
5.192000000000000171e+01,5.727132806704813422e-02
5.196000000000000085e+01,5.016301480133877888e-02
5.200000000000000000e+01,5.709458865197568345e-02
5.203999999999999915e+01,2.700933706819351118e-02
5.207999999999999829e+01,4.968198376905375718e-02
5.211999999999999744e+01,3.576328066214663065e-02
5.215999999999999659e+01,3.205521713646549559e-02
5.220000000000000284e+01,4.664177442222964404e-02
5.224000000000000199e+01,4.378325418533208363e-02
5.228000000000000114e+01,5.709199468375508735e-02
5.232000000000000028e+01,4.274431785793299937e-02
5.235999999999999943e+01,3.477803458297785977e-02
5.239999999999999858e+01,4.510637964327354060e-02
5.243999999999999773e+01,2.565094880796035468e-02
5.247999999999999687e+01,4.704019802527759780e-02
5.252000000000000313e+01,3.779472912224957765e-02
5.256000000000000227e+01,4.982220289342223496e-02
5.260000000000000142e+01,4.270272221626504605e-02
5.264000000000000057e+01,4.707031702885501601e-02
5.267999999999999972e+01,2.761076161421391686e-02
5.271999999999999886e+01,5.154873098354600253e-02
5.275999999999999801e+01,4.995766266665174760e-02
5.279999999999999716e+01,5.049327828170254578e-02
5.284000000000000341e+01,3.443478417976610084e-02
5.288000000000000256e+01,3.581999123595452222e-02
5.292000000000000171e+01,3.209885224717146102e-02
5.296000000000000085e+01,4.156669125474157095e-02
5.300000000000000000e+01,3.912062535279208636e-02
5.303999999999999915e+01,3.667388932570702503e-02
5.307999999999999829e+01,6.273315002591621503e-02
5.311999999999999744e+01,3.305483076656222374e-02
5.315999999999999659e+01,2.082022319866080537e-02
5.320000000000000284e+01,5.113221323760647197e-02
5.324000000000000199e+01,4.272553251644772843e-02
5.328000000000000114e+01,5.176256800102458505e-02
5.332000000000000028e+01,4.250362135722980661e-02
5.335999999999999943e+01,5.026292131156327031e-02
5.339999999999999858e+01,6.057440038638702701e-02
5.343999999999999773e+01,3.344363407629992457e-02
5.347999999999999687e+01,5.864534610036341300e-02
5.352000000000000313e+01,4.938312406894382334e-02
5.356000000000000227e+01,3.458910745160058420e-02
5.360000000000000142e+01,3.936618216372834295e-02
5.364000000000000057e+01,4.754639025917159478e-02
5.367999999999999972e+01,4.849291781445676242e-02
5.371999999999999886e+01,4.390765680286263378e-02
5.375999999999999801e+01,4.315100630599650461e-02
5.379999999999999716e+01,4.111729642306687776e-02
5.384000000000000341e+01,3.950841912735256894e-02
5.388000000000000256e+01,7.023482220831828160e-02
5.392000000000000171e+01,3.969253140226036008e-02
5.396000000000000085e+01,4.318741445092246639e-02
5.400000000000000000e+01,6.029678723685474862e-02
5.403999999999999915e+01,5.315358834030328716e-02
5.407999999999999829e+01,5.409373816786235134e-02
5.411999999999999744e+01,5.333136803031723189e-02
5.415999999999999659e+01,4.022966400419416416e-02
5.420000000000000284e+01,5.478305360441661220e-02
5.424000000000000199e+01,6.380467419965371589e-02
5.428000000000000114e+01,5.623223924930222106e-02
5.432000000000000028e+01,5.078654541181618076e-02
5.435999999999999943e+01,5.257326559750959832e-02
5.439999999999999858e+01,6.074145607688450493e-02
5.443999999999999773e+01,6.848355648063177148e-02
5.447999999999999687e+01,3.963439585751484667e-02
5.452000000000000313e+01,5.248093726410185678e-02
5.456000000000000227e+01,4.362776225287515186e-02
5.460000000000000142e+01,4.881457216746434152e-02
5.464000000000000057e+01,5.570266261587834139e-02
5.467999999999999972e+01,4.089104116076189288e-02
5.471999999999999886e+01,4.182129961426205023e-02
5.475999999999999801e+01,5.849343948114008734e-02
5.479999999999999716e+01,7.729233851801634025e-02
5.484000000000000341e+01,7.481700428753594589e-02
5.488000000000000256e+01,5.915141801991834897e-02
5.492000000000000171e+01,4.220881449954710929e-02
5.496000000000000085e+01,5.164491534459370731e-02
5.500000000000000000e+01,6.193136503205590171e-02
5.503999999999999915e+01,5.179453421022555543e-02
5.507999999999999829e+01,6.931283011948423389e-02
5.511999999999999744e+01,5.279272478083212733e-02
5.515999999999999659e+01,4.478148141196897775e-02
5.520000000000000284e+01,4.825740983756137553e-02
5.524000000000000199e+01,4.620160687719505888e-02
5.528000000000000114e+01,5.861128704071232737e-02
5.532000000000000028e+01,5.442695078242885259e-02
5.535999999999999943e+01,5.194392214366944788e-02
5.539999999999999858e+01,6.307543590881797835e-02
5.543999999999999773e+01,3.974308784701498232e-02
5.547999999999999687e+01,5.172438867224066206e-02
5.552000000000000313e+01,7.434192809575178307e-02
5.556000000000000227e+01,2.377760204782044390e-02
5.560000000000000142e+01,5.064871849701020612e-02
5.564000000000000057e+01,6.305319364813491423e-02
5.567999999999999972e+01,5.588535760040301559e-02
5.571999999999999886e+01,3.722919158403371898e-02
5.575999999999999801e+01,4.282439694265675195e-02
5.579999999999999716e+01,4.586620030188166830e-02
5.584000000000000341e+01,5.528952812618686402e-02
5.588000000000000256e+01,6.173398434348668917e-02
5.592000000000000171e+01,6.094484428724850078e-02
5.596000000000000085e+01,5.717683563352726067e-02
5.600000000000000000e+01,5.255732297273085080e-02
5.603999999999999915e+01,5.772312323785495913e-02
5.607999999999999829e+01,5.948458680264998022e-02
5.611999999999999744e+01,6.082002349178233791e-02
5.615999999999999659e+01,5.109261938177859369e-02
5.620000000000000284e+01,3.753541046859960179e-02
5.624000000000000199e+01,6.354660520420338243e-02
5.628000000000000114e+01,6.317794943829642407e-02
5.632000000000000028e+01,4.834267795526252243e-02
5.635999999999999943e+01,5.435501948160204044e-02
5.639999999999999858e+01,5.270831017440679583e-02
5.643999999999999773e+01,6.467618239490742493e-02
5.647999999999999687e+01,5.366799257473779672e-02
5.652000000000000313e+01,7.159140150844385542e-02
5.656000000000000227e+01,6.738969664526060777e-02
5.660000000000000142e+01,6.148556511215957227e-02
5.664000000000000057e+01,6.111204290510128395e-02
5.667999999999999972e+01,8.030972789411672252e-02
5.671999999999999886e+01,5.993792780298206474e-02
5.675999999999999801e+01,7.275246166558371752e-02
5.679999999999999716e+01,6.131452767421533001e-02
5.684000000000000341e+01,8.008462232619953380e-02
5.688000000000000256e+01,6.226354623698384522e-02
5.692000000000000171e+01,4.444194598445639494e-02
5.696000000000000085e+01,6.661424908354064700e-02
5.700000000000000000e+01,5.772652997839019390e-02
5.703999999999999915e+01,7.309023040058627851e-02
5.707999999999999829e+01,6.420147350213982473e-02
5.711999999999999744e+01,6.552354277529237603e-02
5.715999999999999659e+01,4.429504820584240221e-02
5.720000000000000284e+01,5.795479461101764318e-02
5.724000000000000199e+01,4.268189092617163949e-02
5.728000000000000114e+01,5.591514196853241553e-02
5.732000000000000028e+01,6.531863034102779186e-02
5.735999999999999943e+01,5.387345286324324301e-02
5.739999999999999858e+01,5.987214658158488551e-02
5.743999999999999773e+01,6.842317140128494068e-02
5.747999999999999687e+01,5.655100750211772970e-02
5.752000000000000313e+01,5.829346575919543832e-02
5.756000000000000227e+01,5.407880728932706188e-02
5.760000000000000142e+01,6.815897277364879603e-02
5.764000000000000057e+01,6.777257219795911058e-02
5.767999999999999972e+01,6.440736772951240197e-02
5.771999999999999886e+01,8.401719051796227578e-02
5.775999999999999801e+01,6.193020426440302983e-02
5.779999999999999716e+01,7.898620772817932512e-02
5.784000000000000341e+01,6.498222058770328213e-02
5.788000000000000256e+01,7.182590363752119900e-02
5.792000000000000171e+01,7.696720967453682394e-02
5.796000000000000085e+01,5.955798196417105839e-02
5.800000000000000000e+01,7.788797055791095436e-02
5.803999999999999915e+01,7.324195579666228917e-02
5.807999999999999829e+01,5.412939152777409418e-02
5.811999999999999744e+01,4.948241722080534699e-02
5.815999999999999659e+01,8.057466523698650351e-02
5.820000000000000284e+01,6.103519580381343984e-02
5.824000000000000199e+01,6.191793748665454927e-02
5.828000000000000114e+01,5.386528120834330191e-02
5.832000000000000028e+01,4.921593437039303159e-02
5.835999999999999943e+01,5.860671390579930140e-02
5.839999999999999858e+01,8.927065581052283372e-02
5.843999999999999773e+01,6.419721788890582481e-02
5.847999999999999687e+01,5.869505487761079998e-02
5.852000000000000313e+01,6.510566117306959555e-02
5.856000000000000227e+01,9.576774417679574658e-02
5.860000000000000142e+01,7.026698075609638661e-02
5.864000000000000057e+01,7.071958752170386109e-02
5.867999999999999972e+01,8.053213391033328672e-02
5.871999999999999886e+01,8.311118935869976632e-02
5.875999999999999801e+01,6.484163162342379549e-02
5.879999999999999716e+01,8.401321075599263444e-02
5.884000000000000341e+01,8.573996065147627965e-02
5.888000000000000256e+01,6.236337570630710869e-02
5.892000000000000171e+01,7.217320597197177112e-02
5.896000000000000085e+01,5.900706749215271080e-02
5.900000000000000000e+01,8.540943648963066070e-02
5.903999999999999915e+01,7.522071600300640759e-02
5.907999999999999829e+01,7.098816924997970734e-02
5.911999999999999744e+01,9.270901074039303302e-02
5.915999999999999659e+01,7.315856847256400897e-02
5.920000000000000284e+01,7.871057222343821880e-02
5.924000000000000199e+01,8.511308432140184121e-02
5.928000000000000114e+01,8.853685271705113990e-02
5.932000000000000028e+01,7.919600872117145418e-02
5.935999999999999943e+01,6.985473235240552414e-02
5.939999999999999858e+01,8.136118335485433006e-02
5.943999999999999773e+01,5.712750515507049320e-02
5.947999999999999687e+01,6.905857155268133041e-02
5.952000000000000313e+01,6.226841644275726839e-02
5.956000000000000227e+01,8.355902921429161911e-02
5.960000000000000142e+01,9.719071153317725142e-02
5.964000000000000057e+01,7.933699834492950742e-02
5.967999999999999972e+01,6.914137193021292760e-02
5.971999999999999886e+01,5.724343621694207018e-02
5.975999999999999801e+01,7.980836516587590246e-02
5.979999999999999716e+01,7.471715818088534022e-02
5.984000000000000341e+01,6.792364641162360051e-02
5.988000000000000256e+01,7.729768128228627078e-02
5.992000000000000171e+01,6.624861922450711593e-02
5.996000000000000085e+01,9.476810075829050772e-02
