2.003999999999999915e+01,1.101142847509124778e-02
2.007999999999999829e+01,2.696039672594401776e-02
2.012000000000000099e+01,1.638967947901933189e-02
2.016000000000000014e+01,1.988019425788785724e-02
2.019999999999999929e+01,1.054245736522273734e-02
2.023999999999999844e+01,2.476361367100864824e-02
2.028000000000000114e+01,1.320516115579349961e-02
2.032000000000000028e+01,1.299432221666470960e-02
2.035999999999999943e+01,1.414005002514923115e-02
2.039999999999999858e+01,3.267735745589763624e-02
2.044000000000000128e+01,2.296813012497311152e-02
2.048000000000000043e+01,1.634231646715605946e-02
2.051999999999999957e+01,1.835049772313732466e-02
2.055999999999999872e+01,2.035843586413246462e-02
2.060000000000000142e+01,2.150270689593923243e-02
2.064000000000000057e+01,2.388019693276751884e-02
2.067999999999999972e+01,2.736755950751803765e-02
2.071999999999999886e+01,2.481071164561267015e-02
2.076000000000000156e+01,1.448280557122887460e-02
2.080000000000000071e+01,2.438344084718316318e-02
2.083999999999999986e+01,2.490951617677146512e-02
2.087999999999999901e+01,2.259838283682218465e-02
2.092000000000000171e+01,3.447182373812312378e-02
2.096000000000000085e+01,2.019561344097627401e-02
2.100000000000000000e+01,2.096740074153580560e-02
2.103999999999999915e+01,1.470820586864529135e-02
2.107999999999999829e+01,1.769973420598990738e-02
2.112000000000000099e+01,1.588051252602946592e-02
2.116000000000000014e+01,2.072174228627931061e-02
2.119999999999999929e+01,2.728957309347026378e-02
2.123999999999999844e+01,2.312603302878568287e-02
2.128000000000000114e+01,1.797547598650015357e-02
2.132000000000000028e+01,1.985540829764806739e-02
2.135999999999999943e+01,1.544443426179248000e-02
2.139999999999999858e+01,3.175538340561250700e-02
2.144000000000000128e+01,3.375791923364860475e-02
2.148000000000000043e+01,1.997188647911238985e-02
2.151999999999999957e+01,2.283734986743883588e-02
2.155999999999999872e+01,3.186987755208602752e-02
2.160000000000000142e+01,1.993329332669350681e-02
2.164000000000000057e+01,2.242797202510827051e-02
2.167999999999999972e+01,2.381228536558414183e-02
2.171999999999999886e+01,2.568973444426248323e-02
2.176000000000000156e+01,2.164631381366797017e-02
2.180000000000000071e+01,2.031626107742091208e-02
2.183999999999999986e+01,2.453653987683416041e-02
2.187999999999999901e+01,2.554956592860617437e-02
2.192000000000000171e+01,1.176079109554064792e-02
2.196000000000000085e+01,1.931066773858749336e-02
2.200000000000000000e+01,2.612021608659045174e-02
2.203999999999999915e+01,2.429527563786827021e-02
2.207999999999999829e+01,1.445257745242468743e-02
2.212000000000000099e+01,3.421272894541598636e-02
2.216000000000000014e+01,2.264268017277572959e-02
2.219999999999999929e+01,1.810311607676322321e-02
2.223999999999999844e+01,1.812711135445284685e-02
2.228000000000000114e+01,1.950766317581601947e-02
2.232000000000000028e+01,3.186577918061021808e-02
2.235999999999999943e+01,1.351042512944844801e-02
2.239999999999999858e+01,2.537465054123289390e-02
2.244000000000000128e+01,2.391722735881864070e-02
2.248000000000000043e+01,1.851247071292912508e-02
2.251999999999999957e+01,1.668450191652976269e-02
2.255999999999999872e+01,6.468734068872657866e-03
2.260000000000000142e+01,3.436670491035045960e-02
2.264000000000000057e+01,2.230023511900963706e-02
2.267999999999999972e+01,2.343156017917030765e-02
2.271999999999999886e+01,2.209570555456918939e-02
2.276000000000000156e+01,1.607243845131515678e-02
2.280000000000000071e+01,2.016330919888711243e-02
2.283999999999999986e+01,2.487065598688043694e-02
2.287999999999999901e+01,9.595654098344915880e-03
2.292000000000000171e+01,7.765138294852806655e-03
2.296000000000000085e+01,1.234837185634309401e-02
2.300000000000000000e+01,1.680800308082340544e-02
2.303999999999999915e+01,1.584014281147314365e-02
2.307999999999999829e+01,1.881910617901558225e-02
2.312000000000000099e+01,2.081104279018160599e-02
2.316000000000000014e+01,1.268832959811818685e-02
2.319999999999999929e+01,1.566652216719737617e-02
2.323999999999999844e+01,2.555184763125313910e-02
2.328000000000000114e+01,1.693497734716525871e-02
2.332000000000000028e+01,1.275831444254637952e-02
2.335999999999999943e+01,2.227282779360238371e-02
2.339999999999999858e+01,1.205168221359688603e-02
2.344000000000000128e+01,1.712521377282545318e-02
2.348000000000000043e+01,1.011055375589313757e-02
2.351999999999999957e+01,2.566799946954397005e-02
2.355999999999999872e+01,2.161313165632224378e-02
2.360000000000000142e+01,1.521442573605030942e-02
2.364000000000000057e+01,2.065670076562104579e-02
2.367999999999999972e+01,2.437186853556330343e-02
2.371999999999999886e+01,5.884450583443910643e-03
2.376000000000000156e+01,1.033917584996675056e-02
2.380000000000000071e+01,4.679247911947018862e-03
2.383999999999999986e+01,6.913219716309978308e-03
2.387999999999999901e+01,1.827455359564544510e-02
2.392000000000000171e+01,1.656092352427978448e-02
2.396000000000000085e+01,1.941084368558698703e-02
2.400000000000000000e+01,1.646322848754230503e-02
2.403999999999999915e+01,1.894258687862648491e-02
2.407999999999999829e+01,1.463763944905719511e-02
2.412000000000000099e+01,8.852274930490951904e-03
2.416000000000000014e+01,1.577131237982058384e-02
2.419999999999999929e+01,2.343016489629819177e-02
2.423999999999999844e+01,1.234012405362811850e-02
2.428000000000000114e+01,1.506460083176228149e-02
2.432000000000000028e+01,1.766546825767803530e-02
2.435999999999999943e+01,2.236295870010232556e-02
2.439999999999999858e+01,1.484890642246086516e-02
2.444000000000000128e+01,1.202174808102440817e-02
2.448000000000000043e+01,1.832194862582928879e-02
2.451999999999999957e+01,2.240165242871336101e-02
2.455999999999999872e+01,1.735346902413265752e-02
2.460000000000000142e+01,1.144159725215589465e-02
2.464000000000000057e+01,1.033996460799101527e-02
2.467999999999999972e+01,1.084156826160932729e-02
2.471999999999999886e+01,1.677014189046124870e-02
2.476000000000000156e+01,1.603775233928161209e-02
2.480000000000000071e+01,2.492610499175531430e-02
2.483999999999999986e+01,2.160291258576041429e-02
2.487999999999999901e+01,7.178291199369355932e-03
2.492000000000000171e+01,1.384561304898272900e-02
2.496000000000000085e+01,7.067926657209416645e-03
2.500000000000000000e+01,1.435144656879745392e-02
2.503999999999999915e+01,1.263042297645307344e-02
2.507999999999999829e+01,1.164920977445086693e-02
2.512000000000000099e+01,2.916966740068204639e-02
2.516000000000000014e+01,1.869025768958960942e-02
2.519999999999999929e+01,9.690735258196218546e-03
2.523999999999999844e+01,1.031195269205337391e-02
2.528000000000000114e+01,1.808698468823551064e-02
2.532000000000000028e+01,2.154462936406326828e-02
2.535999999999999943e+01,1.451757378109580846e-02
2.539999999999999858e+01,1.168402201429488176e-02
2.544000000000000128e+01,1.082374126976930022e-02
2.548000000000000043e+01,9.223113735559070048e-03
2.551999999999999957e+01,7.622216726185254525e-03
2.555999999999999872e+01,8.364628864892066640e-03
2.560000000000000142e+01,1.971454899174805708e-02
2.564000000000000057e+01,8.121795665499665154e-03
2.567999999999999972e+01,1.207040008292336285e-02
2.571999999999999886e+01,1.527865643516995373e-02
2.576000000000000156e+01,1.626640945545132846e-02
2.580000000000000071e+01,1.528035144021968987e-02
2.583999999999999986e+01,2.699868646443683712e-02
2.587999999999999901e+01,1.022376530678424135e-02
2.592000000000000171e+01,2.354505865033793000e-02
2.596000000000000085e+01,7.633017859754720295e-03
2.600000000000000000e+01,3.513858663306837493e-02
2.603999999999999915e+01,2.243300419505250484e-02
2.607999999999999829e+01,7.506916724414723283e-03
2.612000000000000099e+01,1.441284363942210885e-02
2.616000000000000014e+01,2.205857520505558403e-02
2.619999999999999929e+01,2.982737993614738639e-02
2.623999999999999844e+01,3.315544620297983247e-02
2.628000000000000114e+01,2.538207604904349837e-02
2.632000000000000028e+01,1.933527973154232707e-02
2.635999999999999943e+01,1.797536714630661517e-02
2.639999999999999858e+01,2.204241560785720477e-02
2.644000000000000128e+01,1.932514570641171228e-02
2.648000000000000043e+01,1.722433250041872227e-02
2.651999999999999957e+01,4.638812870750298224e-03
2.655999999999999872e+01,2.276623561356067374e-02
2.660000000000000142e+01,9.563434494129009408e-03
2.664000000000000057e+01,8.818329653470196108e-03
2.667999999999999972e+01,6.346101609526995542e-03
2.671999999999999886e+01,2.496580723539477270e-02
2.676000000000000156e+01,1.903933214713670816e-02
2.680000000000000071e+01,1.829312347080989942e-02
2.683999999999999986e+01,1.224274935987237911e-02
2.687999999999999901e+01,7.795599854703869590e-03
2.692000000000000171e+01,2.073999532092062406e-02
2.696000000000000085e+01,1.555221424499428871e-02
2.700000000000000000e+01,1.751823859036372513e-02
2.703999999999999915e+01,3.695664804252052956e-03
2.707999999999999829e+01,2.120276189963816657e-02
2.712000000000000099e+01,1.786406400317505291e-02
2.716000000000000014e+01,1.193481657082245441e-02
2.719999999999999929e+01,1.315937349685512847e-02
2.723999999999999844e+01,1.524707558831502573e-02
2.728000000000000114e+01,1.277068743386444195e-02
2.732000000000000028e+01,1.658467921843269008e-02
2.735999999999999943e+01,6.706957497655336581e-03
2.739999999999999858e+01,7.560080453350892689e-03
2.744000000000000128e+01,8.782962493494608086e-03
2.748000000000000043e+01,7.785332060643843088e-03
2.751999999999999957e+01,1.505162057617620910e-02
2.755999999999999872e+01,1.294331343155376811e-02
2.760000000000000142e+01,1.675534597432404293e-02
2.764000000000000057e+01,1.106943617725813199e-02
2.767999999999999972e+01,1.562098455052193628e-02
2.771999999999999886e+01,1.437497779430063800e-02
2.776000000000000156e+01,1.658238478480029282e-02
2.780000000000000071e+01,1.101869614837585991e-02
2.783999999999999986e+01,1.828273617681352992e-02
2.787999999999999901e+01,1.481537004475078079e-02
2.792000000000000171e+01,1.258118422777148963e-02
2.796000000000000085e+01,1.380041109460281544e-02
2.800000000000000000e+01,3.424807381567231569e-03
2.803999999999999915e+01,1.710144043154622484e-02
2.807999999999999829e+01,7.958733315431310365e-03
2.812000000000000099e+01,8.313404504140241638e-03
2.816000000000000014e+01,8.544445932751207340e-03
2.819999999999999929e+01,1.555924764164401397e-02
2.823999999999999844e+01,1.443291262165837321e-02
2.828000000000000114e+01,1.046932960445080482e-02
2.832000000000000028e+01,9.959157357815004788e-03
2.835999999999999943e+01,9.942085560756874774e-03
2.839999999999999858e+01,1.559865669041555353e-02
2.844000000000000128e+01,1.780124769993803729e-02
2.848000000000000043e+01,9.765814378297717202e-03
2.851999999999999957e+01,5.183790764318856222e-03
2.855999999999999872e+01,2.379057736816732674e-02
2.860000000000000142e+01,7.120049336120268593e-03
2.864000000000000057e+01,1.425506236932221407e-02
2.867999999999999972e+01,9.178509936176167464e-03
2.871999999999999886e+01,6.479758948194297777e-04
2.876000000000000156e+01,1.123582460931287982e-02
2.880000000000000071e+01,1.824634503591426177e-02
2.883999999999999986e+01,1.649899427232022486e-02
2.887999999999999901e+01,2.005524512090657227e-02
2.892000000000000171e+01,6.959464065034174501e-03
2.896000000000000085e+01,1.125521713886110109e-02
2.900000000000000000e+01,1.505729722481498334e-02
2.903999999999999915e+01,2.824076041149699116e-03
2.907999999999999829e+01,1.094269845784976054e-02
2.912000000000000099e+01,2.078787983023969166e-02
2.916000000000000014e+01,1.163744918685203668e-02
2.919999999999999929e+01,6.927194673367935429e-03
2.923999999999999844e+01,1.060419622175491627e-02
2.928000000000000114e+01,1.255406074902257717e-02
2.932000000000000028e+01,1.832736949586164996e-02
2.935999999999999943e+01,1.238249418052610011e-02
2.939999999999999858e+01,1.050775516863220425e-02
2.944000000000000128e+01,1.714361741021613178e-02
2.948000000000000043e+01,1.563833633287723540e-02
2.951999999999999957e+01,1.980669222995705067e-02
2.955999999999999872e+01,1.571055812843274654e-02
2.960000000000000142e+01,2.049506319360948348e-02
2.964000000000000057e+01,1.985204168891294141e-02
2.967999999999999972e+01,8.477604457522559464e-03
2.971999999999999886e+01,2.053866378811363899e-02
2.976000000000000156e+01,2.630877212946497803e-02
2.980000000000000071e+01,1.431672759889724214e-02
2.983999999999999986e+01,2.502010146546169295e-02
2.987999999999999901e+01,2.573213606952495791e-02
2.992000000000000171e+01,1.497267614429884444e-02
2.996000000000000085e+01,2.148139877970297110e-02
3.000000000000000000e+01,2.416609424071842344e-02
3.003999999999999915e+01,3.548473402099774909e-02
3.007999999999999829e+01,2.941125820483498493e-02
3.012000000000000099e+01,3.308184257342654255e-02
3.016000000000000014e+01,3.650544029829912857e-02
3.019999999999999929e+01,3.622835604038981278e-02
3.023999999999999844e+01,4.988910398307245392e-02
3.028000000000000114e+01,3.431649483275394513e-02
3.032000000000000028e+01,4.328949534634029400e-02
3.035999999999999943e+01,5.867620589722471330e-02
3.039999999999999858e+01,5.765756918714785850e-02
3.044000000000000128e+01,5.935225445368975256e-02
3.048000000000000043e+01,7.436803937274528986e-02
3.051999999999999957e+01,7.754228781022871886e-02
3.055999999999999872e+01,8.009950871462101496e-02
3.060000000000000142e+01,8.746693707209562962e-02
3.064000000000000057e+01,9.249048990807437476e-02
3.067999999999999972e+01,1.020775572629370465e-01
3.071999999999999886e+01,1.068538235807962172e-01
3.076000000000000156e+01,9.941851337803932209e-02
3.080000000000000071e+01,9.876694963772926494e-02
3.083999999999999986e+01,8.972754284167137884e-02
3.087999999999999901e+01,8.475826448351833631e-02
3.092000000000000171e+01,7.966534169710402791e-02
3.096000000000000085e+01,6.581453645364417071e-02
3.100000000000000000e+01,5.837743784616922921e-02
3.103999999999999915e+01,5.932758573437182936e-02
3.107999999999999829e+01,4.152880391189154446e-02
3.112000000000000099e+01,4.309508481195326729e-02
3.116000000000000014e+01,4.046729360919447405e-02
3.119999999999999929e+01,4.252636041626974006e-02
3.123999999999999844e+01,3.533415826015626204e-02
3.128000000000000114e+01,3.344554496129854837e-02
3.132000000000000028e+01,3.797063659776907935e-02
3.135999999999999943e+01,2.572033710775693816e-02
3.139999999999999858e+01,2.235066721825238259e-02
3.144000000000000128e+01,2.786162671667337387e-02
3.148000000000000043e+01,2.510808601255053521e-02
3.151999999999999957e+01,2.149082016433225689e-02
3.155999999999999872e+01,1.417286510554141392e-02
3.160000000000000142e+01,1.265188222141843712e-02
3.164000000000000057e+01,1.692787129938120791e-02
3.167999999999999972e+01,8.005508931202791681e-03
3.171999999999999886e+01,1.141746958935623869e-02
3.176000000000000156e+01,3.357925939444758850e-03
3.180000000000000071e+01,1.120974627169906215e-02
3.183999999999999986e+01,2.103480361309634228e-02
3.187999999999999901e+01,1.494789084606420494e-02
3.192000000000000171e+01,1.724821989790388879e-02
3.196000000000000085e+01,1.029727616007745927e-02
3.200000000000000000e+01,2.036781163216100712e-02
3.203999999999999915e+01,1.896684130810505353e-02
3.207999999999999829e+01,1.534533406411573049e-02
3.211999999999999744e+01,9.133250924059300307e-03
3.215999999999999659e+01,2.302630250651393692e-02
3.220000000000000284e+01,8.672756828165055845e-03
3.224000000000000199e+01,1.898815686429847910e-02
3.228000000000000114e+01,1.388496968425037559e-02
3.232000000000000028e+01,7.177975581362308621e-03
3.235999999999999943e+01,1.440880241221609639e-02
3.239999999999999858e+01,1.645878051406765227e-02
3.243999999999999773e+01,3.706901821995269020e-03
3.247999999999999687e+01,7.359768516262010611e-03
3.252000000000000313e+01,5.338400825711644114e-03
3.256000000000000227e+01,1.910504682375037747e-02
3.260000000000000142e+01,1.584960259622773815e-02
3.264000000000000057e+01,1.407400610813778694e-02
3.267999999999999972e+01,1.476502718303588681e-02
3.271999999999999886e+01,1.360554670023883875e-02
3.275999999999999801e+01,1.269245077395653523e-02
3.279999999999999716e+01,7.215235265437130140e-03
3.284000000000000341e+01,2.319995966522231737e-02
3.288000000000000256e+01,1.513185584389259777e-02
3.292000000000000171e+01,1.619106605398593773e-02
3.296000000000000085e+01,1.897681481188970287e-02
3.300000000000000000e+01,1.152451521685588127e-02
3.303999999999999915e+01,1.147268145225844443e-02
3.307999999999999829e+01,1.734115825130911823e-02
3.311999999999999744e+01,1.297158605967603170e-02
3.315999999999999659e+01,1.402893898845825223e-02
3.320000000000000284e+01,9.288707664010815296e-03
3.324000000000000199e+01,1.823960008746524850e-02
3.328000000000000114e+01,1.214193874373771347e-02
3.332000000000000028e+01,0.000000000000000000e+00
3.335999999999999943e+01,1.203361600037771394e-02
3.339999999999999858e+01,1.950310922978713141e-02
3.343999999999999773e+01,1.093727780554894398e-02
3.347999999999999687e+01,1.692599263534037488e-02
3.352000000000000313e+01,1.329338762121310379e-02
3.356000000000000227e+01,1.126397171164797775e-02
3.360000000000000142e+01,9.480935894373912834e-03
3.364000000000000057e+01,1.793532657270009711e-02
3.367999999999999972e+01,1.183454637609228886e-02
3.371999999999999886e+01,2.460543006612274722e-02
3.375999999999999801e+01,2.319118121960656378e-02
3.379999999999999716e+01,1.326572733175176294e-02
3.384000000000000341e+01,1.764812527565349370e-02
3.388000000000000256e+01,1.277924022594939882e-02
3.392000000000000171e+01,2.345166912800942041e-02
3.396000000000000085e+01,1.722534683123462182e-02
3.400000000000000000e+01,5.694821047657304403e-03
3.403999999999999915e+01,9.828954832615146089e-03
3.407999999999999829e+01,3.848380779436454818e-03
3.411999999999999744e+01,1.168227205187115196e-02
3.415999999999999659e+01,1.396526647814063521e-02
3.420000000000000284e+01,2.093510297058838454e-02
3.424000000000000199e+01,1.322641935743590347e-02
3.428000000000000114e+01,1.415165752984712082e-02
3.432000000000000028e+01,2.235400847555100642e-02
3.435999999999999943e+01,1.661791620501148342e-02
3.439999999999999858e+01,1.371847111998220070e-02
3.443999999999999773e+01,1.550586682563872762e-02
3.447999999999999687e+01,1.951317801905547503e-02
3.452000000000000313e+01,2.179332434310075201e-02
3.456000000000000227e+01,1.778249416805706765e-02
3.460000000000000142e+01,1.808846516981936145e-02
3.464000000000000057e+01,1.876415699125591474e-02
3.467999999999999972e+01,2.153641698302513618e-02
3.471999999999999886e+01,2.233481853347817764e-02
3.475999999999999801e+01,1.696558877644902680e-02
3.479999999999999716e+01,3.293494225668555653e-02
3.484000000000000341e+01,3.570592749679678268e-02
3.488000000000000256e+01,4.378048246177680680e-02
3.492000000000000171e+01,4.248040265149983369e-02
3.496000000000000085e+01,5.474809119357817999e-02
3.500000000000000000e+01,6.319172598850822387e-02
3.503999999999999915e+01,7.767900718508180535e-02
3.507999999999999829e+01,8.340838402865594081e-02
3.511999999999999744e+01,9.185105797674568417e-02
3.515999999999999659e+01,9.461948350960121268e-02
3.520000000000000284e+01,1.110790223738368360e-01
3.524000000000000199e+01,1.351857078855288607e-01
3.528000000000000114e+01,1.633624984510972378e-01
3.532000000000000028e+01,2.078206730551600545e-01
3.535999999999999943e+01,2.583224923602098766e-01
3.539999999999999858e+01,3.167181499714221138e-01
3.543999999999999773e+01,3.762236016777701919e-01
3.547999999999999687e+01,4.094559787638593074e-01
3.552000000000000313e+01,4.587230463164980176e-01
3.556000000000000227e+01,4.545808628299352061e-01
3.560000000000000142e+01,4.117076323791325487e-01
3.564000000000000057e+01,3.677239623792459833e-01
3.567999999999999972e+01,3.169559249099035414e-01
3.571999999999999886e+01,2.692712201198972921e-01
3.575999999999999801e+01,2.131986461265478472e-01
3.579999999999999716e+01,1.716806060574673776e-01
3.584000000000000341e+01,1.375630169380779033e-01
3.588000000000000256e+01,1.235505427710663212e-01
3.592000000000000171e+01,1.057140099675185491e-01
3.596000000000000085e+01,8.368337955130109029e-02
3.600000000000000000e+01,6.522946534441387278e-02
3.603999999999999915e+01,6.996432160250554144e-02
3.607999999999999829e+01,6.384438186625383815e-02
3.611999999999999744e+01,5.550388373927889890e-02
3.615999999999999659e+01,5.875760751492220546e-02
3.620000000000000284e+01,4.387910564196261659e-02
3.624000000000000199e+01,3.085047113960032172e-02
3.628000000000000114e+01,3.521333186441725355e-02
3.632000000000000028e+01,3.007820411908728592e-02
3.635999999999999943e+01,2.469605677981639991e-02
3.639999999999999858e+01,3.621201901190983924e-02
3.643999999999999773e+01,2.873233053828767869e-02
3.647999999999999687e+01,3.149005346693821428e-02
3.652000000000000313e+01,2.474978686253146917e-02
3.656000000000000227e+01,3.466093647012637169e-02
3.660000000000000142e+01,2.372624070391969944e-02
3.664000000000000057e+01,2.278226298062312888e-02
3.667999999999999972e+01,2.208464898079777472e-02
3.671999999999999886e+01,1.953651216506947091e-02
3.675999999999999801e+01,2.981605660840008082e-02
3.679999999999999716e+01,2.850072370380684478e-02
3.684000000000000341e+01,3.076210254432023075e-02
3.688000000000000256e+01,3.154299648215394547e-02
3.692000000000000171e+01,1.690527854428520299e-02
3.696000000000000085e+01,2.126255352842363819e-02
3.700000000000000000e+01,2.611288304441101993e-02
3.703999999999999915e+01,2.726249422608128734e-02
3.707999999999999829e+01,3.149543085929699254e-02
3.711999999999999744e+01,2.104983208100290673e-02
3.715999999999999659e+01,2.725564632597927625e-02
3.720000000000000284e+01,2.260665862431414722e-02
3.724000000000000199e+01,3.127873464879159932e-02
3.728000000000000114e+01,2.958939331953207297e-02
3.732000000000000028e+01,3.061333740277399212e-02
3.735999999999999943e+01,3.768091555789902097e-02
3.739999999999999858e+01,3.784077084802167645e-02
3.743999999999999773e+01,4.355087476679458947e-02
3.747999999999999687e+01,4.913729939384559042e-02
3.752000000000000313e+01,6.471443738700097259e-02
3.756000000000000227e+01,8.177139697199356516e-02
3.760000000000000142e+01,1.035151805536878855e-01
3.764000000000000057e+01,1.300691341740189966e-01
3.767999999999999972e+01,1.762348081624657559e-01
3.771999999999999886e+01,2.312810781634519752e-01
3.775999999999999801e+01,2.353850105235657797e-01
3.779999999999999716e+01,2.518232335975357228e-01
3.784000000000000341e+01,2.270634727123259089e-01
3.788000000000000256e+01,2.016866453915047985e-01
3.792000000000000171e+01,1.716223250234234499e-01
3.796000000000000085e+01,1.510553306649749239e-01
3.800000000000000000e+01,1.373953907587164847e-01
3.803999999999999915e+01,1.241051536026557683e-01
3.807999999999999829e+01,1.208056268365502867e-01
3.811999999999999744e+01,1.200960349767875579e-01
3.815999999999999659e+01,1.127254087219974193e-01
3.820000000000000284e+01,9.153966509760158576e-02
3.824000000000000199e+01,8.342828737576210574e-02
3.828000000000000114e+01,7.284964727473286494e-02
3.832000000000000028e+01,5.783020450965704190e-02
3.835999999999999943e+01,4.256373152153642564e-02
3.839999999999999858e+01,4.703232132957129580e-02
3.843999999999999773e+01,2.954493969437453280e-02
3.847999999999999687e+01,3.302608297534081333e-02
3.852000000000000313e+01,2.861272740286919386e-02
3.856000000000000227e+01,3.209319334257595968e-02
3.860000000000000142e+01,3.495658902019396774e-02
3.864000000000000057e+01,2.745856011628437787e-02
3.867999999999999972e+01,2.970454590456458183e-02
3.871999999999999886e+01,1.887548908677512752e-02
3.875999999999999801e+01,2.506787555252463010e-02
3.879999999999999716e+01,2.903968938455174856e-02
3.884000000000000341e+01,2.524034891700148789e-02
3.888000000000000256e+01,2.748463444321541313e-02
3.892000000000000171e+01,3.059200306089008073e-02
3.896000000000000085e+01,2.518813921413812218e-02
3.900000000000000000e+01,2.706136326857580543e-02
3.903999999999999915e+01,2.387704955990364863e-02
3.907999999999999829e+01,2.315931940108720277e-02
3.911999999999999744e+01,2.034436116240886591e-02
3.915999999999999659e+01,3.183722648207085171e-02
3.920000000000000284e+01,3.333870300760768957e-02
3.924000000000000199e+01,2.595890681709182510e-02
3.928000000000000114e+01,3.153012474748115301e-02
3.932000000000000028e+01,2.562979819179294835e-02
3.935999999999999943e+01,3.181706155022556021e-02
3.939999999999999858e+01,4.071759926689158537e-02
3.943999999999999773e+01,3.543297426035599967e-02
3.947999999999999687e+01,3.384839322302714282e-02
3.952000000000000313e+01,3.584050968780568697e-02
3.956000000000000227e+01,4.128597718759239449e-02
3.960000000000000142e+01,3.797351631260488525e-02
3.964000000000000057e+01,4.933891520852433377e-02
3.967999999999999972e+01,5.490669541291759437e-02
3.971999999999999886e+01,5.171654660479043514e-02
3.975999999999999801e+01,5.962721554882589176e-02
3.979999999999999716e+01,6.852430916203355871e-02
3.984000000000000341e+01,6.730666432528564780e-02
3.988000000000000256e+01,8.101357049298653357e-02
3.992000000000000171e+01,1.060679860715560835e-01
3.996000000000000085e+01,1.340823655412443083e-01
4.000000000000000000e+01,1.474181942935131884e-01
4.003999999999999915e+01,1.706213767646983792e-01
4.007999999999999829e+01,2.078856853958017670e-01
4.011999999999999744e+01,2.452729932138005553e-01
4.015999999999999659e+01,3.009151994201373359e-01
4.020000000000000284e+01,3.845566579090867743e-01
4.024000000000000199e+01,4.770786990179047282e-01
4.028000000000000114e+01,6.017937646377552463e-01
4.032000000000000028e+01,7.458738440862698882e-01
4.035999999999999943e+01,8.763854871947811542e-01
4.039999999999999858e+01,9.727298692463386409e-01
4.043999999999999773e+01,1.000000000000000000e+00
4.047999999999999687e+01,9.355001684120229921e-01
4.052000000000000313e+01,8.690264475583283632e-01
4.056000000000000227e+01,7.239808131711688022e-01
4.060000000000000142e+01,6.057009663956295364e-01
4.064000000000000057e+01,4.843371134259720212e-01
4.067999999999999972e+01,3.897390476427706751e-01
4.071999999999999886e+01,2.914402439677010181e-01
4.075999999999999801e+01,2.429729766486349585e-01
4.079999999999999716e+01,1.962322062112921983e-01
4.084000000000000341e+01,1.593587852412242378e-01
4.088000000000000256e+01,1.351896773797439943e-01
4.092000000000000171e+01,1.087999856176912472e-01
4.096000000000000085e+01,9.264768144871861344e-02
4.100000000000000000e+01,7.896195062566196965e-02
4.103999999999999915e+01,7.341672064372922746e-02
4.107999999999999829e+01,6.565090591089574323e-02
4.111999999999999744e+01,5.665127625071678108e-02
4.115999999999999659e+01,4.678787021416176695e-02
4.120000000000000284e+01,4.814862053133178721e-02
4.124000000000000199e+01,4.913897906503031376e-02
4.128000000000000114e+01,3.446401004254563694e-02
4.132000000000000028e+01,4.384120720582586339e-02
4.135999999999999943e+01,3.767642264227594184e-02
4.139999999999999858e+01,2.990778289975442802e-02
4.143999999999999773e+01,2.707263925508959432e-02
4.147999999999999687e+01,3.398149542186911648e-02
4.152000000000000313e+01,3.595614689996717156e-02
4.156000000000000227e+01,2.756935827804594258e-02
4.160000000000000142e+01,2.978999261144310920e-02
4.164000000000000057e+01,2.584295907324080446e-02
4.167999999999999972e+01,2.399245650350768574e-02
4.171999999999999886e+01,2.448517719869595238e-02
4.175999999999999801e+01,2.534758087394880025e-02
4.179999999999999716e+01,2.842986113444173277e-02
4.184000000000000341e+01,2.571451122397640232e-02
4.188000000000000256e+01,2.484899871003543037e-02
4.192000000000000171e+01,2.225628199903876073e-02
4.196000000000000085e+01,2.336359607715998016e-02
4.200000000000000000e+01,2.286705178757849830e-02
4.203999999999999915e+01,2.459038280774467414e-02
4.207999999999999829e+01,1.817250354563373915e-02
4.211999999999999744e+01,2.297877574786004809e-02
4.215999999999999659e+01,1.841037469747330499e-02
4.220000000000000284e+01,1.051126665323310130e-02
4.224000000000000199e+01,1.420634819913534595e-02
4.228000000000000114e+01,1.802441745250089183e-02
4.232000000000000028e+01,2.467909180012535161e-02
4.235999999999999943e+01,2.528944070419013312e-02
4.239999999999999858e+01,1.726519260725250735e-02
4.243999999999999773e+01,1.590128285686002660e-02
4.247999999999999687e+01,1.367358971488300684e-02
4.252000000000000313e+01,1.255565304101406536e-02
4.256000000000000227e+01,1.945486287563303468e-02
4.260000000000000142e+01,1.648601210116740212e-02
4.264000000000000057e+01,2.030084486485371834e-02
4.267999999999999972e+01,1.523438663042875341e-02
4.271999999999999886e+01,1.016756751054694562e-02
4.275999999999999801e+01,1.718832023530938308e-02
4.279999999999999716e+01,1.212077870676774374e-02
4.284000000000000341e+01,1.062991703602111405e-02
4.288000000000000256e+01,1.234569624693586214e-02
4.292000000000000171e+01,1.480119103658650813e-02
4.296000000000000085e+01,1.602286112011610392e-02
4.300000000000000000e+01,1.712082257559717491e-02
4.303999999999999915e+01,1.340791751879500705e-02
4.307999999999999829e+01,1.635534740722474970e-02
4.311999999999999744e+01,1.338179406755253195e-02
4.315999999999999659e+01,1.595845895729353439e-02
4.320000000000000284e+01,8.420367540184416077e-03
4.324000000000000199e+01,1.148969036252853355e-02
4.328000000000000114e+01,1.640884314102436861e-02
4.332000000000000028e+01,1.158327773847542264e-02
4.335999999999999943e+01,6.017270522053430777e-03
4.339999999999999858e+01,2.043299203806157871e-02
4.343999999999999773e+01,1.992345204555737853e-02
4.347999999999999687e+01,8.312384221991165820e-03
4.352000000000000313e+01,1.051573176725018044e-02
4.356000000000000227e+01,1.432221527155203879e-02
4.360000000000000142e+01,9.864134160940663670e-03
4.364000000000000057e+01,1.502669512782434449e-02
4.367999999999999972e+01,1.032118974590734428e-02
4.371999999999999886e+01,1.104255336273735066e-02
4.375999999999999801e+01,1.324370562118256690e-02
4.379999999999999716e+01,6.070175911149628539e-03
4.384000000000000341e+01,1.147759732411355107e-02
4.388000000000000256e+01,1.343095656025951844e-02
4.392000000000000171e+01,9.463328316661969233e-03
4.396000000000000085e+01,6.358756379183447792e-03
4.400000000000000000e+01,1.386159464209864127e-02
4.403999999999999915e+01,1.075628711587145979e-02
4.407999999999999829e+01,1.233776914804949644e-02
4.411999999999999744e+01,1.206868903664038047e-02
4.415999999999999659e+01,1.414281922264598590e-02
4.420000000000000284e+01,1.905354451155297571e-02
4.424000000000000199e+01,1.138258287613235983e-02
4.428000000000000114e+01,1.801941758854620768e-02
4.432000000000000028e+01,1.034771738822787279e-02
4.435999999999999943e+01,1.451688802023634248e-02
4.439999999999999858e+01,9.928104767621372811e-03
4.443999999999999773e+01,8.175915342415246076e-03
4.447999999999999687e+01,1.148055211334509697e-02
4.452000000000000313e+01,1.034435327000638415e-02
4.456000000000000227e+01,1.118132383471007706e-02
4.460000000000000142e+01,1.238796228615084843e-02
4.464000000000000057e+01,4.343260559407025739e-03
4.467999999999999972e+01,1.048300680015969502e-02
4.471999999999999886e+01,9.591645018872715228e-03
4.475999999999999801e+01,1.178356787337237789e-02
4.479999999999999716e+01,6.080958499048005200e-03
4.484000000000000341e+01,1.086240860637660045e-02
4.488000000000000256e+01,1.527344758526468817e-02
4.492000000000000171e+01,1.141991493403101375e-02
4.496000000000000085e+01,7.936048256295721859e-03
4.500000000000000000e+01,2.122689919026094635e-02
4.503999999999999915e+01,1.367185989560640823e-02
4.507999999999999829e+01,1.290049117159709595e-02
4.511999999999999744e+01,1.052524749848304450e-02
4.515999999999999659e+01,1.012317004468028282e-02
4.520000000000000284e+01,1.305106739729566638e-02
4.524000000000000199e+01,1.326497287240550882e-02
4.528000000000000114e+01,1.138161753001361645e-02
4.532000000000000028e+01,1.455508391953405992e-02
4.535999999999999943e+01,1.464451903025123722e-02
4.539999999999999858e+01,6.592726214378928813e-03
4.543999999999999773e+01,1.580903368987295055e-02
4.547999999999999687e+01,1.835869762518039117e-03
4.552000000000000313e+01,9.447924609466496274e-03
4.556000000000000227e+01,1.940318231345694588e-02
4.560000000000000142e+01,3.022148760770126952e-02
4.564000000000000057e+01,1.476666428583891036e-02
4.567999999999999972e+01,1.855348005212530474e-02
4.571999999999999886e+01,1.160879484630488075e-02
4.575999999999999801e+01,1.786178183212747128e-02
4.579999999999999716e+01,1.794707883781457639e-02
4.584000000000000341e+01,1.655184332243675796e-02
4.588000000000000256e+01,1.515623012761803737e-02
4.592000000000000171e+01,1.770731918532591001e-02
4.596000000000000085e+01,2.075141515649741447e-02
4.600000000000000000e+01,1.022704481359257116e-02
4.603999999999999915e+01,1.968438917270078775e-02
4.607999999999999829e+01,1.816353813742919640e-02
4.611999999999999744e+01,1.713569316529291175e-02
4.615999999999999659e+01,1.314715891722897934e-02
4.620000000000000284e+01,1.409209546975451199e-02
4.624000000000000199e+01,8.499300940190177012e-03
4.628000000000000114e+01,1.067694063994618220e-02
4.632000000000000028e+01,1.741801173899388752e-02
4.635999999999999943e+01,1.441434850075893996e-02
4.639999999999999858e+01,2.041458139926985091e-02
4.643999999999999773e+01,1.506657822661067354e-02
4.647999999999999687e+01,8.238039131573365870e-03
4.652000000000000313e+01,1.312701313491351947e-02
4.656000000000000227e+01,1.394517944585062924e-02
4.660000000000000142e+01,8.225612761459224001e-03
4.664000000000000057e+01,1.496363606480207581e-02
4.667999999999999972e+01,1.664408100185831019e-02
4.671999999999999886e+01,1.129340728777107790e-02
4.675999999999999801e+01,8.409276307780700482e-03
4.679999999999999716e+01,1.317223053902649363e-02
4.684000000000000341e+01,6.710292827798620095e-03
4.688000000000000256e+01,1.455613764657016744e-02
4.692000000000000171e+01,1.549420900580501977e-02
4.696000000000000085e+01,1.199143178326458892e-02
4.700000000000000000e+01,1.280538983708620800e-02
4.703999999999999915e+01,1.226215524689776640e-02
4.707999999999999829e+01,1.381542292659806472e-02
4.711999999999999744e+01,8.214223574816914217e-03
4.715999999999999659e+01,1.605738148334043616e-02
4.720000000000000284e+01,1.538926313552944035e-02
4.724000000000000199e+01,1.311725857176365868e-02
4.728000000000000114e+01,1.565537281435405714e-02
4.732000000000000028e+01,9.682210162863736508e-03
4.735999999999999943e+01,1.073939847387458089e-02
4.739999999999999858e+01,1.352304859056606585e-02
4.743999999999999773e+01,1.026234626577405586e-02
4.747999999999999687e+01,1.070164539377326321e-02
4.752000000000000313e+01,1.471759950746450406e-02
4.756000000000000227e+01,6.151849052515757400e-03
4.760000000000000142e+01,8.933567192676865679e-03
4.764000000000000057e+01,6.781048119098675823e-03
4.767999999999999972e+01,9.932030744124601893e-03
4.771999999999999886e+01,1.542620474676040764e-02
4.775999999999999801e+01,9.448789408500409687e-03
4.779999999999999716e+01,8.158143858512465624e-03
4.784000000000000341e+01,1.081419035711141813e-02
4.788000000000000256e+01,1.655350491009493705e-02
4.792000000000000171e+01,9.834459235716998260e-03
4.796000000000000085e+01,1.248934017093540627e-02
4.800000000000000000e+01,1.440375463275977118e-02
4.803999999999999915e+01,8.917004664680578882e-03
4.807999999999999829e+01,9.227139287453433106e-03
4.811999999999999744e+01,1.089369312587797761e-02
4.815999999999999659e+01,1.095635585895994753e-02
4.820000000000000284e+01,1.249878363704663362e-02
4.824000000000000199e+01,1.157389610300636230e-02
4.828000000000000114e+01,1.459569827915015335e-02
4.832000000000000028e+01,1.465679969993412615e-02
4.835999999999999943e+01,1.212723891632772402e-02
4.839999999999999858e+01,1.329767469612480775e-02
4.843999999999999773e+01,1.422102668219368989e-02
4.847999999999999687e+01,1.613075720712404959e-02
4.852000000000000313e+01,1.409301587764681674e-02
4.856000000000000227e+01,9.341265026351658340e-03
4.860000000000000142e+01,2.136421265437009678e-02
4.864000000000000057e+01,1.303463593945047849e-02
4.867999999999999972e+01,1.148871066278915089e-02
4.871999999999999886e+01,1.882332293859604461e-02
4.875999999999999801e+01,1.147933794150867055e-02
4.879999999999999716e+01,1.301589007172531363e-02
4.884000000000000341e+01,1.455204879142735219e-02
4.888000000000000256e+01,1.732127643320442723e-02
4.892000000000000171e+01,1.503291380409858304e-02
4.896000000000000085e+01,1.496438970804103707e-02
4.900000000000000000e+01,1.341531629693445277e-02
4.903999999999999915e+01,1.186584841240287402e-02
4.907999999999999829e+01,1.611325980417142173e-02
4.911999999999999744e+01,1.184938473566575154e-02
4.915999999999999659e+01,1.325904226377888628e-02
4.920000000000000284e+01,1.306480315941541646e-02
4.924000000000000199e+01,1.299351477323376462e-02
4.928000000000000114e+01,1.181171434748004741e-02
4.932000000000000028e+01,2.000383330353208353e-02
4.935999999999999943e+01,8.706847871788886070e-03
4.939999999999999858e+01,1.171763157737424482e-02
4.943999999999999773e+01,1.300117112047338187e-02
4.947999999999999687e+01,1.514773763336487410e-02
4.952000000000000313e+01,1.692386835829494743e-02
4.956000000000000227e+01,9.078593993893383646e-03
4.960000000000000142e+01,1.270412385001495024e-02
4.964000000000000057e+01,1.571252477139451972e-02
4.967999999999999972e+01,1.576021770962363414e-02
4.971999999999999886e+01,1.272385619760308360e-02
4.975999999999999801e+01,2.115829805577736436e-02
4.979999999999999716e+01,1.898456351299015674e-02
4.984000000000000341e+01,1.644039148158486785e-02
4.988000000000000256e+01,9.702047858947031658e-03
4.992000000000000171e+01,1.505123802876160571e-02
4.996000000000000085e+01,1.435606236442183402e-02
5.000000000000000000e+01,2.180133992282073593e-02
5.003999999999999915e+01,1.728163100507677796e-02
5.007999999999999829e+01,2.188914492104471546e-02
5.011999999999999744e+01,1.934217586187542484e-02
5.015999999999999659e+01,1.494461255922538076e-02
5.020000000000000284e+01,1.942757894350664177e-02
5.024000000000000199e+01,2.144321938655712606e-02
5.028000000000000114e+01,1.457752844090160968e-02
5.032000000000000028e+01,1.733244407153423233e-02
5.035999999999999943e+01,1.613987806898372832e-02
5.039999999999999858e+01,1.593368040135498959e-02
5.043999999999999773e+01,1.770062089220335311e-02
5.047999999999999687e+01,1.996054427474063669e-02
5.052000000000000313e+01,2.320683535445344781e-02
5.056000000000000227e+01,2.053210366579793361e-02
5.060000000000000142e+01,2.007720179432554222e-02
5.064000000000000057e+01,2.591255592652099218e-02
5.067999999999999972e+01,2.989731305166862599e-02
5.071999999999999886e+01,3.215481921170360718e-02
5.075999999999999801e+01,3.256172793952662181e-02
5.079999999999999716e+01,2.606084258735145640e-02
5.084000000000000341e+01,3.263425617437833853e-02
5.088000000000000256e+01,3.192983649269134916e-02
5.092000000000000171e+01,3.443201496366824627e-02
5.096000000000000085e+01,3.076647603142176196e-02
5.100000000000000000e+01,4.029858144256612956e-02
5.103999999999999915e+01,4.292289149821986588e-02
5.107999999999999829e+01,4.357325616648789757e-02
5.111999999999999744e+01,4.335979152544264248e-02
5.115999999999999659e+01,3.747199343633229179e-02
5.120000000000000284e+01,4.021802721056698393e-02
5.124000000000000199e+01,4.518388740067157128e-02
5.128000000000000114e+01,3.991160208782935231e-02
5.132000000000000028e+01,4.142295418282831987e-02
5.135999999999999943e+01,4.231716820205596447e-02
5.139999999999999858e+01,3.272654357155616034e-02
5.143999999999999773e+01,3.065963323825439749e-02
5.147999999999999687e+01,2.994912426370986008e-02
5.152000000000000313e+01,2.738801381789388034e-02
5.156000000000000227e+01,2.605995805115379760e-02
5.160000000000000142e+01,2.374472416959839266e-02
5.164000000000000057e+01,2.771974097715885002e-02
5.167999999999999972e+01,2.663715284567305316e-02
5.171999999999999886e+01,2.604754101583181200e-02
5.175999999999999801e+01,1.805674498595380428e-02
5.179999999999999716e+01,1.869977763068971649e-02
5.184000000000000341e+01,1.564201328573999739e-02
5.188000000000000256e+01,2.343830977154912412e-02
5.192000000000000171e+01,1.593926091789403532e-02
5.196000000000000085e+01,1.892423370628217374e-02
5.200000000000000000e+01,1.956521745434529683e-02
5.203999999999999915e+01,1.934236700370736695e-02
5.207999999999999829e+01,1.948914468695810837e-02
5.211999999999999744e+01,1.975885778248108460e-02
5.215999999999999659e+01,2.138496862286595399e-02
5.220000000000000284e+01,1.918693430580930767e-02
5.224000000000000199e+01,2.204568494396567935e-02
5.228000000000000114e+01,1.540636229172630094e-02
5.232000000000000028e+01,2.985883725676847372e-02
5.235999999999999943e+01,2.975604207104663029e-02
5.239999999999999858e+01,2.829602575531638825e-02
5.243999999999999773e+01,2.412197929730671569e-02
5.247999999999999687e+01,3.388564684425415113e-02
5.252000000000000313e+01,4.648586527703091331e-02
5.256000000000000227e+01,4.416077373258171790e-02
5.260000000000000142e+01,4.861931279334723299e-02
5.264000000000000057e+01,6.010817475577981406e-02
5.267999999999999972e+01,6.468923264685656760e-02
5.271999999999999886e+01,7.432707294216137073e-02
5.275999999999999801e+01,7.804387877708360288e-02
5.279999999999999716e+01,8.583069655493237582e-02
5.284000000000000341e+01,9.176690584630117775e-02
5.288000000000000256e+01,8.660153734981980433e-02
5.292000000000000171e+01,8.871318277596532131e-02
5.296000000000000085e+01,8.502713893333502249e-02
5.300000000000000000e+01,7.665352190000143673e-02
5.303999999999999915e+01,6.790945037148363173e-02
5.307999999999999829e+01,6.261865802523189362e-02
5.311999999999999744e+01,5.794418079476916505e-02
5.315999999999999659e+01,4.179808552483024742e-02
5.320000000000000284e+01,4.427685810502365177e-02
5.324000000000000199e+01,3.676416727478283575e-02
5.328000000000000114e+01,3.554171841779272395e-02
5.332000000000000028e+01,3.246865852333773866e-02
5.335999999999999943e+01,3.136872126886820072e-02
5.339999999999999858e+01,2.595124746142614403e-02
5.343999999999999773e+01,1.942323950587605125e-02
5.347999999999999687e+01,1.770531740646016580e-02
5.352000000000000313e+01,1.734378582411553668e-02
5.356000000000000227e+01,2.154564716370670902e-02
5.360000000000000142e+01,1.809962201545120553e-02
5.364000000000000057e+01,1.563994798296921770e-02
5.367999999999999972e+01,1.626351118047065364e-02
5.371999999999999886e+01,1.836681008665017045e-02
5.375999999999999801e+01,1.553583925403259104e-02
5.379999999999999716e+01,1.677487504978957336e-02
5.384000000000000341e+01,1.209287064544793677e-02
5.388000000000000256e+01,1.592133760693496825e-02
5.392000000000000171e+01,1.592565026995117899e-02
5.396000000000000085e+01,1.543615729387821760e-02
5.400000000000000000e+01,1.297270341192787932e-02
5.403999999999999915e+01,1.050882848379288206e-02
5.407999999999999829e+01,1.754219389471360288e-02
5.411999999999999744e+01,1.458409121839439847e-02
5.415999999999999659e+01,1.828626460207172927e-02
5.420000000000000284e+01,1.828762845372086318e-02
5.424000000000000199e+01,1.989207150499826965e-02
5.428000000000000114e+01,1.384862445453369922e-02
5.432000000000000028e+01,1.495883763180605279e-02
5.435999999999999943e+01,1.939897693420090247e-02
5.439999999999999858e+01,1.150406782545491252e-02
5.443999999999999773e+01,1.804024732321292054e-02
5.447999999999999687e+01,1.421491805694079409e-02
5.452000000000000313e+01,2.001017304583870005e-02
5.456000000000000227e+01,2.050111528074644723e-02
5.460000000000000142e+01,1.753793836683955124e-02
5.464000000000000057e+01,1.543776099963710402e-02
5.467999999999999972e+01,1.432392922107417199e-02
5.471999999999999886e+01,1.468982783663737302e-02
5.475999999999999801e+01,1.505530157953855787e-02
5.479999999999999716e+01,1.801062158205623404e-02
5.484000000000000341e+01,1.405812603378596773e-02
5.488000000000000256e+01,1.935617406389553846e-02
5.492000000000000171e+01,1.441605724608927518e-02
5.496000000000000085e+01,1.675294350922386377e-02
5.500000000000000000e+01,1.575905475224025770e-02
5.503999999999999915e+01,1.821843476100094839e-02
5.507999999999999829e+01,9.822917798931622702e-03
5.511999999999999744e+01,1.622852459302252803e-02
5.515999999999999659e+01,1.843993173504669333e-02
5.520000000000000284e+01,1.226336635883809589e-02
5.524000000000000199e+01,1.842099901069996215e-02
5.528000000000000114e+01,1.643735122819932337e-02
5.532000000000000028e+01,1.371319806978447443e-02
5.535999999999999943e+01,1.604581328518059000e-02
5.539999999999999858e+01,1.628111389980946982e-02
5.543999999999999773e+01,1.750275606401842377e-02
5.547999999999999687e+01,1.379011934840092962e-02
5.552000000000000313e+01,1.291401757495695864e-02
5.556000000000000227e+01,1.277756420431248874e-02
5.560000000000000142e+01,2.189165058557039981e-02
5.564000000000000057e+01,1.854733571112596180e-02
5.567999999999999972e+01,1.211893471170240148e-02
5.571999999999999886e+01,1.728465166226130292e-02
5.575999999999999801e+01,1.887289704460817091e-02
5.579999999999999716e+01,1.750040191874682391e-02
5.584000000000000341e+01,1.785432374374782208e-02
5.588000000000000256e+01,1.278057954503289059e-02
5.592000000000000171e+01,1.646398837949512167e-02
5.596000000000000085e+01,2.150377476352190870e-02
5.600000000000000000e+01,1.827893063219156872e-02
5.603999999999999915e+01,2.467466267791232001e-02
5.607999999999999829e+01,1.503494974852983244e-02
5.611999999999999744e+01,2.167651031496168126e-02
5.615999999999999659e+01,1.462620431695243854e-02
5.620000000000000284e+01,2.139024629924997020e-02
5.624000000000000199e+01,2.531689168945354743e-02
5.628000000000000114e+01,1.629174740457282194e-02
5.632000000000000028e+01,1.849067911739194631e-02
5.635999999999999943e+01,2.303275629009228498e-02
5.639999999999999858e+01,1.807673827644294684e-02
5.643999999999999773e+01,1.706736660623393159e-02
5.647999999999999687e+01,1.272721205036985749e-02
5.652000000000000313e+01,1.615743730281432242e-02
5.656000000000000227e+01,1.995726687995482904e-02
5.660000000000000142e+01,1.129869009942311223e-02
5.664000000000000057e+01,1.645445896079527140e-02
5.667999999999999972e+01,1.383897871098371812e-02
5.671999999999999886e+01,1.615691335267529366e-02
5.675999999999999801e+01,1.181371474867357052e-02
5.679999999999999716e+01,1.894128210042111612e-02
5.684000000000000341e+01,1.533728938224439287e-02
5.688000000000000256e+01,1.691340321427690918e-02
5.692000000000000171e+01,1.084161291415037219e-02
5.696000000000000085e+01,2.265459295433787379e-02
5.700000000000000000e+01,1.596519803969085466e-02
5.703999999999999915e+01,1.531933260654493208e-02
5.707999999999999829e+01,1.713995506131998220e-02
5.711999999999999744e+01,1.636986875622977594e-02
5.715999999999999659e+01,1.411918976934684392e-02
5.720000000000000284e+01,1.902215570429125965e-02
5.724000000000000199e+01,1.849744838772917829e-02
5.728000000000000114e+01,1.414856891580179750e-02
5.732000000000000028e+01,1.374633111050901739e-02
5.735999999999999943e+01,1.457711715989091356e-02
5.739999999999999858e+01,1.429734801553915122e-02
5.743999999999999773e+01,2.080118375397075475e-02
5.747999999999999687e+01,1.842364983892250119e-02
5.752000000000000313e+01,1.518225260142869529e-02
5.756000000000000227e+01,1.255714688311327341e-02
5.760000000000000142e+01,1.622226017918428076e-02
5.764000000000000057e+01,1.273285053468756374e-02
5.767999999999999972e+01,2.022081715106572794e-02
5.771999999999999886e+01,1.882741283847154737e-02
5.775999999999999801e+01,1.829699149117976903e-02
5.779999999999999716e+01,2.381009558632964443e-02
5.784000000000000341e+01,1.834494178796900951e-02
5.788000000000000256e+01,1.670308042557672526e-02
5.792000000000000171e+01,1.407400736040092040e-02
5.796000000000000085e+01,1.576161132409800367e-02
5.800000000000000000e+01,1.596861814177871070e-02
5.803999999999999915e+01,2.024560905413380976e-02
5.807999999999999829e+01,2.402877243144580302e-02
5.811999999999999744e+01,1.708036893620706875e-02
5.815999999999999659e+01,1.740895151534301716e-02
5.820000000000000284e+01,1.736705217620679309e-02
5.824000000000000199e+01,1.535116939749302245e-02
5.828000000000000114e+01,1.765196194699550705e-02
5.832000000000000028e+01,1.538849928689568075e-02
5.835999999999999943e+01,1.497478643950445228e-02
5.839999999999999858e+01,1.579409191965391174e-02
5.843999999999999773e+01,1.192579529793759939e-02
5.847999999999999687e+01,1.940490944900617049e-02
5.852000000000000313e+01,1.504233831104864749e-02
5.856000000000000227e+01,1.351628595902678621e-02
5.860000000000000142e+01,1.717033101618486990e-02
5.864000000000000057e+01,1.650681167211824618e-02
5.867999999999999972e+01,1.534946160427734171e-02
5.871999999999999886e+01,1.875547703528426466e-02
5.875999999999999801e+01,1.216999971953023826e-02
5.879999999999999716e+01,2.063231911141970992e-02
5.884000000000000341e+01,1.577279645942039621e-02
5.888000000000000256e+01,1.757352478273255941e-02
5.892000000000000171e+01,1.629014976191725528e-02
5.896000000000000085e+01,1.303278747504704738e-02
5.900000000000000000e+01,1.680571428929358152e-02
5.903999999999999915e+01,2.070153973911299447e-02
5.907999999999999829e+01,1.805956586799576172e-02
5.911999999999999744e+01,2.133776416959451763e-02
5.915999999999999659e+01,1.721473894347221381e-02
5.920000000000000284e+01,1.370799652066317931e-02
5.924000000000000199e+01,2.031519828640784148e-02
5.928000000000000114e+01,1.569744199665280490e-02
5.932000000000000028e+01,1.749324183477201852e-02
5.935999999999999943e+01,1.682166726294683293e-02
5.939999999999999858e+01,1.701306694055891577e-02
5.943999999999999773e+01,1.473709178306239868e-02
5.947999999999999687e+01,1.357078295887333488e-02
5.952000000000000313e+01,1.499429530961573012e-02
5.956000000000000227e+01,1.715743480494986636e-02
5.960000000000000142e+01,2.092362501391388865e-02
5.964000000000000057e+01,2.061893801613572802e-02
5.967999999999999972e+01,1.402314101772410629e-02
5.971999999999999886e+01,1.273078173071136819e-02
5.975999999999999801e+01,1.920878503285897501e-02
5.979999999999999716e+01,9.898016098804486226e-03
5.984000000000000341e+01,1.723853965398270544e-02
5.988000000000000256e+01,1.360079447396451632e-02
5.992000000000000171e+01,1.427971590629743652e-02
5.996000000000000085e+01,1.680837864805587861e-02
