2.003999999999999915e+01,1.487461467646200575e-01
2.007999999999999829e+01,7.361720784396814932e-02
2.012000000000000099e+01,1.190296239308929610e-01
2.016000000000000014e+01,1.456865155745179774e-01
2.019999999999999929e+01,9.197580273339156509e-02
2.023999999999999844e+01,9.630144062722408027e-02
2.028000000000000114e+01,1.702715049798170788e-01
2.032000000000000028e+01,1.692315439671939481e-01
2.035999999999999943e+01,3.692704992098010813e-02
2.039999999999999858e+01,1.385658751873700412e-01
2.044000000000000128e+01,1.678734680215468733e-01
2.048000000000000043e+01,1.168134721127337128e-01
2.051999999999999957e+01,6.842826149228624366e-02
2.055999999999999872e+01,1.378855112058239261e-02
2.060000000000000142e+01,9.754879731924326336e-02
2.064000000000000057e+01,1.295151830932284309e-01
2.067999999999999972e+01,9.986549467407190850e-02
2.071999999999999886e+01,3.270880998939627859e-02
2.076000000000000156e+01,1.637783157029541470e-01
2.080000000000000071e+01,1.430459523565520141e-01
2.083999999999999986e+01,1.312388933910093591e-01
2.087999999999999901e+01,1.176419963090177961e-01
2.092000000000000171e+01,1.013623346305542322e-01
2.096000000000000085e+01,1.288322045043535924e-01
2.100000000000000000e+01,8.218501597177244045e-02
2.103999999999999915e+01,3.731971323341141955e-02
2.107999999999999829e+01,1.156746056609358059e-01
2.112000000000000099e+01,1.020538718516606769e-01
2.116000000000000014e+01,1.071806764311181159e-01
2.119999999999999929e+01,7.212172554440018923e-02
2.123999999999999844e+01,1.120648274612598277e-01
2.128000000000000114e+01,1.002830332132384483e-02
2.132000000000000028e+01,8.568064029972172202e-02
2.135999999999999943e+01,1.890098141994120129e-01
2.139999999999999858e+01,1.003553599734869767e-01
2.144000000000000128e+01,1.206342614913446520e-01
2.148000000000000043e+01,8.733349235211940176e-02
2.151999999999999957e+01,1.076045022659675165e-01
2.155999999999999872e+01,8.858270568189045846e-02
2.160000000000000142e+01,1.615286279888423493e-01
2.164000000000000057e+01,1.692868151590278536e-01
2.167999999999999972e+01,1.484673473238894703e-01
2.171999999999999886e+01,1.079995140206961302e-01
2.176000000000000156e+01,8.895803902511358052e-02
2.180000000000000071e+01,1.672418665377421176e-01
2.183999999999999986e+01,9.908145583287494840e-02
2.187999999999999901e+01,1.157453499300430677e-01
2.192000000000000171e+01,1.993749765011798292e-01
2.196000000000000085e+01,7.226950312449106906e-02
2.200000000000000000e+01,1.201741429095940367e-01
2.203999999999999915e+01,2.082566600498017839e-01
2.207999999999999829e+01,7.578186797136439445e-02
2.212000000000000099e+01,9.510104885123260576e-02
2.216000000000000014e+01,1.206668221365858329e-01
2.219999999999999929e+01,1.792670519415816566e-01
2.223999999999999844e+01,1.503563621210440293e-01
2.228000000000000114e+01,4.911454331415145841e-02
2.232000000000000028e+01,1.300262854903894982e-01
2.235999999999999943e+01,1.002109678376079532e-01
2.239999999999999858e+01,8.914325828707261867e-02
2.244000000000000128e+01,1.066453751048948156e-01
2.248000000000000043e+01,1.152143139284318024e-01
2.251999999999999957e+01,6.127435327584083991e-02
2.255999999999999872e+01,1.109102389610086142e-01
2.260000000000000142e+01,1.516129533983596733e-01
2.264000000000000057e+01,1.369502049368071239e-01
2.267999999999999972e+01,8.835228531744020175e-02
2.271999999999999886e+01,5.403734814668086778e-02
2.276000000000000156e+01,8.668819067517358201e-02
2.280000000000000071e+01,1.086200157422770457e-01
2.283999999999999986e+01,9.750960737570137093e-02
2.287999999999999901e+01,1.140761213856923972e-01
2.292000000000000171e+01,9.938626391734020626e-02
2.296000000000000085e+01,1.239814067981783036e-01
2.300000000000000000e+01,1.682171202424513901e-01
2.303999999999999915e+01,4.725715962818546195e-02
2.307999999999999829e+01,3.165893204406650813e-02
2.312000000000000099e+01,1.374951568581173345e-01
2.316000000000000014e+01,1.281397231753862720e-01
2.319999999999999929e+01,1.777137353693605537e-01
2.323999999999999844e+01,1.388839554295318024e-01
2.328000000000000114e+01,8.397761264112250934e-02
2.332000000000000028e+01,8.442900756051015254e-02
2.335999999999999943e+01,1.679189330306942451e-01
2.339999999999999858e+01,1.460394295143234711e-01
2.344000000000000128e+01,1.554085947734191175e-01
2.348000000000000043e+01,1.254850614780925744e-01
2.351999999999999957e+01,1.741354240846336998e-01
2.355999999999999872e+01,1.450971572940892018e-01
2.360000000000000142e+01,1.642732141223471609e-01
2.364000000000000057e+01,1.361202228318756091e-01
2.367999999999999972e+01,1.017129071983419175e-01
2.371999999999999886e+01,1.181987081166125664e-01
2.376000000000000156e+01,1.632544096144004642e-01
2.380000000000000071e+01,6.811648418893039014e-02
2.383999999999999986e+01,9.887769528466550106e-02
2.387999999999999901e+01,1.376714529429646783e-01
2.392000000000000171e+01,1.077058887320298114e-01
2.396000000000000085e+01,1.482778866004143548e-01
2.400000000000000000e+01,1.674157897259661021e-01
2.403999999999999915e+01,1.311883086614184790e-01
2.407999999999999829e+01,1.199590312515937951e-01
2.412000000000000099e+01,1.631946077971818676e-01
2.416000000000000014e+01,4.302043070896317822e-02
2.419999999999999929e+01,1.371453545369560323e-01
2.423999999999999844e+01,1.044706071114106377e-01
2.428000000000000114e+01,6.107692543092582693e-02
2.432000000000000028e+01,1.132228304768124055e-01
2.435999999999999943e+01,3.589028482909622370e-02
2.439999999999999858e+01,7.909933481304080860e-02
2.444000000000000128e+01,9.730259987582716430e-02
2.448000000000000043e+01,1.253243026912111147e-01
2.451999999999999957e+01,1.140533654215724058e-01
2.455999999999999872e+01,1.456392333694208341e-01
2.460000000000000142e+01,1.084658176780260580e-01
2.464000000000000057e+01,9.896942331140924642e-02
2.467999999999999972e+01,1.251864110779941919e-01
2.471999999999999886e+01,1.353269169536256700e-01
2.476000000000000156e+01,9.188793657566132755e-02
2.480000000000000071e+01,1.770269328771878203e-01
2.483999999999999986e+01,7.911178174032151844e-02
2.487999999999999901e+01,4.369788584610471288e-02
2.492000000000000171e+01,1.207892562586480451e-01
2.496000000000000085e+01,1.764465859001092540e-01
2.500000000000000000e+01,1.579870820174911761e-01
2.503999999999999915e+01,6.094610321539416231e-02
2.507999999999999829e+01,6.123061132499334897e-02
2.512000000000000099e+01,1.061578135932915307e-01
2.516000000000000014e+01,1.367944161653780188e-01
2.519999999999999929e+01,1.370677041708768251e-01
2.523999999999999844e+01,1.828766218103878849e-01
2.528000000000000114e+01,1.304596459887800430e-01
2.532000000000000028e+01,1.146490170103859618e-01
2.535999999999999943e+01,1.300871647509612705e-01
2.539999999999999858e+01,5.533578433648718431e-02
2.544000000000000128e+01,1.716674276017820522e-01
2.548000000000000043e+01,5.851266550994212168e-02
2.551999999999999957e+01,1.328692166801394847e-01
2.555999999999999872e+01,1.063211039444463546e-01
2.560000000000000142e+01,8.780563447070534322e-02
2.564000000000000057e+01,5.410666355778463721e-02
2.567999999999999972e+01,1.070180685427733619e-01
2.571999999999999886e+01,1.402813329420063704e-01
2.576000000000000156e+01,1.065712363755512981e-01
2.580000000000000071e+01,1.032170125362747853e-01
2.583999999999999986e+01,7.485708248464505166e-02
2.587999999999999901e+01,1.054267489808617952e-01
2.592000000000000171e+01,1.949260142737478385e-01
2.596000000000000085e+01,8.529847797608550164e-02
2.600000000000000000e+01,4.174397480349358036e-02
2.603999999999999915e+01,7.944229539515056115e-02
2.607999999999999829e+01,5.106020174054918398e-02
2.612000000000000099e+01,1.369692993150862792e-01
2.616000000000000014e+01,1.844787777351877822e-01
2.619999999999999929e+01,8.286547687296691445e-02
2.623999999999999844e+01,0.000000000000000000e+00
2.628000000000000114e+01,4.124793936875291445e-02
2.632000000000000028e+01,8.427806137636133232e-02
2.635999999999999943e+01,1.523065152216039053e-01
2.639999999999999858e+01,7.924855958823885660e-02
2.644000000000000128e+01,1.097666684284636929e-01
2.648000000000000043e+01,1.617114009374140404e-01
2.651999999999999957e+01,1.556121024967573874e-01
2.655999999999999872e+01,7.718191569380697392e-02
2.660000000000000142e+01,6.482479574827240687e-02
2.664000000000000057e+01,1.551508227915981419e-01
2.667999999999999972e+01,8.028138041927766755e-02
2.671999999999999886e+01,8.309308512581961570e-02
2.676000000000000156e+01,1.448344358543138810e-01
2.680000000000000071e+01,1.842489205287405896e-01
2.683999999999999986e+01,1.111507397846340089e-01
2.687999999999999901e+01,1.362710758781040254e-01
2.692000000000000171e+01,6.405853944104247799e-02
2.696000000000000085e+01,1.123877425603141134e-01
2.700000000000000000e+01,6.159822018901194018e-02
2.703999999999999915e+01,9.295450653137790620e-02
2.707999999999999829e+01,1.769899557843690741e-01
2.712000000000000099e+01,2.707444823774611889e-02
2.716000000000000014e+01,9.592285166445846389e-02
2.719999999999999929e+01,1.344080529657331602e-01
2.723999999999999844e+01,8.895433065972668807e-02
2.728000000000000114e+01,6.224849081237270737e-02
2.732000000000000028e+01,1.542985533030692968e-01
2.735999999999999943e+01,1.231208348637991834e-01
2.739999999999999858e+01,5.711528189898409935e-02
2.744000000000000128e+01,1.214737114936669804e-01
2.748000000000000043e+01,1.438608812296950923e-01
2.751999999999999957e+01,8.855964420211438759e-02
2.755999999999999872e+01,1.805880423285448344e-01
2.760000000000000142e+01,8.420487581230268193e-02
2.764000000000000057e+01,7.264633792860727968e-02
2.767999999999999972e+01,4.590441329570562473e-02
2.771999999999999886e+01,1.405971996756182341e-01
2.776000000000000156e+01,1.379571607502828312e-01
2.780000000000000071e+01,1.228125280087426635e-01
2.783999999999999986e+01,1.424885263285760040e-01
2.787999999999999901e+01,1.701972960932732482e-01
2.792000000000000171e+01,1.327186837864137992e-01
2.796000000000000085e+01,3.630319275873180457e-02
2.800000000000000000e+01,8.900321907980236757e-02
2.803999999999999915e+01,6.847951151618511534e-02
2.807999999999999829e+01,1.086713816433679536e-01
2.812000000000000099e+01,5.956680526430966488e-02
2.816000000000000014e+01,5.956973759871980051e-02
2.819999999999999929e+01,1.524336886087982734e-01
2.823999999999999844e+01,1.131406208745717595e-01
2.828000000000000114e+01,8.455913325997224672e-02
2.832000000000000028e+01,1.220508092021773822e-01
2.835999999999999943e+01,1.506096377270778885e-01
2.839999999999999858e+01,9.344375040287558609e-02
2.844000000000000128e+01,1.094944632127024808e-01
2.848000000000000043e+01,1.308991950132047388e-01
2.851999999999999957e+01,1.094397966956060370e-01
2.855999999999999872e+01,1.772697223777052189e-01
2.860000000000000142e+01,1.066921484529951003e-01
2.864000000000000057e+01,1.084382571775845960e-01
2.867999999999999972e+01,1.235747546965643984e-01
2.871999999999999886e+01,6.370169910315880146e-02
2.876000000000000156e+01,8.597454892281035377e-02
2.880000000000000071e+01,1.216377942833213044e-01
2.883999999999999986e+01,7.157634853178254652e-02
2.887999999999999901e+01,2.419015807261544471e-02
2.892000000000000171e+01,5.002059473335368489e-02
2.896000000000000085e+01,1.526393756781980193e-01
2.900000000000000000e+01,1.338163253525070928e-01
2.903999999999999915e+01,1.283836840606132901e-01
2.907999999999999829e+01,1.399131689667174328e-01
2.912000000000000099e+01,4.250183155257780676e-02
2.916000000000000014e+01,9.777779161843550004e-02
2.919999999999999929e+01,8.340179793084992466e-02
2.923999999999999844e+01,9.313136926731005460e-02
2.928000000000000114e+01,1.251806504189498237e-01
2.932000000000000028e+01,1.402607795654368106e-01
2.935999999999999943e+01,1.267636854806167834e-01
2.939999999999999858e+01,1.230853057536232253e-01
2.944000000000000128e+01,7.118527525839116188e-02
2.948000000000000043e+01,5.142718183974214624e-02
2.951999999999999957e+01,1.030998918156542377e-01
2.955999999999999872e+01,1.494115367543296657e-01
2.960000000000000142e+01,1.082126758509036613e-01
2.964000000000000057e+01,1.339799814442854120e-01
2.967999999999999972e+01,7.848728679512269324e-02
2.971999999999999886e+01,7.567390347890286251e-02
2.976000000000000156e+01,1.124495645236195211e-02
2.980000000000000071e+01,8.521648322547588361e-02
2.983999999999999986e+01,1.323966712108475829e-01
2.987999999999999901e+01,5.545629121325701405e-02
2.992000000000000171e+01,1.374537525252116366e-01
2.996000000000000085e+01,8.104379069033912364e-02
3.000000000000000000e+01,1.692848150011473374e-01
3.003999999999999915e+01,1.307264941377517808e-01
3.007999999999999829e+01,5.734048941995219251e-02
3.012000000000000099e+01,6.788632403288057116e-02
3.016000000000000014e+01,1.860247488140684760e-02
3.019999999999999929e+01,5.592925574484095691e-02
3.023999999999999844e+01,1.093252992932950696e-01
3.028000000000000114e+01,6.717451667003884741e-02
3.032000000000000028e+01,8.573943767167051255e-02
3.035999999999999943e+01,1.114443408163475341e-01
3.039999999999999858e+01,6.481857148573835770e-02
3.044000000000000128e+01,8.694487108608574266e-02
3.048000000000000043e+01,1.581788098316355973e-01
3.051999999999999957e+01,7.850435471005808019e-02
3.055999999999999872e+01,1.756263514560828243e-01
3.060000000000000142e+01,8.433695222116030510e-02
3.064000000000000057e+01,1.073389983323752433e-01
3.067999999999999972e+01,9.729925177922020552e-02
3.071999999999999886e+01,1.015429374392726458e-01
3.076000000000000156e+01,1.397144895959331057e-01
3.080000000000000071e+01,1.618099016827365955e-01
3.083999999999999986e+01,3.388986662184106935e-02
3.087999999999999901e+01,3.186936387499909179e-02
3.092000000000000171e+01,9.056459848539002988e-02
3.096000000000000085e+01,7.603626337517223333e-02
3.100000000000000000e+01,1.213307413909890525e-01
3.103999999999999915e+01,1.264400171510869086e-01
3.107999999999999829e+01,1.761923221445103882e-01
3.112000000000000099e+01,5.449890623972949294e-02
3.116000000000000014e+01,1.337110516136948701e-01
3.119999999999999929e+01,1.271986385561678090e-01
3.123999999999999844e+01,4.121217041788190899e-02
3.128000000000000114e+01,1.016626178453016727e-01
3.132000000000000028e+01,1.013905179953416280e-01
3.135999999999999943e+01,1.520119642223785317e-01
3.139999999999999858e+01,1.419108676696818616e-01
3.144000000000000128e+01,1.023397360956295049e-01
3.148000000000000043e+01,9.312479658162174656e-02
3.151999999999999957e+01,4.104589561123774683e-02
3.155999999999999872e+01,6.575548509845409451e-02
3.160000000000000142e+01,1.172495584768064036e-01
3.164000000000000057e+01,6.605345231267469031e-02
3.167999999999999972e+01,6.932262513150189154e-02
3.171999999999999886e+01,1.190207206225110392e-01
3.176000000000000156e+01,1.088892223020378192e-01
3.180000000000000071e+01,9.964728598032705775e-02
3.183999999999999986e+01,1.261191343311337532e-01
3.187999999999999901e+01,1.061553265495937121e-01
3.192000000000000171e+01,1.549436709054617112e-01
3.196000000000000085e+01,1.421165752362731904e-01
3.200000000000000000e+01,5.606596831587427193e-02
3.203999999999999915e+01,1.119876760445953218e-01
3.207999999999999829e+01,6.432630023904091499e-02
3.211999999999999744e+01,1.541725999360306631e-01
3.215999999999999659e+01,1.270418896637246498e-01
3.220000000000000284e+01,1.508047726936983801e-01
3.224000000000000199e+01,7.277043864237785209e-02
3.228000000000000114e+01,7.420342171400517994e-02
3.232000000000000028e+01,5.598863525567168015e-02
3.235999999999999943e+01,1.395643886390429966e-01
3.239999999999999858e+01,1.204500052075672539e-01
3.243999999999999773e+01,1.200837943329102486e-01
3.247999999999999687e+01,4.917288537945139343e-02
3.252000000000000313e+01,7.380202416107854713e-02
3.256000000000000227e+01,8.503390800759377810e-02
3.260000000000000142e+01,1.257291181523530754e-01
3.264000000000000057e+01,2.712412709258141263e-02
3.267999999999999972e+01,2.048747784780975342e-02
3.271999999999999886e+01,9.153231300535019654e-02
3.275999999999999801e+01,1.259637575219386130e-01
3.279999999999999716e+01,9.342223686568712493e-02
3.284000000000000341e+01,1.117743454928840502e-01
3.288000000000000256e+01,1.694120121773743104e-01
3.292000000000000171e+01,1.323959298413164287e-01
3.296000000000000085e+01,1.453805548063315245e-01
3.300000000000000000e+01,8.246293855417731467e-02
3.303999999999999915e+01,8.383289376225265543e-02
3.307999999999999829e+01,2.494984403099570203e-01
3.311999999999999744e+01,3.097951043350952172e-01
3.315999999999999659e+01,1.325694362175140195e-01
3.320000000000000284e+01,9.195857559185345587e-02
3.324000000000000199e+01,1.486736606377814518e-01
3.328000000000000114e+01,1.553814533447900326e-01
3.332000000000000028e+01,1.611930360481456381e-01
3.335999999999999943e+01,1.321771193005825407e-01
3.339999999999999858e+01,6.476199043554700663e-02
3.343999999999999773e+01,8.306474501123746468e-02
3.347999999999999687e+01,6.028950578056735399e-02
3.352000000000000313e+01,8.662207660564767708e-02
3.356000000000000227e+01,5.758979846050275159e-02
3.360000000000000142e+01,8.123704978413184841e-02
3.364000000000000057e+01,1.138103251119804982e-01
3.367999999999999972e+01,8.119654219878473522e-02
3.371999999999999886e+01,1.575168054180308141e-01
3.375999999999999801e+01,1.338257944689453804e-01
3.379999999999999716e+01,4.584066075412814717e-02
3.384000000000000341e+01,1.105430876315993405e-01
3.388000000000000256e+01,1.207736122582738630e-01
3.392000000000000171e+01,8.992616781564090334e-02
3.396000000000000085e+01,1.260451327426997392e-01
3.400000000000000000e+01,9.161948504623140810e-02
3.403999999999999915e+01,1.107663202844343248e-01
3.407999999999999829e+01,7.990590816017757725e-02
3.411999999999999744e+01,7.315133541637196257e-02
3.415999999999999659e+01,1.110399650652623832e-01
3.420000000000000284e+01,1.203516435904287835e-01
3.424000000000000199e+01,7.161972518882762928e-02
3.428000000000000114e+01,1.621814611839012266e-01
3.432000000000000028e+01,5.718858050781073371e-02
3.435999999999999943e+01,1.209560067779076042e-01
3.439999999999999858e+01,1.240010589299954530e-01
3.443999999999999773e+01,1.645458993857848440e-01
3.447999999999999687e+01,1.140087934405009662e-01
3.452000000000000313e+01,1.027573377542535665e-01
3.456000000000000227e+01,1.415066793219988683e-01
3.460000000000000142e+01,6.774379174287317729e-02
3.464000000000000057e+01,8.862814235760788084e-02
3.467999999999999972e+01,1.282607914632491186e-01
3.471999999999999886e+01,8.931250986457671404e-02
3.475999999999999801e+01,7.893474727174576433e-02
3.479999999999999716e+01,9.444871974704591167e-02
3.484000000000000341e+01,8.674334945285630538e-02
3.488000000000000256e+01,1.076085049109770375e-01
3.492000000000000171e+01,9.900382099534313363e-02
3.496000000000000085e+01,2.431922207215559545e-02
3.500000000000000000e+01,1.050010351436569123e-01
3.503999999999999915e+01,8.477871728031746712e-02
3.507999999999999829e+01,8.866229276918166646e-02
3.511999999999999744e+01,1.255810511475162483e-01
3.515999999999999659e+01,1.107067654239230342e-01
3.520000000000000284e+01,1.217242372566912090e-01
3.524000000000000199e+01,3.451637558526718386e-02
3.528000000000000114e+01,1.241052311425589749e-01
3.532000000000000028e+01,4.939203175881721336e-02
3.535999999999999943e+01,1.371886944399260122e-01
3.539999999999999858e+01,6.514795032186958268e-02
3.543999999999999773e+01,1.190069948836881414e-01
3.547999999999999687e+01,1.041073674861190401e-01
3.552000000000000313e+01,7.848943775287330060e-02
3.556000000000000227e+01,1.055511476807283744e-01
3.560000000000000142e+01,7.099762222642032328e-02
3.564000000000000057e+01,1.016247431346809921e-01
3.567999999999999972e+01,1.054608535833573696e-01
3.571999999999999886e+01,1.298311784500273125e-01
3.575999999999999801e+01,1.068731365913367509e-01
3.579999999999999716e+01,1.223078882251740496e-01
3.584000000000000341e+01,1.011294223774305140e-01
3.588000000000000256e+01,8.619832028146111325e-02
3.592000000000000171e+01,1.543064548667104907e-01
3.596000000000000085e+01,3.400349481329419110e-02
3.600000000000000000e+01,7.888921899243030167e-02
3.603999999999999915e+01,1.300223159186326971e-01
3.607999999999999829e+01,6.596448071788192646e-02
3.611999999999999744e+01,8.762467962899828100e-02
3.615999999999999659e+01,1.137464005759611235e-01
3.620000000000000284e+01,6.932363258466132938e-02
3.624000000000000199e+01,9.365325960365322722e-02
3.628000000000000114e+01,2.332932650322877902e-02
3.632000000000000028e+01,7.354765918371934663e-02
3.635999999999999943e+01,8.983158980386064807e-02
3.639999999999999858e+01,1.320073454450529649e-01
3.643999999999999773e+01,8.935176597940973353e-02
3.647999999999999687e+01,9.312537679588542283e-02
3.652000000000000313e+01,3.528380395312684381e-02
3.656000000000000227e+01,1.024491540284431235e-01
3.660000000000000142e+01,1.267508282479043735e-01
3.664000000000000057e+01,7.157875097771117245e-02
3.667999999999999972e+01,9.766009565868503939e-02
3.671999999999999886e+01,1.058797756379166594e-01
3.675999999999999801e+01,1.024882942661400065e-01
3.679999999999999716e+01,1.142735156575110794e-01
3.684000000000000341e+01,9.301729070325374937e-02
3.688000000000000256e+01,9.140241665401245552e-02
3.692000000000000171e+01,1.388955438104764184e-01
3.696000000000000085e+01,1.167371534851588261e-01
3.700000000000000000e+01,9.636154623443771161e-02
3.703999999999999915e+01,1.277727331224239316e-01
3.707999999999999829e+01,7.524554961358716210e-02
3.711999999999999744e+01,1.236162448275476694e-01
3.715999999999999659e+01,1.139435072788192865e-01
3.720000000000000284e+01,1.212333524391575879e-01
3.724000000000000199e+01,1.213767068785860104e-01
3.728000000000000114e+01,1.224099314055273752e-01
3.732000000000000028e+01,6.004215979200536873e-02
3.735999999999999943e+01,1.387540731922179693e-01
3.739999999999999858e+01,8.084483918436981276e-02
3.743999999999999773e+01,1.059749273130144859e-01
3.747999999999999687e+01,1.096716785521761467e-01
3.752000000000000313e+01,1.062219548121887264e-01
3.756000000000000227e+01,1.108055467322307114e-01
3.760000000000000142e+01,1.278871002053469930e-01
3.764000000000000057e+01,1.110343235804504974e-01
3.767999999999999972e+01,1.120370853793407617e-01
3.771999999999999886e+01,8.624895140861976728e-02
3.775999999999999801e+01,9.617493493622022993e-02
3.779999999999999716e+01,1.811039022801206044e-01
3.784000000000000341e+01,1.436986066145240493e-01
3.788000000000000256e+01,9.021756892074113410e-02
3.792000000000000171e+01,1.403132411127486490e-01
3.796000000000000085e+01,1.930846790799490842e-01
3.800000000000000000e+01,1.985278762558768118e-01
3.803999999999999915e+01,1.852165542123770936e-01
3.807999999999999829e+01,2.129769400308494653e-01
3.811999999999999744e+01,3.121686127408278555e-01
3.815999999999999659e+01,3.908199155201588226e-01
3.820000000000000284e+01,5.221510063829084558e-01
3.824000000000000199e+01,7.695598273258545952e-01
3.828000000000000114e+01,1.000000000000000000e+00
3.832000000000000028e+01,9.813100571546151674e-01
3.835999999999999943e+01,9.143989650285206938e-01
3.839999999999999858e+01,7.662283629032953236e-01
3.843999999999999773e+01,6.144830524372275615e-01
3.847999999999999687e+01,4.368398176580295944e-01
3.852000000000000313e+01,3.011612442067013728e-01
3.856000000000000227e+01,2.253059089089545497e-01
3.860000000000000142e+01,2.565990366423666069e-01
3.864000000000000057e+01,1.878811645638529815e-01
3.867999999999999972e+01,1.861299672161450813e-01
3.871999999999999886e+01,1.683030750655336583e-01
3.875999999999999801e+01,1.701176395146190012e-01
3.879999999999999716e+01,1.254969368777365535e-01
3.884000000000000341e+01,1.460570605092627039e-01
3.888000000000000256e+01,1.505414983331777867e-01
3.892000000000000171e+01,5.947959573114970644e-02
3.896000000000000085e+01,1.523580470803093112e-01
3.900000000000000000e+01,9.790029622819489130e-02
3.903999999999999915e+01,1.434476033135369810e-01
3.907999999999999829e+01,7.380414693365085210e-02
3.911999999999999744e+01,6.398396019086811937e-02
3.915999999999999659e+01,1.389890497416559345e-01
3.920000000000000284e+01,1.443427477447501717e-01
3.924000000000000199e+01,8.450970009319616616e-02
3.928000000000000114e+01,6.574842776830468194e-02
3.932000000000000028e+01,1.210972959861422449e-01
3.935999999999999943e+01,1.362614297034445421e-01
3.939999999999999858e+01,1.094549737113461318e-01
3.943999999999999773e+01,7.282336449706940107e-02
3.947999999999999687e+01,7.101304075165862373e-02
3.952000000000000313e+01,1.147391494700702036e-01
3.956000000000000227e+01,8.792095815135114734e-02
3.960000000000000142e+01,8.163719938645658258e-02
3.964000000000000057e+01,1.155323074587864818e-01
3.967999999999999972e+01,8.870533825774350178e-02
3.971999999999999886e+01,1.324168171722817089e-01
3.975999999999999801e+01,7.611735924193827052e-02
3.979999999999999716e+01,1.189300732478439232e-01
3.984000000000000341e+01,1.054853626198906796e-01
3.988000000000000256e+01,1.295407461355672363e-01
3.992000000000000171e+01,1.080538542611637343e-01
3.996000000000000085e+01,1.285317046722579681e-01
4.000000000000000000e+01,9.810971181785181627e-02
4.003999999999999915e+01,8.822217625432325627e-02
4.007999999999999829e+01,9.351152785742816720e-02
4.011999999999999744e+01,2.289903853385763521e-02
4.015999999999999659e+01,1.299764695242533186e-01
4.020000000000000284e+01,1.165056276433984184e-01
4.024000000000000199e+01,7.892281785531385374e-02
4.028000000000000114e+01,1.020562716490440308e-01
4.032000000000000028e+01,8.054040126976896863e-02
4.035999999999999943e+01,1.358135160891542903e-01
4.039999999999999858e+01,8.750401512944787352e-02
4.043999999999999773e+01,6.776535250844854807e-02
4.047999999999999687e+01,8.909853267880160632e-02
4.052000000000000313e+01,9.167733305675278277e-02
4.056000000000000227e+01,1.085401188583692278e-01
4.060000000000000142e+01,1.146848879248296565e-01
4.064000000000000057e+01,6.546520606273567577e-02
4.067999999999999972e+01,1.278587478148190681e-01
4.071999999999999886e+01,1.000636227110613397e-01
4.075999999999999801e+01,9.458885283468340677e-02
4.079999999999999716e+01,1.310788724690861995e-01
4.084000000000000341e+01,1.363135280978491071e-01
4.088000000000000256e+01,1.040423208678842304e-01
4.092000000000000171e+01,7.980461819908073184e-02
4.096000000000000085e+01,9.128121293443836048e-02
4.100000000000000000e+01,1.313286774920254807e-01
4.103999999999999915e+01,1.061894975919994016e-01
4.107999999999999829e+01,1.453383411656253843e-01
4.111999999999999744e+01,1.335874044407953376e-01
4.115999999999999659e+01,1.307629144989088110e-01
4.120000000000000284e+01,1.359719448599444602e-01
4.124000000000000199e+01,2.117195087918355700e-01
4.128000000000000114e+01,1.428097848918969126e-01
4.132000000000000028e+01,1.551537438065929697e-01
4.135999999999999943e+01,1.558867999849256059e-01
4.139999999999999858e+01,1.414372407603403381e-01
4.143999999999999773e+01,1.100192109239711280e-01
4.147999999999999687e+01,1.571760867109949500e-01
4.152000000000000313e+01,2.141523582492140809e-01
4.156000000000000227e+01,1.889763687164746631e-01
4.160000000000000142e+01,2.379106479093753002e-01
4.164000000000000057e+01,3.136299754479842661e-01
4.167999999999999972e+01,3.652374160369917244e-01
4.171999999999999886e+01,3.909471144675319421e-01
4.175999999999999801e+01,4.979105204497598081e-01
4.179999999999999716e+01,5.200428926674338648e-01
4.184000000000000341e+01,5.653886095595537231e-01
4.188000000000000256e+01,4.500043552329889285e-01
4.192000000000000171e+01,4.230172472841589593e-01
4.196000000000000085e+01,3.826334128736219586e-01
4.200000000000000000e+01,3.538548586578448285e-01
4.203999999999999915e+01,2.429240703569851278e-01
4.207999999999999829e+01,2.623580876848409793e-01
4.211999999999999744e+01,2.210701649175264571e-01
4.215999999999999659e+01,2.226400368498191729e-01
4.220000000000000284e+01,2.188495543729424286e-01
4.224000000000000199e+01,2.347007241433632929e-01
4.228000000000000114e+01,2.255471119676836222e-01
4.232000000000000028e+01,1.628150007717042158e-01
4.235999999999999943e+01,1.849083457751349857e-01
4.239999999999999858e+01,1.444939089674679433e-01
4.243999999999999773e+01,1.496160687877021167e-01
4.247999999999999687e+01,1.949172551115937735e-01
4.252000000000000313e+01,2.098561006092560521e-01
4.256000000000000227e+01,1.471073849007571432e-01
4.260000000000000142e+01,1.147154864250961581e-01
4.264000000000000057e+01,1.278601958214513334e-01
4.267999999999999972e+01,9.456985626766946373e-02
4.271999999999999886e+01,1.050302716258609687e-01
4.275999999999999801e+01,6.101928397196119264e-02
4.279999999999999716e+01,1.071913496275913313e-01
4.284000000000000341e+01,1.105000902437541649e-01
4.288000000000000256e+01,1.245212317999381813e-01
4.292000000000000171e+01,8.853562298354539228e-02
4.296000000000000085e+01,1.320179317258414198e-01
4.300000000000000000e+01,1.478167128143170472e-01
4.303999999999999915e+01,1.778996187534840623e-01
4.307999999999999829e+01,1.151152043308330541e-01
4.311999999999999744e+01,1.059037833256743499e-01
4.315999999999999659e+01,9.311791934078708644e-02
4.320000000000000284e+01,6.425661242117246263e-02
4.324000000000000199e+01,1.300430271923627423e-01
4.328000000000000114e+01,1.270712085246497591e-01
4.332000000000000028e+01,8.927245036294544078e-02
4.335999999999999943e+01,1.541577791981149637e-01
4.339999999999999858e+01,1.020667299832511976e-01
4.343999999999999773e+01,6.158104192077503564e-02
4.347999999999999687e+01,9.609865700746451911e-02
4.352000000000000313e+01,1.109691322346326309e-01
4.356000000000000227e+01,8.029753671461405118e-02
4.360000000000000142e+01,7.730402846147507723e-02
4.364000000000000057e+01,1.207401130297716257e-01
4.367999999999999972e+01,1.168482761396615055e-01
4.371999999999999886e+01,1.093820277533451429e-01
4.375999999999999801e+01,1.331655905445778276e-01
4.379999999999999716e+01,1.078353811661840606e-01
4.384000000000000341e+01,1.262559896668075665e-01
4.388000000000000256e+01,1.652112713453162962e-01
4.392000000000000171e+01,7.736798819120195569e-02
4.396000000000000085e+01,1.573926229719499748e-01
4.400000000000000000e+01,1.552651338599423947e-01
4.403999999999999915e+01,1.102743871731573511e-01
4.407999999999999829e+01,1.527879795717047295e-01
4.411999999999999744e+01,1.310080294008542368e-01
4.415999999999999659e+01,1.779809195072493688e-01
4.420000000000000284e+01,1.044057616246933107e-01
4.424000000000000199e+01,9.154708995742862065e-02
4.428000000000000114e+01,1.456554078561896615e-01
4.432000000000000028e+01,1.917247043468670031e-01
4.435999999999999943e+01,2.217186231186838163e-01
4.439999999999999858e+01,2.633179570146402249e-01
4.443999999999999773e+01,2.522318398067606715e-01
4.447999999999999687e+01,3.313288703589767348e-01
4.452000000000000313e+01,3.782778150684243945e-01
4.456000000000000227e+01,3.412888099109496753e-01
4.460000000000000142e+01,3.632304537504845166e-01
4.464000000000000057e+01,3.798118803590528891e-01
4.467999999999999972e+01,2.892392168972130473e-01
4.471999999999999886e+01,2.236659174827630714e-01
4.475999999999999801e+01,2.089869175010150015e-01
4.479999999999999716e+01,2.085921413181700823e-01
4.484000000000000341e+01,1.126513575351860835e-01
4.488000000000000256e+01,1.158230312889722835e-01
4.492000000000000171e+01,1.511375101650190012e-01
4.496000000000000085e+01,1.873422909025944105e-01
4.500000000000000000e+01,1.413950039679893189e-01
4.503999999999999915e+01,1.472349609366913337e-01
4.507999999999999829e+01,1.244985784615248586e-01
4.511999999999999744e+01,1.160464377758452931e-01
4.515999999999999659e+01,8.973310689007636676e-02
4.520000000000000284e+01,1.312797460221061530e-01
4.524000000000000199e+01,8.710261605951608033e-02
4.528000000000000114e+01,6.792488162783791306e-02
4.532000000000000028e+01,8.803340463740608191e-02
4.535999999999999943e+01,1.018888221659772775e-01
4.539999999999999858e+01,5.502248400286424701e-02
4.543999999999999773e+01,7.423027189279932103e-02
4.547999999999999687e+01,1.086152505404729823e-01
4.552000000000000313e+01,1.072804846505756027e-01
4.556000000000000227e+01,9.701383833726279216e-02
4.560000000000000142e+01,9.388803096855774522e-02
4.564000000000000057e+01,9.254549242021663236e-02
4.567999999999999972e+01,6.530543434688514115e-02
4.571999999999999886e+01,5.681429543960783007e-02
4.575999999999999801e+01,5.903571938760794613e-02
4.579999999999999716e+01,7.107677971086387436e-02
4.584000000000000341e+01,1.107960532350873023e-01
4.588000000000000256e+01,1.076521726303912990e-01
4.592000000000000171e+01,1.429016544704418135e-01
4.596000000000000085e+01,1.424314165099741236e-01
4.600000000000000000e+01,1.089202471843450232e-01
4.603999999999999915e+01,8.076408408268716255e-02
4.607999999999999829e+01,1.088598669979569944e-01
4.611999999999999744e+01,4.498142919080126700e-02
4.615999999999999659e+01,5.789230266164074878e-02
4.620000000000000284e+01,3.865518474027800772e-02
4.624000000000000199e+01,1.069225273406895216e-01
4.628000000000000114e+01,8.321565821396779972e-02
4.632000000000000028e+01,3.450423427226818884e-02
4.635999999999999943e+01,4.472355827578988058e-02
4.639999999999999858e+01,1.353039219656229919e-01
4.643999999999999773e+01,9.730000504099262093e-02
4.647999999999999687e+01,1.048329118753866529e-01
4.652000000000000313e+01,9.004006132545094854e-02
4.656000000000000227e+01,9.578203462454119854e-02
4.660000000000000142e+01,2.740838876397086801e-02
4.664000000000000057e+01,1.197593816786482468e-01
4.667999999999999972e+01,7.995439255642280973e-02
4.671999999999999886e+01,1.106882450938038442e-01
4.675999999999999801e+01,6.462770128028252903e-02
4.679999999999999716e+01,8.017671633556922028e-02
4.684000000000000341e+01,6.268484725097700494e-02
4.688000000000000256e+01,1.014449691597722747e-01
4.692000000000000171e+01,8.216220701869048071e-02
4.696000000000000085e+01,6.376985918028710287e-02
4.700000000000000000e+01,8.466386323369606837e-02
4.703999999999999915e+01,8.144628167978529287e-02
4.707999999999999829e+01,1.094786979557327289e-01
4.711999999999999744e+01,1.026843883758734866e-01
4.715999999999999659e+01,1.324976534965849051e-01
4.720000000000000284e+01,7.748018844384760295e-02
4.724000000000000199e+01,8.407230699697100518e-02
4.728000000000000114e+01,1.022700025894901638e-01
4.732000000000000028e+01,4.903090568769594149e-02
4.735999999999999943e+01,1.020478355804529669e-01
4.739999999999999858e+01,5.951890179774329409e-02
4.743999999999999773e+01,1.152096407476308343e-01
4.747999999999999687e+01,7.446159179085280744e-02
4.752000000000000313e+01,7.746456760480827097e-02
4.756000000000000227e+01,8.760849255569808092e-02
4.760000000000000142e+01,9.953579651927890737e-02
4.764000000000000057e+01,1.025313369982405742e-01
4.767999999999999972e+01,1.305264079374941488e-01
4.771999999999999886e+01,7.369077793799805320e-02
4.775999999999999801e+01,8.560819060981701700e-02
4.779999999999999716e+01,9.395142116537552601e-02
4.784000000000000341e+01,1.228295475322959823e-01
4.788000000000000256e+01,5.884062339615870468e-02
4.792000000000000171e+01,5.556839236702879742e-02
4.796000000000000085e+01,9.336842465915148881e-02
4.800000000000000000e+01,1.195579275195290669e-01
4.803999999999999915e+01,7.698946455094049512e-02
4.807999999999999829e+01,1.049599197019396718e-01
4.811999999999999744e+01,1.150693510657516128e-01
4.815999999999999659e+01,7.160061173742161833e-02
4.820000000000000284e+01,9.152736744439331218e-02
4.824000000000000199e+01,1.382395425528680777e-01
4.828000000000000114e+01,1.197654802406921681e-01
4.832000000000000028e+01,8.700212030082170311e-02
4.835999999999999943e+01,1.345999102395889491e-01
4.839999999999999858e+01,1.589791197598631467e-01
4.843999999999999773e+01,1.753195395008223800e-01
4.847999999999999687e+01,1.773706706093788610e-01
4.852000000000000313e+01,1.910274484708439358e-01
4.856000000000000227e+01,1.502131493995527700e-01
4.860000000000000142e+01,2.638730981939252929e-01
4.864000000000000057e+01,1.926943801419006286e-01
4.867999999999999972e+01,2.447374089436302469e-01
4.871999999999999886e+01,1.869477886195411165e-01
4.875999999999999801e+01,1.934466235431200054e-01
4.879999999999999716e+01,1.954784038421688019e-01
4.884000000000000341e+01,2.055441339693324931e-01
4.888000000000000256e+01,1.772115222735235751e-01
4.892000000000000171e+01,1.372684328688981714e-01
4.896000000000000085e+01,1.464340215657005673e-01
4.900000000000000000e+01,1.225588475590660004e-01
4.903999999999999915e+01,1.951175787802600925e-01
4.907999999999999829e+01,1.712376120477084873e-01
4.911999999999999744e+01,1.223532479177889543e-01
4.915999999999999659e+01,1.288280742353231922e-01
4.920000000000000284e+01,8.172478833011347088e-02
4.924000000000000199e+01,1.096251294045811620e-01
4.928000000000000114e+01,1.589533759768830823e-01
4.932000000000000028e+01,1.618469469036656616e-01
4.935999999999999943e+01,1.611664234182845767e-01
4.939999999999999858e+01,1.435178768368961244e-01
4.943999999999999773e+01,1.231881690698346937e-01
4.947999999999999687e+01,1.037490172813003847e-01
4.952000000000000313e+01,1.164529292296718338e-01
4.956000000000000227e+01,8.450803648315079186e-02
4.960000000000000142e+01,1.454253655326023797e-01
4.964000000000000057e+01,8.490202370418663269e-02
4.967999999999999972e+01,1.458146274924111419e-01
4.971999999999999886e+01,1.335047162580136892e-01
4.975999999999999801e+01,6.940258174208305264e-02
4.979999999999999716e+01,7.316067585859607758e-02
4.984000000000000341e+01,9.120327712571024703e-02
4.988000000000000256e+01,1.154940292326482043e-01
4.992000000000000171e+01,1.192450725629004005e-01
4.996000000000000085e+01,5.959583038075690065e-02
5.000000000000000000e+01,1.258471954500603174e-01
5.003999999999999915e+01,1.126255623854142129e-01
5.007999999999999829e+01,6.993494225092973526e-02
5.011999999999999744e+01,9.153285382409552529e-02
5.015999999999999659e+01,1.095567159615576380e-01
5.020000000000000284e+01,1.123984574371611894e-01
5.024000000000000199e+01,7.952071973630764345e-02
5.028000000000000114e+01,6.985680121155218858e-02
5.032000000000000028e+01,6.644105826367381618e-02
5.035999999999999943e+01,9.338256882029516426e-02
5.039999999999999858e+01,8.639046665343988463e-02
5.043999999999999773e+01,8.921826172530852861e-02
5.047999999999999687e+01,8.490031043667958799e-02
5.052000000000000313e+01,7.790125868059835645e-02
5.056000000000000227e+01,8.875846946930991688e-02
5.060000000000000142e+01,8.264772462670393061e-02
5.064000000000000057e+01,6.046195513044835823e-02
5.067999999999999972e+01,1.034576775542091764e-01
5.071999999999999886e+01,1.035905179566332796e-01
5.075999999999999801e+01,9.300591282494329037e-02
5.079999999999999716e+01,7.706143678102850281e-02
5.084000000000000341e+01,7.361566665060080561e-02
5.088000000000000256e+01,8.713324832670529818e-02
5.092000000000000171e+01,7.564653380247657322e-02
5.096000000000000085e+01,5.879995736131547052e-02
5.100000000000000000e+01,1.035631759153767678e-01
5.103999999999999915e+01,1.188574613713520578e-01
5.107999999999999829e+01,6.628688063775339812e-02
5.111999999999999744e+01,1.172937519015347513e-01
5.115999999999999659e+01,6.561154104845551283e-02
5.120000000000000284e+01,4.875127456938094933e-02
5.124000000000000199e+01,1.015371751380669402e-01
5.128000000000000114e+01,1.123531538977828453e-01
5.132000000000000028e+01,1.035224313184620187e-01
5.135999999999999943e+01,1.080833726161717773e-01
5.139999999999999858e+01,1.278218374974236238e-01
5.143999999999999773e+01,7.880252769966425430e-02
5.147999999999999687e+01,6.906982166189308547e-02
5.152000000000000313e+01,6.290657247915526495e-02
5.156000000000000227e+01,7.281378460409608511e-02
5.160000000000000142e+01,5.771673875869507558e-02
5.164000000000000057e+01,6.940530346475173862e-02
5.167999999999999972e+01,1.069865522422447784e-01
5.171999999999999886e+01,1.436726254746646392e-01
5.175999999999999801e+01,9.106358125523505986e-02
5.179999999999999716e+01,9.917144827864379786e-02
5.184000000000000341e+01,1.278144359957145426e-01
5.188000000000000256e+01,1.127016781784709459e-01
5.192000000000000171e+01,1.181240455525350147e-01
5.196000000000000085e+01,1.047926762975751325e-01
5.200000000000000000e+01,9.235200469699174353e-02
5.203999999999999915e+01,6.205052969387458983e-02
5.207999999999999829e+01,5.853468997926813272e-02
5.211999999999999744e+01,7.466105797124034105e-02
5.215999999999999659e+01,1.202518519359024873e-01
5.220000000000000284e+01,1.113717736107012607e-01
5.224000000000000199e+01,8.016625948285943659e-02
5.228000000000000114e+01,7.217467697226552514e-02
5.232000000000000028e+01,1.070414603623200678e-01
5.235999999999999943e+01,9.815252520393663582e-02
5.239999999999999858e+01,6.872402069589329809e-02
5.243999999999999773e+01,8.572560375034511682e-02
5.247999999999999687e+01,5.897147500282764326e-02
5.252000000000000313e+01,7.954036704429622018e-02
5.256000000000000227e+01,1.001070594948183651e-01
5.260000000000000142e+01,1.349584142647285157e-01
5.264000000000000057e+01,7.247834249729563638e-02
5.267999999999999972e+01,1.037535944140507149e-01
5.271999999999999886e+01,6.180649996990849465e-02
5.275999999999999801e+01,7.521879836728978530e-02
5.279999999999999716e+01,9.130769685319671536e-02
5.284000000000000341e+01,1.198954136937401410e-01
5.288000000000000256e+01,8.240422299943356288e-02
5.292000000000000171e+01,9.312900431118753541e-02
5.296000000000000085e+01,6.813445936644765832e-02
5.300000000000000000e+01,1.136791091465249315e-01
5.303999999999999915e+01,8.510850182744449099e-02
5.307999999999999829e+01,6.814379762709439625e-02
5.311999999999999744e+01,8.510821701540841056e-02
5.315999999999999659e+01,6.010282028943346455e-02
5.320000000000000284e+01,9.224269859972371310e-02
5.324000000000000199e+01,1.225945580913698485e-01
5.328000000000000114e+01,1.127624656728848790e-01
5.332000000000000028e+01,1.234655771545125624e-01
5.335999999999999943e+01,9.487766995249903579e-02
5.339999999999999858e+01,9.754011589437740215e-02
5.343999999999999773e+01,1.377034183308820103e-01
5.347999999999999687e+01,1.394686375590587502e-01
5.352000000000000313e+01,8.229841506430896070e-02
5.356000000000000227e+01,7.423712928563193370e-02
5.360000000000000142e+01,7.331713221616206755e-02
5.364000000000000057e+01,1.018616443258331949e-01
5.367999999999999972e+01,6.700608006364767999e-02
5.371999999999999886e+01,8.840289134358238210e-02
5.375999999999999801e+01,1.017612119376609947e-01
5.379999999999999716e+01,7.672146731399576147e-02
5.384000000000000341e+01,8.114624311358685504e-02
5.388000000000000256e+01,5.520931675267994748e-02
5.392000000000000171e+01,9.177527827991913134e-02
5.396000000000000085e+01,1.265532614673286205e-01
5.400000000000000000e+01,1.041816873753758921e-01
5.403999999999999915e+01,8.627264054315032793e-02
5.407999999999999829e+01,1.139008447463186746e-01
5.411999999999999744e+01,8.437949841659439509e-02
5.415999999999999659e+01,6.646411592382134303e-02
5.420000000000000284e+01,1.315889978243774128e-01
5.424000000000000199e+01,6.723710890211094526e-02
5.428000000000000114e+01,1.064628496342412134e-01
5.432000000000000028e+01,8.228854997568259277e-02
5.435999999999999943e+01,1.143666618404122481e-01
5.439999999999999858e+01,1.080467422197428640e-01
5.443999999999999773e+01,1.124398734489416712e-01
5.447999999999999687e+01,1.302248439633647836e-01
5.452000000000000313e+01,1.274703643157469035e-01
5.456000000000000227e+01,1.211420826029550590e-01
5.460000000000000142e+01,1.148117159891900302e-01
5.464000000000000057e+01,1.174085540117193460e-01
5.467999999999999972e+01,8.339323374829950286e-02
5.471999999999999886e+01,1.118808463494859323e-01
5.475999999999999801e+01,9.125530295854747398e-02
5.479999999999999716e+01,1.027731201491503543e-01
5.484000000000000341e+01,9.643029135482925063e-02
5.488000000000000256e+01,4.454602823023019048e-02
5.492000000000000171e+01,9.534650201235141120e-02
5.496000000000000085e+01,1.229287641829513444e-01
5.500000000000000000e+01,8.711102419285335352e-02
5.503999999999999915e+01,1.218325936175455454e-01
5.507999999999999829e+01,7.976023444651919592e-02
5.511999999999999744e+01,1.484089819859282511e-01
5.515999999999999659e+01,1.179405872061544125e-01
5.520000000000000284e+01,1.169367893096184691e-01
5.524000000000000199e+01,1.078945839336773876e-01
5.528000000000000114e+01,7.920589985217678375e-02
5.532000000000000028e+01,1.326646144022046725e-01
5.535999999999999943e+01,1.414748503366747012e-01
5.539999999999999858e+01,9.760025134480998510e-02
5.543999999999999773e+01,1.269437704424987434e-01
5.547999999999999687e+01,1.089600314845652895e-01
5.552000000000000313e+01,1.025823328235652282e-01
5.556000000000000227e+01,1.158470352679216581e-01
5.560000000000000142e+01,1.041077046242356030e-01
5.564000000000000057e+01,1.030814922951074908e-01
5.567999999999999972e+01,7.347953646020569107e-02
5.571999999999999886e+01,9.209371004897386193e-02
5.575999999999999801e+01,7.230992861232506119e-02
5.579999999999999716e+01,7.038270431628175505e-02
5.584000000000000341e+01,1.139928300038446085e-01
5.588000000000000256e+01,7.098685605486002026e-02
5.592000000000000171e+01,8.512631006210474860e-02
5.596000000000000085e+01,9.569204071298102743e-02
5.600000000000000000e+01,9.286183423902230616e-02
5.603999999999999915e+01,8.288619399096286422e-02
5.607999999999999829e+01,8.273076806567022934e-02
5.611999999999999744e+01,9.596727362734466804e-02
5.615999999999999659e+01,1.100947107209872544e-01
5.620000000000000284e+01,9.564643354355523153e-02
5.624000000000000199e+01,8.655373603995908383e-02
5.628000000000000114e+01,7.210147571288934298e-02
5.632000000000000028e+01,1.094370934572124060e-01
5.635999999999999943e+01,8.783742914504187593e-02
5.639999999999999858e+01,1.064175739269323101e-01
5.643999999999999773e+01,5.981194004806416470e-02
5.647999999999999687e+01,1.185699169665467984e-01
5.652000000000000313e+01,9.696233133156118011e-02
5.656000000000000227e+01,8.071034336099584816e-02
5.660000000000000142e+01,9.303010225362957908e-02
5.664000000000000057e+01,7.945295779877413478e-02
5.667999999999999972e+01,7.212434648365269318e-02
5.671999999999999886e+01,7.104427055708778527e-02
5.675999999999999801e+01,1.199662399812801428e-01
5.679999999999999716e+01,1.162034531879426458e-01
5.684000000000000341e+01,1.267255670892306618e-01
5.688000000000000256e+01,1.033144325763683674e-01
5.692000000000000171e+01,9.418820325577745289e-02
5.696000000000000085e+01,8.506002171477040907e-02
5.700000000000000000e+01,1.080753244405697477e-01
5.703999999999999915e+01,9.269274410328823266e-02
5.707999999999999829e+01,1.058819376150811203e-01
5.711999999999999744e+01,9.585304095179475459e-02
5.715999999999999659e+01,7.153534365069638690e-02
5.720000000000000284e+01,1.132924335566073831e-01
5.724000000000000199e+01,7.736278757439774001e-02
5.728000000000000114e+01,1.298311515179546016e-01
5.732000000000000028e+01,8.586128076530340214e-02
5.735999999999999943e+01,8.475005926499873388e-02
5.739999999999999858e+01,8.274398155248660625e-02
5.743999999999999773e+01,9.502283826694483959e-02
5.747999999999999687e+01,1.046209858091526196e-01
5.752000000000000313e+01,1.026091391394887420e-01
5.756000000000000227e+01,8.273679940486473872e-02
5.760000000000000142e+01,8.429283292325884247e-02
5.764000000000000057e+01,1.456731772838045780e-01
5.767999999999999972e+01,1.115082359163941522e-01
5.771999999999999886e+01,1.112726767522925625e-01
5.775999999999999801e+01,1.154998539884568853e-01
5.779999999999999716e+01,1.545493466544210492e-01
5.784000000000000341e+01,1.284131393684310729e-01
5.788000000000000256e+01,6.387909624464339908e-02
5.792000000000000171e+01,9.399360012970134348e-02
5.796000000000000085e+01,9.642541742074048350e-02
5.800000000000000000e+01,9.796241223191680392e-02
5.803999999999999915e+01,1.057480166428089868e-01
5.807999999999999829e+01,9.031558485037401163e-02
5.811999999999999744e+01,1.016691279187223046e-01
5.815999999999999659e+01,9.516221165445569452e-02
5.820000000000000284e+01,1.252634907659077590e-01
5.824000000000000199e+01,1.464336023308351054e-01
5.828000000000000114e+01,1.202766132577501451e-01
5.832000000000000028e+01,1.280490401203195627e-01
5.835999999999999943e+01,7.688629736754501454e-02
5.839999999999999858e+01,1.185862711518029383e-01
5.843999999999999773e+01,1.272460129548516894e-01
5.847999999999999687e+01,7.429180570249258042e-02
5.852000000000000313e+01,9.634174715674626022e-02
5.856000000000000227e+01,8.803024956279306701e-02
5.860000000000000142e+01,8.418153559438888711e-02
5.864000000000000057e+01,9.551075224648951367e-02
5.867999999999999972e+01,1.479128349044066537e-01
5.871999999999999886e+01,1.020909041172322479e-01
5.875999999999999801e+01,1.089499173084977068e-01
5.879999999999999716e+01,8.991214858871651727e-02
5.884000000000000341e+01,9.944625266622178494e-02
5.888000000000000256e+01,1.205865859417924041e-01
5.892000000000000171e+01,1.077937854931851763e-01
5.896000000000000085e+01,9.232035907877854386e-02
5.900000000000000000e+01,1.232773890338390299e-01
5.903999999999999915e+01,9.976393124776890275e-02
5.907999999999999829e+01,7.714156915774568468e-02
5.911999999999999744e+01,9.202038289521473347e-02
5.915999999999999659e+01,1.229700852167318198e-01
5.920000000000000284e+01,9.319880769049927738e-02
5.924000000000000199e+01,1.214660735016496323e-01
5.928000000000000114e+01,1.068709385395848616e-01
5.932000000000000028e+01,1.270982044625935115e-01
5.935999999999999943e+01,1.160711475850108032e-01
5.939999999999999858e+01,1.336159949882367581e-01
5.943999999999999773e+01,1.109772368000728759e-01
5.947999999999999687e+01,8.922959679618600037e-02
5.952000000000000313e+01,8.623165180228800630e-02
5.956000000000000227e+01,1.162702637287123530e-01
5.960000000000000142e+01,1.016606354148172214e-01
5.964000000000000057e+01,1.084794950439130490e-01
5.967999999999999972e+01,9.475919460913444226e-02
5.971999999999999886e+01,1.087178877169037855e-01
5.975999999999999801e+01,1.574990064467996498e-01
5.979999999999999716e+01,1.169854597382692790e-01
5.984000000000000341e+01,1.220094878956442808e-01
5.988000000000000256e+01,9.845800867366069631e-02
5.992000000000000171e+01,1.168723938998508238e-01
5.996000000000000085e+01,9.599613149819433144e-02
