2.003999999999999915e+01,3.057270257995968812e-02
2.007999999999999829e+01,2.102331417373921527e-02
2.012000000000000099e+01,3.161416676574154566e-02
2.016000000000000014e+01,2.892779607135340450e-02
2.019999999999999929e+01,1.825248773136210062e-02
2.023999999999999844e+01,2.062886747247524161e-02
2.028000000000000114e+01,2.154227911318143049e-02
2.032000000000000028e+01,2.166782298339182608e-02
2.035999999999999943e+01,1.537966337864974525e-02
2.039999999999999858e+01,1.944279085948468627e-02
2.044000000000000128e+01,1.900499909968670492e-02
2.048000000000000043e+01,2.768081064260139584e-02
2.051999999999999957e+01,1.880376409757894204e-02
2.055999999999999872e+01,2.590384054516371715e-02
2.060000000000000142e+01,1.657622613483488230e-02
2.064000000000000057e+01,2.300070136834367687e-02
2.067999999999999972e+01,2.852479248108950177e-02
2.071999999999999886e+01,2.054662744485097683e-02
2.076000000000000156e+01,2.505756744191071222e-02
2.080000000000000071e+01,3.935721135519724273e-02
2.083999999999999986e+01,1.506337181847089944e-02
2.087999999999999901e+01,2.654959742076857393e-02
2.092000000000000171e+01,1.395699587610907573e-02
2.096000000000000085e+01,1.621635058020929818e-02
2.100000000000000000e+01,1.487492033007758487e-02
2.103999999999999915e+01,2.095934322637276956e-02
2.107999999999999829e+01,1.972992965778432028e-02
2.112000000000000099e+01,1.850026613328974168e-02
2.116000000000000014e+01,1.873306998709640958e-02
2.119999999999999929e+01,1.086442049326742480e-02
2.123999999999999844e+01,2.167329583838156423e-02
2.128000000000000114e+01,1.897991560171681524e-02
2.132000000000000028e+01,1.684886918621664523e-02
2.135999999999999943e+01,2.428149382434984307e-02
2.139999999999999858e+01,2.136233101943230128e-02
2.144000000000000128e+01,2.001815259131817237e-02
2.148000000000000043e+01,1.912379143152776600e-02
2.151999999999999957e+01,2.813065163212793637e-02
2.155999999999999872e+01,2.532300725804341804e-02
2.160000000000000142e+01,2.937863302309417710e-02
2.164000000000000057e+01,3.140870849073996995e-02
2.167999999999999972e+01,2.758766539491500774e-02
2.171999999999999886e+01,3.288022685775793957e-02
2.176000000000000156e+01,3.625975485963941342e-02
2.180000000000000071e+01,2.546192751703639859e-02
2.183999999999999986e+01,2.827837345062241339e-02
2.187999999999999901e+01,9.491360937391116886e-03
2.192000000000000171e+01,1.827069442890730949e-02
2.196000000000000085e+01,2.221156007465040216e-02
2.200000000000000000e+01,2.536455965151438938e-02
2.203999999999999915e+01,1.051463582040153277e-02
2.207999999999999829e+01,2.671907631797722574e-02
2.212000000000000099e+01,2.255774247571737043e-02
2.216000000000000014e+01,2.165914446301649143e-02
2.219999999999999929e+01,2.289811517139524882e-02
2.223999999999999844e+01,2.942512265855214831e-02
2.228000000000000114e+01,2.503776001948415653e-02
2.232000000000000028e+01,1.479927946518040660e-02
2.235999999999999943e+01,1.614977184556679393e-02
2.239999999999999858e+01,1.626233170262335673e-02
2.244000000000000128e+01,2.008769453243951925e-02
2.248000000000000043e+01,3.167646211190926903e-02
2.251999999999999957e+01,2.008653788420472139e-02
2.255999999999999872e+01,1.209690003590435138e-02
2.260000000000000142e+01,1.884670338256625582e-02
2.264000000000000057e+01,1.591982083152927718e-02
2.267999999999999972e+01,2.143144352211595952e-02
2.271999999999999886e+01,3.470647120544451819e-02
2.276000000000000156e+01,1.872690472011750984e-02
2.280000000000000071e+01,2.255003180280057071e-02
2.283999999999999986e+01,1.995945792244153971e-02
2.287999999999999901e+01,2.096917074560415706e-02
2.292000000000000171e+01,2.310380258501578202e-02
2.296000000000000085e+01,2.006241744682303596e-02
2.300000000000000000e+01,1.510800010362405021e-02
2.303999999999999915e+01,1.915467194117803640e-02
2.307999999999999829e+01,1.577499262468318175e-02
2.312000000000000099e+01,2.353422015305988227e-02
2.316000000000000014e+01,2.589239747660665447e-02
2.319999999999999929e+01,1.542342145247616036e-02
2.323999999999999844e+01,2.070653770563772589e-02
2.328000000000000114e+01,9.786999245168423109e-03
2.332000000000000028e+01,1.473206985792007741e-02
2.335999999999999943e+01,9.550388442639307085e-03
2.339999999999999858e+01,2.113344990080424923e-02
2.344000000000000128e+01,2.180214240767023789e-02
2.348000000000000043e+01,1.538203431033247949e-02
2.351999999999999957e+01,1.076194612636045302e-02
2.355999999999999872e+01,1.784334880741863041e-02
2.360000000000000142e+01,2.019880201870509484e-02
2.364000000000000057e+01,1.749075565603630880e-02
2.367999999999999972e+01,2.659671699484108739e-02
2.371999999999999886e+01,2.940149497682627289e-02
2.376000000000000156e+01,8.915065692692812627e-03
2.380000000000000071e+01,5.868479976548364972e-03
2.383999999999999986e+01,1.879902057521528475e-02
2.387999999999999901e+01,1.147630533159208627e-02
2.392000000000000171e+01,1.101686257695574066e-02
2.396000000000000085e+01,1.201989003664854540e-02
2.400000000000000000e+01,1.606062175977693643e-02
2.403999999999999915e+01,2.516435865504547051e-02
2.407999999999999829e+01,1.784040821717795822e-02
2.412000000000000099e+01,1.254151173019533473e-02
2.416000000000000014e+01,1.928165686066139056e-02
2.419999999999999929e+01,1.623260095860173599e-02
2.423999999999999844e+01,2.105946830374134937e-02
2.428000000000000114e+01,1.114639924180967946e-02
2.432000000000000028e+01,1.158462123589400726e-02
2.435999999999999943e+01,1.629823172193998679e-02
2.439999999999999858e+01,8.072173360849635090e-03
2.444000000000000128e+01,2.088649409276504415e-02
2.448000000000000043e+01,1.547286045830035400e-02
2.451999999999999957e+01,2.457363653370402828e-02
2.455999999999999872e+01,1.882195977073975943e-02
2.460000000000000142e+01,2.645952564967887430e-02
2.464000000000000057e+01,1.721933790308989229e-02
2.467999999999999972e+01,1.630514070895925510e-02
2.471999999999999886e+01,2.630481855048864490e-02
2.476000000000000156e+01,1.987680974763164632e-02
2.480000000000000071e+01,1.671153944830281943e-02
2.483999999999999986e+01,1.433363996522947839e-02
2.487999999999999901e+01,1.476841220711607415e-02
2.492000000000000171e+01,1.790333949957781043e-02
2.496000000000000085e+01,8.998732231304150050e-03
2.500000000000000000e+01,1.224568414618705178e-02
2.503999999999999915e+01,1.211688862862007367e-02
2.507999999999999829e+01,1.041261315750853511e-02
2.512000000000000099e+01,4.770006760479366358e-03
2.516000000000000014e+01,9.703725700073443511e-03
2.519999999999999929e+01,1.407461524176195113e-02
2.523999999999999844e+01,1.439465726417740558e-02
2.528000000000000114e+01,1.302670282072246159e-02
2.532000000000000028e+01,7.607900939023794391e-03
2.535999999999999943e+01,1.569085918390686687e-02
2.539999999999999858e+01,1.319700060740871921e-02
2.544000000000000128e+01,6.427261284412065165e-03
2.548000000000000043e+01,1.158404820094926894e-02
2.551999999999999957e+01,1.921595734598295635e-02
2.555999999999999872e+01,1.492084925290109235e-02
2.560000000000000142e+01,1.951431621861245136e-02
2.564000000000000057e+01,1.409355018052796220e-02
2.567999999999999972e+01,9.347639094607809035e-03
2.571999999999999886e+01,9.439701452645648388e-03
2.576000000000000156e+01,1.785775545703838924e-02
2.580000000000000071e+01,1.344865874720814654e-02
2.583999999999999986e+01,1.714052033496340360e-02
2.587999999999999901e+01,6.317480566033611793e-03
2.592000000000000171e+01,1.957277269143747542e-02
2.596000000000000085e+01,1.831316354118566955e-02
2.600000000000000000e+01,1.311522435633916302e-02
2.603999999999999915e+01,9.154724062786461294e-03
2.607999999999999829e+01,1.543299989299640358e-02
2.612000000000000099e+01,1.045935934169280219e-02
2.616000000000000014e+01,1.538694485048298054e-02
2.619999999999999929e+01,1.041281463758223641e-02
2.623999999999999844e+01,2.017812930648003877e-02
2.628000000000000114e+01,1.790391075162704737e-02
2.632000000000000028e+01,1.427924692898369270e-02
2.635999999999999943e+01,1.177950560685214580e-02
2.639999999999999858e+01,1.423025513232756278e-02
2.644000000000000128e+01,6.329222319602386022e-03
2.648000000000000043e+01,1.260505105726676504e-02
2.651999999999999957e+01,1.663030101051873183e-02
2.655999999999999872e+01,1.424185376859420614e-02
2.660000000000000142e+01,1.961681544933577270e-02
2.664000000000000057e+01,1.306476098585819534e-02
2.667999999999999972e+01,9.212863355601818779e-03
2.671999999999999886e+01,1.368695834405280788e-02
2.676000000000000156e+01,1.557292464648122460e-02
2.680000000000000071e+01,1.408314529910577491e-02
2.683999999999999986e+01,1.225557164472570494e-02
2.687999999999999901e+01,1.897902420091059084e-02
2.692000000000000171e+01,3.761473270429967035e-03
2.696000000000000085e+01,2.286127634351269380e-02
2.700000000000000000e+01,1.304403968719474588e-02
2.703999999999999915e+01,8.739878101215884168e-03
2.707999999999999829e+01,1.298674292837535653e-02
2.712000000000000099e+01,9.807260693469056420e-03
2.716000000000000014e+01,1.405363780373610795e-02
2.719999999999999929e+01,1.031108435846953865e-02
2.723999999999999844e+01,9.493721743428711057e-03
2.728000000000000114e+01,1.126399985442989686e-02
2.732000000000000028e+01,1.472178501279237765e-02
2.735999999999999943e+01,1.221594064586973595e-02
2.739999999999999858e+01,8.697202249751437644e-03
2.744000000000000128e+01,1.901777623167680981e-02
2.748000000000000043e+01,6.384696860047387942e-03
2.751999999999999957e+01,1.929266829703153024e-02
2.755999999999999872e+01,4.408767720814794205e-03
2.760000000000000142e+01,1.765380247692781984e-02
2.764000000000000057e+01,1.525877051000767808e-02
2.767999999999999972e+01,1.488879609977921716e-02
2.771999999999999886e+01,2.149461474233205563e-02
2.776000000000000156e+01,1.482321779628383018e-02
2.780000000000000071e+01,5.226143072896430146e-03
2.783999999999999986e+01,1.813216817995553024e-02
2.787999999999999901e+01,1.269772564948324495e-02
2.792000000000000171e+01,4.450122178115417312e-03
2.796000000000000085e+01,1.555515064155403929e-02
2.800000000000000000e+01,1.338296375947961407e-02
2.803999999999999915e+01,5.134631325970255740e-03
2.807999999999999829e+01,2.557781828546396713e-02
2.812000000000000099e+01,6.752428879220759989e-03
2.816000000000000014e+01,1.166782349143522489e-02
2.819999999999999929e+01,7.244087982189952382e-03
2.823999999999999844e+01,1.834741638477346490e-02
2.828000000000000114e+01,1.122279426987183443e-02
2.832000000000000028e+01,1.456198397735402467e-02
2.835999999999999943e+01,8.787077155234218617e-03
2.839999999999999858e+01,1.572631653451608477e-02
2.844000000000000128e+01,1.175119202683445711e-02
2.848000000000000043e+01,5.638007434859343414e-03
2.851999999999999957e+01,1.538943718301412009e-02
2.855999999999999872e+01,7.700533701582469061e-03
2.860000000000000142e+01,6.987424164255174458e-03
2.864000000000000057e+01,3.798704559994908487e-03
2.867999999999999972e+01,3.197627099790580942e-03
2.871999999999999886e+01,1.114757771382665456e-02
2.876000000000000156e+01,1.583430137817778971e-02
2.880000000000000071e+01,1.489494712047066509e-02
2.883999999999999986e+01,9.229648700415401044e-03
2.887999999999999901e+01,7.952260065380406875e-03
2.892000000000000171e+01,8.362380098294062980e-03
2.896000000000000085e+01,1.796221792415077755e-03
2.900000000000000000e+01,7.944210295658015591e-03
2.903999999999999915e+01,8.691154549729743911e-03
2.907999999999999829e+01,1.438859236589229602e-02
2.912000000000000099e+01,7.483916260349467858e-03
2.916000000000000014e+01,1.014291910880337627e-02
2.919999999999999929e+01,1.043882917242931405e-02
2.923999999999999844e+01,1.084701421952934987e-02
2.928000000000000114e+01,1.654324317599195973e-02
2.932000000000000028e+01,1.346292671990315798e-02
2.935999999999999943e+01,1.252018623702228807e-02
2.939999999999999858e+01,1.506522234665712973e-02
2.944000000000000128e+01,7.033445726893775354e-03
2.948000000000000043e+01,1.509131784941150460e-02
2.951999999999999957e+01,1.245986060866100149e-02
2.955999999999999872e+01,1.331618012248494617e-02
2.960000000000000142e+01,1.090927353743231971e-02
2.964000000000000057e+01,1.502809509026807773e-02
2.967999999999999972e+01,1.138302202927950549e-02
2.971999999999999886e+01,1.628897805539835861e-02
2.976000000000000156e+01,1.838177500429711772e-02
2.980000000000000071e+01,1.394836132480926569e-02
2.983999999999999986e+01,1.952869414766549364e-02
2.987999999999999901e+01,1.858281642316454360e-02
2.992000000000000171e+01,2.360008354565757555e-02
2.996000000000000085e+01,2.636677536800106914e-02
3.000000000000000000e+01,2.283229019433023407e-02
3.003999999999999915e+01,1.974763095912549643e-02
3.007999999999999829e+01,1.880054842639293511e-02
3.012000000000000099e+01,2.696707896041183189e-02
3.016000000000000014e+01,3.220793410745801527e-02
3.019999999999999929e+01,2.225879198400845804e-02
3.023999999999999844e+01,2.097319618925666887e-02
3.028000000000000114e+01,3.712745052587275441e-02
3.032000000000000028e+01,3.370355583245947251e-02
3.035999999999999943e+01,4.873216178553823469e-02
3.039999999999999858e+01,4.485771907901358463e-02
3.044000000000000128e+01,5.729795951692126521e-02
3.048000000000000043e+01,4.869733379316570215e-02
3.051999999999999957e+01,5.179820598399526715e-02
3.055999999999999872e+01,5.973705652105954639e-02
3.060000000000000142e+01,6.711308312970061529e-02
3.064000000000000057e+01,6.785038324586399605e-02
3.067999999999999972e+01,6.341167420375697084e-02
3.071999999999999886e+01,6.842412898081998152e-02
3.076000000000000156e+01,5.689638647579965680e-02
3.080000000000000071e+01,5.166933985379471017e-02
3.083999999999999986e+01,6.478227764955860057e-02
3.087999999999999901e+01,5.741693326330327835e-02
3.092000000000000171e+01,4.982631541744048792e-02
3.096000000000000085e+01,4.246049101208266424e-02
3.100000000000000000e+01,4.240801312640841980e-02
3.103999999999999915e+01,3.132865727232569258e-02
3.107999999999999829e+01,2.587489729546454606e-02
3.112000000000000099e+01,3.234766927070760467e-02
3.116000000000000014e+01,3.116906484606908265e-02
3.119999999999999929e+01,2.976518724542584829e-02
3.123999999999999844e+01,2.656080250070066984e-02
3.128000000000000114e+01,2.166842736730765009e-02
3.132000000000000028e+01,1.497554517086198932e-02
3.135999999999999943e+01,1.818389430141896523e-02
3.139999999999999858e+01,1.025284911330015709e-02
3.144000000000000128e+01,2.279960653375959212e-02
3.148000000000000043e+01,1.588073281401491260e-02
3.151999999999999957e+01,1.582513928104704870e-02
3.155999999999999872e+01,1.261883834932149388e-02
3.160000000000000142e+01,1.233773266392217474e-02
3.164000000000000057e+01,1.228142110777734851e-02
3.167999999999999972e+01,1.267493715120071238e-02
3.171999999999999886e+01,4.404426927853136685e-03
3.176000000000000156e+01,1.728681992659787323e-02
3.180000000000000071e+01,1.441663370093706695e-02
3.183999999999999986e+01,1.694701069247799008e-02
3.187999999999999901e+01,4.174875400240463802e-03
3.192000000000000171e+01,6.479740887584822806e-03
3.196000000000000085e+01,1.407265299877551341e-02
3.200000000000000000e+01,3.212584930547829863e-03
3.203999999999999915e+01,1.676840510009865171e-02
3.207999999999999829e+01,2.042251550361701834e-02
3.211999999999999744e+01,1.573044112881630263e-03
3.215999999999999659e+01,8.827211804960231889e-03
3.220000000000000284e+01,4.041852269461271296e-03
3.224000000000000199e+01,1.095799239067885879e-02
3.228000000000000114e+01,8.084939663336808413e-03
3.232000000000000028e+01,5.099131609300685229e-03
3.235999999999999943e+01,1.415237347822342895e-02
3.239999999999999858e+01,1.251628890093515155e-02
3.243999999999999773e+01,9.417248539703727481e-03
3.247999999999999687e+01,1.318148933760150687e-02
3.252000000000000313e+01,8.506738108820905211e-03
3.256000000000000227e+01,1.170791855429373016e-02
3.260000000000000142e+01,9.508058356402135022e-03
3.264000000000000057e+01,5.170142287744174808e-03
3.267999999999999972e+01,7.808024295688308254e-03
3.271999999999999886e+01,1.348361939926919113e-02
3.275999999999999801e+01,6.332070838182058889e-03
3.279999999999999716e+01,1.797057553968102114e-02
3.284000000000000341e+01,1.734452023203852597e-02
3.288000000000000256e+01,1.750584388410292291e-02
3.292000000000000171e+01,9.115659199736374924e-03
3.296000000000000085e+01,9.389023599066089951e-03
3.300000000000000000e+01,5.724065053870792778e-03
3.303999999999999915e+01,1.297298997138968644e-02
3.307999999999999829e+01,7.169738118559177385e-03
3.311999999999999744e+01,1.284295338396941946e-02
3.315999999999999659e+01,1.255254499872362171e-02
3.320000000000000284e+01,1.316203261220167710e-02
3.324000000000000199e+01,1.737181742250448052e-02
3.328000000000000114e+01,3.691206924355922795e-03
3.332000000000000028e+01,1.330131881146146867e-02
3.335999999999999943e+01,8.509053633027277228e-03
3.339999999999999858e+01,4.504167940990920493e-03
3.343999999999999773e+01,1.490118427869785087e-02
3.347999999999999687e+01,3.807270633745155931e-03
3.352000000000000313e+01,7.902876103861139825e-03
3.356000000000000227e+01,2.209290021887390810e-03
3.360000000000000142e+01,4.616670097347668790e-03
3.364000000000000057e+01,1.219958178337157174e-02
3.367999999999999972e+01,9.318201749453242436e-03
3.371999999999999886e+01,5.874000947257027039e-03
3.375999999999999801e+01,1.548150192012845081e-02
3.379999999999999716e+01,5.848407532446267543e-03
3.384000000000000341e+01,9.829598575358231699e-03
3.388000000000000256e+01,1.122266814386133592e-02
3.392000000000000171e+01,9.014965844375446083e-03
3.396000000000000085e+01,6.694509879297476374e-03
3.400000000000000000e+01,8.874485600018695852e-03
3.403999999999999915e+01,9.704023872283539659e-03
3.407999999999999829e+01,6.820273723718661349e-03
3.411999999999999744e+01,2.023502633229581991e-03
3.415999999999999659e+01,1.502129960799595100e-03
3.420000000000000284e+01,6.718873040635924519e-03
3.424000000000000199e+01,1.587346447486240320e-02
3.428000000000000114e+01,2.186926157929743996e-03
3.432000000000000028e+01,1.257872824341430169e-02
3.435999999999999943e+01,1.104352200401367487e-02
3.439999999999999858e+01,8.382912110587614762e-03
3.443999999999999773e+01,1.236055193171146406e-02
3.447999999999999687e+01,1.026205272426438005e-02
3.452000000000000313e+01,1.783975461468109355e-02
3.456000000000000227e+01,7.076995633518636843e-03
3.460000000000000142e+01,3.852620248160152760e-03
3.464000000000000057e+01,9.066762218315834940e-03
3.467999999999999972e+01,1.371808439254604273e-02
3.471999999999999886e+01,9.367833193908317244e-03
3.475999999999999801e+01,1.030563145514478210e-02
3.479999999999999716e+01,1.214332733569239986e-02
3.484000000000000341e+01,6.104617113910466679e-03
3.488000000000000256e+01,7.941840916233584152e-03
3.492000000000000171e+01,1.765499878317649055e-02
3.496000000000000085e+01,1.791651666074187133e-02
3.500000000000000000e+01,7.601227440450121151e-03
3.503999999999999915e+01,1.630102718136564044e-02
3.507999999999999829e+01,1.341136947135852277e-02
3.511999999999999744e+01,1.727247887955028760e-02
3.515999999999999659e+01,2.192096955678594916e-02
3.520000000000000284e+01,2.420637352639620418e-02
3.524000000000000199e+01,1.692762107533226507e-02
3.528000000000000114e+01,1.943758720681052626e-02
3.532000000000000028e+01,2.712308665046912065e-02
3.535999999999999943e+01,2.805734766748329417e-02
3.539999999999999858e+01,2.381560430695978461e-02
3.543999999999999773e+01,2.947509640593662383e-02
3.547999999999999687e+01,2.759573319551712756e-02
3.552000000000000313e+01,2.965421963595763627e-02
3.556000000000000227e+01,2.946213644830428940e-02
3.560000000000000142e+01,3.444558685643408363e-02
3.564000000000000057e+01,3.087753168313140187e-02
3.567999999999999972e+01,3.788581250181373428e-02
3.571999999999999886e+01,3.409225352210442511e-02
3.575999999999999801e+01,2.849819197647238123e-02
3.579999999999999716e+01,2.931734809309057346e-02
3.584000000000000341e+01,3.643720519757428361e-02
3.588000000000000256e+01,2.949223793364159560e-02
3.592000000000000171e+01,2.074676826584495593e-02
3.596000000000000085e+01,2.449041902692642922e-02
3.600000000000000000e+01,3.239695335484297362e-02
3.603999999999999915e+01,3.298966637036759852e-02
3.607999999999999829e+01,3.346962786757841368e-02
3.611999999999999744e+01,3.248663730819692508e-02
3.615999999999999659e+01,4.703071868255154914e-02
3.620000000000000284e+01,3.974632268454673240e-02
3.624000000000000199e+01,3.662481049646509890e-02
3.628000000000000114e+01,3.057762912015733747e-02
3.632000000000000028e+01,3.803221897145474262e-02
3.635999999999999943e+01,3.941067169837134815e-02
3.639999999999999858e+01,3.403788705202534515e-02
3.643999999999999773e+01,4.059163974623653665e-02
3.647999999999999687e+01,3.679362027143274344e-02
3.652000000000000313e+01,4.064650305203720837e-02
3.656000000000000227e+01,3.932338263002978229e-02
3.660000000000000142e+01,3.586221034820973042e-02
3.664000000000000057e+01,3.948935686884482571e-02
3.667999999999999972e+01,3.591519944022236732e-02
3.671999999999999886e+01,3.166570756702388051e-02
3.675999999999999801e+01,3.810506949460633341e-02
3.679999999999999716e+01,4.004352875206154683e-02
3.684000000000000341e+01,4.108162025668593564e-02
3.688000000000000256e+01,4.583252935987078280e-02
3.692000000000000171e+01,4.754525320816497397e-02
3.696000000000000085e+01,5.544616246383640701e-02
3.700000000000000000e+01,4.433151302992777154e-02
3.703999999999999915e+01,5.459480559584851955e-02
3.707999999999999829e+01,4.584253955321863222e-02
3.711999999999999744e+01,4.912932825479490034e-02
3.715999999999999659e+01,6.175477058350578585e-02
3.720000000000000284e+01,6.324082446817007319e-02
3.724000000000000199e+01,6.506419486904405081e-02
3.728000000000000114e+01,8.016430404007668375e-02
3.732000000000000028e+01,7.433607069235646791e-02
3.735999999999999943e+01,8.167205948092480516e-02
3.739999999999999858e+01,8.146919490480165893e-02
3.743999999999999773e+01,9.983135486116904989e-02
3.747999999999999687e+01,9.917795661413254804e-02
3.752000000000000313e+01,1.106761302313485629e-01
3.756000000000000227e+01,1.193611526717077848e-01
3.760000000000000142e+01,1.326591271590871479e-01
3.764000000000000057e+01,1.453942848486275974e-01
3.767999999999999972e+01,1.639800785301112895e-01
3.771999999999999886e+01,2.015809638872860798e-01
3.775999999999999801e+01,2.067768022516277837e-01
3.779999999999999716e+01,2.431395375818281024e-01
3.784000000000000341e+01,2.906411946663036150e-01
3.788000000000000256e+01,3.402804363536146015e-01
3.792000000000000171e+01,3.957703142759569359e-01
3.796000000000000085e+01,4.665622325253972469e-01
3.800000000000000000e+01,5.461302216782834007e-01
3.803999999999999915e+01,6.741926821346283516e-01
3.807999999999999829e+01,7.841397187144849568e-01
3.811999999999999744e+01,8.734959637305808045e-01
3.815999999999999659e+01,9.598140247477413567e-01
3.820000000000000284e+01,1.000000000000000000e+00
3.824000000000000199e+01,9.934913059533740931e-01
3.828000000000000114e+01,9.440009942400602316e-01
3.832000000000000028e+01,8.684065721354865541e-01
3.835999999999999943e+01,7.697459909824526658e-01
3.839999999999999858e+01,6.727729280993475225e-01
3.843999999999999773e+01,5.666857788963407527e-01
3.847999999999999687e+01,4.808514060026975456e-01
3.852000000000000313e+01,4.055933719775819402e-01
3.856000000000000227e+01,3.628524362668972270e-01
3.860000000000000142e+01,3.085220466705819731e-01
3.864000000000000057e+01,2.648805127792378533e-01
3.867999999999999972e+01,2.305776340545863112e-01
3.871999999999999886e+01,2.196779998995705696e-01
3.875999999999999801e+01,2.022521641914574175e-01
3.879999999999999716e+01,1.660358050467238555e-01
3.884000000000000341e+01,1.477093715630981852e-01
3.888000000000000256e+01,1.398467605977327943e-01
3.892000000000000171e+01,1.228700637986418764e-01
3.896000000000000085e+01,1.101687702793720941e-01
3.900000000000000000e+01,1.086063996893032041e-01
3.903999999999999915e+01,1.004053111148402178e-01
3.907999999999999829e+01,9.197895734576531923e-02
3.911999999999999744e+01,9.007834131655877152e-02
3.915999999999999659e+01,8.007629013080969083e-02
3.920000000000000284e+01,7.254937502957894968e-02
3.924000000000000199e+01,7.323594851325210264e-02
3.928000000000000114e+01,7.684772502207068423e-02
3.932000000000000028e+01,6.774488122552883851e-02
3.935999999999999943e+01,6.055459010106696571e-02
3.939999999999999858e+01,6.056513728947289510e-02
3.943999999999999773e+01,5.269928303473783021e-02
3.947999999999999687e+01,5.642241905497760723e-02
3.952000000000000313e+01,6.014532375606580772e-02
3.956000000000000227e+01,4.226478791782684041e-02
3.960000000000000142e+01,5.116299898752961484e-02
3.964000000000000057e+01,4.689652321639169175e-02
3.967999999999999972e+01,5.016843618642263108e-02
3.971999999999999886e+01,5.130230045678627060e-02
3.975999999999999801e+01,4.354711317403156534e-02
3.979999999999999716e+01,4.389289832848690398e-02
3.984000000000000341e+01,4.446348591770694220e-02
3.988000000000000256e+01,4.750921028019500919e-02
3.992000000000000171e+01,4.751675242639371438e-02
3.996000000000000085e+01,4.021047723063950891e-02
4.000000000000000000e+01,4.539332655574646047e-02
4.003999999999999915e+01,3.707393930046130187e-02
4.007999999999999829e+01,4.383156108975354293e-02
4.011999999999999744e+01,3.776204666907959778e-02
4.015999999999999659e+01,4.215635606313583583e-02
4.020000000000000284e+01,5.172620371216381935e-02
4.024000000000000199e+01,3.687969363812856199e-02
4.028000000000000114e+01,3.564747551755150651e-02
4.032000000000000028e+01,4.577921509295882624e-02
4.035999999999999943e+01,3.442003165423205419e-02
4.039999999999999858e+01,3.239950512432930585e-02
4.043999999999999773e+01,3.679220095638009030e-02
4.047999999999999687e+01,3.105816210068315653e-02
4.052000000000000313e+01,3.477529699025369569e-02
4.056000000000000227e+01,2.836569727310587000e-02
4.060000000000000142e+01,2.713163621607659129e-02
4.064000000000000057e+01,3.399854844706574203e-02
4.067999999999999972e+01,3.377667749516510137e-02
4.071999999999999886e+01,4.008054590372024661e-02
4.075999999999999801e+01,3.670774676772813744e-02
4.079999999999999716e+01,3.389730118355144955e-02
4.084000000000000341e+01,3.750007836647517578e-02
4.088000000000000256e+01,3.165122155619452121e-02
4.092000000000000171e+01,2.568961812987681503e-02
4.096000000000000085e+01,3.367985749046523841e-02
4.100000000000000000e+01,3.818184886906307585e-02
4.103999999999999915e+01,3.615764100390046754e-02
4.107999999999999829e+01,3.019511837817894298e-02
4.111999999999999744e+01,2.817045107537313395e-02
4.115999999999999659e+01,3.109628957009262853e-02
4.120000000000000284e+01,3.120898057479153803e-02
4.124000000000000199e+01,3.402184316005653353e-02
4.128000000000000114e+01,2.850823930625831504e-02
4.132000000000000028e+01,3.435859416131151894e-02
4.135999999999999943e+01,3.064479879443718705e-02
4.139999999999999858e+01,2.231758870172481646e-02
4.143999999999999773e+01,3.199282361847423373e-02
4.147999999999999687e+01,2.985357413685156211e-02
4.152000000000000313e+01,2.996442965980004522e-02
4.156000000000000227e+01,3.333804066192921911e-02
4.160000000000000142e+01,2.838518554911264452e-02
4.164000000000000057e+01,3.344608889047185479e-02
4.167999999999999972e+01,3.085562648731126484e-02
4.171999999999999886e+01,2.860248513800495856e-02
4.175999999999999801e+01,2.488639744467679646e-02
4.179999999999999716e+01,3.219671880167796624e-02
4.184000000000000341e+01,3.421852558910606218e-02
4.188000000000000256e+01,3.376473571996150419e-02
4.192000000000000171e+01,1.890857745541950352e-02
4.196000000000000085e+01,2.531784945911362897e-02
4.200000000000000000e+01,3.240199294496309140e-02
4.203999999999999915e+01,3.048457047213174939e-02
4.207999999999999829e+01,2.991711985188172385e-02
4.211999999999999744e+01,2.136075378807509792e-02
4.215999999999999659e+01,3.024424988849747434e-02
4.220000000000000284e+01,2.911352975820287112e-02
4.224000000000000199e+01,2.066899459529233235e-02
4.228000000000000114e+01,2.471358626257993615e-02
4.232000000000000028e+01,2.020667911438726524e-02
4.235999999999999943e+01,2.458836400064035380e-02
4.239999999999999858e+01,3.009498763379336861e-02
4.243999999999999773e+01,3.121323102428899196e-02
4.247999999999999687e+01,2.524269305505563027e-02
4.252000000000000313e+01,3.198631558890736165e-02
4.256000000000000227e+01,2.837817211197604314e-02
4.260000000000000142e+01,2.780775173780835122e-02
4.264000000000000057e+01,2.419915190234980806e-02
4.267999999999999972e+01,3.049179485954939262e-02
4.271999999999999886e+01,3.678420973877206263e-02
4.275999999999999801e+01,2.496120548172458750e-02
4.279999999999999716e+01,3.260336490533066733e-02
4.284000000000000341e+01,3.619469463612447896e-02
4.288000000000000256e+01,2.695889095246529338e-02
4.292000000000000171e+01,2.976214788764145261e-02
4.296000000000000085e+01,3.346531070712426698e-02
4.300000000000000000e+01,3.075479298296553143e-02
4.303999999999999915e+01,2.905669793904220102e-02
4.307999999999999829e+01,4.187303140380042865e-02
4.311999999999999744e+01,3.016049334765316323e-02
4.315999999999999659e+01,3.487516803450710356e-02
4.320000000000000284e+01,3.801438112096833938e-02
4.324000000000000199e+01,4.137840008594243640e-02
4.328000000000000114e+01,4.294192410175433350e-02
4.332000000000000028e+01,4.596793794100214464e-02
4.335999999999999943e+01,4.055497073305090738e-02
4.339999999999999858e+01,5.021901593239575662e-02
4.343999999999999773e+01,5.459454818275491506e-02
4.347999999999999687e+01,4.333002975389559780e-02
4.352000000000000313e+01,5.006795844126162021e-02
4.356000000000000227e+01,5.714321004615734861e-02
4.360000000000000142e+01,6.466830132399696562e-02
4.364000000000000057e+01,6.442951212763682600e-02
4.367999999999999972e+01,6.790354741733337085e-02
4.371999999999999886e+01,6.203846830526753980e-02
4.375999999999999801e+01,8.722777548084881261e-02
4.379999999999999716e+01,9.036357955206165971e-02
4.384000000000000341e+01,9.214895610091565492e-02
4.388000000000000256e+01,9.933490806189111677e-02
4.392000000000000171e+01,9.920704669186732050e-02
4.396000000000000085e+01,1.227074686287018546e-01
4.400000000000000000e+01,1.261796885319310391e-01
4.403999999999999915e+01,1.432662041969987587e-01
4.407999999999999829e+01,1.545016239868185759e-01
4.411999999999999744e+01,1.653992669719770714e-01
4.415999999999999659e+01,1.749464827588942117e-01
4.420000000000000284e+01,1.792051863666045963e-01
4.424000000000000199e+01,2.027040216836982767e-01
4.428000000000000114e+01,2.107878405616660511e-01
4.432000000000000028e+01,2.084073784965974896e-01
4.435999999999999943e+01,2.163782277854014169e-01
4.439999999999999858e+01,2.160226137952874215e-01
4.443999999999999773e+01,2.151041898948308773e-01
4.447999999999999687e+01,2.016961843452069192e-01
4.452000000000000313e+01,1.979643900221176589e-01
4.456000000000000227e+01,1.919820351867384256e-01
4.460000000000000142e+01,1.796985181432043943e-01
4.464000000000000057e+01,1.587509879191423279e-01
4.467999999999999972e+01,1.491674198071651081e-01
4.471999999999999886e+01,1.374458080598560672e-01
4.475999999999999801e+01,1.298870887520978123e-01
4.479999999999999716e+01,1.180525083069479259e-01
4.484000000000000341e+01,1.045299512076079962e-01
4.488000000000000256e+01,9.337001923097201783e-02
4.492000000000000171e+01,9.031106487742564248e-02
4.496000000000000085e+01,8.646426771042864390e-02
4.500000000000000000e+01,7.204067357424545626e-02
4.503999999999999915e+01,6.414282317410387180e-02
4.507999999999999829e+01,6.142051597172543120e-02
4.511999999999999744e+01,5.734778254345794524e-02
4.515999999999999659e+01,5.248720650431330792e-02
4.520000000000000284e+01,4.807647175869984857e-02
4.524000000000000199e+01,4.411557834713229070e-02
4.528000000000000114e+01,4.735552920409100836e-02
4.532000000000000028e+01,3.608059839450097894e-02
4.535999999999999943e+01,4.427083385850432568e-02
4.539999999999999858e+01,4.132168918397113172e-02
4.543999999999999773e+01,4.107272034404583355e-02
4.547999999999999687e+01,3.429755675748998728e-02
4.552000000000000313e+01,3.011005237167192067e-02
4.556000000000000227e+01,3.998691214684806094e-02
4.560000000000000142e+01,2.837285421531371768e-02
4.564000000000000057e+01,2.857282622781434286e-02
4.567999999999999972e+01,2.607217200283838340e-02
4.571999999999999886e+01,1.862055728291196408e-02
4.575999999999999801e+01,2.197032219446973592e-02
4.579999999999999716e+01,2.396966156888811345e-02
4.584000000000000341e+01,1.662988868882235224e-02
4.588000000000000256e+01,3.235581748582254391e-02
4.592000000000000171e+01,1.815207528277257287e-02
4.596000000000000085e+01,1.733759735646703964e-02
4.600000000000000000e+01,2.552423186634298138e-02
4.603999999999999915e+01,2.538440475840305494e-02
4.607999999999999829e+01,2.591945326511625042e-02
4.611999999999999744e+01,2.094095810752865522e-02
4.615999999999999659e+01,2.305079139489089879e-02
4.620000000000000284e+01,2.020966467347893800e-02
4.624000000000000199e+01,1.961864773737078196e-02
4.628000000000000114e+01,2.251542449097487797e-02
4.632000000000000028e+01,1.809839034446077480e-02
4.635999999999999943e+01,1.716914996868822846e-02
4.639999999999999858e+01,1.117643307181542117e-02
4.643999999999999773e+01,1.249707833329415443e-02
4.647999999999999687e+01,1.865571806585166609e-02
4.652000000000000313e+01,1.209974478569182665e-02
4.656000000000000227e+01,1.038176605764014500e-02
4.660000000000000142e+01,1.282668163281474108e-02
4.664000000000000057e+01,7.395203057491469417e-03
4.667999999999999972e+01,8.376953164412375558e-03
4.671999999999999886e+01,1.498431498979618630e-02
4.675999999999999801e+01,1.630316722891300696e-02
4.679999999999999716e+01,6.145090602808979570e-03
4.684000000000000341e+01,3.862960114700461720e-03
4.688000000000000256e+01,8.444125371007285899e-03
4.692000000000000171e+01,1.448778409707156094e-02
4.696000000000000085e+01,6.916696536884574080e-03
4.700000000000000000e+01,1.464765846011411091e-02
4.703999999999999915e+01,1.472726006779146238e-02
4.707999999999999829e+01,1.334392071989984677e-02
4.711999999999999744e+01,1.139777417614942084e-02
4.715999999999999659e+01,0.000000000000000000e+00
4.720000000000000284e+01,1.133037869320276982e-02
4.724000000000000199e+01,9.158528098656524771e-03
4.728000000000000114e+01,1.182467278548270800e-02
4.732000000000000028e+01,3.688989423175526028e-03
4.735999999999999943e+01,8.830055040727291180e-03
4.739999999999999858e+01,7.219894426554446416e-03
4.743999999999999773e+01,1.044772925581280432e-02
4.747999999999999687e+01,8.499571942967893909e-03
4.752000000000000313e+01,7.113774988405297504e-03
4.756000000000000227e+01,1.067849031371737728e-02
4.760000000000000142e+01,6.929396035381128575e-03
4.764000000000000057e+01,9.593531411641483680e-03
4.767999999999999972e+01,1.101975986985200516e-02
4.771999999999999886e+01,1.053298116113081211e-02
4.775999999999999801e+01,8.920812330288570985e-03
4.779999999999999716e+01,7.308420566834279535e-03
4.784000000000000341e+01,1.267184223504717010e-02
4.788000000000000256e+01,9.258737289521919850e-03
4.792000000000000171e+01,1.484674672488293240e-02
4.796000000000000085e+01,5.694843737865485506e-03
4.800000000000000000e+01,1.071982409813739337e-02
4.803999999999999915e+01,8.205961870623619536e-03
4.807999999999999829e+01,9.292411870882264294e-03
4.811999999999999744e+01,1.296652370533315883e-02
4.815999999999999659e+01,4.263574332867008272e-03
4.820000000000000284e+01,1.861338467303628227e-03
4.824000000000000199e+01,6.322399723654828149e-03
4.828000000000000114e+01,2.344484916113047379e-03
4.832000000000000028e+01,7.480201609503770929e-03
4.835999999999999943e+01,5.414626183924583537e-03
4.839999999999999858e+01,1.167506533601130568e-02
4.843999999999999773e+01,6.683610713778032758e-03
4.847999999999999687e+01,1.508142292071430746e-02
4.852000000000000313e+01,9.639456991673112790e-03
4.856000000000000227e+01,3.859718755100568707e-03
4.860000000000000142e+01,9.331429886152452224e-03
4.864000000000000057e+01,4.113831019954944899e-03
4.867999999999999972e+01,8.797481023618089480e-03
4.871999999999999886e+01,8.980240430529768531e-03
4.875999999999999801e+01,8.487677587785225769e-03
4.879999999999999716e+01,7.657342680597398893e-03
4.884000000000000341e+01,1.402785564774272631e-02
4.888000000000000256e+01,8.808925141531302738e-03
4.892000000000000171e+01,6.852757569202364181e-03
4.896000000000000085e+01,1.288505499704663791e-02
4.900000000000000000e+01,6.090225209184490368e-03
4.903999999999999915e+01,9.084127940915738553e-03
4.907999999999999829e+01,1.129019203220878523e-02
4.911999999999999744e+01,7.195098493506357773e-03
4.915999999999999659e+01,1.210112059164538539e-02
4.920000000000000284e+01,2.604781668059432884e-03
4.924000000000000199e+01,8.973078071209415751e-03
4.928000000000000114e+01,1.241571845340548944e-02
4.932000000000000028e+01,1.765840488093834565e-02
4.935999999999999943e+01,1.378701604907809145e-02
4.939999999999999858e+01,1.160315662868452100e-02
4.943999999999999773e+01,1.290709409866322606e-02
4.947999999999999687e+01,1.263557632905455350e-02
4.952000000000000313e+01,1.022601978587608929e-02
4.956000000000000227e+01,7.703725377832210640e-03
4.960000000000000142e+01,1.080704560530843482e-02
4.964000000000000057e+01,4.121190567597799760e-03
4.967999999999999972e+01,1.239983758308917626e-02
4.971999999999999886e+01,6.388640818445919661e-03
4.975999999999999801e+01,9.491077013263760423e-03
4.979999999999999716e+01,1.304335916080145812e-02
4.984000000000000341e+01,2.755864509346256808e-03
4.988000000000000256e+01,1.575910901622421326e-02
4.992000000000000171e+01,1.435999323064151081e-02
4.996000000000000085e+01,8.459988104262544661e-03
5.000000000000000000e+01,9.423281882444208349e-03
5.003999999999999915e+01,6.673303405154953211e-03
5.007999999999999829e+01,1.596239279882944243e-02
5.011999999999999744e+01,8.261237659929854954e-03
5.015999999999999659e+01,1.192405018362677378e-02
5.020000000000000284e+01,9.398222886124104128e-03
5.024000000000000199e+01,9.009992710494208260e-03
5.028000000000000114e+01,1.233459370584375110e-02
5.032000000000000028e+01,1.250850630382232230e-02
5.035999999999999943e+01,1.436994928562002234e-02
5.039999999999999858e+01,1.735633911725435047e-02
5.043999999999999773e+01,1.077858792379434057e-02
5.047999999999999687e+01,1.466467099785289177e-02
5.052000000000000313e+01,1.641271631120873667e-02
5.056000000000000227e+01,2.221114322384511522e-02
5.060000000000000142e+01,1.281959352847442460e-02
5.064000000000000057e+01,1.828003014375877838e-02
5.067999999999999972e+01,1.912706143261172498e-02
5.071999999999999886e+01,1.288531970776052998e-02
5.075999999999999801e+01,1.609476209993584289e-02
5.079999999999999716e+01,2.099173532159177499e-02
5.084000000000000341e+01,1.970006937028306523e-02
5.088000000000000256e+01,2.212123519767402943e-02
5.092000000000000171e+01,2.375456424830228383e-02
5.096000000000000085e+01,2.786304129476590424e-02
5.100000000000000000e+01,2.353254503233501160e-02
5.103999999999999915e+01,2.719051587684084836e-02
5.107999999999999829e+01,1.813387832730327734e-02
5.111999999999999744e+01,2.662962873218321577e-02
5.115999999999999659e+01,2.713647284982510788e-02
5.120000000000000284e+01,2.910581477229559275e-02
5.124000000000000199e+01,2.972473666762365588e-02
5.128000000000000114e+01,2.291733597175490272e-02
5.132000000000000028e+01,2.668628710911249285e-02
5.135999999999999943e+01,1.661546298703516639e-02
5.139999999999999858e+01,1.779609106861013840e-02
5.143999999999999773e+01,2.280206821098982456e-02
5.147999999999999687e+01,1.723125494756209616e-02
5.152000000000000313e+01,2.358699429872727557e-02
5.156000000000000227e+01,1.745315917182408555e-02
5.160000000000000142e+01,1.401950611879010204e-02
5.164000000000000057e+01,1.261093489074336521e-02
5.167999999999999972e+01,1.390254581759517438e-02
5.171999999999999886e+01,1.744427208026247053e-02
5.175999999999999801e+01,1.941054541267938152e-02
5.179999999999999716e+01,1.158764566770236273e-02
5.184000000000000341e+01,1.602884900613402164e-02
5.188000000000000256e+01,1.124346292269817055e-02
5.192000000000000171e+01,1.422151140772326405e-02
5.196000000000000085e+01,1.303622272238452034e-02
5.200000000000000000e+01,7.800113622096097737e-03
5.203999999999999915e+01,1.145260636080691098e-02
5.207999999999999829e+01,9.704078186804247080e-03
5.211999999999999744e+01,1.031818246866335852e-02
5.215999999999999659e+01,1.385750282139605431e-02
5.220000000000000284e+01,1.323348624685304238e-02
5.224000000000000199e+01,1.384693510072156769e-02
5.228000000000000114e+01,1.299744826593005054e-02
5.232000000000000028e+01,1.383549380017711286e-02
5.235999999999999943e+01,9.722585564911191344e-03
5.239999999999999858e+01,1.078522794159556507e-02
5.243999999999999773e+01,1.859865497933688508e-02
5.247999999999999687e+01,1.459760876024411395e-02
5.252000000000000313e+01,8.796076950881116796e-03
5.256000000000000227e+01,9.520296494320254141e-03
5.260000000000000142e+01,8.106480383820221375e-03
5.264000000000000057e+01,8.717747111174590016e-03
5.267999999999999972e+01,1.979285033435512070e-02
5.271999999999999886e+01,8.251875913444544491e-03
5.275999999999999801e+01,6.612154494892406864e-03
5.279999999999999716e+01,1.498620283411280195e-02
5.284000000000000341e+01,1.368359586422041030e-02
5.288000000000000256e+01,7.992619226003071578e-03
5.292000000000000171e+01,1.647853091838117831e-02
5.296000000000000085e+01,1.371255341459855573e-02
5.300000000000000000e+01,1.432185969209558499e-02
5.303999999999999915e+01,9.305112599432703926e-03
5.307999999999999829e+01,8.676299803173711730e-03
5.311999999999999744e+01,1.401065535242527159e-02
5.315999999999999659e+01,1.450657465735698953e-02
5.320000000000000284e+01,1.095167476277947999e-02
5.324000000000000199e+01,1.178470932666460767e-02
5.328000000000000114e+01,1.621806138523106122e-02
5.332000000000000028e+01,1.446277678274323145e-02
5.335999999999999943e+01,1.270727487918433228e-02
5.339999999999999858e+01,8.588704702181109221e-03
5.343999999999999773e+01,1.437138821628593244e-02
5.347999999999999687e+01,1.149006750360775410e-02
5.352000000000000313e+01,1.142144752440299275e-02
5.356000000000000227e+01,1.349042802978979265e-02
5.360000000000000142e+01,8.695671868328492746e-03
5.364000000000000057e+01,9.751567864169224942e-03
5.367999999999999972e+01,6.644128431777520868e-03
5.371999999999999886e+01,1.130012539100752611e-02
5.375999999999999801e+01,1.269292072222992680e-02
5.379999999999999716e+01,1.442304934274106151e-02
5.384000000000000341e+01,1.288997641627397106e-02
5.388000000000000256e+01,1.259437057932041165e-02
5.392000000000000171e+01,1.837445061307054969e-02
5.396000000000000085e+01,1.087734159533737012e-02
5.400000000000000000e+01,1.249386983162176050e-02
5.403999999999999915e+01,1.095971343840075607e-02
5.407999999999999829e+01,1.325090877995357616e-02
5.411999999999999744e+01,1.137876913893553533e-02
5.415999999999999659e+01,1.603238247130695654e-02
5.420000000000000284e+01,1.764782805113113487e-02
5.424000000000000199e+01,1.329967133153764185e-02
5.428000000000000114e+01,1.592733456647538529e-02
5.432000000000000028e+01,1.236636215322594115e-02
5.435999999999999943e+01,4.979605145191990170e-03
5.439999999999999858e+01,1.458265583928244208e-02
5.443999999999999773e+01,1.282130212135608113e-02
5.447999999999999687e+01,1.173483252616637149e-02
5.452000000000000313e+01,7.947745647245211403e-03
5.456000000000000227e+01,1.709986489612776162e-02
5.460000000000000142e+01,9.599294294779086092e-03
5.464000000000000057e+01,1.717574748535265552e-02
5.467999999999999972e+01,1.305024636229920425e-02
5.471999999999999886e+01,1.455036506064537501e-02
5.475999999999999801e+01,1.751298516962702598e-02
5.479999999999999716e+01,1.698737127418395790e-02
5.484000000000000341e+01,1.297352341483088561e-02
5.488000000000000256e+01,1.379767853464018180e-02
5.492000000000000171e+01,1.293386720995965897e-02
5.496000000000000085e+01,7.119104749220606793e-03
5.500000000000000000e+01,1.401851543214794986e-02
5.503999999999999915e+01,1.101623960447131560e-02
5.507999999999999829e+01,1.341455053302757945e-02
5.511999999999999744e+01,1.491251222396346339e-02
5.515999999999999659e+01,1.607270829229082154e-02
5.520000000000000284e+01,1.667010534872542804e-02
5.524000000000000199e+01,1.366675213149744043e-02
5.528000000000000114e+01,1.482630200918208692e-02
5.532000000000000028e+01,1.666073686041175117e-02
5.535999999999999943e+01,1.590707199361771074e-02
5.539999999999999858e+01,2.629234666704492046e-02
5.543999999999999773e+01,1.462413002587669743e-02
5.547999999999999687e+01,1.353226943146192303e-02
5.552000000000000313e+01,1.581569517075189987e-02
5.556000000000000227e+01,1.753632226278131062e-02
5.560000000000000142e+01,1.408096543718826386e-02
5.564000000000000057e+01,1.433844521154227329e-02
5.567999999999999972e+01,1.617094404326895399e-02
5.571999999999999886e+01,1.665302738549773870e-02
5.575999999999999801e+01,1.319681083605652588e-02
5.579999999999999716e+01,2.245476824057539983e-02
5.584000000000000341e+01,1.573513734021480745e-02
5.588000000000000256e+01,1.689146173416822966e-02
5.592000000000000171e+01,1.692240427099609215e-02
5.596000000000000085e+01,2.100373387658678939e-02
5.600000000000000000e+01,8.882441909557878268e-03
5.603999999999999915e+01,1.971434519542512170e-02
5.607999999999999829e+01,1.580634428339475206e-02
5.611999999999999744e+01,2.551265136863730548e-02
5.615999999999999659e+01,2.329197220949728864e-02
5.620000000000000284e+01,1.938332790233738764e-02
5.624000000000000199e+01,1.761228679425278290e-02
5.628000000000000114e+01,2.180441723233874501e-02
5.632000000000000028e+01,1.384452815830201911e-02
5.635999999999999943e+01,2.051159775872125890e-02
5.639999999999999858e+01,1.401399749395225956e-02
5.643999999999999773e+01,1.933043811218285515e-02
5.647999999999999687e+01,1.654546111672892256e-02
5.652000000000000313e+01,1.871100547643879397e-02
5.656000000000000227e+01,1.896355162296205557e-02
5.660000000000000142e+01,1.010202984324996486e-02
5.664000000000000057e+01,1.575495030669715746e-02
5.667999999999999972e+01,1.848222224440694214e-02
5.671999999999999886e+01,1.310807681152025006e-02
5.675999999999999801e+01,1.538485413447179817e-02
5.679999999999999716e+01,1.743638421081624215e-02
5.684000000000000341e+01,1.858756679167169329e-02
5.688000000000000256e+01,1.692561776426259115e-02
5.692000000000000171e+01,1.683868905018127624e-02
5.696000000000000085e+01,1.720161354094817616e-02
5.700000000000000000e+01,2.285261001775341916e-02
5.703999999999999915e+01,1.905198886928651664e-02
5.707999999999999829e+01,1.952678935379243211e-02
5.711999999999999744e+01,2.337687779259043849e-02
5.715999999999999659e+01,1.923806602135298693e-02
5.720000000000000284e+01,1.656175813214667489e-02
5.724000000000000199e+01,1.624808788468164525e-02
5.728000000000000114e+01,1.559665416188630097e-02
5.732000000000000028e+01,1.584514086816902340e-02
5.735999999999999943e+01,1.395559674175994580e-02
5.739999999999999858e+01,1.487875727874861040e-02
5.743999999999999773e+01,1.973978966864397069e-02
5.747999999999999687e+01,2.009994033450356044e-02
5.752000000000000313e+01,2.068491134261811124e-02
5.756000000000000227e+01,2.228231973779824793e-02
5.760000000000000142e+01,1.994143010498380594e-02
5.764000000000000057e+01,1.996317851905751728e-02
5.767999999999999972e+01,2.212253159073518383e-02
5.771999999999999886e+01,1.989351989636460594e-02
5.775999999999999801e+01,1.653912820854390453e-02
5.779999999999999716e+01,1.937294303625065536e-02
5.784000000000000341e+01,2.231906181543035633e-02
5.788000000000000256e+01,1.525098024564914244e-02
5.792000000000000171e+01,1.650892289602855223e-02
5.796000000000000085e+01,2.080460420681012543e-02
5.800000000000000000e+01,2.082443775004567260e-02
5.803999999999999915e+01,1.881875786423846397e-02
5.807999999999999829e+01,1.793803260708721689e-02
5.811999999999999744e+01,1.885736230850312833e-02
5.815999999999999659e+01,2.720258275397232153e-02
5.820000000000000284e+01,1.653226598264382480e-02
5.824000000000000199e+01,1.508810747478881928e-02
5.828000000000000114e+01,1.341870321937000884e-02
5.832000000000000028e+01,1.748743914657181764e-02
5.835999999999999943e+01,1.716781095596033035e-02
5.839999999999999858e+01,1.819817114792108073e-02
5.843999999999999773e+01,1.945335261397448598e-02
5.847999999999999687e+01,1.620765336885926500e-02
5.852000000000000313e+01,2.162552909632316570e-02
5.856000000000000227e+01,1.714172187847521484e-02
5.860000000000000142e+01,2.064638942483924475e-02
5.864000000000000057e+01,1.841249255819960712e-02
5.867999999999999972e+01,2.270435324310871028e-02
5.871999999999999886e+01,2.001996573214986225e-02
5.875999999999999801e+01,1.868556696839539927e-02
5.879999999999999716e+01,2.455202616713029334e-02
5.884000000000000341e+01,1.511600038898354946e-02
5.888000000000000256e+01,2.311985371020357227e-02
5.892000000000000171e+01,2.043440744644785603e-02
5.896000000000000085e+01,2.157431786025738873e-02
5.900000000000000000e+01,2.170136625147145795e-02
5.903999999999999915e+01,1.991541894140928110e-02
5.907999999999999829e+01,2.611794688173524337e-02
5.911999999999999744e+01,2.365647630784867630e-02
5.915999999999999659e+01,1.984459372872704810e-02
5.920000000000000284e+01,2.424621995133647429e-02
5.924000000000000199e+01,2.155908178986938942e-02
5.928000000000000114e+01,2.528518507277185620e-02
5.932000000000000028e+01,2.203504076752660010e-02
5.935999999999999943e+01,1.687190108512257730e-02
5.939999999999999858e+01,2.813599059468133504e-02
5.943999999999999773e+01,2.184726143709012428e-02
5.947999999999999687e+01,2.095912349234705860e-02
5.952000000000000313e+01,2.637171052016225661e-02
5.956000000000000227e+01,1.906969774304695386e-02
5.960000000000000142e+01,2.043126103240728089e-02
5.964000000000000057e+01,2.438049782418877376e-02
5.967999999999999972e+01,2.247865454144894887e-02
5.971999999999999886e+01,2.496475228055051662e-02
5.975999999999999801e+01,2.778818934562872836e-02
5.979999999999999716e+01,1.800954356376402096e-02
5.984000000000000341e+01,2.342044355562983640e-02
5.988000000000000256e+01,2.241768010105068057e-02
5.992000000000000171e+01,2.287742328350118523e-02
5.996000000000000085e+01,2.333695584980343893e-02
