2.003999999999999915e+01,4.157306822468841145e-02
2.007999999999999829e+01,9.425164161341161029e-02
2.012000000000000099e+01,1.065483599601512593e-01
2.016000000000000014e+01,8.488769544567914549e-02
2.019999999999999929e+01,5.680311237027242666e-02
2.023999999999999844e+01,7.827932528222458775e-02
2.028000000000000114e+01,1.020505437974995322e-01
2.032000000000000028e+01,8.452210659632160283e-02
2.035999999999999943e+01,5.965195384142150253e-02
2.039999999999999858e+01,6.919917495708412247e-02
2.044000000000000128e+01,9.526701207335806776e-02
2.048000000000000043e+01,6.672733588851291475e-02
2.051999999999999957e+01,5.516715947395119113e-02
2.055999999999999872e+01,9.500331412543590315e-02
2.060000000000000142e+01,6.371186364158747117e-02
2.064000000000000057e+01,7.005000286944755572e-02
2.067999999999999972e+01,9.107317147570673233e-02
2.071999999999999886e+01,9.420009533337106444e-02
2.076000000000000156e+01,9.916308948116142608e-02
2.080000000000000071e+01,8.072313792060555049e-02
2.083999999999999986e+01,8.981715273663933019e-02
2.087999999999999901e+01,2.181795191615464383e-02
2.092000000000000171e+01,7.863763031180548424e-02
2.096000000000000085e+01,9.553426748321594553e-02
2.100000000000000000e+01,8.076790014329222889e-02
2.103999999999999915e+01,6.324866599140580026e-02
2.107999999999999829e+01,9.391347711249314889e-02
2.112000000000000099e+01,8.098410321835819436e-02
2.116000000000000014e+01,5.199400860927480550e-02
2.119999999999999929e+01,9.000248468246016542e-02
2.123999999999999844e+01,7.891007109899048078e-02
2.128000000000000114e+01,6.598255087954203735e-02
2.132000000000000028e+01,4.295987994784757763e-02
2.135999999999999943e+01,6.353231718703813979e-02
2.139999999999999858e+01,1.235698387181406593e-01
2.144000000000000128e+01,6.934391129356073935e-02
2.148000000000000043e+01,7.615094405006321565e-02
2.151999999999999957e+01,6.506165842436366364e-02
2.155999999999999872e+01,1.278542773412983113e-01
2.160000000000000142e+01,5.206220252510238011e-02
2.164000000000000057e+01,5.841206528276593479e-02
2.167999999999999972e+01,8.220021217501498334e-02
2.171999999999999886e+01,8.671534887756300602e-02
2.176000000000000156e+01,5.819073771775198911e-02
2.180000000000000071e+01,1.333759326576106907e-01
2.183999999999999986e+01,9.750987975621107362e-02
2.187999999999999901e+01,7.862320144796280941e-02
2.192000000000000171e+01,2.577897828456897356e-02
2.196000000000000085e+01,8.169234895748160585e-02
2.200000000000000000e+01,8.299806642542199853e-02
2.203999999999999915e+01,8.017415164029369212e-02
2.207999999999999829e+01,4.568713293846139029e-02
2.212000000000000099e+01,6.076073718501133480e-02
2.216000000000000014e+01,8.042362966107029221e-02
2.219999999999999929e+01,5.373889091834174042e-02
2.223999999999999844e+01,9.084038920296430564e-02
2.228000000000000114e+01,7.425199077691764515e-02
2.232000000000000028e+01,7.647849097766833137e-02
2.235999999999999943e+01,6.080859548092988620e-02
2.239999999999999858e+01,5.752911538517233719e-02
2.244000000000000128e+01,6.480448247658525396e-02
2.248000000000000043e+01,6.519683001824957969e-02
2.251999999999999957e+01,1.082663966960042135e-01
2.255999999999999872e+01,6.139364138175293362e-02
2.260000000000000142e+01,8.473156582218591137e-02
2.264000000000000057e+01,7.227631460509664763e-02
2.267999999999999972e+01,7.634147321451900670e-02
2.271999999999999886e+01,4.553123106912354556e-02
2.276000000000000156e+01,8.034274262136517630e-02
2.280000000000000071e+01,7.385437019297251549e-02
2.283999999999999986e+01,1.872385197374358545e-02
2.287999999999999901e+01,4.940628626054367756e-02
2.292000000000000171e+01,2.915211172798421249e-02
2.296000000000000085e+01,4.423285770450986754e-02
2.300000000000000000e+01,5.793722986583353662e-02
2.303999999999999915e+01,4.686177674561327333e-02
2.307999999999999829e+01,7.662792668582812938e-02
2.312000000000000099e+01,6.876529225622618480e-02
2.316000000000000014e+01,7.650524120690638252e-02
2.319999999999999929e+01,9.112883832856952249e-02
2.323999999999999844e+01,2.407009126424745904e-02
2.328000000000000114e+01,6.485103427471484994e-02
2.332000000000000028e+01,5.744867844721446987e-02
2.335999999999999943e+01,6.518999645856189684e-02
2.339999999999999858e+01,3.897363339259091869e-02
2.344000000000000128e+01,4.396212645824725679e-02
2.348000000000000043e+01,1.774627788141993484e-02
2.351999999999999957e+01,4.659761699055343931e-02
2.355999999999999872e+01,3.827902236441894923e-02
2.360000000000000142e+01,7.630867653326578459e-02
2.364000000000000057e+01,3.724486102964909978e-02
2.367999999999999972e+01,7.114497267354283339e-02
2.371999999999999886e+01,6.695735358938202653e-02
2.376000000000000156e+01,7.057111339874416744e-02
2.380000000000000071e+01,5.628834497012485255e-02
2.383999999999999986e+01,7.871708945272001823e-02
2.387999999999999901e+01,8.829710079733131545e-02
2.392000000000000171e+01,5.657712507425817494e-02
2.396000000000000085e+01,5.652084875400052721e-02
2.400000000000000000e+01,4.086248145252208142e-02
2.403999999999999915e+01,8.486016530548579073e-02
2.407999999999999829e+01,1.275859267973324628e-02
2.412000000000000099e+01,3.243544315734291777e-02
2.416000000000000014e+01,5.670139778044380741e-02
2.419999999999999929e+01,8.142643267006244301e-02
2.423999999999999844e+01,1.148705845391056468e-01
2.428000000000000114e+01,4.598219551200787708e-02
2.432000000000000028e+01,4.317430773004565098e-02
2.435999999999999943e+01,5.918113080918308011e-02
2.439999999999999858e+01,1.036393748614243826e-01
2.444000000000000128e+01,8.431191846554011993e-02
2.448000000000000043e+01,3.561559291729354121e-02
2.451999999999999957e+01,6.447202853159554603e-02
2.455999999999999872e+01,4.147392211157822917e-02
2.460000000000000142e+01,7.078955717395672698e-02
2.464000000000000057e+01,8.817417141248953816e-02
2.467999999999999972e+01,6.609429316354156758e-02
2.471999999999999886e+01,2.336445519976861757e-02
2.476000000000000156e+01,6.094070310665711948e-02
2.480000000000000071e+01,5.216908048553512561e-02
2.483999999999999986e+01,3.146641863216586427e-02
2.487999999999999901e+01,4.150958923689867380e-02
2.492000000000000171e+01,5.705957630126150260e-02
2.496000000000000085e+01,5.563071062497747243e-02
2.500000000000000000e+01,7.944097276536359054e-02
2.503999999999999915e+01,5.277332209036394300e-02
2.507999999999999829e+01,6.557041699268363610e-02
2.512000000000000099e+01,9.029878580868756777e-02
2.516000000000000014e+01,5.628919036967822837e-02
2.519999999999999929e+01,5.715541813262137172e-02
2.523999999999999844e+01,7.500071122756601927e-02
2.528000000000000114e+01,1.286396024271679872e-01
2.532000000000000028e+01,1.418961599663381701e-01
2.535999999999999943e+01,1.294548964204390584e-01
2.539999999999999858e+01,1.050825420987675646e-01
2.544000000000000128e+01,6.419018198931772390e-02
2.548000000000000043e+01,8.157706709471955475e-02
2.551999999999999957e+01,7.693724545259079950e-02
2.555999999999999872e+01,1.030431936799989096e-01
2.560000000000000142e+01,8.739010907611462209e-02
2.564000000000000057e+01,2.997798795925863541e-02
2.567999999999999972e+01,8.958315867702253132e-02
2.571999999999999886e+01,2.666444610471983834e-02
2.576000000000000156e+01,9.131751406342536459e-02
2.580000000000000071e+01,4.400118742845286063e-02
2.583999999999999986e+01,3.660842755190596431e-02
2.587999999999999901e+01,3.288683124252988338e-02
2.592000000000000171e+01,6.495877413092519814e-02
2.596000000000000085e+01,3.966935252979782861e-02
2.600000000000000000e+01,5.430348296037459249e-02
2.603999999999999915e+01,7.444432676353121558e-02
2.607999999999999829e+01,3.355266596786377759e-02
2.612000000000000099e+01,6.975472793449780107e-02
2.616000000000000014e+01,9.769675823769324863e-02
2.619999999999999929e+01,4.074393397932950939e-02
2.623999999999999844e+01,7.602822882830158335e-02
2.628000000000000114e+01,3.972550461029818875e-02
2.632000000000000028e+01,4.288741183752302344e-02
2.635999999999999943e+01,5.935715224543918617e-02
2.639999999999999858e+01,6.710794776680190088e-02
2.644000000000000128e+01,6.751646811902947687e-02
2.648000000000000043e+01,7.113720568018994106e-02
2.651999999999999957e+01,7.705237450253811515e-02
2.655999999999999872e+01,5.497515612424395265e-02
2.660000000000000142e+01,2.785010351525497863e-02
2.664000000000000057e+01,5.212082235689906307e-02
2.667999999999999972e+01,6.813146167326020186e-02
2.671999999999999886e+01,6.670419512200609358e-02
2.676000000000000156e+01,8.455030966406337778e-02
2.680000000000000071e+01,4.457609126827796059e-02
2.683999999999999986e+01,6.655212197447256395e-02
2.687999999999999901e+01,5.502904243019091091e-02
2.692000000000000171e+01,2.698582087595744611e-02
2.696000000000000085e+01,6.548174870898916533e-02
2.700000000000000000e+01,5.487625672339564026e-02
2.703999999999999915e+01,3.050395848100473026e-02
2.707999999999999829e+01,5.247958872740433184e-02
2.712000000000000099e+01,2.443600584407246493e-02
2.716000000000000014e+01,9.413615098581920582e-02
2.719999999999999929e+01,6.425683326695481867e-02
2.723999999999999844e+01,6.007532832369361780e-02
2.728000000000000114e+01,7.562604774493160431e-02
2.732000000000000028e+01,6.043096321540437216e-02
2.735999999999999943e+01,3.605795430596310525e-02
2.739999999999999858e+01,3.875941684450113361e-02
2.744000000000000128e+01,4.421411709861126915e-02
2.748000000000000043e+01,2.901860360195176319e-02
2.751999999999999957e+01,9.091668400878175071e-02
2.755999999999999872e+01,5.874196201626868952e-02
2.760000000000000142e+01,8.071626991225538950e-02
2.764000000000000057e+01,5.634244588092630207e-02
2.767999999999999972e+01,5.720750299368375369e-02
2.771999999999999886e+01,2.457337254067742255e-02
2.776000000000000156e+01,6.031388237345898518e-02
2.780000000000000071e+01,2.767947116664006349e-02
2.783999999999999986e+01,7.948088253838873907e-02
2.787999999999999901e+01,5.556510737865481137e-02
2.792000000000000171e+01,5.918264693808836241e-02
2.796000000000000085e+01,7.886121920919421380e-02
2.800000000000000000e+01,1.067996712487382510e-01
2.803999999999999915e+01,8.793106341113057778e-02
2.807999999999999829e+01,2.592652107895171421e-02
2.812000000000000099e+01,4.055662629202420877e-02
2.816000000000000014e+01,7.904889506992122949e-02
2.819999999999999929e+01,6.476850451452176305e-02
2.823999999999999844e+01,6.287799183477173204e-02
2.828000000000000114e+01,3.345382477515591868e-02
2.832000000000000028e+01,7.378091985690153620e-02
2.835999999999999943e+01,4.527415122248864415e-02
2.839999999999999858e+01,5.210180238863279523e-02
2.844000000000000128e+01,4.378584504006959727e-02
2.848000000000000043e+01,6.483871539927932304e-02
2.851999999999999957e+01,8.726805066959372748e-02
2.855999999999999872e+01,4.224017721444601331e-02
2.860000000000000142e+01,6.879910466102720501e-02
2.864000000000000057e+01,5.497539286770731365e-02
2.867999999999999972e+01,5.721264751581356389e-02
2.871999999999999886e+01,5.944967526752572423e-02
2.876000000000000156e+01,2.497518179855606410e-02
2.880000000000000071e+01,3.455400284095912211e-02
2.883999999999999986e+01,3.862589234553555351e-02
2.887999999999999901e+01,9.088110919541683708e-02
2.892000000000000171e+01,8.531579797839684842e-02
2.896000000000000085e+01,1.642326141640412449e-02
2.900000000000000000e+01,5.261654165071518591e-02
2.903999999999999915e+01,2.640037144275812764e-02
2.907999999999999829e+01,5.800422396538824216e-02
2.912000000000000099e+01,6.482769159106104018e-02
2.916000000000000014e+01,7.853425881734417413e-02
2.919999999999999929e+01,9.132277270100308542e-02
2.923999999999999844e+01,6.189302758742600691e-02
2.928000000000000114e+01,7.926989960325217521e-02
2.932000000000000028e+01,7.370193284584997118e-02
2.935999999999999943e+01,1.949122018371387405e-02
2.939999999999999858e+01,5.705844464313299808e-02
2.944000000000000128e+01,3.818176657290409115e-02
2.948000000000000043e+01,8.033731234768708152e-02
2.951999999999999957e+01,2.474874625652890778e-02
2.955999999999999872e+01,4.900693310135770947e-02
2.960000000000000142e+01,6.133364259397729862e-02
2.964000000000000057e+01,4.245544346533859648e-02
2.967999999999999972e+01,6.946604238323468572e-02
2.971999999999999886e+01,6.022392285315383842e-02
2.976000000000000156e+01,5.740595656544539294e-02
2.980000000000000071e+01,6.651883343481997113e-02
2.983999999999999986e+01,6.599466652706598158e-02
2.987999999999999901e+01,5.950458122476372236e-02
2.992000000000000171e+01,4.934302951139552668e-02
2.996000000000000085e+01,5.845456435691036290e-02
3.000000000000000000e+01,3.819672197817425979e-02
3.003999999999999915e+01,8.218328983215286709e-02
3.007999999999999829e+01,4.448688393280610803e-02
3.012000000000000099e+01,7.011709863674805976e-02
3.016000000000000014e+01,7.050794158701126357e-02
3.019999999999999929e+01,7.594622388206505315e-02
3.023999999999999844e+01,5.522734479401399110e-02
3.028000000000000114e+01,5.194595827927259157e-02
3.032000000000000028e+01,5.646534686247620116e-02
3.035999999999999943e+01,6.832661572891238211e-02
3.039999999999999858e+01,6.458520454527130750e-02
3.044000000000000128e+01,5.028891209323120559e-02
3.048000000000000043e+01,7.912799725592352396e-02
3.051999999999999957e+01,4.509860462114217983e-02
3.055999999999999872e+01,6.430018716444918514e-02
3.060000000000000142e+01,7.432354711173344564e-02
3.064000000000000057e+01,2.193730934953541656e-02
3.067999999999999972e+01,6.270556429421916822e-02
3.071999999999999886e+01,4.335866983122281526e-02
3.076000000000000156e+01,7.770162327094584653e-02
3.080000000000000071e+01,4.275159727897635126e-02
3.083999999999999986e+01,0.000000000000000000e+00
3.087999999999999901e+01,2.424608243664642948e-02
3.092000000000000171e+01,5.537510247996761670e-02
3.096000000000000085e+01,4.015568501650409322e-02
3.100000000000000000e+01,4.604482292036450597e-02
3.103999999999999915e+01,3.770789526635984906e-02
3.107999999999999829e+01,8.627302399285992351e-02
3.112000000000000099e+01,8.344189802249528387e-02
3.116000000000000014e+01,5.812465505463806914e-02
3.119999999999999929e+01,7.777828796339734951e-02
3.123999999999999844e+01,3.915228813476219483e-02
3.128000000000000114e+01,5.559276174609956156e-02
3.132000000000000028e+01,6.514940215633069354e-02
3.135999999999999943e+01,7.057555248197085185e-02
3.139999999999999858e+01,8.150792283502364399e-02
3.144000000000000128e+01,9.427538046954832274e-02
3.148000000000000043e+01,4.555094534536853479e-02
3.151999999999999957e+01,5.831743743353505482e-02
3.155999999999999872e+01,4.676221117527520205e-02
3.160000000000000142e+01,8.109560624289349762e-02
3.164000000000000057e+01,4.705372682959712421e-02
3.167999999999999972e+01,5.706489684668764051e-02
3.171999999999999886e+01,7.671227763504140373e-02
3.176000000000000156e+01,6.056564334275264805e-02
3.180000000000000071e+01,8.434202723851645656e-02
3.183999999999999986e+01,7.599551775453775027e-02
3.187999999999999901e+01,8.370968017755692214e-02
3.192000000000000171e+01,7.398545811451527621e-02
3.196000000000000085e+01,6.747294887019844589e-02
3.200000000000000000e+01,7.656220935480610723e-02
3.203999999999999915e+01,5.903525164766021405e-02
3.207999999999999829e+01,7.271235482918547710e-02
3.211999999999999744e+01,8.455335363935595483e-02
3.215999999999999659e+01,4.866913109323322412e-02
3.220000000000000284e+01,7.657022883605392460e-02
3.224000000000000199e+01,1.035529934285438353e-01
3.228000000000000114e+01,4.839369064225604311e-02
3.232000000000000028e+01,6.252639069626148016e-02
3.235999999999999943e+01,6.335068596301536570e-02
3.239999999999999858e+01,6.187995995361948026e-02
3.243999999999999773e+01,5.536086218819793320e-02
3.247999999999999687e+01,5.526566731088455170e-02
3.252000000000000313e+01,7.765556129613974956e-02
3.256000000000000227e+01,4.727239464493973586e-02
3.260000000000000142e+01,6.002441047941341201e-02
3.264000000000000057e+01,5.763243122274296776e-02
3.267999999999999972e+01,4.376758225750852077e-02
3.271999999999999886e+01,6.661342887045069994e-02
3.275999999999999801e+01,4.999403929648071204e-02
3.279999999999999716e+01,5.769527734544699360e-02
3.284000000000000341e+01,2.593127184414058609e-02
3.288000000000000256e+01,7.126036690115623851e-02
3.292000000000000171e+01,8.767870710428772585e-02
3.296000000000000085e+01,9.813084542348385342e-02
3.300000000000000000e+01,1.246435525626279073e-01
3.303999999999999915e+01,8.390334435997358620e-01
3.307999999999999829e+01,1.000000000000000000e+00
3.311999999999999744e+01,2.326291623941228737e-01
3.315999999999999659e+01,5.217944837400084745e-02
3.320000000000000284e+01,5.666222172141453101e-02
3.324000000000000199e+01,4.508316248641334317e-02
3.328000000000000114e+01,2.753787191403391996e-02
3.332000000000000028e+01,5.955217341953784882e-02
3.335999999999999943e+01,8.651801849036795666e-02
3.339999999999999858e+01,3.822506009085928358e-02
3.343999999999999773e+01,6.748404183918031707e-02
3.347999999999999687e+01,8.618786251139551324e-02
3.352000000000000313e+01,5.578966325108796614e-02
3.356000000000000227e+01,7.586881624464671126e-02
3.360000000000000142e+01,6.887271632788578846e-02
3.364000000000000057e+01,4.397918247977637696e-02
3.367999999999999972e+01,6.589186077623167270e-02
3.371999999999999886e+01,9.560500122780229981e-02
3.375999999999999801e+01,9.365396271200589207e-02
3.379999999999999716e+01,7.059323760691141314e-02
3.384000000000000341e+01,9.571538331875814598e-02
3.388000000000000256e+01,7.907773409148011190e-02
3.392000000000000171e+01,2.664587097282050329e-02
3.396000000000000085e+01,3.616360161703822962e-02
3.400000000000000000e+01,4.613951051608748688e-02
3.403999999999999915e+01,5.473802945615753590e-02
3.407999999999999829e+01,4.635685623246044162e-02
3.411999999999999744e+01,1.077264113064731188e-01
3.415999999999999659e+01,7.731701216904746099e-02
3.420000000000000284e+01,6.709809159845230020e-02
3.424000000000000199e+01,8.441190404152872084e-02
3.428000000000000114e+01,6.684925172416564254e-02
3.432000000000000028e+01,6.488815559826631441e-02
3.435999999999999943e+01,5.741961986265153861e-02
3.439999999999999858e+01,6.325817728997713829e-02
3.443999999999999773e+01,6.129483207906381848e-02
3.447999999999999687e+01,6.529631453920875517e-02
3.452000000000000313e+01,9.591272197519734588e-02
3.456000000000000227e+01,5.310578370424751116e-02
3.460000000000000142e+01,6.674168669289833045e-02
3.464000000000000057e+01,7.716457996523444496e-02
3.467999999999999972e+01,7.519663717892380306e-02
3.471999999999999886e+01,8.607686696907784762e-02
3.475999999999999801e+01,2.491040604298913955e-02
3.479999999999999716e+01,8.856154678995384333e-02
3.484000000000000341e+01,7.465929586092419357e-02
3.488000000000000256e+01,4.423617026755264497e-02
3.492000000000000171e+01,6.199581608575276126e-02
3.496000000000000085e+01,4.304337002281713453e-02
3.500000000000000000e+01,8.191040180177636132e-02
3.503999999999999915e+01,7.442862054255487692e-02
3.507999999999999829e+01,1.096229023717925216e-01
3.511999999999999744e+01,9.020832340490236856e-02
3.515999999999999659e+01,8.914857011238404294e-02
3.520000000000000284e+01,6.422565457355977614e-02
3.524000000000000199e+01,9.436884798835318278e-02
3.528000000000000114e+01,5.384197622415685947e-02
3.532000000000000028e+01,1.056092328811220928e-02
3.535999999999999943e+01,8.108403328881418071e-02
3.539999999999999858e+01,6.717033307450819002e-02
3.543999999999999773e+01,7.941258202436538016e-02
3.547999999999999687e+01,8.568839714442474942e-02
3.552000000000000313e+01,8.003219002358270828e-02
3.556000000000000227e+01,8.034071116842918248e-02
3.560000000000000142e+01,8.523728349818637806e-02
3.564000000000000057e+01,9.288633879904333035e-02
3.567999999999999972e+01,6.474101821458323747e-02
3.571999999999999886e+01,5.816270969219810433e-02
3.575999999999999801e+01,6.443247802258843249e-02
3.579999999999999716e+01,7.850251706071569024e-02
3.584000000000000341e+01,1.118451014507139823e-01
3.588000000000000256e+01,7.359978317045220986e-02
3.592000000000000171e+01,9.546831371860020621e-02
3.596000000000000085e+01,7.741242241237543398e-02
3.600000000000000000e+01,7.817017059826769643e-02
3.603999999999999915e+01,8.994040533304267782e-02
3.607999999999999829e+01,9.390858648068443892e-02
3.611999999999999744e+01,7.309573843730714227e-02
3.615999999999999659e+01,5.044641417285925661e-02
3.620000000000000284e+01,1.214099656764370816e-01
3.624000000000000199e+01,1.065599562506217152e-01
3.628000000000000114e+01,9.767460882024862900e-02
3.632000000000000028e+01,1.053084157633868700e-01
3.635999999999999943e+01,1.037634699485315559e-01
3.639999999999999858e+01,8.982752976277436074e-02
3.643999999999999773e+01,1.075541402955624143e-01
3.647999999999999687e+01,5.965837766230869949e-02
3.652000000000000313e+01,9.206761848569305906e-02
3.656000000000000227e+01,8.501127336253178068e-02
3.660000000000000142e+01,9.676851250628236423e-02
3.664000000000000057e+01,1.089836869139609726e-01
3.667999999999999972e+01,8.265104659611836879e-02
3.671999999999999886e+01,8.614536669292814641e-02
3.675999999999999801e+01,1.084532563299283048e-01
3.679999999999999716e+01,9.588444926062661411e-02
3.684000000000000341e+01,8.515023244594904783e-02
3.688000000000000256e+01,8.405175146576919498e-02
3.692000000000000171e+01,1.270058376158500757e-01
3.696000000000000085e+01,6.946178030924876623e-02
3.700000000000000000e+01,9.681159360944718850e-02
3.703999999999999915e+01,9.157914377842450715e-02
3.707999999999999829e+01,7.854454831825960492e-02
3.711999999999999744e+01,1.325070582315827361e-01
3.715999999999999659e+01,1.222238057893958174e-01
3.720000000000000284e+01,1.211173685952310203e-01
3.724000000000000199e+01,1.099143153800399980e-01
3.728000000000000114e+01,1.083469611825429724e-01
3.732000000000000028e+01,1.196275402522877507e-01
3.735999999999999943e+01,1.432971577745613956e-01
3.739999999999999858e+01,1.307133499662301857e-01
3.743999999999999773e+01,1.681476461557388780e-01
3.747999999999999687e+01,1.523495377290762787e-01
3.752000000000000313e+01,1.714261185468176907e-01
3.756000000000000227e+01,1.716871223624708565e-01
3.760000000000000142e+01,1.870904893387662360e-01
3.764000000000000057e+01,2.102939576655022402e-01
3.767999999999999972e+01,2.357908300646075761e-01
3.771999999999999886e+01,2.085141668904923473e-01
3.775999999999999801e+01,2.363033807241323725e-01
3.779999999999999716e+01,2.985083668973812498e-01
3.784000000000000341e+01,2.937141813283585812e-01
3.788000000000000256e+01,2.884600346251078862e-01
3.792000000000000171e+01,3.465317905974774626e-01
3.796000000000000085e+01,3.669733962966194585e-01
3.800000000000000000e+01,3.695171667612546229e-01
3.803999999999999915e+01,3.968399736817322387e-01
3.807999999999999829e+01,4.939131444135649307e-01
3.811999999999999744e+01,4.574479033416395390e-01
3.815999999999999659e+01,5.086297729059788830e-01
3.820000000000000284e+01,5.937684868600909827e-01
3.824000000000000199e+01,5.352731730386873776e-01
3.828000000000000114e+01,5.309259060971290856e-01
3.832000000000000028e+01,5.453920651102273087e-01
3.835999999999999943e+01,4.809278350603625185e-01
3.839999999999999858e+01,4.343592413357282300e-01
3.843999999999999773e+01,4.396442240990551809e-01
3.847999999999999687e+01,4.339146944431997999e-01
3.852000000000000313e+01,3.699048619841254770e-01
3.856000000000000227e+01,3.462763166421570782e-01
3.860000000000000142e+01,3.070443365056391705e-01
3.864000000000000057e+01,2.976391400631170359e-01
3.867999999999999972e+01,2.542748561413815112e-01
3.871999999999999886e+01,2.462440421466718377e-01
3.875999999999999801e+01,2.138908471030724623e-01
3.879999999999999716e+01,1.916321023063462803e-01
3.884000000000000341e+01,2.010356873273442813e-01
3.888000000000000256e+01,2.150270216354639718e-01
3.892000000000000171e+01,1.840458591815063438e-01
3.896000000000000085e+01,1.833503421011341283e-01
3.900000000000000000e+01,1.702635913406370383e-01
3.903999999999999915e+01,1.654357042048009152e-01
3.907999999999999829e+01,1.408743178969578402e-01
3.911999999999999744e+01,1.342085016440989764e-01
3.915999999999999659e+01,9.817246506218858804e-02
3.920000000000000284e+01,1.130721527502474566e-01
3.924000000000000199e+01,1.013549595440894069e-01
3.928000000000000114e+01,1.020266280698033795e-01
3.932000000000000028e+01,1.219705216411975796e-01
3.935999999999999943e+01,1.065785917457147541e-01
3.939999999999999858e+01,9.072656081215074719e-02
3.943999999999999773e+01,5.146986850719595386e-02
3.947999999999999687e+01,5.626550770495941656e-02
3.952000000000000313e+01,1.009834545264673700e-01
3.956000000000000227e+01,8.053763582557904588e-02
3.960000000000000142e+01,6.605617354066367630e-02
3.964000000000000057e+01,7.956583837560474159e-02
3.967999999999999972e+01,1.091354571898749543e-01
3.971999999999999886e+01,7.262351348896216308e-02
3.975999999999999801e+01,4.207591147730094239e-02
3.979999999999999716e+01,9.091522875842382445e-02
3.984000000000000341e+01,7.091962568112696041e-02
3.988000000000000256e+01,7.753845423450693441e-02
3.992000000000000171e+01,7.360152896124412536e-02
3.996000000000000085e+01,4.304765652351804500e-02
4.000000000000000000e+01,7.398393078190361460e-02
4.003999999999999915e+01,6.866653671878106269e-02
4.007999999999999829e+01,2.663657951943724025e-02
4.011999999999999744e+01,4.013117324174051564e-02
4.015999999999999659e+01,5.500116050616615099e-02
4.020000000000000284e+01,3.866526718572051852e-02
4.024000000000000199e+01,5.628603048934972125e-02
4.028000000000000114e+01,6.426878909727820610e-02
4.032000000000000028e+01,8.142807578216129660e-02
4.035999999999999943e+01,2.883461198071522041e-02
4.039999999999999858e+01,4.415573392103331468e-02
4.043999999999999773e+01,5.305107437015742222e-02
4.047999999999999687e+01,8.213631536229676344e-02
4.052000000000000313e+01,8.322788424735007295e-02
4.056000000000000227e+01,4.118236995356187174e-02
4.060000000000000142e+01,5.420247126822409778e-02
4.064000000000000057e+01,4.565336529321525894e-02
4.067999999999999972e+01,6.693085524650417562e-02
4.071999999999999886e+01,7.260471527618486687e-02
4.075999999999999801e+01,6.680496189787030192e-02
4.079999999999999716e+01,4.356600670045676638e-02
4.084000000000000341e+01,6.667371349379228040e-02
4.088000000000000256e+01,7.234221110466797222e-02
4.092000000000000171e+01,7.020820964508756035e-02
4.096000000000000085e+01,5.889503203427323003e-02
4.100000000000000000e+01,2.509483173259950683e-02
4.103999999999999915e+01,6.609252526129306970e-02
4.107999999999999829e+01,6.211752321717034508e-02
4.111999999999999744e+01,2.464210024436544813e-02
4.115999999999999659e+01,4.131445907042054222e-02
4.120000000000000284e+01,4.743094625606181919e-02
4.124000000000000199e+01,4.161488472051085713e-02
4.128000000000000114e+01,5.598865009436833351e-02
4.132000000000000028e+01,5.934764164973799216e-02
4.135999999999999943e+01,3.058286358544115222e-02
4.139999999999999858e+01,5.917808316115039796e-02
4.143999999999999773e+01,4.142390062982228421e-02
4.147999999999999687e+01,5.533180492531514921e-02
4.152000000000000313e+01,4.721152980113668685e-02
4.156000000000000227e+01,4.689099522272441312e-02
4.160000000000000142e+01,3.372009652193167645e-02
4.164000000000000057e+01,4.395122952665200117e-02
4.167999999999999972e+01,5.372205163751092583e-02
4.171999999999999886e+01,7.129259956741436366e-02
4.175999999999999801e+01,4.297260706987050816e-02
4.179999999999999716e+01,3.713684928505298077e-02
4.184000000000000341e+01,6.433981859103105050e-02
4.188000000000000256e+01,8.052796253499641677e-02
4.192000000000000171e+01,7.422899910945454649e-02
4.196000000000000085e+01,7.068193694951684092e-02
4.200000000000000000e+01,8.411239749751280026e-02
4.203999999999999915e+01,7.780908642915583540e-02
4.207999999999999829e+01,8.114103257685083281e-02
4.211999999999999744e+01,7.942371600187449199e-02
4.215999999999999659e+01,5.980818129763469659e-02
4.220000000000000284e+01,5.258123956260087051e-02
4.224000000000000199e+01,6.233179844541879983e-02
4.228000000000000114e+01,6.473862421368138664e-02
4.232000000000000028e+01,6.393173338300137121e-02
4.235999999999999943e+01,5.669888434047043457e-02
4.239999999999999858e+01,6.965575912029767225e-02
4.243999999999999773e+01,6.104326093483807003e-02
4.247999999999999687e+01,4.921703142371469664e-02
4.252000000000000313e+01,5.023825656138716789e-02
4.256000000000000227e+01,4.345683167970922772e-02
4.260000000000000142e+01,3.529722895945656969e-02
4.264000000000000057e+01,6.522408215975074308e-02
4.267999999999999972e+01,5.293143931820990661e-02
4.271999999999999886e+01,6.633518444197535058e-02
4.275999999999999801e+01,7.560739020224932494e-02
4.279999999999999716e+01,4.449565340777755784e-02
4.284000000000000341e+01,4.504587826299479708e-02
4.288000000000000256e+01,6.624467389343861867e-02
4.292000000000000171e+01,6.403848784630093716e-02
4.296000000000000085e+01,5.724185289423755485e-02
4.300000000000000000e+01,3.805361609401394091e-02
4.303999999999999915e+01,4.456173780565386017e-02
4.307999999999999829e+01,4.785607296642450242e-02
4.311999999999999744e+01,8.143567060602403818e-02
4.315999999999999659e+01,7.141905462452653730e-02
4.320000000000000284e+01,6.323644351047703893e-02
4.324000000000000199e+01,7.845571683472642166e-02
4.328000000000000114e+01,5.650324135529392194e-02
4.332000000000000028e+01,7.355494147390748139e-02
4.335999999999999943e+01,8.326280907259607511e-02
4.339999999999999858e+01,7.048343307960416859e-02
4.343999999999999773e+01,6.825697139159732363e-02
4.347999999999999687e+01,7.245340012960173326e-02
4.352000000000000313e+01,8.215493334587212204e-02
4.356000000000000227e+01,8.772485356504385046e-02
4.360000000000000142e+01,9.696430636699039651e-02
4.364000000000000057e+01,1.025310299415101711e-01
4.367999999999999972e+01,8.010379055619606947e-02
4.371999999999999886e+01,8.566730275934250627e-02
4.375999999999999801e+01,9.168809488731438639e-02
4.379999999999999716e+01,9.036501399687726921e-02
4.384000000000000341e+01,9.133477020003526181e-02
4.388000000000000256e+01,1.065285292739550221e-01
4.392000000000000171e+01,1.368640698030212099e-01
4.396000000000000085e+01,1.286511255407417897e-01
4.400000000000000000e+01,1.286965883747594741e-01
4.403999999999999915e+01,1.223159383663515315e-01
4.407999999999999829e+01,1.347481841506290579e-01
4.411999999999999744e+01,1.448843299264135631e-01
4.415999999999999659e+01,1.196842104336785645e-01
4.420000000000000284e+01,1.614805446570091174e-01
4.424000000000000199e+01,1.482082875280586465e-01
4.428000000000000114e+01,1.551255811824899522e-01
4.432000000000000028e+01,1.588289741539610778e-01
4.435999999999999943e+01,1.840985839445509198e-01
4.439999999999999858e+01,1.813741645050606366e-01
4.443999999999999773e+01,1.566212968832332852e-01
4.447999999999999687e+01,1.837214498156339304e-01
4.452000000000000313e+01,1.832864536059458371e-01
4.456000000000000227e+01,1.727541676277267180e-01
4.460000000000000142e+01,1.626790842590457031e-01
4.464000000000000057e+01,1.516845264191243881e-01
4.467999999999999972e+01,1.241681919031749765e-01
4.471999999999999886e+01,1.407037065898176509e-01
4.475999999999999801e+01,1.306218323103544854e-01
4.479999999999999716e+01,9.116921858490993624e-02
4.484000000000000341e+01,1.411986651872417786e-01
4.488000000000000256e+01,1.031192999520612330e-01
4.492000000000000171e+01,1.045028541807449807e-01
4.496000000000000085e+01,1.224047675399839302e-01
4.500000000000000000e+01,1.095592496457418741e-01
4.503999999999999915e+01,1.091020633214010022e-01
4.507999999999999829e+01,1.003831038988147462e-01
4.511999999999999744e+01,8.019012976507508550e-02
4.515999999999999659e+01,8.752888354627041956e-02
4.520000000000000284e+01,8.339361525295141409e-02
4.524000000000000199e+01,7.191434140073091341e-02
4.528000000000000114e+01,9.301458688176286738e-02
4.532000000000000028e+01,9.070962978439235658e-02
4.535999999999999943e+01,5.719831716538523181e-02
4.539999999999999858e+01,6.819768229343649291e-02
4.543999999999999773e+01,4.248399094009946281e-02
4.547999999999999687e+01,8.743776455331736530e-02
4.552000000000000313e+01,6.217942161040775767e-02
4.556000000000000227e+01,6.674722543079270043e-02
4.560000000000000142e+01,4.836869203404541712e-02
4.564000000000000057e+01,5.293293104174319474e-02
4.567999999999999972e+01,4.923534172599049880e-02
4.571999999999999886e+01,7.765834011197382536e-02
4.575999999999999801e+01,6.386155896673498256e-02
4.579999999999999716e+01,4.088515618693950443e-02
4.584000000000000341e+01,5.507713252719732139e-02
4.588000000000000256e+01,6.697284686502640028e-02
4.592000000000000171e+01,6.418223492686656040e-02
4.596000000000000085e+01,5.863646248988468174e-02
4.600000000000000000e+01,1.729536429405472212e-02
4.603999999999999915e+01,7.231958297107909939e-02
4.607999999999999829e+01,5.621385128238604034e-02
4.611999999999999744e+01,5.846193648764810152e-02
4.615999999999999659e+01,4.005808859741570582e-02
4.620000000000000284e+01,7.304821181612350389e-02
4.624000000000000199e+01,5.096955959853265855e-02
4.628000000000000114e+01,3.990245141965434450e-02
4.632000000000000028e+01,5.086027079059010636e-02
4.635999999999999943e+01,5.080285245131378746e-02
4.639999999999999858e+01,5.441470897718760774e-02
4.643999999999999773e+01,4.838799382858643972e-02
4.647999999999999687e+01,5.245502204423085207e-02
4.652000000000000313e+01,4.275345102474631398e-02
4.656000000000000227e+01,4.957009186860267258e-02
4.660000000000000142e+01,5.822042463707721716e-02
4.664000000000000057e+01,4.805434466202337940e-02
4.667999999999999972e+01,8.010436895509384647e-02
4.671999999999999886e+01,5.341444456744085661e-02
4.675999999999999801e+01,5.333831856144387318e-02
4.679999999999999716e+01,4.408247887888126076e-02
4.684000000000000341e+01,7.337159967346093548e-02
4.688000000000000256e+01,6.273529351493149775e-02
4.692000000000000171e+01,3.787146017143707549e-02
4.696000000000000085e+01,5.660037872340217130e-02
4.700000000000000000e+01,3.310940361205424315e-02
4.703999999999999915e+01,3.760887450969752077e-02
4.707999999999999829e+01,5.174314241334854875e-02
4.711999999999999744e+01,6.219642553407359921e-03
4.715999999999999659e+01,6.669807027295478197e-02
4.720000000000000284e+01,5.971757360399554404e-02
4.724000000000000199e+01,4.126286709482395593e-02
4.728000000000000114e+01,4.070297957784465431e-02
4.732000000000000028e+01,3.968226205007428092e-02
4.735999999999999943e+01,5.059077142171196362e-02
4.739999999999999858e+01,4.635392716215522985e-02
4.743999999999999773e+01,4.853960884225495820e-02
4.747999999999999687e+01,4.659331672058140278e-02
4.752000000000000313e+01,7.263742642773486635e-02
4.756000000000000227e+01,7.114610718509283005e-02
4.760000000000000142e+01,4.074268191187728483e-02
4.764000000000000057e+01,6.448644200530460890e-02
4.767999999999999972e+01,4.692802811291806736e-02
4.771999999999999886e+01,5.414775970972870306e-02
4.775999999999999801e+01,7.926226611856738991e-02
4.779999999999999716e+01,4.334226877615028617e-02
4.784000000000000341e+01,4.917937780009468823e-02
4.788000000000000256e+01,6.281564566430933305e-02
4.792000000000000171e+01,5.579981843909408851e-02
4.796000000000000085e+01,5.199423136046259913e-02
4.800000000000000000e+01,4.313884035214815560e-02
4.803999999999999915e+01,3.519922646189397458e-02
4.807999999999999829e+01,6.121554758636532645e-02
4.811999999999999744e+01,6.336751728177694720e-02
4.815999999999999659e+01,7.974309590815242821e-02
4.820000000000000284e+01,4.288528322802242360e-02
4.824000000000000199e+01,4.044228196892911409e-02
4.828000000000000114e+01,2.560719287986912979e-02
4.832000000000000028e+01,5.574140390823453112e-02
4.835999999999999943e+01,3.631333796763346056e-02
4.839999999999999858e+01,5.038228645528269184e-02
4.843999999999999773e+01,4.425798312468991191e-02
4.847999999999999687e+01,4.639167454219470660e-02
4.852000000000000313e+01,5.173555456275842623e-02
4.856000000000000227e+01,5.661849044044006685e-02
4.860000000000000142e+01,3.626035730979978999e-02
4.864000000000000057e+01,5.077588991642548177e-02
4.867999999999999972e+01,5.152262447718307381e-02
4.871999999999999886e+01,7.337628342086850719e-02
4.875999999999999801e+01,5.071543104214233655e-02
4.879999999999999716e+01,4.273701982052705711e-02
4.884000000000000341e+01,5.586552193679845263e-02
4.888000000000000256e+01,4.742405833724618741e-02
4.892000000000000171e+01,4.861722238640552030e-02
4.896000000000000085e+01,4.613716754465106012e-02
4.900000000000000000e+01,4.365501919456318131e-02
4.903999999999999915e+01,5.493750764543901127e-02
4.907999999999999829e+01,1.006347302020640655e-01
4.911999999999999744e+01,5.730496839699431022e-02
4.915999999999999659e+01,6.491001412348601507e-02
4.920000000000000284e+01,7.067738340111218154e-02
4.924000000000000199e+01,3.422465284132561458e-02
4.928000000000000114e+01,3.769333157527743339e-02
4.932000000000000028e+01,5.722107700359341936e-02
4.935999999999999943e+01,6.297996179747536449e-02
4.939999999999999858e+01,5.451109114221037305e-02
4.943999999999999773e+01,5.888903820504037823e-02
4.947999999999999687e+01,5.546369831781887416e-02
4.952000000000000313e+01,5.524845499164739854e-02
4.956000000000000227e+01,3.942876809050991499e-02
4.960000000000000142e+01,7.041382802515676331e-02
4.964000000000000057e+01,5.596651337435926826e-02
4.967999999999999972e+01,5.436599435157450644e-02
4.971999999999999886e+01,5.368109781627518340e-02
4.975999999999999801e+01,5.391182008678088028e-02
4.979999999999999716e+01,4.817479048592256813e-02
4.984000000000000341e+01,6.216790878184436098e-02
4.988000000000000256e+01,6.239211858148760448e-02
4.992000000000000171e+01,6.399082359324702318e-02
4.996000000000000085e+01,5.136172161233461264e-02
5.000000000000000000e+01,7.819507152188182042e-02
5.003999999999999915e+01,5.317153416672491806e-02
5.007999999999999829e+01,6.623376793956918529e-02
5.011999999999999744e+01,5.956148639662926098e-02
5.015999999999999659e+01,6.711262970063561206e-02
5.020000000000000284e+01,5.997705278885546304e-02
5.024000000000000199e+01,3.861364311264105231e-02
5.028000000000000114e+01,5.028818369266754157e-02
5.032000000000000028e+01,5.002933981006198877e-02
5.035999999999999943e+01,4.104934571437193064e-02
5.039999999999999858e+01,2.518376225604741434e-02
5.043999999999999773e+01,5.336950152002453707e-02
5.047999999999999687e+01,5.126619627334483981e-02
5.052000000000000313e+01,6.155071820635798358e-02
5.056000000000000227e+01,6.449074491698271461e-02
5.060000000000000142e+01,8.257193824213503175e-02
5.064000000000000057e+01,6.072735853622501789e-02
5.067999999999999972e+01,7.605071246704572796e-02
5.071999999999999886e+01,6.429723772835566065e-02
5.075999999999999801e+01,6.630824147837410809e-02
5.079999999999999716e+01,4.629021165887937245e-02
5.084000000000000341e+01,5.839229828603559325e-02
5.088000000000000256e+01,3.653417452147092459e-02
5.092000000000000171e+01,4.358392190896830803e-02
5.096000000000000085e+01,4.328913725727389500e-02
5.100000000000000000e+01,6.180661146756408902e-02
5.103999999999999915e+01,7.022619947710606603e-02
5.107999999999999829e+01,4.284999415439522119e-02
5.111999999999999744e+01,6.136061349755009275e-02
5.115999999999999659e+01,5.462992820484074974e-02
5.120000000000000284e+01,4.881472917744361650e-02
5.124000000000000199e+01,3.381940780696176402e-02
5.128000000000000114e+01,6.562867864168955845e-02
5.132000000000000028e+01,4.833429119613735780e-02
5.135999999999999943e+01,6.591331913358709771e-02
5.139999999999999858e+01,4.356650408804768615e-02
5.143999999999999773e+01,6.389424632370332979e-02
5.147999999999999687e+01,7.091182392889892883e-02
5.152000000000000313e+01,6.461923322195395336e-02
5.156000000000000227e+01,5.511207544790493879e-02
5.160000000000000142e+01,6.625268584276576556e-02
5.164000000000000057e+01,6.500089914651012435e-02
5.167999999999999972e+01,5.502784074171848672e-02
5.171999999999999886e+01,4.780578527252491577e-02
5.175999999999999801e+01,6.995041477313868050e-02
5.179999999999999716e+01,4.712136201060151963e-02
5.184000000000000341e+01,5.962457158393459633e-02
5.188000000000000256e+01,7.212542256794873818e-02
5.192000000000000171e+01,8.187056448276819332e-02
5.196000000000000085e+01,5.581983206836705486e-02
5.200000000000000000e+01,6.601912952917982080e-02
5.203999999999999915e+01,5.189482362322554720e-02
5.207999999999999829e+01,7.815056042641765899e-02
5.211999999999999744e+01,6.631595250850490231e-02
5.215999999999999659e+01,6.641012968835779962e-02
5.220000000000000284e+01,6.879637449061200283e-02
5.224000000000000199e+01,6.016684037564232201e-02
5.228000000000000114e+01,4.556932612512672870e-02
5.232000000000000028e+01,6.676292116334965610e-02
5.235999999999999943e+01,7.005735924381889523e-02
5.239999999999999858e+01,6.095933028124515124e-02
5.243999999999999773e+01,7.388566557139136792e-02
5.247999999999999687e+01,6.661837719358006116e-02
5.252000000000000313e+01,7.127984077841130472e-02
5.256000000000000227e+01,5.299432653372881247e-02
5.260000000000000142e+01,3.608306082857880986e-02
5.264000000000000057e+01,4.440837889897528840e-02
5.267999999999999972e+01,7.659360366413989207e-02
5.271999999999999886e+01,5.462723882685392718e-02
5.275999999999999801e+01,5.101407972458454204e-02
5.279999999999999716e+01,7.171970740507510600e-02
5.284000000000000341e+01,6.947833148428926575e-02
5.288000000000000256e+01,6.356337586791510619e-02
5.292000000000000171e+01,4.709146987878377183e-02
5.296000000000000085e+01,5.677390047782097243e-02
5.300000000000000000e+01,6.874832506565242696e-02
5.303999999999999915e+01,7.842582863027204587e-02
5.307999999999999829e+01,6.790965330172855918e-02
5.311999999999999744e+01,8.171223530250217026e-02
5.315999999999999659e+01,6.522552612003545969e-02
5.320000000000000284e+01,8.039982503204615161e-02
5.324000000000000199e+01,5.151809140647844315e-02
5.328000000000000114e+01,6.531074570480953356e-02
5.332000000000000028e+01,5.294411429047202883e-02
5.335999999999999943e+01,6.397843584930418270e-02
5.339999999999999858e+01,6.904467418554062486e-02
5.343999999999999773e+01,6.951949901659865150e-02
5.347999999999999687e+01,6.402623326170023277e-02
5.352000000000000313e+01,5.853045796858847433e-02
5.356000000000000227e+01,6.771668571262580427e-02
5.360000000000000142e+01,6.313366256411157007e-02
5.364000000000000057e+01,7.415041735545073454e-02
5.367999999999999972e+01,6.176120009719362342e-02
5.371999999999999886e+01,6.405397114936411951e-02
5.375999999999999801e+01,5.716638791258761565e-02
5.379999999999999716e+01,4.431068463641180122e-02
5.384000000000000341e+01,5.531478128627397711e-02
5.388000000000000256e+01,5.438516580395261896e-02
5.392000000000000171e+01,5.391189509964704890e-02
5.396000000000000085e+01,6.123722362019823340e-02
5.400000000000000000e+01,6.488886935811115364e-02
5.403999999999999915e+01,7.679799809055266879e-02
5.407999999999999829e+01,7.402004948421345154e-02
5.411999999999999744e+01,7.766401197691177871e-02
5.415999999999999659e+01,6.937423656566406305e-02
5.420000000000000284e+01,7.209527622041894679e-02
5.424000000000000199e+01,4.911583661688997265e-02
5.428000000000000114e+01,8.808412048261905769e-02
5.432000000000000028e+01,7.244177634565079904e-02
5.435999999999999943e+01,6.230353895157290933e-02
5.439999999999999858e+01,8.382619920156189619e-02
5.443999999999999773e+01,7.001164799118084203e-02
5.447999999999999687e+01,4.977002301980196913e-02
5.452000000000000313e+01,7.449712750539383421e-02
5.456000000000000227e+01,5.333251342582521343e-02
5.460000000000000142e+01,8.080775050412718208e-02
5.464000000000000057e+01,8.074690697521132166e-02
5.467999999999999972e+01,8.114233827238442887e-02
5.471999999999999886e+01,6.593285105782605016e-02
5.475999999999999801e+01,5.393297810419162702e-02
5.479999999999999716e+01,6.579281671626653616e-02
5.484000000000000341e+01,5.975327010640592990e-02
5.488000000000000256e+01,5.646443557939571228e-02
5.492000000000000171e+01,7.565862817395602180e-02
5.496000000000000085e+01,5.492665011597608338e-02
5.500000000000000000e+01,4.979432482071744631e-02
5.503999999999999915e+01,6.760390673502111869e-02
5.507999999999999829e+01,5.512402074542755576e-02
5.511999999999999744e+01,5.778488534048160236e-02
5.515999999999999659e+01,5.447750471900451863e-02
5.520000000000000284e+01,6.493419391971660959e-02
5.524000000000000199e+01,5.795035221472229214e-02
5.528000000000000114e+01,5.279940350970948465e-02
5.532000000000000028e+01,6.921366284339865171e-02
5.535999999999999943e+01,5.442064623536294748e-02
5.539999999999999858e+01,6.991176183028754987e-02
5.543999999999999773e+01,7.346902170749508576e-02
5.547999999999999687e+01,5.958572858891389434e-02
5.552000000000000313e+01,7.736323002734972476e-02
5.556000000000000227e+01,5.934452578533320338e-02
5.560000000000000142e+01,6.334989494328879811e-02
5.564000000000000057e+01,7.974262002585195963e-02
5.567999999999999972e+01,5.666799931866115664e-02
5.571999999999999886e+01,5.974746116369458043e-02
5.575999999999999801e+01,6.420088069551276033e-02
5.579999999999999716e+01,6.543934290210931537e-02
5.584000000000000341e+01,7.126399336335807744e-02
5.588000000000000256e+01,5.460025154865634500e-02
5.592000000000000171e+01,5.766609801532102120e-02
5.596000000000000085e+01,5.659919016397774172e-02
5.600000000000000000e+01,6.057734697359758169e-02
5.603999999999999915e+01,6.179941550094650987e-02
5.607999999999999829e+01,5.934760979827900795e-02
5.611999999999999744e+01,4.404410352326289940e-02
5.615999999999999659e+01,4.479903437527054527e-02
5.620000000000000284e+01,7.308467699843622378e-02
5.624000000000000199e+01,5.731401095799681933e-02
5.628000000000000114e+01,4.154058134339981556e-02
5.632000000000000028e+01,6.614680417983181959e-02
5.635999999999999943e+01,6.964126395924685742e-02
5.639999999999999858e+01,7.221516685339804398e-02
5.643999999999999773e+01,6.927959785027923423e-02
5.647999999999999687e+01,6.588235573156857317e-02
5.652000000000000313e+01,6.156454568255281812e-02
5.656000000000000227e+01,5.540838175548671446e-02
5.660000000000000142e+01,7.540621938367715604e-02
5.664000000000000057e+01,6.236109872424118461e-02
5.667999999999999972e+01,7.042216979334268989e-02
5.671999999999999886e+01,6.976150526218360959e-02
5.675999999999999801e+01,5.900242804998604568e-02
5.679999999999999716e+01,6.384283792489378606e-02
5.684000000000000341e+01,6.409152135179331522e-02
5.688000000000000256e+01,6.800851504359055333e-02
5.692000000000000171e+01,8.477163797925664490e-02
5.696000000000000085e+01,9.281300322458009566e-02
5.700000000000000000e+01,4.853794945978565784e-02
5.703999999999999915e+01,7.217594985772855798e-02
5.707999999999999829e+01,5.451091107497457733e-02
5.711999999999999744e+01,7.997879790783804510e-02
5.715999999999999659e+01,6.735587612787220790e-02
5.720000000000000284e+01,7.446242481550136016e-02
5.724000000000000199e+01,8.248390383470954879e-02
5.728000000000000114e+01,5.470901886121023322e-02
5.732000000000000028e+01,6.134810956730749054e-02
5.735999999999999943e+01,6.385431709658440091e-02
5.739999999999999858e+01,5.763872643703479848e-02
5.743999999999999773e+01,7.895373341655206878e-02
5.747999999999999687e+01,7.319128952257900056e-02
5.752000000000000313e+01,7.017931472055284614e-02
5.756000000000000227e+01,7.404782552608642210e-02
5.760000000000000142e+01,6.873562860135910835e-02
5.764000000000000057e+01,4.368822420494139491e-02
5.767999999999999972e+01,7.737599240372375342e-02
5.771999999999999886e+01,5.002834379452276298e-02
5.775999999999999801e+01,4.654013430668518803e-02
5.779999999999999716e+01,5.498019079968374800e-02
5.784000000000000341e+01,6.800625146331658322e-02
5.788000000000000256e+01,4.661256630813426227e-02
5.792000000000000171e+01,6.422171293766917866e-02
5.796000000000000085e+01,3.547993692618099659e-02
5.800000000000000000e+01,6.593219518948283120e-02
5.803999999999999915e+01,7.710810029732313720e-02
5.807999999999999829e+01,6.487762837072851008e-02
5.811999999999999744e+01,6.778763090275510828e-02
5.815999999999999659e+01,8.400253967959220303e-02
5.820000000000000284e+01,6.120876185384562657e-02
5.824000000000000199e+01,5.493212084077685881e-02
5.828000000000000114e+01,6.058370162837994205e-02
5.832000000000000028e+01,7.586904486981159434e-02
5.835999999999999943e+01,5.122790451587284910e-02
5.839999999999999858e+01,7.293180989500826217e-02
5.843999999999999773e+01,3.818914352623971331e-02
5.847999999999999687e+01,5.896933818783633985e-02
5.852000000000000313e+01,4.670640152282982960e-02
5.856000000000000227e+01,4.866611655189546914e-02
5.860000000000000142e+01,4.878728993721290902e-02
5.864000000000000057e+01,6.175443425414397364e-02
5.867999999999999972e+01,7.793083202732431491e-02
5.871999999999999886e+01,6.978301159311879609e-02
5.875999999999999801e+01,4.786546532959636002e-02
5.879999999999999716e+01,5.623173832620435852e-02
5.884000000000000341e+01,5.495829832742792770e-02
5.888000000000000256e+01,7.433195643173710898e-02
5.892000000000000171e+01,6.112133752567213557e-02
5.896000000000000085e+01,8.278343448334191113e-02
5.900000000000000000e+01,6.038896874146260085e-02
5.903999999999999915e+01,7.332610263298988684e-02
5.907999999999999829e+01,3.715886399824874786e-02
5.911999999999999744e+01,5.834999201911755112e-02
5.915999999999999659e+01,7.036026872419159917e-02
5.920000000000000284e+01,7.135412589966035057e-02
5.924000000000000199e+01,7.142716479056028522e-02
5.928000000000000114e+01,6.048377678849414102e-02
5.932000000000000028e+01,5.137290993669391820e-02
5.935999999999999943e+01,6.703911720510814798e-02
5.939999999999999858e+01,5.792215254453805112e-02
5.943999999999999773e+01,5.293215365435550990e-02
5.947999999999999687e+01,5.665802818320622714e-02
5.952000000000000313e+01,5.074412712810662252e-02
5.956000000000000227e+01,6.272391478933092568e-02
5.960000000000000142e+01,3.890712492038722603e-02
5.964000000000000057e+01,5.592857305603588652e-02
5.967999999999999972e+01,5.642686388552395349e-02
5.971999999999999886e+01,5.141538091995307563e-02
5.975999999999999801e+01,5.144861653739232071e-02
5.979999999999999716e+01,6.983440991410613807e-02
5.984000000000000341e+01,7.032035785884019341e-02
5.988000000000000256e+01,5.795425915327274968e-02
5.992000000000000171e+01,4.696173523973330710e-02
5.996000000000000085e+01,6.441735928546366008e-02
