2.003999999999999915e+01,1.872580407491029886e-02
2.007999999999999829e+01,2.415090913765623182e-02
2.012000000000000099e+01,4.088696530451501471e-02
2.016000000000000014e+01,1.614285629109969353e-02
2.019999999999999929e+01,2.415609374036478338e-02
2.023999999999999844e+01,3.593869943964274338e-02
2.028000000000000114e+01,4.135666592615160758e-02
2.032000000000000028e+01,2.461979451214423020e-02
2.035999999999999943e+01,2.720682266265124147e-02
2.039999999999999858e+01,3.356322632429872832e-02
2.044000000000000128e+01,4.038956243113900335e-02
2.048000000000000043e+01,4.603611035783835431e-02
2.051999999999999957e+01,5.026719728530574388e-02
2.055999999999999872e+01,4.671960990073619618e-02
2.060000000000000142e+01,5.141922515681476152e-02
2.064000000000000057e+01,4.456937558144325601e-02
2.067999999999999972e+01,1.391498200247776214e-02
2.071999999999999886e+01,3.722867557847947539e-02
2.076000000000000156e+01,4.003727366268106103e-02
2.080000000000000071e+01,4.732228931396346983e-02
2.083999999999999986e+01,3.410221310400939065e-02
2.087999999999999901e+01,3.290014639165438765e-02
2.092000000000000171e+01,2.957561292976564754e-02
2.096000000000000085e+01,4.816742723972992912e-02
2.100000000000000000e+01,3.753419547776340459e-02
2.103999999999999915e+01,2.030068435901102170e-02
2.107999999999999829e+01,3.818130598287769462e-02
2.112000000000000099e+01,3.343577674311917075e-02
2.116000000000000014e+01,2.916021262362814351e-02
2.119999999999999929e+01,3.760969642711216310e-02
2.123999999999999844e+01,3.804486214397882760e-02
2.128000000000000114e+01,2.504519499891756998e-02
2.132000000000000028e+01,5.611530759436272192e-02
2.135999999999999943e+01,5.418959630543727229e-02
2.139999999999999858e+01,2.563127807550954693e-02
2.144000000000000128e+01,2.181742501330098671e-02
2.148000000000000043e+01,2.813621160293177520e-02
2.151999999999999957e+01,3.846009916597079720e-02
2.155999999999999872e+01,1.720221972729041315e-02
2.160000000000000142e+01,4.991246737978018849e-02
2.164000000000000057e+01,2.653078968626232034e-02
2.167999999999999972e+01,3.496382708336259054e-02
2.171999999999999886e+01,5.423653892711431668e-02
2.176000000000000156e+01,4.451991382366568550e-02
2.180000000000000071e+01,1.759768530697726485e-02
2.183999999999999986e+01,5.760569966369699646e-02
2.187999999999999901e+01,5.495525372539480924e-02
2.192000000000000171e+01,1.907333468229547788e-02
2.196000000000000085e+01,3.386011418667349976e-02
2.200000000000000000e+01,3.167697398859507796e-02
2.203999999999999915e+01,3.868380031880880310e-02
2.207999999999999829e+01,5.134547547699280096e-02
2.212000000000000099e+01,4.515183930357759279e-02
2.216000000000000014e+01,4.909087364179456903e-02
2.219999999999999929e+01,4.477995882578682252e-02
2.223999999999999844e+01,5.272278986133757672e-02
2.228000000000000114e+01,3.874654657956006637e-02
2.232000000000000028e+01,1.746305812689808237e-02
2.235999999999999943e+01,4.614126247141209225e-02
2.239999999999999858e+01,2.179134620713211665e-02
2.244000000000000128e+01,3.726911709252814231e-02
2.248000000000000043e+01,3.294889444636785875e-02
2.251999999999999957e+01,2.438520595258944490e-02
2.255999999999999872e+01,4.975734419499352329e-02
2.260000000000000142e+01,2.304406944250740261e-02
2.264000000000000057e+01,4.087198360357868765e-02
2.267999999999999972e+01,2.334738744084757095e-02
2.271999999999999886e+01,5.107100772535825423e-02
2.276000000000000156e+01,3.165838959795160001e-02
2.280000000000000071e+01,3.463355201411418699e-02
2.283999999999999986e+01,3.666470798614374776e-02
2.287999999999999901e+01,2.691082614813787577e-02
2.292000000000000171e+01,4.166580200890933339e-02
2.296000000000000085e+01,5.759784858075574221e-02
2.300000000000000000e+01,3.040013641672714012e-02
2.303999999999999915e+01,2.865398593481568307e-02
2.307999999999999829e+01,1.276606037554289634e-02
2.312000000000000099e+01,3.411343184762991032e-02
2.316000000000000014e+01,4.014065870105139322e-02
2.319999999999999929e+01,2.000670956990514143e-02
2.323999999999999844e+01,2.037516387544037466e-02
2.328000000000000114e+01,2.969796634863435675e-02
2.332000000000000028e+01,2.205090902367546832e-02
2.335999999999999943e+01,3.655598302185947279e-02
2.339999999999999858e+01,4.045441598054080878e-02
2.344000000000000128e+01,3.421755898374906346e-02
2.348000000000000043e+01,2.797942312482965335e-02
2.351999999999999957e+01,4.436477511892774478e-02
2.355999999999999872e+01,2.893277624102960632e-02
2.360000000000000142e+01,3.306049859985637357e-02
2.364000000000000057e+01,3.341615520770599423e-02
2.367999999999999972e+01,4.649697228601074039e-02
2.371999999999999886e+01,3.789445503151071121e-02
2.376000000000000156e+01,1.750693990317787885e-02
2.380000000000000071e+01,3.576880047223897352e-02
2.383999999999999986e+01,4.059594435741627899e-02
2.387999999999999901e+01,3.387377044898016998e-02
2.392000000000000171e+01,1.819470154032186426e-02
2.396000000000000085e+01,2.773156143089177544e-02
2.400000000000000000e+01,4.292335728296493153e-02
2.403999999999999915e+01,3.313238844325865073e-02
2.407999999999999829e+01,4.667195677363782103e-02
2.412000000000000099e+01,4.489142405211783704e-02
2.416000000000000014e+01,5.889984383129277107e-02
2.419999999999999929e+01,4.580443447045372263e-02
2.423999999999999844e+01,4.708393343463194991e-02
2.428000000000000114e+01,5.189730935792482430e-02
2.432000000000000028e+01,2.347932109333676978e-02
2.435999999999999943e+01,4.290204468065949434e-02
2.439999999999999858e+01,4.158416333246426483e-02
2.444000000000000128e+01,3.578722863581012409e-02
2.448000000000000043e+01,2.857501265283528616e-02
2.451999999999999957e+01,3.102422501437977070e-02
2.455999999999999872e+01,3.441490606390310708e-02
2.460000000000000142e+01,4.558162201352092269e-02
2.464000000000000057e+01,4.755580100361812140e-02
2.467999999999999972e+01,4.905740632129830525e-02
2.471999999999999886e+01,4.843671734122881323e-02
2.476000000000000156e+01,4.333698953495583595e-02
2.480000000000000071e+01,4.648465497393412804e-02
2.483999999999999986e+01,4.963110327037062453e-02
2.487999999999999901e+01,4.217097769273636665e-02
2.492000000000000171e+01,3.400261470000352781e-02
2.496000000000000085e+01,4.421566149171341636e-02
2.500000000000000000e+01,3.910864716772678024e-02
2.503999999999999915e+01,3.117232916512525931e-02
2.507999999999999829e+01,2.653424979290361363e-02
2.512000000000000099e+01,5.017592210994260143e-02
2.516000000000000014e+01,3.186630688819896279e-02
2.519999999999999929e+01,3.665160503006131831e-02
2.523999999999999844e+01,3.059467100101667322e-02
2.528000000000000114e+01,2.783598467876160359e-02
2.532000000000000028e+01,3.945225569413601807e-02
2.535999999999999943e+01,3.692685510321927489e-02
2.539999999999999858e+01,2.615165058063270015e-02
2.544000000000000128e+01,3.635029860398143742e-02
2.548000000000000043e+01,3.971319413246569840e-02
2.551999999999999957e+01,3.529764044387316557e-02
2.555999999999999872e+01,4.195761010337159536e-02
2.560000000000000142e+01,3.518294295139128003e-02
2.564000000000000057e+01,3.335626228435278895e-02
2.567999999999999972e+01,5.509586603305074298e-02
2.571999999999999886e+01,4.643226474121820574e-02
2.576000000000000156e+01,4.672312416452428091e-02
2.580000000000000071e+01,6.303868514945802637e-02
2.583999999999999986e+01,2.161278895237265379e-02
2.587999999999999901e+01,2.614227651292273802e-02
2.592000000000000171e+01,3.915488278099183567e-02
2.596000000000000085e+01,4.061826565010830808e-02
2.600000000000000000e+01,2.251948936685244096e-02
2.603999999999999915e+01,4.000642018992244670e-02
2.607999999999999829e+01,2.355504279439592924e-02
2.612000000000000099e+01,2.572080246086197106e-02
2.616000000000000014e+01,4.037616051088945002e-02
2.619999999999999929e+01,2.486400993814332980e-02
2.623999999999999844e+01,3.598193944193719962e-02
2.628000000000000114e+01,2.848042103782636933e-02
2.632000000000000028e+01,2.851934095655984935e-02
2.635999999999999943e+01,5.188890151644885013e-02
2.639999999999999858e+01,3.660667569252536169e-02
2.644000000000000128e+01,4.276969706533264443e-02
2.648000000000000043e+01,4.751752791591616620e-02
2.651999999999999957e+01,1.620599880664217937e-02
2.655999999999999872e+01,3.226393212103798036e-02
2.660000000000000142e+01,4.431425938094640110e-02
2.664000000000000057e+01,4.882186288604577207e-02
2.667999999999999972e+01,3.329598882981843477e-02
2.671999999999999886e+01,4.887803468661195555e-02
2.676000000000000156e+01,1.520295195031977006e-02
2.680000000000000071e+01,3.573190692622258552e-02
2.683999999999999986e+01,4.518302770812229058e-02
2.687999999999999901e+01,3.412933073635798786e-02
2.692000000000000171e+01,3.226582175728181373e-02
2.696000000000000085e+01,3.747143087681371193e-02
2.700000000000000000e+01,2.122952915103302335e-02
2.703999999999999915e+01,3.774528430114368338e-02
2.707999999999999829e+01,1.938007807721188122e-02
2.712000000000000099e+01,2.953038894101119374e-02
2.716000000000000014e+01,2.742450696119508313e-02
2.719999999999999929e+01,3.238775397167850678e-02
2.723999999999999844e+01,7.419214191092224006e-03
2.728000000000000114e+01,2.793477243426215756e-02
2.732000000000000028e+01,2.323204020439774073e-02
2.735999999999999943e+01,3.714650131026570740e-02
2.739999999999999858e+01,4.116152680794572805e-02
2.744000000000000128e+01,2.443608533153507692e-02
2.748000000000000043e+01,2.962728751793285153e-02
2.751999999999999957e+01,4.919354688246632690e-02
2.755999999999999872e+01,3.529291446258218945e-02
2.760000000000000142e+01,2.799007991706977533e-02
2.764000000000000057e+01,2.115750456749816363e-02
2.767999999999999972e+01,3.624158195714457381e-02
2.771999999999999886e+01,3.341330069215675547e-02
2.776000000000000156e+01,2.304234650025408990e-02
2.780000000000000071e+01,3.317400268717377726e-02
2.783999999999999986e+01,2.515763103093153139e-02
2.787999999999999901e+01,2.633149093414400774e-02
2.792000000000000171e+01,3.481018713710448687e-02
2.796000000000000085e+01,2.867598045835251241e-02
2.800000000000000000e+01,5.294272787852246503e-02
2.803999999999999915e+01,3.572966772895655452e-02
2.807999999999999829e+01,2.582145114026625915e-02
2.812000000000000099e+01,2.793157261520525653e-02
2.816000000000000014e+01,3.074765151912362340e-02
2.819999999999999929e+01,2.814214917359066093e-02
2.823999999999999844e+01,4.085443521876261364e-02
2.828000000000000114e+01,2.929117289516100162e-02
2.832000000000000028e+01,4.317971187089200691e-02
2.835999999999999943e+01,4.858290661144284983e-02
2.839999999999999858e+01,5.044992625394054131e-02
2.844000000000000128e+01,3.251922284189023155e-02
2.848000000000000043e+01,4.876028946212238729e-02
2.851999999999999957e+01,3.931177079903135779e-02
2.855999999999999872e+01,3.528272040521069491e-02
2.860000000000000142e+01,1.640512153981477789e-02
2.864000000000000057e+01,1.732314727104116228e-02
2.867999999999999972e+01,2.578171842674594275e-02
2.871999999999999886e+01,3.117547827540005298e-02
2.876000000000000156e+01,2.242772081672768716e-02
2.880000000000000071e+01,4.738039864384611943e-02
2.883999999999999986e+01,3.014628130374661513e-02
2.887999999999999901e+01,4.166343555815661681e-02
2.892000000000000171e+01,2.843372121955685741e-02
2.896000000000000085e+01,3.170020111860499118e-02
2.900000000000000000e+01,3.119485851445520305e-02
2.903999999999999915e+01,5.072083329412069991e-02
2.907999999999999829e+01,2.923839697012757533e-02
2.912000000000000099e+01,2.590188458552489595e-02
2.916000000000000014e+01,4.212534576183604024e-02
2.919999999999999929e+01,4.562135740516325838e-02
2.923999999999999844e+01,4.463853353386369044e-02
2.928000000000000114e+01,3.776282815697775547e-02
2.932000000000000028e+01,2.358019528354593150e-02
2.935999999999999943e+01,4.451207091609350741e-02
2.939999999999999858e+01,2.985606655783018190e-02
2.944000000000000128e+01,1.755580015818329620e-02
2.948000000000000043e+01,2.363714866983791449e-02
2.951999999999999957e+01,2.123320558948838671e-02
2.955999999999999872e+01,3.485413470726852342e-02
2.960000000000000142e+01,4.800271343230996801e-02
2.964000000000000057e+01,4.088227429251431455e-02
2.967999999999999972e+01,3.399651229366473099e-02
2.971999999999999886e+01,4.384265365719311469e-02
2.976000000000000156e+01,6.075804018906491577e-02
2.980000000000000071e+01,6.848112393278552035e-02
2.983999999999999986e+01,7.361079646609691718e-02
2.987999999999999901e+01,7.544003570116020185e-02
2.992000000000000171e+01,6.454185807831440413e-02
2.996000000000000085e+01,7.815285764386623035e-02
3.000000000000000000e+01,6.183219567280188317e-02
3.003999999999999915e+01,3.891166278338731299e-02
3.007999999999999829e+01,6.595317304056214081e-02
3.012000000000000099e+01,3.761016669462065309e-02
3.016000000000000014e+01,5.074492028838382962e-02
3.019999999999999929e+01,6.364302535301089025e-02
3.023999999999999844e+01,4.001059001025330381e-02
3.028000000000000114e+01,4.206571955001678353e-02
3.032000000000000028e+01,3.327884745967903818e-02
3.035999999999999943e+01,2.566938190757449278e-02
3.039999999999999858e+01,1.688057836524922695e-02
3.044000000000000128e+01,1.162593133545660774e-02
3.048000000000000043e+01,2.616699240525536055e-02
3.051999999999999957e+01,1.761097993393669417e-02
3.055999999999999872e+01,3.403552114899194986e-02
3.060000000000000142e+01,5.564394857832267310e-02
3.064000000000000057e+01,1.691871568135704107e-02
3.067999999999999972e+01,1.778586924777265585e-02
3.071999999999999886e+01,3.184985204301111344e-02
3.076000000000000156e+01,3.460050390750256388e-02
3.080000000000000071e+01,3.758588374083413064e-02
3.083999999999999986e+01,3.750654847705763711e-02
3.087999999999999901e+01,3.789761944705871688e-02
3.092000000000000171e+01,1.401326185689396459e-02
3.096000000000000085e+01,3.867693954327979661e-02
3.100000000000000000e+01,4.047924010630510328e-02
3.103999999999999915e+01,2.248393560810826169e-02
3.107999999999999829e+01,3.276865327618051077e-02
3.112000000000000099e+01,2.631953976045091348e-02
3.116000000000000014e+01,9.735486638661495010e-03
3.119999999999999929e+01,2.425955674146984889e-02
3.123999999999999844e+01,3.241948501875948491e-02
3.128000000000000114e+01,3.562932109205377285e-02
3.132000000000000028e+01,3.624581312037045838e-02
3.135999999999999943e+01,3.544733609085925358e-02
3.139999999999999858e+01,3.724036060315298602e-02
3.144000000000000128e+01,1.923579820704380064e-02
3.148000000000000043e+01,3.964528540808683749e-02
3.151999999999999957e+01,2.941615615010647819e-02
3.155999999999999872e+01,1.871476544820221966e-02
3.160000000000000142e+01,1.861782293321414053e-02
3.164000000000000057e+01,3.407449774226900541e-02
3.167999999999999972e+01,3.633248629707292593e-02
3.171999999999999886e+01,4.330306262529926009e-02
3.176000000000000156e+01,3.495388462047625822e-02
3.180000000000000071e+01,1.340602580724799438e-02
3.183999999999999986e+01,9.532865103834565687e-03
3.187999999999999901e+01,2.380575359426526094e-02
3.192000000000000171e+01,2.605833989400427320e-02
3.196000000000000085e+01,2.218249167767303437e-02
3.200000000000000000e+01,1.665602881365131627e-02
3.203999999999999915e+01,1.160002482658324674e-02
3.207999999999999829e+01,2.987492106598753014e-02
3.211999999999999744e+01,3.754357199735133127e-02
3.215999999999999659e+01,4.332594090777881768e-02
3.220000000000000284e+01,2.271186763770028857e-02
3.224000000000000199e+01,2.802112283333102472e-02
3.228000000000000114e+01,3.285814926011283027e-02
3.232000000000000028e+01,2.119707359592445245e-02
3.235999999999999943e+01,2.414694939335963741e-02
3.239999999999999858e+01,1.955436283658443242e-02
3.243999999999999773e+01,2.485923868452520266e-02
3.247999999999999687e+01,2.002923483070994173e-02
3.252000000000000313e+01,1.944050578720892333e-02
3.256000000000000227e+01,1.225202018811932109e-02
3.260000000000000142e+01,3.947116622972528938e-02
3.264000000000000057e+01,4.170793786516795859e-02
3.267999999999999972e+01,3.758063302524143612e-02
3.271999999999999886e+01,2.237576083775641086e-02
3.275999999999999801e+01,3.309424071464592276e-02
3.279999999999999716e+01,2.307249686522414023e-02
3.284000000000000341e+01,3.143252041078636178e-02
3.288000000000000256e+01,1.858097459185399994e-02
3.292000000000000171e+01,2.976739102343534116e-02
3.296000000000000085e+01,4.095295881470774335e-02
3.300000000000000000e+01,1.348703974368680412e-02
3.303999999999999915e+01,3.456925034387719337e-02
3.307999999999999829e+01,2.736966162477533562e-02
3.311999999999999744e+01,2.936054226706174761e-02
3.315999999999999659e+01,1.768145455178146697e-02
3.320000000000000284e+01,2.061335641904550250e-02
3.324000000000000199e+01,3.603517797477352735e-02
3.328000000000000114e+01,3.071679758757340367e-02
3.332000000000000028e+01,1.314250391017590322e-02
3.335999999999999943e+01,2.785480465446846243e-02
3.339999999999999858e+01,2.347663134229381263e-02
3.343999999999999773e+01,9.906320432624016181e-03
3.347999999999999687e+01,1.613185376869057455e-02
3.352000000000000313e+01,3.743974047830407603e-02
3.356000000000000227e+01,2.433830915829569147e-02
3.360000000000000142e+01,1.382847922059861692e-02
3.364000000000000057e+01,1.133076907108702437e-02
3.367999999999999972e+01,9.774941493835551110e-03
3.371999999999999886e+01,2.589389734464995693e-02
3.375999999999999801e+01,2.292239547653450449e-02
3.379999999999999716e+01,2.419222650775505398e-02
3.384000000000000341e+01,2.192612931926558872e-02
3.388000000000000256e+01,9.053866695140848353e-03
3.392000000000000171e+01,3.058929561601536271e-02
3.396000000000000085e+01,3.350562516311691302e-02
3.400000000000000000e+01,2.251634983919892710e-02
3.403999999999999915e+01,2.118893489690075460e-02
3.407999999999999829e+01,2.905203288275712628e-02
3.411999999999999744e+01,2.112413436845114387e-02
3.415999999999999659e+01,2.309377631598436703e-02
3.420000000000000284e+01,3.448961127189167225e-02
3.424000000000000199e+01,2.019612052979221847e-02
3.428000000000000114e+01,1.438612788913630133e-02
3.432000000000000028e+01,3.072876395887319187e-02
3.435999999999999943e+01,2.821664417328290098e-02
3.439999999999999858e+01,2.782481280689544367e-02
3.443999999999999773e+01,2.248303264378560470e-02
3.447999999999999687e+01,2.043991770231024657e-02
3.452000000000000313e+01,3.159380444144159472e-02
3.456000000000000227e+01,3.214155660473050347e-02
3.460000000000000142e+01,1.901940576060249730e-02
3.464000000000000057e+01,1.508779325857608627e-02
3.467999999999999972e+01,1.893267310769190109e-02
3.471999999999999886e+01,3.338214273571477042e-02
3.475999999999999801e+01,2.756282685498829405e-02
3.479999999999999716e+01,2.787028633063478103e-02
3.484000000000000341e+01,1.191543271244662958e-02
3.488000000000000256e+01,3.461045762474856957e-02
3.492000000000000171e+01,3.680102965505532842e-02
3.496000000000000085e+01,1.565905500616599291e-02
3.500000000000000000e+01,1.478434285247380055e-02
3.503999999999999915e+01,1.602994816249544638e-02
3.507999999999999829e+01,3.777849423265158824e-02
3.511999999999999744e+01,1.545513305986481907e-02
3.515999999999999659e+01,2.753951970581739253e-02
3.520000000000000284e+01,2.171188715485768833e-02
3.524000000000000199e+01,2.036132748775721160e-02
3.528000000000000114e+01,1.948137373544709186e-02
3.532000000000000028e+01,2.944171162564665489e-02
3.535999999999999943e+01,5.699837077032166369e-03
3.539999999999999858e+01,3.309862027937243018e-02
3.543999999999999773e+01,4.022864883275623082e-02
3.547999999999999687e+01,2.661857528371840836e-02
3.552000000000000313e+01,4.199574930036509279e-02
3.556000000000000227e+01,2.225667214836596353e-02
3.560000000000000142e+01,2.396325789266090869e-02
3.564000000000000057e+01,2.637614052365722106e-02
3.567999999999999972e+01,3.585853698472337564e-02
3.571999999999999886e+01,3.332080370688170895e-02
3.575999999999999801e+01,1.287107664607491445e-02
3.579999999999999716e+01,2.023023668605827829e-02
3.584000000000000341e+01,2.664598024853775254e-02
3.588000000000000256e+01,3.235398378316872020e-02
3.592000000000000171e+01,1.449380957099647045e-02
3.596000000000000085e+01,3.339816582693803937e-02
3.600000000000000000e+01,1.600791771046710874e-02
3.603999999999999915e+01,2.619089295210446158e-02
3.607999999999999829e+01,3.354506553294089866e-02
3.611999999999999744e+01,3.359261921516040056e-02
3.615999999999999659e+01,1.855629287971695754e-02
3.620000000000000284e+01,3.250724496975095773e-02
3.624000000000000199e+01,3.043162213519156473e-02
3.628000000000000114e+01,2.104938766314295301e-02
3.632000000000000028e+01,1.637994972193949211e-02
3.635999999999999943e+01,2.113680281433445371e-02
3.639999999999999858e+01,3.579129802435696700e-02
3.643999999999999773e+01,3.229815567683358424e-02
3.647999999999999687e+01,1.702059271513282554e-02
3.652000000000000313e+01,1.965361488560700420e-02
3.656000000000000227e+01,2.841349228485924930e-02
3.660000000000000142e+01,3.080947110637210010e-02
3.664000000000000057e+01,2.118536194046169788e-02
3.667999999999999972e+01,3.017886907097458438e-02
3.671999999999999886e+01,2.691661721025462306e-02
3.675999999999999801e+01,6.920790120485642745e-03
3.679999999999999716e+01,3.170246918845266715e-02
3.684000000000000341e+01,1.853985956431290424e-02
3.688000000000000256e+01,2.140245433489687890e-02
3.692000000000000171e+01,2.520707871557768126e-02
3.696000000000000085e+01,1.534190719047570824e-02
3.700000000000000000e+01,2.857218453715055367e-02
3.703999999999999915e+01,2.294782765238778319e-02
3.707999999999999829e+01,2.486439740130974921e-02
3.711999999999999744e+01,1.806034582742164357e-02
3.715999999999999659e+01,2.256801866775944021e-02
3.720000000000000284e+01,2.471828894393751294e-02
3.724000000000000199e+01,2.592520627747944839e-02
3.728000000000000114e+01,3.302333688050072130e-02
3.732000000000000028e+01,3.682137182771390987e-02
3.735999999999999943e+01,3.519824122503869418e-02
3.739999999999999858e+01,3.545986055333795461e-02
3.743999999999999773e+01,2.393710283422617949e-02
3.747999999999999687e+01,4.093033236086666277e-02
3.752000000000000313e+01,4.684621237378071290e-02
3.756000000000000227e+01,4.121339541950320984e-02
3.760000000000000142e+01,3.440156722575327813e-02
3.764000000000000057e+01,3.183124619840518865e-02
3.767999999999999972e+01,5.329910344012094708e-02
3.771999999999999886e+01,4.082918071028333873e-02
3.775999999999999801e+01,3.283644522706686414e-02
3.779999999999999716e+01,2.908522417137988925e-02
3.784000000000000341e+01,3.523171058347014661e-02
3.788000000000000256e+01,3.666407894745792040e-02
3.792000000000000171e+01,5.317900036600537589e-02
3.796000000000000085e+01,3.976262148904188831e-02
3.800000000000000000e+01,3.530125880348904122e-02
3.803999999999999915e+01,5.110729657456036107e-02
3.807999999999999829e+01,4.853009658027154782e-02
3.811999999999999744e+01,4.194581333269268436e-02
3.815999999999999659e+01,6.387754819065885603e-02
3.820000000000000284e+01,7.591033756655939102e-02
3.824000000000000199e+01,6.885287253510685712e-02
3.828000000000000114e+01,1.002097656987353952e-01
3.832000000000000028e+01,8.584517440136076039e-02
3.835999999999999943e+01,7.383672587047417080e-02
3.839999999999999858e+01,9.293672731493354822e-02
3.843999999999999773e+01,8.045572780665007084e-02
3.847999999999999687e+01,8.140758432625842811e-02
3.852000000000000313e+01,7.175348598293591895e-02
3.856000000000000227e+01,7.953871608241984414e-02
3.860000000000000142e+01,7.883906665889894860e-02
3.864000000000000057e+01,6.187727659332718788e-02
3.867999999999999972e+01,9.040010190686306735e-02
3.871999999999999886e+01,8.757761360900324921e-02
3.875999999999999801e+01,7.909834866174922374e-02
3.879999999999999716e+01,9.277191573646470513e-02
3.884000000000000341e+01,8.264176294558465974e-02
3.888000000000000256e+01,8.995095311976653019e-02
3.892000000000000171e+01,1.022087324524928037e-01
3.896000000000000085e+01,9.301954370920513526e-02
3.900000000000000000e+01,1.180026024173489591e-01
3.903999999999999915e+01,1.198889742394275842e-01
3.907999999999999829e+01,1.208320766218390491e-01
3.911999999999999744e+01,1.420426284734869482e-01
3.915999999999999659e+01,1.608958667097900586e-01
3.920000000000000284e+01,1.700858794804494534e-01
3.924000000000000199e+01,1.863455676412709705e-01
3.928000000000000114e+01,1.792729051733453205e-01
3.932000000000000028e+01,1.653651182981046852e-01
3.935999999999999943e+01,1.948209059524024234e-01
3.939999999999999858e+01,2.002373245206781616e-01
3.943999999999999773e+01,2.327557714772794661e-01
3.947999999999999687e+01,2.351073124847096463e-01
3.952000000000000313e+01,2.605544167266784505e-01
3.956000000000000227e+01,2.612551352406323746e-01
3.960000000000000142e+01,2.782168562228550801e-01
3.964000000000000057e+01,3.236946624760544400e-01
3.967999999999999972e+01,3.397125957596132673e-01
3.971999999999999886e+01,3.606791545073550487e-01
3.975999999999999801e+01,3.675046951503023740e-01
3.979999999999999716e+01,4.273564903002058935e-01
3.984000000000000341e+01,4.452576641197970586e-01
3.988000000000000256e+01,4.690501692021933344e-01
3.992000000000000171e+01,5.032118254157746939e-01
3.996000000000000085e+01,5.331308072446612201e-01
4.000000000000000000e+01,5.712978721259343029e-01
4.003999999999999915e+01,6.000374242968583571e-01
4.007999999999999829e+01,6.565860578037394646e-01
4.011999999999999744e+01,6.721267812247759821e-01
4.015999999999999659e+01,7.241965510841559261e-01
4.020000000000000284e+01,7.571761554849973930e-01
4.024000000000000199e+01,7.776644860050428987e-01
4.028000000000000114e+01,8.342105191405302378e-01
4.032000000000000028e+01,8.728447654351931817e-01
4.035999999999999943e+01,8.801337725450197880e-01
4.039999999999999858e+01,9.397420374879104088e-01
4.043999999999999773e+01,9.632915741890573091e-01
4.047999999999999687e+01,9.993313591446987276e-01
4.052000000000000313e+01,9.986053955860387799e-01
4.056000000000000227e+01,1.000000000000000000e+00
4.060000000000000142e+01,9.952665619987889345e-01
4.064000000000000057e+01,9.827553609570722770e-01
4.067999999999999972e+01,9.247584571903602058e-01
4.071999999999999886e+01,9.237943184664396679e-01
4.075999999999999801e+01,8.830006718730535331e-01
4.079999999999999716e+01,8.752009812469179195e-01
4.084000000000000341e+01,8.153167053944548881e-01
4.088000000000000256e+01,7.542535671556377386e-01
4.092000000000000171e+01,7.238276439861816014e-01
4.096000000000000085e+01,6.568716669048993984e-01
4.100000000000000000e+01,6.012275885049087609e-01
4.103999999999999915e+01,5.957817252731314461e-01
4.107999999999999829e+01,5.726597843252598796e-01
4.111999999999999744e+01,5.146575191673050664e-01
4.115999999999999659e+01,4.587758492111999042e-01
4.120000000000000284e+01,4.368308519126593015e-01
4.124000000000000199e+01,3.939103392779221280e-01
4.128000000000000114e+01,3.559385229033635856e-01
4.132000000000000028e+01,3.358775094948120987e-01
4.135999999999999943e+01,3.096884881614450080e-01
4.139999999999999858e+01,2.910405895122117892e-01
4.143999999999999773e+01,2.749846480405490623e-01
4.147999999999999687e+01,2.674125314210781257e-01
4.152000000000000313e+01,2.294379267974413494e-01
4.156000000000000227e+01,2.301135038563777435e-01
4.160000000000000142e+01,2.230113614415752399e-01
4.164000000000000057e+01,2.144947164964022546e-01
4.167999999999999972e+01,1.920728152143411360e-01
4.171999999999999886e+01,1.656439940543640854e-01
4.175999999999999801e+01,1.646675841284498676e-01
4.179999999999999716e+01,1.561491384395798931e-01
4.184000000000000341e+01,1.579999310154278358e-01
4.188000000000000256e+01,1.471238495026652715e-01
4.192000000000000171e+01,1.624072103882139573e-01
4.196000000000000085e+01,1.329119505409099289e-01
4.200000000000000000e+01,1.439522894192691027e-01
4.203999999999999915e+01,1.170485755921729376e-01
4.207999999999999829e+01,1.082913738558143324e-01
4.211999999999999744e+01,1.070753274786642173e-01
4.215999999999999659e+01,1.049161514385559130e-01
4.220000000000000284e+01,9.521495778831122470e-02
4.224000000000000199e+01,1.203931825304555836e-01
4.228000000000000114e+01,1.106911357056927364e-01
4.232000000000000028e+01,1.012243396509673182e-01
4.235999999999999943e+01,9.929870984714206372e-02
4.239999999999999858e+01,9.878670761578593751e-02
4.243999999999999773e+01,1.204277025970554721e-01
4.247999999999999687e+01,1.182651429033855783e-01
4.252000000000000313e+01,1.043184367031103205e-01
4.256000000000000227e+01,1.207733453643817512e-01
4.260000000000000142e+01,1.732860619274474989e-01
4.264000000000000057e+01,2.109508671828972393e-01
4.267999999999999972e+01,2.778389195738715234e-01
4.271999999999999886e+01,3.015981081629648397e-01
4.275999999999999801e+01,3.279493138339326097e-01
4.279999999999999716e+01,3.255478120303713085e-01
4.284000000000000341e+01,3.212605128861504289e-01
4.288000000000000256e+01,2.646530464606068334e-01
4.292000000000000171e+01,2.330266946435551878e-01
4.296000000000000085e+01,1.797178816443092686e-01
4.300000000000000000e+01,1.280583980811352274e-01
4.303999999999999915e+01,1.037367809160343463e-01
4.307999999999999829e+01,9.449795097686293499e-02
4.311999999999999744e+01,8.926520226334479224e-02
4.315999999999999659e+01,5.763650875657079509e-02
4.320000000000000284e+01,6.913588941202739035e-02
4.324000000000000199e+01,5.753877378602192949e-02
4.328000000000000114e+01,5.395421543114829049e-02
4.332000000000000028e+01,5.626114445332619507e-02
4.335999999999999943e+01,6.445956266783768596e-02
4.339999999999999858e+01,5.356796064636568100e-02
4.343999999999999773e+01,4.079058851346307329e-02
4.347999999999999687e+01,5.252300713425216150e-02
4.352000000000000313e+01,3.833084656806996088e-02
4.356000000000000227e+01,5.501169551422980392e-02
4.360000000000000142e+01,4.788904061334447321e-02
4.364000000000000057e+01,4.642221297739251157e-02
4.367999999999999972e+01,4.896149198104095268e-02
4.371999999999999886e+01,6.493386481451476899e-02
4.375999999999999801e+01,7.359996546822120123e-02
4.379999999999999716e+01,5.775554744817130298e-02
4.384000000000000341e+01,4.945236284445316682e-02
4.388000000000000256e+01,4.444827005362438077e-02
4.392000000000000171e+01,3.260926161290312458e-02
4.396000000000000085e+01,4.221629546240041053e-02
4.400000000000000000e+01,5.323702949564417669e-02
4.403999999999999915e+01,5.082396356238122470e-02
4.407999999999999829e+01,4.322571168096861483e-02
4.411999999999999744e+01,3.869088786976342120e-02
4.415999999999999659e+01,4.664647931899051914e-02
4.420000000000000284e+01,5.342335905026449755e-02
4.424000000000000199e+01,4.393835227895855067e-02
4.428000000000000114e+01,3.138924034527478674e-02
4.432000000000000028e+01,3.557269435187541962e-02
4.435999999999999943e+01,4.281958732037499660e-02
4.439999999999999858e+01,5.289424643168193912e-02
4.443999999999999773e+01,5.943345837299163908e-02
4.447999999999999687e+01,5.418861275651102455e-02
4.452000000000000313e+01,5.106451482556271376e-02
4.456000000000000227e+01,5.123953956729673798e-02
4.460000000000000142e+01,6.296230100006995622e-02
4.464000000000000057e+01,5.323835212686399421e-02
4.467999999999999972e+01,5.529781820963484973e-02
4.471999999999999886e+01,5.382184982938189449e-02
4.475999999999999801e+01,4.833909953264007436e-02
4.479999999999999716e+01,4.521278426277781232e-02
4.484000000000000341e+01,6.046878097248011702e-02
4.488000000000000256e+01,5.404240363352125209e-02
4.492000000000000171e+01,6.458429409844937408e-02
4.496000000000000085e+01,4.849464682343502392e-02
4.500000000000000000e+01,6.139267733592396192e-02
4.503999999999999915e+01,5.873588155459228549e-02
4.507999999999999829e+01,5.395771545401581437e-02
4.511999999999999744e+01,5.813488866503447455e-02
4.515999999999999659e+01,7.409549861541309124e-02
4.520000000000000284e+01,6.719537586751811453e-02
4.524000000000000199e+01,7.396409056453559505e-02
4.528000000000000114e+01,6.234989424694129673e-02
4.532000000000000028e+01,7.194612730477760454e-02
4.535999999999999943e+01,6.575187395667532464e-02
4.539999999999999858e+01,7.629023556146967422e-02
4.543999999999999773e+01,8.258617147519449475e-02
4.547999999999999687e+01,8.463968351313159999e-02
4.552000000000000313e+01,7.231676421249934317e-02
4.556000000000000227e+01,9.228099299454735338e-02
4.560000000000000142e+01,8.844180869364692832e-02
4.564000000000000057e+01,8.295262875619580090e-02
4.567999999999999972e+01,9.372472720986772809e-02
4.571999999999999886e+01,1.030825082919265417e-01
4.575999999999999801e+01,9.382172550838320524e-02
4.579999999999999716e+01,1.140200060867288118e-01
4.584000000000000341e+01,1.092365113019496820e-01
4.588000000000000256e+01,1.068095005566623984e-01
4.592000000000000171e+01,1.333702093503627284e-01
4.596000000000000085e+01,1.189232730893810402e-01
4.600000000000000000e+01,1.249797731605021833e-01
4.603999999999999915e+01,1.489472904008987686e-01
4.607999999999999829e+01,1.302574455918441010e-01
4.611999999999999744e+01,1.414980279356810589e-01
4.615999999999999659e+01,1.418973275010631530e-01
4.620000000000000284e+01,1.587936036906070214e-01
4.624000000000000199e+01,1.636702275603920953e-01
4.628000000000000114e+01,1.534634306788437708e-01
4.632000000000000028e+01,1.677665534360045507e-01
4.635999999999999943e+01,1.771202683504594921e-01
4.639999999999999858e+01,1.878877923655771776e-01
4.643999999999999773e+01,1.955913092435414558e-01
4.647999999999999687e+01,1.988167729933928984e-01
4.652000000000000313e+01,2.079338693428508245e-01
4.656000000000000227e+01,2.073880742385410536e-01
4.660000000000000142e+01,2.223965753737181250e-01
4.664000000000000057e+01,2.378761979637550594e-01
4.667999999999999972e+01,2.180043993991507278e-01
4.671999999999999886e+01,2.315981747322705397e-01
4.675999999999999801e+01,2.494338711160734023e-01
4.679999999999999716e+01,2.491224001003515542e-01
4.684000000000000341e+01,2.516388059596351146e-01
4.688000000000000256e+01,2.515625739186136967e-01
4.692000000000000171e+01,2.620914853174896586e-01
4.696000000000000085e+01,2.443392272999048431e-01
4.700000000000000000e+01,2.539250153933049758e-01
4.703999999999999915e+01,2.741159523724481240e-01
4.707999999999999829e+01,2.613122326935049533e-01
4.711999999999999744e+01,2.796173587213696687e-01
4.715999999999999659e+01,2.498446551218030387e-01
4.720000000000000284e+01,2.596650876970569843e-01
4.724000000000000199e+01,2.650075016345547763e-01
4.728000000000000114e+01,2.762415826620156500e-01
4.732000000000000028e+01,2.502388745043576668e-01
4.735999999999999943e+01,2.367267268296866511e-01
4.739999999999999858e+01,2.427753804844919594e-01
4.743999999999999773e+01,2.250207045593177191e-01
4.747999999999999687e+01,2.334257233566437162e-01
4.752000000000000313e+01,2.123712249795882412e-01
4.756000000000000227e+01,2.106418605587632997e-01
4.760000000000000142e+01,2.016063982252367381e-01
4.764000000000000057e+01,1.845578158911698741e-01
4.767999999999999972e+01,1.696301246499083426e-01
4.771999999999999886e+01,1.709638043791484596e-01
4.775999999999999801e+01,1.704119100474070225e-01
4.779999999999999716e+01,1.514772190638156713e-01
4.784000000000000341e+01,1.518676747434283547e-01
4.788000000000000256e+01,1.463660930235544666e-01
4.792000000000000171e+01,1.300233083976309045e-01
4.796000000000000085e+01,1.299419056339006229e-01
4.800000000000000000e+01,1.197263274978053044e-01
4.803999999999999915e+01,1.234153885107314164e-01
4.807999999999999829e+01,1.108427372881432976e-01
4.811999999999999744e+01,1.081682600607898198e-01
4.815999999999999659e+01,1.003087820440439620e-01
4.820000000000000284e+01,7.618759723762984215e-02
4.824000000000000199e+01,8.647475384714781166e-02
4.828000000000000114e+01,8.827747023188921294e-02
4.832000000000000028e+01,6.486284916661230748e-02
4.835999999999999943e+01,8.292681399432046130e-02
4.839999999999999858e+01,6.776050743387258823e-02
4.843999999999999773e+01,5.447945182221323318e-02
4.847999999999999687e+01,5.628142849954446275e-02
4.852000000000000313e+01,4.842060267192296874e-02
4.856000000000000227e+01,6.035630545132739111e-02
4.860000000000000142e+01,5.013845373454346027e-02
4.864000000000000057e+01,4.510530692418771026e-02
4.867999999999999972e+01,6.246111514481307581e-02
4.871999999999999886e+01,4.210884844643993097e-02
4.875999999999999801e+01,4.061042089400822286e-02
4.879999999999999716e+01,5.254531771220749548e-02
4.884000000000000341e+01,5.081095776335868563e-02
4.888000000000000256e+01,3.611436676586449179e-02
4.892000000000000171e+01,4.262836851917514713e-02
4.896000000000000085e+01,3.830121456376640865e-02
4.900000000000000000e+01,4.646469551790412267e-02
4.903999999999999915e+01,3.624543609393193061e-02
4.907999999999999829e+01,2.225526543829340481e-02
4.911999999999999744e+01,2.735462490050725309e-02
4.915999999999999659e+01,3.080414847098077169e-02
4.920000000000000284e+01,3.637463211497308363e-02
4.924000000000000199e+01,2.403373372601243924e-02
4.928000000000000114e+01,3.643856394099757867e-02
4.932000000000000028e+01,2.881094404423139091e-02
4.935999999999999943e+01,1.482000464466307239e-02
4.939999999999999858e+01,2.180400514490922481e-02
4.943999999999999773e+01,2.666683319164149524e-02
4.947999999999999687e+01,2.587337108453819853e-02
4.952000000000000313e+01,2.295874015448487460e-02
4.956000000000000227e+01,2.829262612920075207e-02
4.960000000000000142e+01,2.820590203030041293e-02
4.964000000000000057e+01,1.727805308247362323e-02
4.967999999999999972e+01,2.214031478521620924e-02
4.971999999999999886e+01,1.757550307583764793e-02
4.975999999999999801e+01,3.704941785066743348e-02
4.979999999999999716e+01,2.894931599717464818e-02
4.984000000000000341e+01,3.828905449599402655e-02
4.988000000000000256e+01,2.806771756575630189e-02
4.992000000000000171e+01,9.833364106048495326e-03
4.996000000000000085e+01,2.270798523816605630e-02
5.000000000000000000e+01,2.403447395577374204e-02
5.003999999999999915e+01,2.159009500848157667e-02
5.007999999999999829e+01,9.718658986605647684e-03
5.011999999999999744e+01,2.659945847394699567e-02
5.015999999999999659e+01,1.449220986426180517e-02
5.020000000000000284e+01,1.110485647260389154e-02
5.024000000000000199e+01,2.680708402669252505e-02
5.028000000000000114e+01,1.705638844520394881e-02
5.032000000000000028e+01,3.158011939624447845e-02
5.035999999999999943e+01,2.607144743286394714e-02
5.039999999999999858e+01,1.914867048585664269e-02
5.043999999999999773e+01,1.175448890799887618e-02
5.047999999999999687e+01,7.895373298923315589e-03
5.052000000000000313e+01,1.558426304261341030e-02
5.056000000000000227e+01,1.219639505448800836e-02
5.060000000000000142e+01,1.069387604037552383e-02
5.064000000000000057e+01,0.000000000000000000e+00
5.067999999999999972e+01,1.994378195777742752e-02
5.071999999999999886e+01,2.480434466051632814e-02
5.075999999999999801e+01,1.198926894538922781e-02
5.079999999999999716e+01,1.567137861184642739e-02
5.084000000000000341e+01,7.098370081593782625e-03
5.088000000000000256e+01,1.478687592911566775e-02
5.092000000000000171e+01,2.207329641790020929e-03
5.096000000000000085e+01,1.013144478152721260e-02
5.100000000000000000e+01,1.734850606998741135e-02
5.103999999999999915e+01,1.749530019436604938e-02
5.107999999999999829e+01,1.834909190427305367e-02
5.111999999999999744e+01,2.745147131494466916e-02
5.115999999999999659e+01,1.251501533248320155e-02
5.120000000000000284e+01,1.289738971255749607e-02
5.124000000000000199e+01,1.799323772363861304e-02
5.128000000000000114e+01,6.591844087386855046e-03
5.132000000000000028e+01,1.734385065635025980e-02
5.135999999999999943e+01,9.006198230435373889e-03
5.139999999999999858e+01,9.624170115379346302e-03
5.143999999999999773e+01,2.155451447019992792e-02
5.147999999999999687e+01,2.028707113532737458e-02
5.152000000000000313e+01,1.807692291346935098e-02
5.156000000000000227e+01,2.458673162922442312e-02
5.160000000000000142e+01,2.449764786359224025e-02
5.164000000000000057e+01,1.215348220688882916e-02
5.167999999999999972e+01,2.102003455544379507e-02
5.171999999999999886e+01,1.056126961228422145e-02
5.175999999999999801e+01,1.117921702688316407e-02
5.179999999999999716e+01,1.627498885206248372e-02
5.184000000000000341e+01,1.406485518442541528e-02
5.188000000000000256e+01,2.104604224540402441e-02
5.192000000000000171e+01,2.307807378786577365e-02
5.196000000000000085e+01,1.309071259588545297e-02
5.200000000000000000e+01,2.125031368456253844e-02
5.203999999999999915e+01,1.526945395999916230e-02
5.207999999999999829e+01,1.188103427800105832e-02
5.211999999999999744e+01,1.273477889446533728e-02
5.215999999999999659e+01,1.759501499030014307e-02
5.220000000000000284e+01,2.457634730579893664e-02
5.224000000000000199e+01,1.977397422820281400e-02
5.228000000000000114e+01,1.355758148523083205e-02
5.232000000000000028e+01,1.441145772961372092e-02
5.235999999999999943e+01,1.432266720793181139e-02
5.239999999999999858e+01,2.153982393854228169e-02
5.243999999999999773e+01,2.333649948055383644e-02
5.247999999999999687e+01,1.169975808054701978e-02
5.252000000000000313e+01,1.467488304425916025e-02
5.256000000000000227e+01,1.057980982460322329e-02
5.260000000000000142e+01,1.709013781487927694e-02
5.264000000000000057e+01,1.982971613358131685e-02
5.267999999999999972e+01,2.374771391783615793e-02
5.271999999999999886e+01,1.894579833923569143e-02
5.275999999999999801e+01,1.744337756611418627e-02
5.279999999999999716e+01,2.631069244496086687e-02
5.284000000000000341e+01,3.093591745989587166e-02
5.288000000000000256e+01,1.458615538567741531e-02
5.292000000000000171e+01,2.368931100918174326e-02
5.296000000000000085e+01,3.137847782710310313e-02
5.300000000000000000e+01,2.728397374228625633e-02
5.303999999999999915e+01,2.601762790117477173e-02
5.307999999999999829e+01,2.899348992529195146e-02
5.311999999999999744e+01,3.526886309242549533e-02
5.315999999999999659e+01,3.188164432731075554e-02
5.320000000000000284e+01,2.755179691705186146e-02
5.324000000000000199e+01,1.921555243007427513e-02
5.328000000000000114e+01,1.229342927225225354e-02
5.332000000000000028e+01,2.493237610563292864e-02
5.335999999999999943e+01,2.225254885820908066e-02
5.339999999999999858e+01,2.027982448266582929e-02
5.343999999999999773e+01,1.571475991305507774e-02
5.347999999999999687e+01,2.599727990830321550e-02
5.352000000000000313e+01,2.213940625574254903e-02
5.356000000000000227e+01,2.841562811113323289e-02
5.360000000000000142e+01,2.102280921802604161e-02
5.364000000000000057e+01,1.527980262598534027e-02
5.367999999999999972e+01,1.377903112840240564e-02
5.371999999999999886e+01,2.594748191550213384e-02
5.375999999999999801e+01,2.350420067773750094e-02
5.379999999999999716e+01,2.153236583029919868e-02
5.384000000000000341e+01,3.629352896024592295e-02
5.388000000000000256e+01,2.513058306124237376e-02
5.392000000000000171e+01,1.137531875155457263e-02
5.396000000000000085e+01,2.283734470254624588e-02
5.400000000000000000e+01,3.382812758277958798e-02
5.403999999999999915e+01,2.030885650143198634e-02
5.407999999999999829e+01,2.611501526727024250e-02
5.411999999999999744e+01,2.108025249575879584e-02
5.415999999999999659e+01,1.651695245211111385e-02
5.420000000000000284e+01,3.033638916400072799e-02
5.424000000000000199e+01,2.860141709691502859e-02
5.428000000000000114e+01,1.885362636609015999e-02
5.432000000000000028e+01,1.971131490232050712e-02
5.435999999999999943e+01,2.127614987719788839e-02
5.439999999999999858e+01,3.132539604033211800e-02
5.443999999999999773e+01,2.063540054468200255e-02
5.447999999999999687e+01,2.408601109281841707e-02
5.452000000000000313e+01,2.989349778134467797e-02
5.456000000000000227e+01,2.273901119126024717e-02
5.460000000000000142e+01,2.501164340333670785e-02
5.464000000000000057e+01,1.997849719233228682e-02
5.467999999999999972e+01,2.154437780156963703e-02
5.471999999999999886e+01,2.051797630576143033e-02
5.475999999999999801e+01,2.774032770137395756e-02
5.479999999999999716e+01,2.152936744132031774e-02
5.484000000000000341e+01,2.592391004698698861e-02
5.488000000000000256e+01,2.536943146500017163e-02
5.492000000000000171e+01,3.565613401367104252e-02
5.496000000000000085e+01,2.614631703971702359e-02
5.500000000000000000e+01,3.431224922381829329e-02
5.503999999999999915e+01,2.550976112834152723e-02
5.507999999999999829e+01,2.825548532777091837e-02
5.511999999999999744e+01,2.581652459686475942e-02
5.515999999999999659e+01,2.879823929771587604e-02
5.520000000000000284e+01,2.282447854881803143e-02
5.524000000000000199e+01,2.344977003410910962e-02
5.528000000000000114e+01,2.855304385950900234e-02
5.532000000000000028e+01,3.507053159344295651e-02
5.535999999999999943e+01,3.192552723563511080e-02
5.539999999999999858e+01,2.524557309508019751e-02
5.543999999999999773e+01,2.917114904947475107e-02
5.547999999999999687e+01,3.568931934539900513e-02
5.552000000000000313e+01,2.783151212323770399e-02
5.556000000000000227e+01,2.892951800125661416e-02
5.560000000000000142e+01,2.390016219482876333e-02
5.564000000000000057e+01,3.348281434411079505e-02
5.567999999999999972e+01,2.774679769894072140e-02
5.571999999999999886e+01,2.978822824321058702e-02
5.575999999999999801e+01,3.347956729848952651e-02
5.579999999999999716e+01,2.727275959575423819e-02
5.584000000000000341e+01,2.625098355019560986e-02
5.588000000000000256e+01,3.960555171766472898e-02
5.592000000000000171e+01,4.282630393859195722e-02
5.596000000000000085e+01,3.732728983450066262e-02
5.600000000000000000e+01,3.065009952062710055e-02
5.603999999999999915e+01,4.094168165901842377e-02
5.607999999999999829e+01,3.120112046830549740e-02
5.611999999999999744e+01,2.688127827611615575e-02
5.615999999999999659e+01,3.387402275707181859e-02
5.620000000000000284e+01,3.096863863283268875e-02
5.624000000000000199e+01,2.829913699674432848e-02
5.628000000000000114e+01,3.081468698593376257e-02
5.632000000000000028e+01,2.649588406263063411e-02
5.635999999999999943e+01,2.288431834207136500e-02
5.639999999999999858e+01,3.364912043320503893e-02
5.643999999999999773e+01,2.815258968274899840e-02
5.647999999999999687e+01,4.056754989015356333e-02
5.652000000000000313e+01,3.389308527404931437e-02
5.656000000000000227e+01,2.580479522773629353e-02
5.660000000000000142e+01,3.162153280077897172e-02
5.664000000000000057e+01,3.343202759606737906e-02
5.667999999999999972e+01,2.487306630079705663e-02
5.671999999999999886e+01,3.021913807072803757e-02
5.675999999999999801e+01,3.556544129310154623e-02
5.679999999999999716e+01,3.973360461133142174e-02
5.684000000000000341e+01,4.178093130320539861e-02
5.688000000000000256e+01,2.850964365908527018e-02
5.692000000000000171e+01,3.974875670338700456e-02
5.696000000000000085e+01,3.401953660164346027e-02
5.700000000000000000e+01,3.771754421897693249e-02
5.703999999999999915e+01,3.198881062078335474e-02
5.707999999999999829e+01,4.157917423156998193e-02
5.711999999999999744e+01,4.904871392297426025e-02
5.715999999999999659e+01,3.954992954474299133e-02
5.720000000000000284e+01,3.947838196199831423e-02
5.724000000000000199e+01,3.917141298070567906e-02
5.728000000000000114e+01,3.509390490054348222e-02
5.732000000000000028e+01,2.748153417116706160e-02
5.735999999999999943e+01,3.424557482025014643e-02
5.739999999999999858e+01,3.676773254756231929e-02
5.743999999999999773e+01,4.235392283396618995e-02
5.747999999999999687e+01,4.204851138854791975e-02
5.752000000000000313e+01,4.127201661718173792e-02
5.756000000000000227e+01,3.790336862578727595e-02
5.760000000000000142e+01,3.854145899210659892e-02
5.764000000000000057e+01,3.281660561898443185e-02
5.767999999999999972e+01,4.830274254341092310e-02
5.771999999999999886e+01,3.833629397470010580e-02
5.775999999999999801e+01,4.180357639977384104e-02
5.779999999999999716e+01,5.257705114020118364e-02
5.784000000000000341e+01,4.190441461768778381e-02
5.788000000000000256e+01,4.678658624416690698e-02
5.792000000000000171e+01,4.789824781628743838e-02
5.796000000000000085e+01,4.335400407434254755e-02
5.800000000000000000e+01,4.493758855229298271e-02
5.803999999999999915e+01,4.227931915298339949e-02
5.807999999999999829e+01,3.537919769169578510e-02
5.811999999999999744e+01,4.026310112111509965e-02
5.815999999999999659e+01,4.773972051595383459e-02
5.820000000000000284e+01,3.989778547910229761e-02
5.824000000000000199e+01,3.535559394135476263e-02
5.828000000000000114e+01,4.471850626480406571e-02
5.832000000000000028e+01,4.583310863361621246e-02
5.835999999999999943e+01,5.142583311924598527e-02
5.839999999999999858e+01,4.523513176519876333e-02
5.843999999999999773e+01,4.752902494288392676e-02
5.847999999999999687e+01,5.217997397387050956e-02
5.852000000000000313e+01,4.080535919230145886e-02
5.856000000000000227e+01,3.909371756017847310e-02
5.860000000000000142e+01,4.303858210843279630e-02
5.864000000000000057e+01,4.274162000865603522e-02
5.867999999999999972e+01,4.715846918232605156e-02
5.871999999999999886e+01,4.733349533852899971e-02
5.875999999999999801e+01,4.774451834564460984e-02
5.879999999999999716e+01,4.744884148146059910e-02
5.884000000000000341e+01,4.361837094877597104e-02
5.888000000000000256e+01,4.379469686282715102e-02
5.892000000000000171e+01,4.656377323265448176e-02
5.896000000000000085e+01,5.428234821727572629e-02
5.900000000000000000e+01,4.550403190397758063e-02
5.903999999999999915e+01,5.275192565159511626e-02
5.907999999999999829e+01,5.457963954741510554e-02
5.911999999999999744e+01,5.687904126605887456e-02
5.915999999999999659e+01,5.399394139784242930e-02
5.920000000000000284e+01,4.380327004868559554e-02
5.924000000000000199e+01,4.162588026815278175e-02
5.928000000000000114e+01,5.193959192462361402e-02
5.932000000000000028e+01,5.141261803039630374e-02
5.935999999999999943e+01,5.253571602255219242e-02
5.939999999999999858e+01,5.672293552261473831e-02
5.943999999999999773e+01,4.794840320846262272e-02
5.947999999999999687e+01,5.355037848271258089e-02
5.952000000000000313e+01,5.184679679827770837e-02
5.956000000000000227e+01,4.283765997043983975e-02
5.960000000000000142e+01,5.032610788621194597e-02
5.964000000000000057e+01,6.323543454531810326e-02
5.967999999999999972e+01,5.823385296005614831e-02
5.971999999999999886e+01,5.252561325497907829e-02
5.975999999999999801e+01,4.964583676097244352e-02
5.979999999999999716e+01,4.676642968083535162e-02
5.984000000000000341e+01,5.519977627978113477e-02
5.988000000000000256e+01,6.104107494505107284e-02
5.992000000000000171e+01,6.051953334194971890e-02
5.996000000000000085e+01,6.188376548883408462e-02
