2.003999999999999915e+01,8.798789584753928875e-03
2.007999999999999829e+01,1.352962044033664997e-02
2.012000000000000099e+01,7.707937194065274909e-03
2.016000000000000014e+01,1.023435588475831229e-02
2.019999999999999929e+01,1.022265603394280180e-02
2.023999999999999844e+01,8.073557457814082086e-03
2.028000000000000114e+01,1.327076151147179618e-02
2.032000000000000028e+01,8.316171449152908249e-03
2.035999999999999943e+01,7.969632313996983727e-03
2.039999999999999858e+01,6.019987654908832975e-03
2.044000000000000128e+01,8.277674234048763499e-03
2.048000000000000043e+01,1.000084143749723625e-02
2.051999999999999957e+01,1.519668704542640435e-02
2.055999999999999872e+01,1.124253822633788404e-02
2.060000000000000142e+01,1.096142778345795231e-02
2.064000000000000057e+01,9.277571958054300905e-03
2.067999999999999972e+01,4.387731810558846354e-03
2.071999999999999886e+01,1.459144371912532955e-02
2.076000000000000156e+01,1.511086838107473206e-02
2.080000000000000071e+01,9.953203576579120263e-03
2.083999999999999986e+01,8.602150660738137194e-03
2.087999999999999901e+01,8.786964291245851627e-03
2.092000000000000171e+01,1.104193754222270764e-02
2.096000000000000085e+01,1.343025821617551373e-02
2.100000000000000000e+01,6.601798300769904509e-03
2.103999999999999915e+01,1.339758494361195304e-02
2.107999999999999829e+01,1.531772196450051880e-02
2.112000000000000099e+01,6.818919201965683435e-03
2.116000000000000014e+01,8.271098531999677983e-03
2.119999999999999929e+01,9.656265652643042721e-03
2.123999999999999844e+01,1.578305789161812966e-02
2.128000000000000114e+01,1.416237567535169779e-02
2.132000000000000028e+01,1.327612092450552832e-02
2.135999999999999943e+01,1.425966637386272100e-02
2.139999999999999858e+01,8.831470074489540523e-03
2.144000000000000128e+01,1.028207123234995725e-02
2.148000000000000043e+01,6.857023192458588413e-03
2.151999999999999957e+01,9.175400002278167461e-03
2.155999999999999872e+01,1.002424577627534369e-02
2.160000000000000142e+01,7.333175059031906036e-03
2.164000000000000057e+01,9.116583368471761067e-03
2.167999999999999972e+01,1.130048638030064015e-02
2.171999999999999886e+01,1.795886850365319143e-02
2.176000000000000156e+01,1.299615220097944703e-02
2.180000000000000071e+01,9.769663307205812483e-03
2.183999999999999986e+01,8.680121638527743544e-03
2.187999999999999901e+01,1.113004644557855950e-02
2.192000000000000171e+01,1.211044059858856770e-02
2.196000000000000085e+01,1.015199830280215550e-02
2.200000000000000000e+01,1.139908946519248810e-02
2.203999999999999915e+01,1.144379661665264822e-02
2.207999999999999829e+01,1.162185237885331526e-02
2.212000000000000099e+01,7.592125911650302039e-03
2.216000000000000014e+01,1.130942384175671195e-02
2.219999999999999929e+01,1.168716580381267030e-02
2.223999999999999844e+01,1.193111003043970629e-02
2.228000000000000114e+01,1.037159083999478551e-02
2.232000000000000028e+01,9.746860062361863489e-03
2.235999999999999943e+01,5.248280454658756089e-03
2.239999999999999858e+01,7.027419661610562369e-03
2.244000000000000128e+01,8.939907861084436802e-03
2.248000000000000043e+01,9.182506113512236071e-03
2.251999999999999957e+01,1.516853027615517636e-02
2.255999999999999872e+01,1.120312258523840226e-02
2.260000000000000142e+01,1.164540831012645695e-02
2.264000000000000057e+01,1.389070896370072673e-02
2.267999999999999972e+01,9.590695968064919669e-03
2.271999999999999886e+01,9.297656741719275905e-03
2.276000000000000156e+01,1.007297965273247151e-02
2.280000000000000071e+01,5.505148363121717230e-03
2.283999999999999986e+01,1.422763239585352057e-02
2.287999999999999901e+01,1.273153839853682912e-02
2.292000000000000171e+01,7.428382793994872321e-03
2.296000000000000085e+01,1.114119838545392718e-02
2.300000000000000000e+01,1.184839200207848074e-02
2.303999999999999915e+01,5.542765948536729909e-03
2.307999999999999829e+01,7.919178073443852370e-03
2.312000000000000099e+01,1.497043068146807453e-02
2.316000000000000014e+01,9.465573542696397932e-03
2.319999999999999929e+01,1.190810179104618942e-02
2.323999999999999844e+01,1.615364560438475178e-02
2.328000000000000114e+01,1.298565022830291960e-02
2.332000000000000028e+01,1.529393509498937036e-02
2.335999999999999943e+01,8.385441875107382814e-03
2.339999999999999858e+01,1.189543952606136185e-02
2.344000000000000128e+01,1.747559946995507277e-02
2.348000000000000043e+01,1.584258032341679182e-02
2.351999999999999957e+01,1.200537930105650443e-02
2.355999999999999872e+01,1.477983146834858583e-02
2.360000000000000142e+01,1.134290410690719925e-02
2.364000000000000057e+01,1.545264282543393208e-02
2.367999999999999972e+01,1.669033354819403001e-02
2.371999999999999886e+01,1.164985824051858673e-02
2.376000000000000156e+01,1.609286137998521340e-02
2.380000000000000071e+01,1.058443398091731338e-02
2.383999999999999986e+01,0.000000000000000000e+00
2.387999999999999901e+01,1.172207735429129510e-02
2.392000000000000171e+01,1.482845687655926468e-02
2.396000000000000085e+01,1.012057815677448215e-02
2.400000000000000000e+01,1.182399320637629071e-02
2.403999999999999915e+01,1.399469209011959710e-02
2.407999999999999829e+01,9.286145664546000683e-03
2.412000000000000099e+01,6.113469221354820606e-03
2.416000000000000014e+01,1.295856468120757006e-02
2.419999999999999929e+01,9.718656768802466997e-03
2.423999999999999844e+01,1.128716378520427596e-02
2.428000000000000114e+01,1.318938163234352652e-02
2.432000000000000028e+01,1.168525913073851716e-02
2.435999999999999943e+01,1.298595281632499571e-02
2.439999999999999858e+01,1.168174578555794541e-02
2.444000000000000128e+01,8.440504370482944385e-03
2.448000000000000043e+01,7.269426351272028665e-03
2.451999999999999957e+01,1.651684039066180984e-02
2.455999999999999872e+01,1.601318458438789546e-02
2.460000000000000142e+01,1.210318872631099309e-02
2.464000000000000057e+01,9.662276773116039094e-03
2.467999999999999972e+01,1.082762089402423619e-02
2.471999999999999886e+01,1.272739608606687778e-02
2.476000000000000156e+01,1.369193666760086699e-02
2.480000000000000071e+01,1.472304211548431697e-02
2.483999999999999986e+01,1.308246068467359968e-02
2.487999999999999901e+01,1.417990936355396220e-02
2.492000000000000171e+01,1.273924450650561375e-02
2.496000000000000085e+01,1.684164826041498544e-02
2.500000000000000000e+01,5.182186028654615223e-03
2.503999999999999915e+01,9.818439755659999837e-03
2.507999999999999829e+01,6.440076541489612137e-03
2.512000000000000099e+01,1.341341939325995693e-02
2.516000000000000014e+01,1.324037156520790383e-02
2.519999999999999929e+01,6.121292986641126838e-03
2.523999999999999844e+01,1.089001306741380071e-02
2.528000000000000114e+01,5.640517550235628168e-03
2.532000000000000028e+01,1.274632717997498631e-02
2.535999999999999943e+01,1.190430679444236771e-02
2.539999999999999858e+01,1.673892874441437403e-02
2.544000000000000128e+01,1.696505221208135378e-02
2.548000000000000043e+01,1.438591622185174390e-02
2.551999999999999957e+01,7.932934752745316592e-03
2.555999999999999872e+01,1.062950049487583135e-02
2.560000000000000142e+01,9.519007471932345102e-03
2.564000000000000057e+01,1.034510581711272671e-02
2.567999999999999972e+01,1.290743568594959756e-02
2.571999999999999886e+01,9.525534790171902300e-03
2.576000000000000156e+01,1.522639468876951785e-02
2.580000000000000071e+01,9.974026735403034027e-03
2.583999999999999986e+01,6.257530588486167646e-03
2.587999999999999901e+01,1.482955355340652426e-02
2.592000000000000171e+01,9.042230716534229579e-03
2.596000000000000085e+01,1.053442990414971310e-02
2.600000000000000000e+01,1.042352950665639821e-02
2.603999999999999915e+01,6.906290584486112979e-03
2.607999999999999829e+01,1.006749415340130877e-02
2.612000000000000099e+01,1.389634364919428190e-02
2.616000000000000014e+01,1.565458732682142862e-02
2.619999999999999929e+01,1.333862635982697303e-02
2.623999999999999844e+01,8.083833482994079098e-03
2.628000000000000114e+01,6.234938490183482979e-03
2.632000000000000028e+01,1.019626006646639875e-02
2.635999999999999943e+01,7.745845154119856968e-03
2.639999999999999858e+01,1.584749755204690677e-02
2.644000000000000128e+01,1.226126985814474796e-02
2.648000000000000043e+01,1.381739261339153153e-02
2.651999999999999957e+01,1.183360409507825013e-02
2.655999999999999872e+01,1.338928701565347129e-02
2.660000000000000142e+01,1.147184537647156187e-02
2.664000000000000057e+01,1.723464625669548361e-02
2.667999999999999972e+01,6.033423611571183016e-03
2.671999999999999886e+01,1.319830420469801646e-02
2.676000000000000156e+01,1.121319694593323445e-02
2.680000000000000071e+01,9.094296787638726787e-03
2.683999999999999986e+01,6.708030514309574338e-03
2.687999999999999901e+01,7.527302874417586553e-03
2.692000000000000171e+01,7.745276059518683108e-03
2.696000000000000085e+01,1.604421187716207134e-02
2.700000000000000000e+01,1.432493392092193396e-02
2.703999999999999915e+01,1.474260870439912489e-02
2.707999999999999829e+01,8.147468102146971161e-03
2.712000000000000099e+01,1.010079670485557017e-02
2.716000000000000014e+01,1.505930435105491336e-02
2.719999999999999929e+01,1.293821010982292886e-02
2.723999999999999844e+01,1.001545714605771124e-02
2.728000000000000114e+01,1.029824323993141014e-02
2.732000000000000028e+01,1.004651721196232576e-02
2.735999999999999943e+01,3.516629013792964449e-03
2.739999999999999858e+01,5.268063801675382241e-03
2.744000000000000128e+01,7.887505803188683481e-03
2.748000000000000043e+01,9.438142820839708763e-03
2.751999999999999957e+01,1.412753252168805901e-02
2.755999999999999872e+01,1.053516139556103133e-02
2.760000000000000142e+01,9.947969779546574076e-03
2.764000000000000057e+01,8.492333236238023414e-03
2.767999999999999972e+01,1.318084784912148047e-02
2.771999999999999886e+01,1.072297449707320174e-02
2.776000000000000156e+01,9.533828471792417034e-03
2.780000000000000071e+01,1.188415520042528616e-02
2.783999999999999986e+01,8.357040041675102213e-03
2.787999999999999901e+01,8.569757608566526061e-03
2.792000000000000171e+01,1.539413298890865076e-02
2.796000000000000085e+01,1.026348337353778090e-02
2.800000000000000000e+01,1.060911896409483940e-02
2.803999999999999915e+01,1.242384206524814808e-02
2.807999999999999829e+01,5.956804890888253365e-03
2.812000000000000099e+01,5.633919339342131037e-03
2.816000000000000014e+01,7.047267941502866409e-03
2.819999999999999929e+01,9.528984450165287751e-03
2.823999999999999844e+01,1.307906890774961431e-02
2.828000000000000114e+01,1.088528520249775963e-02
2.832000000000000028e+01,1.209740154469668774e-02
2.835999999999999943e+01,1.330929989967752705e-02
2.839999999999999858e+01,9.378409879745475131e-03
2.844000000000000128e+01,1.225953811161384181e-02
2.848000000000000043e+01,5.923893686695210631e-03
2.851999999999999957e+01,8.871372870031073860e-03
2.855999999999999872e+01,6.475703961247085590e-03
2.860000000000000142e+01,8.955241234030747108e-03
2.864000000000000057e+01,6.893070047085346312e-03
2.867999999999999972e+01,1.277829005882441873e-02
2.871999999999999886e+01,7.509925428384105726e-03
2.876000000000000156e+01,7.651060180892396874e-03
2.880000000000000071e+01,1.240025481121907400e-02
2.883999999999999986e+01,9.468769632678553788e-03
2.887999999999999901e+01,1.575362181521141811e-02
2.892000000000000171e+01,1.535959370815533076e-02
2.896000000000000085e+01,1.322889589715784200e-02
2.900000000000000000e+01,7.691862700575768236e-03
2.903999999999999915e+01,9.634714681721971360e-03
2.907999999999999829e+01,1.037519011788750820e-02
2.912000000000000099e+01,7.175037264028777569e-03
2.916000000000000014e+01,7.380785348444320222e-03
2.919999999999999929e+01,5.248784322776705799e-03
2.923999999999999844e+01,6.723044207111348973e-03
2.928000000000000114e+01,1.000032606188004831e-02
2.932000000000000028e+01,6.198008277486327829e-03
2.935999999999999943e+01,8.005550399231356473e-03
2.939999999999999858e+01,1.061431518423295445e-02
2.944000000000000128e+01,1.015067819508451777e-02
2.948000000000000043e+01,9.486464519595061429e-03
2.951999999999999957e+01,7.553088136784255266e-03
2.955999999999999872e+01,1.042813232466260551e-02
2.960000000000000142e+01,1.069828131080935094e-02
2.964000000000000057e+01,9.899627603782787041e-03
2.967999999999999972e+01,9.367903825253778849e-03
2.971999999999999886e+01,6.364858230178654062e-03
2.976000000000000156e+01,8.103446788931037079e-03
2.980000000000000071e+01,4.699248457476416611e-03
2.983999999999999986e+01,7.973496604603022217e-03
2.987999999999999901e+01,8.709636475901687616e-03
2.992000000000000171e+01,7.976254177193064371e-03
2.996000000000000085e+01,1.171735972856267037e-02
3.000000000000000000e+01,5.774187832373904247e-03
3.003999999999999915e+01,1.118452665424447649e-02
3.007999999999999829e+01,1.185279865662435678e-02
3.012000000000000099e+01,1.151905510383553939e-02
3.016000000000000014e+01,8.380057056309809030e-03
3.019999999999999929e+01,1.218665238499696754e-02
3.023999999999999844e+01,9.314368823960708643e-03
3.028000000000000114e+01,7.710815262162501980e-03
3.032000000000000028e+01,1.091568307703665204e-02
3.035999999999999943e+01,1.245066930163778000e-02
3.039999999999999858e+01,1.077968151224782678e-02
3.044000000000000128e+01,9.709557602151253075e-03
3.048000000000000043e+01,8.171711550367723523e-03
3.051999999999999957e+01,9.972981250181700563e-03
3.055999999999999872e+01,1.531372663090097702e-02
3.060000000000000142e+01,7.630863752237837007e-03
3.064000000000000057e+01,1.377261749955019723e-02
3.067999999999999972e+01,7.358269475058193052e-03
3.071999999999999886e+01,8.757741554754172597e-03
3.076000000000000156e+01,1.342954301160617127e-02
3.080000000000000071e+01,1.001994696440393351e-02
3.083999999999999986e+01,8.146228026172180892e-03
3.087999999999999901e+01,9.010545560656689490e-03
3.092000000000000171e+01,1.214539320753989238e-02
3.096000000000000085e+01,3.592365556072818576e-03
3.100000000000000000e+01,7.795368848962256833e-03
3.103999999999999915e+01,6.722013308744795995e-03
3.107999999999999829e+01,9.321707258819858163e-03
3.112000000000000099e+01,2.971777867689152832e-03
3.116000000000000014e+01,4.969962079068494451e-03
3.119999999999999929e+01,8.236877265349745736e-03
3.123999999999999844e+01,1.036820482630189562e-02
3.128000000000000114e+01,5.353148197717310687e-03
3.132000000000000028e+01,9.487644888873826912e-03
3.135999999999999943e+01,1.335478025847467061e-02
3.139999999999999858e+01,1.308092986911319790e-02
3.144000000000000128e+01,7.130001297071301113e-03
3.148000000000000043e+01,6.655361621511984502e-03
3.151999999999999957e+01,9.252692242204254777e-03
3.155999999999999872e+01,8.176543676352576034e-03
3.160000000000000142e+01,8.970206170267235740e-03
3.164000000000000057e+01,9.429721010604883574e-03
3.167999999999999972e+01,8.219355660535030556e-03
3.171999999999999886e+01,7.609855547203946656e-03
3.176000000000000156e+01,1.247664462729656740e-02
3.180000000000000071e+01,1.113206287479007357e-02
3.183999999999999986e+01,1.038834648628282967e-02
3.187999999999999901e+01,3.566832607941842516e-03
3.192000000000000171e+01,6.295592459419701963e-03
3.196000000000000085e+01,9.959150946969958992e-03
3.200000000000000000e+01,1.095103014903609125e-02
3.203999999999999915e+01,7.735137641900039635e-03
3.207999999999999829e+01,1.046304107028679480e-02
3.211999999999999744e+01,9.183532761199304437e-03
3.215999999999999659e+01,1.151028845878630975e-02
3.220000000000000284e+01,9.696059245814358379e-03
3.224000000000000199e+01,1.315775984842055234e-02
3.228000000000000114e+01,7.803411597930877235e-03
3.232000000000000028e+01,1.159861772768652245e-02
3.235999999999999943e+01,4.173456446535522835e-03
3.239999999999999858e+01,6.632502549058006715e-03
3.243999999999999773e+01,1.229709318142101042e-02
3.247999999999999687e+01,7.943475851463405180e-03
3.252000000000000313e+01,8.264708973362353342e-03
3.256000000000000227e+01,1.185827338132485614e-02
3.260000000000000142e+01,9.574400949904212851e-03
3.264000000000000057e+01,9.093554052211762911e-03
3.267999999999999972e+01,1.415578395256942776e-02
3.271999999999999886e+01,1.367451028561713841e-02
3.275999999999999801e+01,1.366052970040287570e-02
3.279999999999999716e+01,6.166233392805595473e-03
3.284000000000000341e+01,9.624730998904148377e-03
3.288000000000000256e+01,2.376887604526860959e-02
3.292000000000000171e+01,1.485114655022664598e-01
3.296000000000000085e+01,3.172662303366738379e-01
3.300000000000000000e+01,1.904899489454000561e-01
3.303999999999999915e+01,3.826774889534321350e-02
3.307999999999999829e+01,1.768178154879790354e-02
3.311999999999999744e+01,1.512799108291798360e-02
3.315999999999999659e+01,8.166070208712978423e-03
3.320000000000000284e+01,5.344707475807122625e-03
3.324000000000000199e+01,1.621439086826259937e-02
3.328000000000000114e+01,5.044273933545105962e-03
3.332000000000000028e+01,6.897336919404009961e-03
3.335999999999999943e+01,5.143709256589012839e-03
3.339999999999999858e+01,4.258095128009965410e-03
3.343999999999999773e+01,9.650211522052072263e-03
3.347999999999999687e+01,5.558414045978046260e-03
3.352000000000000313e+01,7.944707064253113751e-03
3.356000000000000227e+01,7.859682338318173603e-03
3.360000000000000142e+01,9.310537648345317344e-03
3.364000000000000057e+01,4.282877561250903430e-03
3.367999999999999972e+01,8.939066328387805516e-03
3.371999999999999886e+01,6.582446751543216158e-03
3.375999999999999801e+01,5.828494009303923119e-03
3.379999999999999716e+01,7.345074433715372692e-03
3.384000000000000341e+01,3.919232139244362492e-03
3.388000000000000256e+01,9.309012734592551908e-03
3.392000000000000171e+01,6.951332279472272752e-03
3.396000000000000085e+01,9.402077061259625848e-03
3.400000000000000000e+01,1.031651737093428750e-02
3.403999999999999915e+01,6.021388657977193477e-03
3.407999999999999829e+01,8.003991146363926418e-03
3.411999999999999744e+01,7.381703226497956551e-03
3.415999999999999659e+01,5.223111004199964928e-03
3.420000000000000284e+01,1.334944784825822794e-02
3.424000000000000199e+01,6.582154682218467265e-03
3.428000000000000114e+01,8.029405169536808079e-03
3.432000000000000028e+01,3.398860754651642901e-03
3.435999999999999943e+01,6.448567046264662775e-03
3.439999999999999858e+01,5.090144244577782945e-03
3.443999999999999773e+01,6.870481464777282964e-03
3.447999999999999687e+01,1.259101829683369027e-02
3.452000000000000313e+01,6.824043492822378515e-03
3.456000000000000227e+01,1.180950453968652655e-02
3.460000000000000142e+01,1.024966457855063830e-02
3.464000000000000057e+01,1.049285227215129845e-02
3.467999999999999972e+01,1.093618856780795290e-02
3.471999999999999886e+01,7.171755996413668732e-03
3.475999999999999801e+01,6.546083786267093384e-03
3.479999999999999716e+01,1.046169118800154528e-02
3.484000000000000341e+01,6.496265257006320071e-03
3.488000000000000256e+01,1.094574350255931097e-02
3.492000000000000171e+01,1.098709320627461010e-02
3.496000000000000085e+01,8.423553392560723801e-03
3.500000000000000000e+01,1.207095912689201168e-02
3.503999999999999915e+01,1.057558352805824768e-02
3.507999999999999829e+01,1.041572964784518752e-02
3.511999999999999744e+01,1.012209169149729492e-02
3.515999999999999659e+01,9.427523185584603393e-03
3.520000000000000284e+01,6.261638674688814292e-03
3.524000000000000199e+01,8.171327273996161628e-03
3.528000000000000114e+01,1.348692330186351991e-02
3.532000000000000028e+01,9.385394039904980390e-03
3.535999999999999943e+01,1.296411654494880258e-02
3.539999999999999858e+01,1.013111214832102674e-02
3.543999999999999773e+01,6.496457725294429303e-03
3.547999999999999687e+01,7.737016780104374533e-03
3.552000000000000313e+01,4.636234558341662329e-03
3.556000000000000227e+01,7.345678704731300676e-03
3.560000000000000142e+01,8.986326478552663852e-03
3.564000000000000057e+01,9.758537809113546416e-03
3.567999999999999972e+01,9.996245883646712183e-03
3.571999999999999886e+01,7.829425133621524535e-03
3.575999999999999801e+01,6.196687275809478757e-03
3.579999999999999716e+01,8.303790542832301808e-03
3.584000000000000341e+01,1.034389712624584137e-02
3.588000000000000256e+01,4.502971479854056373e-03
3.592000000000000171e+01,8.145537176335362547e-03
3.596000000000000085e+01,8.515348126266357454e-03
3.600000000000000000e+01,1.249142715520799168e-02
3.603999999999999915e+01,7.451101431661942207e-03
3.607999999999999829e+01,1.790506382729747589e-02
3.611999999999999744e+01,8.389614405430482688e-03
3.615999999999999659e+01,5.953337938306444213e-03
3.620000000000000284e+01,1.166482053174603198e-02
3.624000000000000199e+01,4.419487476009390479e-03
3.628000000000000114e+01,8.661245013803281143e-03
3.632000000000000028e+01,8.962381897203093237e-03
3.635999999999999943e+01,7.593643553355036886e-03
3.639999999999999858e+01,1.397194470839623406e-02
3.643999999999999773e+01,7.727363571174729155e-03
3.647999999999999687e+01,1.196807380514663607e-02
3.652000000000000313e+01,1.226816359682526662e-02
3.656000000000000227e+01,1.363663016082066956e-02
3.660000000000000142e+01,7.992291435086704837e-03
3.664000000000000057e+01,6.154581353973637842e-03
3.667999999999999972e+01,1.052781860255277112e-02
3.671999999999999886e+01,1.196223505537745944e-02
3.675999999999999801e+01,9.122098175617260676e-03
3.679999999999999716e+01,1.142432268940925082e-02
3.684000000000000341e+01,6.847315425917930784e-03
3.688000000000000256e+01,1.101914760479586093e-02
3.692000000000000171e+01,9.647480670481451553e-03
3.696000000000000085e+01,1.368532181525006046e-02
3.700000000000000000e+01,1.037642494967829995e-02
3.703999999999999915e+01,1.621708746993164030e-02
3.707999999999999829e+01,1.097096084278320095e-02
3.711999999999999744e+01,8.596450563822232230e-03
3.715999999999999659e+01,1.123072880226991081e-02
3.720000000000000284e+01,9.724027432679603622e-03
3.724000000000000199e+01,1.249146174675043637e-02
3.728000000000000114e+01,1.585976719396334916e-02
3.732000000000000028e+01,1.528745304728634444e-02
3.735999999999999943e+01,9.572360027814030836e-03
3.739999999999999858e+01,1.040214824640960795e-02
3.743999999999999773e+01,1.557285898972969596e-02
3.747999999999999687e+01,1.206109965250082641e-02
3.752000000000000313e+01,1.342455595653704349e-02
3.756000000000000227e+01,1.251705864526765286e-02
3.760000000000000142e+01,1.187649966168901998e-02
3.764000000000000057e+01,1.257146511162181290e-02
3.767999999999999972e+01,1.713984693806242660e-02
3.771999999999999886e+01,1.429470488876313783e-02
3.775999999999999801e+01,1.405403335052391248e-02
3.779999999999999716e+01,1.100811541979982051e-02
3.784000000000000341e+01,1.290420009866470943e-02
3.788000000000000256e+01,1.573508969178684380e-02
3.792000000000000171e+01,1.308926786118336585e-02
3.796000000000000085e+01,8.639999242213662958e-03
3.800000000000000000e+01,1.614532944357944741e-02
3.803999999999999915e+01,1.576962970582897888e-02
3.807999999999999829e+01,2.040271946115101293e-02
3.811999999999999744e+01,2.049411081032372767e-02
3.815999999999999659e+01,2.198781377343256987e-02
3.820000000000000284e+01,2.101020391307088786e-02
3.824000000000000199e+01,1.809557430335911182e-02
3.828000000000000114e+01,1.825292215890728792e-02
3.832000000000000028e+01,1.814291607400897802e-02
3.835999999999999943e+01,1.823306249382209906e-02
3.839999999999999858e+01,2.453415806739461802e-02
3.843999999999999773e+01,2.662748871899183259e-02
3.847999999999999687e+01,2.077300326913208983e-02
3.852000000000000313e+01,2.653918404625735250e-02
3.856000000000000227e+01,3.183765125056953194e-02
3.860000000000000142e+01,3.179298101022402789e-02
3.864000000000000057e+01,2.834198560755439578e-02
3.867999999999999972e+01,3.343947166927396797e-02
3.871999999999999886e+01,3.493027276662217379e-02
3.875999999999999801e+01,4.169701059403588955e-02
3.879999999999999716e+01,4.185166523860462534e-02
3.884000000000000341e+01,5.543022543150805809e-02
3.888000000000000256e+01,5.725413209629190425e-02
3.892000000000000171e+01,7.076549204122495329e-02
3.896000000000000085e+01,8.053659401838260401e-02
3.900000000000000000e+01,9.431468702983865360e-02
3.903999999999999915e+01,1.117658379732005824e-01
3.907999999999999829e+01,1.402365760767670944e-01
3.911999999999999744e+01,1.739832512921805907e-01
3.915999999999999659e+01,2.274317755177681089e-01
3.920000000000000284e+01,2.758043094508505488e-01
3.924000000000000199e+01,3.421422401259215929e-01
3.928000000000000114e+01,4.378660811379941897e-01
3.932000000000000028e+01,5.259092534552833875e-01
3.935999999999999943e+01,6.271759719854821391e-01
3.939999999999999858e+01,7.350543605037194173e-01
3.943999999999999773e+01,8.472736736676897973e-01
3.947999999999999687e+01,9.410596710435897849e-01
3.952000000000000313e+01,9.989810425146190553e-01
3.956000000000000227e+01,1.000000000000000000e+00
3.960000000000000142e+01,9.589431751718353603e-01
3.964000000000000057e+01,8.810199251316225277e-01
3.967999999999999972e+01,7.734432058497346940e-01
3.971999999999999886e+01,6.489692635004360444e-01
3.975999999999999801e+01,5.399896131729743365e-01
3.979999999999999716e+01,4.503110927606343572e-01
3.984000000000000341e+01,3.641720578706783562e-01
3.988000000000000256e+01,2.970670064648341935e-01
3.992000000000000171e+01,2.469255530876832971e-01
3.996000000000000085e+01,1.971178271699756679e-01
4.000000000000000000e+01,1.657430052029774670e-01
4.003999999999999915e+01,1.425159463688789874e-01
4.007999999999999829e+01,1.167507900760953593e-01
4.011999999999999744e+01,9.559370566603760111e-02
4.015999999999999659e+01,8.625764910907932070e-02
4.020000000000000284e+01,7.445028184965887808e-02
4.024000000000000199e+01,6.952173198495091577e-02
4.028000000000000114e+01,5.951719297308245143e-02
4.032000000000000028e+01,4.977959517347611829e-02
4.035999999999999943e+01,4.712117478273036147e-02
4.039999999999999858e+01,4.539756197871242654e-02
4.043999999999999773e+01,3.672793458626373575e-02
4.047999999999999687e+01,3.273316608728497890e-02
4.052000000000000313e+01,3.728688100402316463e-02
4.056000000000000227e+01,3.115453023768931240e-02
4.060000000000000142e+01,3.069883792652389545e-02
4.064000000000000057e+01,2.790540863744322975e-02
4.067999999999999972e+01,2.798359947194497405e-02
4.071999999999999886e+01,2.278544173902045597e-02
4.075999999999999801e+01,2.526754149982095646e-02
4.079999999999999716e+01,2.347509221247349315e-02
4.084000000000000341e+01,2.001277244893694823e-02
4.088000000000000256e+01,1.795276718390794932e-02
4.092000000000000171e+01,1.869759566801985906e-02
4.096000000000000085e+01,1.937543289830395699e-02
4.100000000000000000e+01,1.925162599859257806e-02
4.103999999999999915e+01,1.532077670799194581e-02
4.107999999999999829e+01,1.806838581603970387e-02
4.111999999999999744e+01,1.694216598907603843e-02
4.115999999999999659e+01,1.708468769963602391e-02
4.120000000000000284e+01,1.649235212126388961e-02
4.124000000000000199e+01,1.436371974882943992e-02
4.128000000000000114e+01,1.357061567014169502e-02
4.132000000000000028e+01,1.251016083252005223e-02
4.135999999999999943e+01,9.312329667433815947e-03
4.139999999999999858e+01,1.145722466110665229e-02
4.143999999999999773e+01,1.473728823131929128e-02
4.147999999999999687e+01,1.147205808980072614e-02
4.152000000000000313e+01,1.107844896268809359e-02
4.156000000000000227e+01,1.355646089240158426e-02
4.160000000000000142e+01,1.543318921530967974e-02
4.164000000000000057e+01,1.697578048968269998e-02
4.167999999999999972e+01,1.544598297047702386e-02
4.171999999999999886e+01,1.124451647388796313e-02
4.175999999999999801e+01,9.380378214525631614e-03
4.179999999999999716e+01,1.613151135728811345e-02
4.184000000000000341e+01,1.152871388479862792e-02
4.188000000000000256e+01,9.997897695384182909e-03
4.192000000000000171e+01,1.013654362325179525e-02
4.196000000000000085e+01,7.536734199294517315e-03
4.200000000000000000e+01,9.812145167661153605e-03
4.203999999999999915e+01,1.108555322206904517e-02
4.207999999999999829e+01,1.362770378966449147e-02
4.211999999999999744e+01,8.489188631888374900e-03
4.215999999999999659e+01,7.224094601678847719e-03
4.220000000000000284e+01,1.163566072344444577e-02
4.224000000000000199e+01,1.304162527447621199e-02
4.228000000000000114e+01,1.090769526549408182e-02
4.232000000000000028e+01,1.044322779799564463e-02
4.235999999999999943e+01,9.978557190337834781e-03
4.239999999999999858e+01,8.845817195315450188e-03
4.243999999999999773e+01,1.038433930347528247e-02
4.247999999999999687e+01,1.072049907741062270e-02
4.252000000000000313e+01,1.058894947812953277e-02
4.256000000000000227e+01,9.388610887389365472e-03
4.260000000000000142e+01,7.386629863460423412e-03
4.264000000000000057e+01,1.005951002369048081e-02
4.267999999999999972e+01,8.591416387445500319e-03
4.271999999999999886e+01,8.525639201035807579e-03
4.275999999999999801e+01,8.927165701406107601e-03
4.279999999999999716e+01,9.194916270313782669e-03
4.284000000000000341e+01,9.529250837066609997e-03
4.288000000000000256e+01,1.467202010042450641e-02
4.292000000000000171e+01,1.039767213378836250e-02
4.296000000000000085e+01,1.153283860926040093e-02
4.300000000000000000e+01,1.213350959159548680e-02
4.303999999999999915e+01,9.595006593675022011e-03
4.307999999999999829e+01,9.594193119734382991e-03
4.311999999999999744e+01,9.659963940580048453e-03
4.315999999999999659e+01,8.256226632493989664e-03
4.320000000000000284e+01,6.651927188184459522e-03
4.324000000000000199e+01,9.588916306411362708e-03
4.328000000000000114e+01,9.787451472678912467e-03
4.332000000000000028e+01,9.317918227245789581e-03
4.335999999999999943e+01,9.382475933857709408e-03
4.339999999999999858e+01,1.265258979343611596e-02
4.343999999999999773e+01,8.976692246096337410e-03
4.347999999999999687e+01,1.151174923987731413e-02
4.352000000000000313e+01,1.023976647281945110e-02
4.356000000000000227e+01,1.190619351255860735e-02
4.360000000000000142e+01,1.530887108018941234e-02
4.364000000000000057e+01,1.116445779234007292e-02
4.367999999999999972e+01,1.062632072817359247e-02
4.371999999999999886e+01,1.295980701152227646e-02
4.375999999999999801e+01,9.683014806564768304e-03
4.379999999999999716e+01,8.943912889150107751e-03
4.384000000000000341e+01,6.601730306021491232e-03
4.388000000000000256e+01,1.407698065219200809e-02
4.392000000000000171e+01,1.146724853924737178e-02
4.396000000000000085e+01,9.458394643612859365e-03
4.400000000000000000e+01,9.786871360734398020e-03
4.403999999999999915e+01,1.138409266963169748e-02
4.407999999999999829e+01,1.505149816027528432e-02
4.411999999999999744e+01,1.444435812364483311e-02
4.415999999999999659e+01,8.427299909797469207e-03
4.420000000000000284e+01,1.082515575639740948e-02
4.424000000000000199e+01,1.369031685932354733e-02
4.428000000000000114e+01,1.188021283088112889e-02
4.432000000000000028e+01,1.294173278625640119e-02
4.435999999999999943e+01,1.300125228804267091e-02
4.439999999999999858e+01,1.272663766828543291e-02
4.443999999999999773e+01,1.211788896940487609e-02
4.447999999999999687e+01,1.030678005730825512e-02
4.452000000000000313e+01,1.130050871216758956e-02
4.456000000000000227e+01,1.389691565507751407e-02
4.460000000000000142e+01,1.382165667485617429e-02
4.464000000000000057e+01,1.588336909922601417e-02
4.467999999999999972e+01,1.326981681642895768e-02
4.471999999999999886e+01,1.566506106845228993e-02
4.475999999999999801e+01,1.939583730477690074e-02
4.479999999999999716e+01,1.671489660816932038e-02
4.484000000000000341e+01,1.610414089929121037e-02
4.488000000000000256e+01,2.003467549217642987e-02
4.492000000000000171e+01,1.715277350561475109e-02
4.496000000000000085e+01,2.114969391934533663e-02
4.500000000000000000e+01,2.300924186584659206e-02
4.503999999999999915e+01,2.166283132413815427e-02
4.507999999999999829e+01,2.024943389787923001e-02
4.511999999999999744e+01,2.538092589678054428e-02
4.515999999999999659e+01,2.343283505490584284e-02
4.520000000000000284e+01,2.696104765963126815e-02
4.524000000000000199e+01,3.309373870798808931e-02
4.528000000000000114e+01,3.435080579859296768e-02
4.532000000000000028e+01,4.248669567127159874e-02
4.535999999999999943e+01,4.694912099236418779e-02
4.539999999999999858e+01,4.553412304852733072e-02
4.543999999999999773e+01,5.199974744846272423e-02
4.547999999999999687e+01,6.367452907608928125e-02
4.552000000000000313e+01,7.134191317699779822e-02
4.556000000000000227e+01,8.522025402487577728e-02
4.560000000000000142e+01,9.388903810955044615e-02
4.564000000000000057e+01,1.087019923970724000e-01
4.567999999999999972e+01,1.267872918844729635e-01
4.571999999999999886e+01,1.497478157092729523e-01
4.575999999999999801e+01,1.690348754066886283e-01
4.579999999999999716e+01,1.856502704535780701e-01
4.584000000000000341e+01,2.177599639701700285e-01
4.588000000000000256e+01,2.329724409520568251e-01
4.592000000000000171e+01,2.535276488861817334e-01
4.596000000000000085e+01,2.798263075887399420e-01
4.600000000000000000e+01,2.900959760603665227e-01
4.603999999999999915e+01,2.910821038686972062e-01
4.607999999999999829e+01,2.956077238169583787e-01
4.611999999999999744e+01,2.742867192040560620e-01
4.615999999999999659e+01,2.506947700961842385e-01
4.620000000000000284e+01,2.387234953599696174e-01
4.624000000000000199e+01,2.121257498555574328e-01
4.628000000000000114e+01,1.887335635583638205e-01
4.632000000000000028e+01,1.630704329358813598e-01
4.635999999999999943e+01,1.432843267639590246e-01
4.639999999999999858e+01,1.269709264423659056e-01
4.643999999999999773e+01,1.032440114926294894e-01
4.647999999999999687e+01,9.380923636999269344e-02
4.652000000000000313e+01,7.969919849151678448e-02
4.656000000000000227e+01,6.866114685927549033e-02
4.660000000000000142e+01,6.276546701352755941e-02
4.664000000000000057e+01,4.918912623588701100e-02
4.667999999999999972e+01,4.957099235263429798e-02
4.671999999999999886e+01,4.267291739610453577e-02
4.675999999999999801e+01,3.764466957658470919e-02
4.679999999999999716e+01,3.475339545234511912e-02
4.684000000000000341e+01,3.286372237344288572e-02
4.688000000000000256e+01,2.917061196587185032e-02
4.692000000000000171e+01,2.207118517695145360e-02
4.696000000000000085e+01,1.610693281855396161e-02
4.700000000000000000e+01,2.376695454909300703e-02
4.703999999999999915e+01,2.140878375825251007e-02
4.707999999999999829e+01,1.991864100934533435e-02
4.711999999999999744e+01,1.468824894637696561e-02
4.715999999999999659e+01,1.626989498784753296e-02
4.720000000000000284e+01,1.564738426623546105e-02
4.724000000000000199e+01,1.449038254802421585e-02
4.728000000000000114e+01,1.346675616525925059e-02
4.732000000000000028e+01,1.291043830517342623e-02
4.735999999999999943e+01,1.328893541292460942e-02
4.739999999999999858e+01,1.006075676148083728e-02
4.743999999999999773e+01,1.110672461084099422e-02
4.747999999999999687e+01,1.228606800774826799e-02
4.752000000000000313e+01,1.072696194923400057e-02
4.756000000000000227e+01,1.330842926085909657e-02
4.760000000000000142e+01,9.077462835188569029e-03
4.764000000000000057e+01,1.192568153884911858e-02
4.767999999999999972e+01,9.564345685155120277e-03
4.771999999999999886e+01,8.738904841742434898e-03
4.775999999999999801e+01,9.516145679993738560e-03
4.779999999999999716e+01,9.157816454865453509e-03
4.784000000000000341e+01,1.387507370229313676e-02
4.788000000000000256e+01,8.240206174352169774e-03
4.792000000000000171e+01,7.614138574844995719e-03
4.796000000000000085e+01,1.012684533524088951e-02
4.800000000000000000e+01,9.233236859631947790e-03
4.803999999999999915e+01,9.140870815077799250e-03
4.807999999999999829e+01,6.777562311722161968e-03
4.811999999999999744e+01,1.009092023852646743e-02
4.815999999999999659e+01,1.026510961485671558e-02
4.820000000000000284e+01,9.570875867859157324e-03
4.824000000000000199e+01,9.945031279867367138e-03
4.828000000000000114e+01,8.916470621687839354e-03
4.832000000000000028e+01,9.490592239054669241e-03
4.835999999999999943e+01,8.728784500036628272e-03
4.839999999999999858e+01,9.903592266217946249e-03
4.843999999999999773e+01,1.067748356633017523e-02
4.847999999999999687e+01,9.581152605617775445e-03
4.852000000000000313e+01,7.816758747826510825e-03
4.856000000000000227e+01,5.317515406413994561e-03
4.860000000000000142e+01,5.489540700889509843e-03
4.864000000000000057e+01,5.794942773097043823e-03
4.867999999999999972e+01,7.569454244707374789e-03
4.871999999999999886e+01,9.210196063039919126e-03
4.875999999999999801e+01,3.504212342561428047e-03
4.879999999999999716e+01,3.007389370648021025e-03
4.884000000000000341e+01,8.721526624157826396e-03
4.888000000000000256e+01,9.159323963955582487e-03
4.892000000000000171e+01,1.146695073145234320e-02
4.896000000000000085e+01,7.563224864601939858e-03
4.900000000000000000e+01,1.000403265078049150e-02
4.903999999999999915e+01,7.435647208777792887e-03
4.907999999999999829e+01,5.668505300754255599e-03
4.911999999999999744e+01,4.235100566392339602e-03
4.915999999999999659e+01,7.676923817564345644e-03
4.920000000000000284e+01,6.577060412973487896e-03
4.924000000000000199e+01,6.412013969967541444e-03
4.928000000000000114e+01,4.577106001427922941e-03
4.932000000000000028e+01,7.149919785365184584e-03
4.935999999999999943e+01,8.453591902384306050e-03
4.939999999999999858e+01,6.751670041879619978e-03
4.943999999999999773e+01,5.183125807510310587e-03
4.947999999999999687e+01,5.150478449909690233e-03
4.952000000000000313e+01,8.256607106598680412e-03
4.956000000000000227e+01,9.025008245069871676e-03
4.960000000000000142e+01,7.054962133968219890e-03
4.964000000000000057e+01,5.485440376952919680e-03
4.967999999999999972e+01,8.590787270046109508e-03
4.971999999999999886e+01,7.955887606389013683e-03
4.975999999999999801e+01,9.858684550879757980e-03
4.979999999999999716e+01,1.075948681092432288e-02
4.984000000000000341e+01,1.072508105790542440e-02
4.988000000000000256e+01,1.262729237963208448e-02
4.992000000000000171e+01,6.848846247919914212e-03
4.996000000000000085e+01,8.550307479683777120e-03
5.000000000000000000e+01,8.915841094289635865e-03
5.003999999999999915e+01,5.607915120469077197e-03
5.007999999999999829e+01,6.908071591996170838e-03
5.011999999999999744e+01,5.870501139187824652e-03
5.015999999999999659e+01,1.157818534336847206e-02
5.020000000000000284e+01,1.020629205171424449e-02
5.024000000000000199e+01,8.032764429123318006e-03
5.028000000000000114e+01,8.396933966142378428e-03
5.032000000000000028e+01,6.423376790926854131e-03
5.035999999999999943e+01,7.054303489124198225e-03
5.039999999999999858e+01,7.417889057765739667e-03
5.043999999999999773e+01,8.248786457859494381e-03
5.047999999999999687e+01,8.010903265687402408e-03
5.052000000000000313e+01,7.572465700182548672e-03
5.056000000000000227e+01,7.935273238203055871e-03
5.060000000000000142e+01,8.164313116693655906e-03
5.064000000000000057e+01,7.257785943636563090e-03
5.067999999999999972e+01,8.488236580615969931e-03
5.071999999999999886e+01,5.778081834461688132e-03
5.075999999999999801e+01,8.878169576123483980e-03
5.079999999999999716e+01,8.104438648454444921e-03
5.084000000000000341e+01,8.933392668802345171e-03
5.088000000000000256e+01,1.230004448506277423e-02
5.092000000000000171e+01,8.052826537351096686e-03
5.096000000000000085e+01,9.148344886818631644e-03
5.100000000000000000e+01,1.031045588784551721e-02
5.103999999999999915e+01,8.400188021612978173e-03
5.107999999999999829e+01,9.227978050281403569e-03
5.111999999999999744e+01,6.716242780680584286e-03
5.115999999999999659e+01,9.747603907247409660e-03
5.120000000000000284e+01,1.077517239963596100e-02
5.124000000000000199e+01,9.665375042341340858e-03
5.128000000000000114e+01,1.015826309968550709e-02
5.132000000000000028e+01,1.045059763210024438e-02
5.135999999999999943e+01,1.181132463229385768e-02
5.139999999999999858e+01,1.143540572626014669e-02
5.143999999999999773e+01,5.582789734517528725e-03
5.147999999999999687e+01,5.340057107266446210e-03
5.152000000000000313e+01,8.436462502200937560e-03
5.156000000000000227e+01,7.258330260012603799e-03
5.160000000000000142e+01,8.484323319374773367e-03
5.164000000000000057e+01,6.971871292592652508e-03
5.167999999999999972e+01,6.527812072950728815e-03
5.171999999999999886e+01,8.955384684857549404e-03
5.175999999999999801e+01,8.644512337880577713e-03
5.179999999999999716e+01,8.333446861903813507e-03
5.184000000000000341e+01,7.487895267647167938e-03
5.188000000000000256e+01,1.004826870632014729e-02
5.192000000000000171e+01,9.402690953052303749e-03
5.196000000000000085e+01,7.087254516402042084e-03
5.200000000000000000e+01,7.309517063429028273e-03
5.203999999999999915e+01,5.728347753988839199e-03
5.207999999999999829e+01,9.623489187417634191e-03
5.211999999999999744e+01,8.910160432793289356e-03
5.215999999999999659e+01,8.597358704725820491e-03
5.220000000000000284e+01,6.080405516096679813e-03
5.224000000000000199e+01,9.574056271717448080e-03
5.228000000000000114e+01,4.452039271213833159e-03
5.232000000000000028e+01,6.075279218388290360e-03
5.235999999999999943e+01,1.110444470753439543e-02
5.239999999999999858e+01,9.721901323580195431e-03
5.243999999999999773e+01,8.339165489348855653e-03
5.247999999999999687e+01,8.893049487173985274e-03
5.252000000000000313e+01,8.244581798236770911e-03
5.256000000000000227e+01,9.733093913083943477e-03
5.260000000000000142e+01,8.549948588833395161e-03
5.264000000000000057e+01,1.157416865104608783e-02
5.267999999999999972e+01,6.917734186811496863e-03
5.271999999999999886e+01,5.466865759442478961e-03
5.275999999999999801e+01,6.754057008621487147e-03
5.279999999999999716e+01,7.506763157604658121e-03
5.284000000000000341e+01,1.026287614938830445e-02
5.288000000000000256e+01,9.011599419764789246e-03
5.292000000000000171e+01,7.826917377868702549e-03
5.296000000000000085e+01,1.011494814320931628e-02
5.300000000000000000e+01,8.595949201290850605e-03
5.303999999999999915e+01,8.879997427386151360e-03
5.307999999999999829e+01,8.696347479189276905e-03
5.311999999999999744e+01,7.644279625345229076e-03
5.315999999999999659e+01,1.286996320726506611e-02
5.320000000000000284e+01,9.079260234949178623e-03
5.324000000000000199e+01,9.763069801249154786e-03
5.328000000000000114e+01,1.031311455017048032e-02
5.332000000000000028e+01,7.456849704969265892e-03
5.335999999999999943e+01,1.274836211858364210e-02
5.339999999999999858e+01,1.456677839395327002e-02
5.343999999999999773e+01,9.572767125371769645e-03
5.347999999999999687e+01,8.786122134076979062e-03
5.352000000000000313e+01,9.936098077763017358e-03
5.356000000000000227e+01,1.168696241959945106e-02
5.360000000000000142e+01,8.896144771891444786e-03
5.364000000000000057e+01,1.064662671596350307e-02
5.367999999999999972e+01,9.257945963544659054e-03
5.371999999999999886e+01,9.204806697544715838e-03
5.375999999999999801e+01,1.269116771614736336e-02
5.379999999999999716e+01,1.036690100701832644e-02
5.384000000000000341e+01,7.708510187505399243e-03
5.388000000000000256e+01,1.079357853561909754e-02
5.392000000000000171e+01,1.067269781280037397e-02
5.396000000000000085e+01,9.215893672420280222e-03
5.400000000000000000e+01,5.421366722460990717e-03
5.403999999999999915e+01,8.906391575947233963e-03
5.407999999999999829e+01,6.313642482792864233e-03
5.411999999999999744e+01,1.006543247244892636e-02
5.415999999999999659e+01,1.181343296701913882e-02
5.420000000000000284e+01,1.088977771929834810e-02
5.424000000000000199e+01,8.696985979919896054e-03
5.428000000000000114e+01,1.111228114000671272e-02
5.432000000000000028e+01,1.112306720091314934e-02
5.435999999999999943e+01,9.530783752609772383e-03
5.439999999999999858e+01,9.808335543568373963e-03
5.443999999999999773e+01,7.481018475719513998e-03
5.447999999999999687e+01,1.009572166424941783e-02
5.452000000000000313e+01,9.237329902299307172e-03
5.456000000000000227e+01,1.138414624165487096e-02
5.460000000000000142e+01,1.105966714980870756e-02
5.464000000000000057e+01,1.120250434353239552e-02
5.467999999999999972e+01,9.608699109482511658e-03
5.471999999999999886e+01,8.615783503767871290e-03
5.475999999999999801e+01,6.954811618520530779e-03
5.479999999999999716e+01,9.835140555238101184e-03
5.484000000000000341e+01,1.137954700763799294e-02
5.488000000000000256e+01,8.582632714826459938e-03
5.492000000000000171e+01,8.123060615476790716e-03
5.496000000000000085e+01,9.199391204458800056e-03
5.500000000000000000e+01,8.271933189178490992e-03
5.503999999999999915e+01,9.615030865658047085e-03
5.507999999999999829e+01,1.142544529432925650e-02
5.511999999999999744e+01,8.560606087497393130e-03
5.515999999999999659e+01,9.769561681674244352e-03
5.520000000000000284e+01,9.509021915389857110e-03
5.524000000000000199e+01,1.065081187645325334e-02
5.528000000000000114e+01,1.132490599633373049e-02
5.532000000000000028e+01,6.923026919036761283e-03
5.535999999999999943e+01,8.131035320987569856e-03
5.539999999999999858e+01,8.804561380053414765e-03
5.543999999999999773e+01,9.611471428279803886e-03
5.547999999999999687e+01,7.679940462698014135e-03
5.552000000000000313e+01,6.549659860742398573e-03
5.556000000000000227e+01,8.023868646821511255e-03
5.560000000000000142e+01,9.898608107591922931e-03
5.564000000000000057e+01,1.037063930348546686e-02
5.567999999999999972e+01,8.304589584559318727e-03
5.571999999999999886e+01,9.176962568161167733e-03
5.575999999999999801e+01,1.145166583057298688e-02
5.579999999999999716e+01,8.116103373149129163e-03
5.584000000000000341e+01,1.099150856467785535e-02
5.588000000000000256e+01,1.005988710319959123e-02
5.592000000000000171e+01,1.199990192738764096e-02
5.596000000000000085e+01,9.465023893783753098e-03
5.600000000000000000e+01,1.026928863342423982e-02
5.603999999999999915e+01,1.227552406192826753e-02
5.607999999999999829e+01,1.080866619433881563e-02
5.611999999999999744e+01,1.147879190592867617e-02
5.615999999999999659e+01,9.410477324853236750e-03
5.620000000000000284e+01,8.143413828546833960e-03
5.624000000000000199e+01,6.876161911879234007e-03
5.628000000000000114e+01,6.143014648970874896e-03
5.632000000000000028e+01,8.882583756593316962e-03
5.635999999999999943e+01,1.001908547601434302e-02
5.639999999999999858e+01,1.249113152400545615e-02
5.643999999999999773e+01,1.222473757627244410e-02
5.647999999999999687e+01,1.155743568892410311e-02
5.652000000000000313e+01,1.048922590438052319e-02
5.656000000000000227e+01,9.821547812612302017e-03
5.660000000000000142e+01,1.035584100358998873e-02
5.664000000000000057e+01,8.685987442644619791e-03
5.667999999999999972e+01,1.035527737608651563e-02
5.671999999999999886e+01,9.085767723857822442e-03
5.675999999999999801e+01,1.108861502189422039e-02
5.679999999999999716e+01,8.549783723999596421e-03
5.684000000000000341e+01,7.680430366109610753e-03
5.688000000000000256e+01,1.155273992292088839e-02
5.692000000000000171e+01,8.679412255298130791e-03
5.696000000000000085e+01,8.076642315603278083e-03
5.700000000000000000e+01,1.141409587031982746e-02
5.703999999999999915e+01,1.301490950005270049e-02
5.707999999999999829e+01,1.414802919751019690e-02
5.711999999999999744e+01,1.040553749358540808e-02
5.715999999999999659e+01,1.113756248545293322e-02
5.720000000000000284e+01,1.287119950948124522e-02
5.724000000000000199e+01,1.186639738618879003e-02
5.728000000000000114e+01,8.991382334508640425e-03
5.732000000000000028e+01,1.219376324340219926e-02
5.735999999999999943e+01,1.011981323165928384e-02
5.739999999999999858e+01,1.065035455927879418e-02
5.743999999999999773e+01,1.171500177084239952e-02
5.747999999999999687e+01,1.204480895848217444e-02
5.752000000000000313e+01,1.077154998810538923e-02
5.756000000000000227e+01,1.090062320544611663e-02
5.760000000000000142e+01,7.890537883472385078e-03
5.764000000000000057e+01,1.049034245869600451e-02
5.767999999999999972e+01,1.095278801388347399e-02
5.771999999999999886e+01,9.277874591454949443e-03
5.775999999999999801e+01,8.671360424032124870e-03
5.779999999999999716e+01,1.073612464913594605e-02
5.784000000000000341e+01,1.093067653973439288e-02
5.788000000000000256e+01,8.320003332772208521e-03
5.792000000000000171e+01,1.065135403032324915e-02
5.796000000000000085e+01,9.108893651753470488e-03
5.800000000000000000e+01,9.903778732998502407e-03
5.803999999999999915e+01,1.009739764212711811e-02
5.807999999999999829e+01,1.176013591939799145e-02
5.811999999999999744e+01,1.121872901429201048e-02
5.815999999999999659e+01,1.334860088349415670e-02
5.820000000000000284e+01,1.127072878628387551e-02
5.824000000000000199e+01,1.286593498266001140e-02
5.828000000000000114e+01,9.719104265763788691e-03
5.832000000000000028e+01,1.198180428032018588e-02
5.835999999999999943e+01,1.257465239872099759e-02
5.839999999999999858e+01,8.759396875922585354e-03
5.843999999999999773e+01,1.175619142005045366e-02
5.847999999999999687e+01,1.201454813188276155e-02
5.852000000000000313e+01,9.935186827614817320e-03
5.856000000000000227e+01,1.052710472185670008e-02
5.860000000000000142e+01,1.192027624607770037e-02
5.864000000000000057e+01,8.838557754657945867e-03
5.867999999999999972e+01,1.283603610053559926e-02
5.871999999999999886e+01,1.028823901777437856e-02
5.875999999999999801e+01,1.234853358553722295e-02
5.879999999999999716e+01,1.220468369206608415e-02
5.884000000000000341e+01,1.192707487761960304e-02
5.888000000000000256e+01,1.051390775017998873e-02
5.892000000000000171e+01,1.090379402651877119e-02
5.896000000000000085e+01,9.156322640266782026e-03
5.900000000000000000e+01,1.328588910934798938e-02
5.903999999999999915e+01,9.467661280938463944e-03
5.907999999999999829e+01,1.052467195826449139e-02
5.911999999999999744e+01,8.776458853055120468e-03
5.915999999999999659e+01,1.130240467775880595e-02
5.920000000000000284e+01,1.022168725721702212e-02
5.924000000000000199e+01,1.087723695085248722e-02
5.928000000000000114e+01,1.179974796390962505e-02
5.932000000000000028e+01,1.091883484097014474e-02
5.935999999999999943e+01,9.637016832667386415e-03
5.939999999999999858e+01,1.129362542954810353e-02
5.943999999999999773e+01,1.134716990458029505e-02
5.947999999999999687e+01,1.066587647669704764e-02
5.952000000000000313e+01,1.365766269984563380e-02
5.956000000000000227e+01,1.170705348027960627e-02
5.960000000000000142e+01,1.463168331791130615e-02
5.964000000000000057e+01,1.121139858945559113e-02
5.967999999999999972e+01,8.458795378398420092e-03
5.971999999999999886e+01,1.058143135179947895e-02
5.975999999999999801e+01,1.123457680063842667e-02
5.979999999999999716e+01,9.616792219785072829e-03
5.984000000000000341e+01,1.120458122658713092e-02
5.988000000000000256e+01,1.272539904430077494e-02
5.992000000000000171e+01,1.063955438033195935e-02
5.996000000000000085e+01,1.129177702854134401e-02
