2.003999999999999915e+01,4.143170035983053529e-02
2.007999999999999829e+01,4.061481771822113979e-02
2.012000000000000099e+01,1.020742950232750128e-02
2.016000000000000014e+01,3.223501845180136438e-02
2.019999999999999929e+01,4.033744530616546059e-02
2.023999999999999844e+01,5.257337041791744492e-02
2.028000000000000114e+01,4.087571826854837637e-02
2.032000000000000028e+01,3.418186050088761058e-02
2.035999999999999943e+01,5.120318014485311653e-02
2.039999999999999858e+01,3.232433893997371105e-02
2.044000000000000128e+01,2.932800223877549822e-02
2.048000000000000043e+01,2.132704397436864865e-02
2.051999999999999957e+01,5.053086356378722055e-02
2.055999999999999872e+01,2.207709816588571475e-02
2.060000000000000142e+01,3.039296139129047530e-02
2.064000000000000057e+01,4.719380349568604027e-02
2.067999999999999972e+01,4.985190460572940657e-02
2.071999999999999886e+01,4.489449110616652167e-02
2.076000000000000156e+01,3.732576980109731518e-02
2.080000000000000071e+01,2.301183001074255316e-02
2.083999999999999986e+01,3.828756705535731053e-02
2.087999999999999901e+01,4.029085806158147487e-02
2.092000000000000171e+01,3.402590983351480580e-02
2.096000000000000085e+01,5.408702388495920110e-02
2.100000000000000000e+01,2.889227953607883745e-02
2.103999999999999915e+01,3.763869459103575538e-02
2.107999999999999829e+01,4.377379872486241580e-02
2.112000000000000099e+01,2.945650503196174663e-02
2.116000000000000014e+01,2.405933360677650970e-02
2.119999999999999929e+01,5.934812102762238722e-02
2.123999999999999844e+01,7.113847029208918149e-02
2.128000000000000114e+01,3.506206772038072267e-02
2.132000000000000028e+01,3.423226718117861750e-02
2.135999999999999943e+01,4.558620034952665795e-02
2.139999999999999858e+01,6.324936273919250229e-02
2.144000000000000128e+01,6.133042108973380674e-02
2.148000000000000043e+01,4.613902756009008455e-02
2.151999999999999957e+01,2.724844769630010294e-02
2.155999999999999872e+01,4.795595204443117709e-02
2.160000000000000142e+01,4.690560853755972037e-02
2.164000000000000057e+01,5.151176923786833506e-02
2.167999999999999972e+01,6.220958220751737072e-02
2.171999999999999886e+01,3.809509260540677733e-02
2.176000000000000156e+01,2.942794620341589520e-02
2.180000000000000071e+01,5.796556519275534308e-02
2.183999999999999986e+01,3.733098153873831010e-02
2.187999999999999901e+01,3.867096669068097875e-02
2.192000000000000171e+01,4.588502754943993289e-02
2.196000000000000085e+01,5.244593695136272327e-02
2.200000000000000000e+01,4.029503376504595114e-02
2.203999999999999915e+01,3.293033398815301688e-02
2.207999999999999829e+01,5.015109177963485154e-02
2.212000000000000099e+01,4.322068016935227269e-02
2.216000000000000014e+01,2.715172034850999588e-02
2.219999999999999929e+01,4.088999834704272474e-02
2.223999999999999844e+01,5.745630977547476481e-02
2.228000000000000114e+01,3.964546163141884072e-02
2.232000000000000028e+01,4.163343575127356755e-02
2.235999999999999943e+01,1.403088248748030932e-02
2.239999999999999858e+01,2.428581145064259011e-02
2.244000000000000128e+01,6.151951096097583310e-02
2.248000000000000043e+01,4.457679440315227837e-02
2.251999999999999957e+01,4.525715590390842064e-02
2.255999999999999872e+01,3.440564881570207928e-02
2.260000000000000142e+01,4.944503958782176661e-02
2.264000000000000057e+01,4.838350225013381828e-02
2.267999999999999972e+01,4.427548996158316846e-02
2.271999999999999886e+01,3.668585388110399970e-02
2.276000000000000156e+01,2.953092968376245034e-02
2.280000000000000071e+01,4.696145604464203871e-02
2.283999999999999986e+01,4.393956783231644375e-02
2.287999999999999901e+01,3.439001510895733915e-02
2.292000000000000171e+01,2.549274693673067582e-02
2.296000000000000085e+01,4.052820508749344769e-02
2.300000000000000000e+01,3.815728626853180649e-02
2.303999999999999915e+01,4.448889718718946479e-02
2.307999999999999829e+01,4.842675193787456672e-02
2.312000000000000099e+01,4.496664293758179110e-02
2.316000000000000014e+01,4.912119137751587428e-02
2.319999999999999929e+01,4.587777528756615403e-02
2.323999999999999844e+01,4.045817569763879989e-02
2.328000000000000114e+01,3.025150150860132434e-02
2.332000000000000028e+01,4.245453055683000299e-02
2.335999999999999943e+01,2.615489361411924354e-02
2.339999999999999858e+01,2.573773235556969796e-02
2.344000000000000128e+01,3.750428455301563213e-02
2.348000000000000043e+01,3.730381075246747696e-02
2.351999999999999957e+01,3.557987340319083980e-02
2.355999999999999872e+01,3.320276901895929250e-02
2.360000000000000142e+01,1.320170759740219198e-02
2.364000000000000057e+01,3.062296787814537680e-02
2.367999999999999972e+01,1.845368792329222379e-02
2.371999999999999886e+01,5.415029173055180278e-02
2.376000000000000156e+01,4.089224842651852793e-02
2.380000000000000071e+01,1.566717600886750883e-02
2.383999999999999986e+01,2.982259137851152667e-02
2.387999999999999901e+01,3.527459024273131571e-02
2.392000000000000171e+01,2.593109388948804106e-02
2.396000000000000085e+01,3.551610692935725649e-02
2.400000000000000000e+01,2.965290129543763503e-02
2.403999999999999915e+01,2.400682085635391649e-02
2.407999999999999829e+01,3.489593215815078170e-02
2.412000000000000099e+01,2.859622981134672670e-02
2.416000000000000014e+01,1.555127626520735190e-02
2.419999999999999929e+01,3.361898642063412129e-02
2.423999999999999844e+01,1.404590453327752252e-02
2.428000000000000114e+01,3.885751334278583768e-02
2.432000000000000028e+01,4.256397049190890902e-02
2.435999999999999943e+01,2.016106839764133379e-02
2.439999999999999858e+01,1.842726521895658373e-02
2.444000000000000128e+01,3.061775956639588639e-02
2.448000000000000043e+01,1.561102237305238803e-02
2.451999999999999957e+01,3.214722184982181635e-03
2.455999999999999872e+01,3.172192235469994265e-02
2.460000000000000142e+01,1.519080329913189385e-02
2.464000000000000057e+01,1.976392927404197961e-02
2.467999999999999972e+01,3.521531127706555714e-02
2.471999999999999886e+01,4.348628817679893455e-02
2.476000000000000156e+01,4.174839464830273211e-02
2.480000000000000071e+01,3.739915397954969578e-02
2.483999999999999986e+01,3.957668326496548844e-02
2.487999999999999901e+01,3.849014195379859421e-02
2.492000000000000171e+01,1.107666172109278251e-02
2.496000000000000085e+01,4.697682320972838138e-02
2.500000000000000000e+01,3.305202861080266258e-02
2.503999999999999915e+01,1.412256805102919850e-02
2.507999999999999829e+01,4.001293885067449402e-02
2.512000000000000099e+01,4.893206049120106538e-02
2.516000000000000014e+01,2.586731100249845677e-02
2.519999999999999929e+01,3.391521547903767614e-02
2.523999999999999844e+01,4.152751078940361551e-02
2.528000000000000114e+01,4.652845428607691597e-02
2.532000000000000028e+01,3.629874048281991894e-02
2.535999999999999943e+01,3.890544411923554935e-02
2.539999999999999858e+01,2.802208348326792886e-02
2.544000000000000128e+01,4.651078066937124750e-02
2.548000000000000043e+01,4.215372109450005872e-02
2.551999999999999957e+01,3.431501046599187005e-02
2.555999999999999872e+01,3.060974629762606633e-02
2.560000000000000142e+01,3.974089723221507081e-02
2.564000000000000057e+01,4.843643510610091268e-02
2.567999999999999972e+01,2.862928440077514361e-02
2.571999999999999886e+01,4.102265372683546601e-02
2.576000000000000156e+01,5.406827995286717092e-02
2.580000000000000071e+01,2.947309894744953515e-02
2.583999999999999986e+01,2.076036986956154504e-02
2.587999999999999901e+01,2.336103358781111555e-02
2.592000000000000171e+01,1.355949909982189817e-02
2.596000000000000085e+01,3.313001737101502198e-02
2.600000000000000000e+01,1.767061717317339881e-02
2.603999999999999915e+01,4.137410911690662940e-02
2.607999999999999829e+01,3.200584984495885577e-02
2.612000000000000099e+01,3.721459441953037933e-02
2.616000000000000014e+01,3.872410748341070102e-02
2.619999999999999929e+01,3.240047835682077076e-02
2.623999999999999844e+01,4.696350445678351693e-02
2.628000000000000114e+01,4.063893403897207018e-02
2.632000000000000028e+01,2.756909139136461476e-02
2.635999999999999943e+01,3.125199251162484593e-02
2.639999999999999858e+01,1.622303820381837403e-02
2.644000000000000128e+01,2.208073717529954530e-02
2.648000000000000043e+01,1.967014277852646015e-02
2.651999999999999957e+01,3.227169678535619923e-02
2.655999999999999872e+01,4.182673806438479136e-02
2.660000000000000142e+01,5.181645383906561403e-02
2.664000000000000057e+01,1.655025630055232191e-02
2.667999999999999972e+01,6.739768446548362671e-03
2.671999999999999886e+01,3.087038469405935931e-02
2.676000000000000156e+01,2.192924310518898703e-02
2.680000000000000071e+01,2.604207916149068117e-02
2.683999999999999986e+01,2.667325131220731754e-02
2.687999999999999901e+01,2.447548184530576321e-02
2.692000000000000171e+01,2.336510643585252081e-02
2.696000000000000085e+01,2.725846075891410342e-02
2.700000000000000000e+01,3.289193103793808942e-02
2.703999999999999915e+01,1.415660978667502602e-02
2.707999999999999829e+01,3.893565506734204124e-02
2.712000000000000099e+01,2.085209884525242308e-02
2.716000000000000014e+01,9.512864214865912604e-03
2.719999999999999929e+01,2.776324449642574715e-02
2.723999999999999844e+01,2.599631581656672991e-02
2.728000000000000114e+01,2.335860965681952131e-02
2.732000000000000028e+01,3.094641114386946154e-02
2.735999999999999943e+01,1.895205095275472040e-02
2.739999999999999858e+01,2.458072130695692151e-02
2.744000000000000128e+01,4.239306617185715359e-02
2.748000000000000043e+01,4.867349454507917395e-02
2.751999999999999957e+01,1.861854429521371881e-02
2.755999999999999872e+01,1.880592812963801513e-02
2.760000000000000142e+01,1.638193756209738866e-02
2.764000000000000057e+01,3.484458859025525018e-02
2.767999999999999972e+01,3.089660988913820946e-02
2.771999999999999886e+01,3.369294732738276066e-02
2.776000000000000156e+01,2.843855316068437736e-02
2.780000000000000071e+01,2.100793109636925685e-02
2.783999999999999986e+01,2.119192090628321812e-02
2.787999999999999901e+01,2.094027584612763448e-02
2.792000000000000171e+01,2.177601510709609861e-02
2.796000000000000085e+01,2.217611871908902951e-02
2.800000000000000000e+01,1.865939867974730076e-02
2.803999999999999915e+01,2.362758547059634964e-02
2.807999999999999829e+01,4.426062815380189808e-02
2.812000000000000099e+01,3.073402863019160033e-02
2.816000000000000014e+01,1.872995954260090953e-02
2.819999999999999929e+01,3.000584308224000379e-02
2.823999999999999844e+01,2.409287285962192354e-02
2.828000000000000114e+01,2.144302571111737429e-02
2.832000000000000028e+01,1.378848066662131770e-02
2.835999999999999943e+01,1.346811562487438413e-03
2.839999999999999858e+01,3.394251571898199843e-02
2.844000000000000128e+01,1.388476535947296732e-02
2.848000000000000043e+01,2.559235970748192576e-02
2.851999999999999957e+01,3.947520366385326440e-02
2.855999999999999872e+01,3.334072580685759624e-02
2.860000000000000142e+01,1.567432055350033784e-02
2.864000000000000057e+01,3.086112957888225219e-02
2.867999999999999972e+01,2.820635788060435120e-02
2.871999999999999886e+01,2.272262664987155512e-02
2.876000000000000156e+01,2.441834988433600265e-02
2.880000000000000071e+01,1.871605406550025733e-02
2.883999999999999986e+01,2.476227067489522246e-02
2.887999999999999901e+01,2.928497154886308337e-02
2.892000000000000171e+01,2.923811713665811982e-02
2.896000000000000085e+01,3.550041833915897060e-02
2.900000000000000000e+01,2.805504599270229951e-02
2.903999999999999915e+01,4.497748922399632393e-02
2.907999999999999829e+01,1.903731186933781128e-02
2.912000000000000099e+01,3.008425441030873268e-02
2.916000000000000014e+01,3.982525271548847251e-02
2.919999999999999929e+01,3.150709100831310117e-02
2.923999999999999844e+01,2.645204302837992488e-02
2.928000000000000114e+01,4.598238251528623949e-02
2.932000000000000028e+01,4.201420517631258844e-02
2.935999999999999943e+01,4.609577336396819547e-02
2.939999999999999858e+01,5.169985991460098601e-02
2.944000000000000128e+01,4.947077272907272200e-02
2.948000000000000043e+01,4.223697635341665951e-02
2.951999999999999957e+01,2.281852094656085933e-02
2.955999999999999872e+01,1.797703589326846499e-02
2.960000000000000142e+01,2.771252080408641294e-02
2.964000000000000057e+01,4.049354132181025301e-02
2.967999999999999972e+01,3.804386208922954510e-02
2.971999999999999886e+01,4.059788571690838010e-02
2.976000000000000156e+01,3.314299023473601252e-02
2.980000000000000071e+01,2.960392570488406053e-02
2.983999999999999986e+01,3.846608654435838826e-02
2.987999999999999901e+01,4.167081162175525350e-02
2.992000000000000171e+01,3.769508096697526262e-02
2.996000000000000085e+01,5.308294973897487168e-02
3.000000000000000000e+01,4.780075999988028096e-02
3.003999999999999915e+01,3.903687519896280322e-02
3.007999999999999829e+01,4.789599485001288376e-02
3.012000000000000099e+01,3.869594553128942460e-02
3.016000000000000014e+01,5.952063075660590091e-02
3.019999999999999929e+01,5.554134523323724787e-02
3.023999999999999844e+01,8.202194192661577121e-02
3.028000000000000114e+01,7.064411354400516874e-02
3.032000000000000028e+01,8.689770166374952143e-02
3.035999999999999943e+01,1.112010255737987674e-01
3.039999999999999858e+01,1.035204273362790167e-01
3.044000000000000128e+01,1.162912949811364255e-01
3.048000000000000043e+01,1.495136281189179406e-01
3.051999999999999957e+01,1.537980771020645843e-01
3.055999999999999872e+01,1.691782990895440708e-01
3.060000000000000142e+01,1.786835040789859497e-01
3.064000000000000057e+01,1.879706215519097168e-01
3.067999999999999972e+01,2.098765304414539068e-01
3.071999999999999886e+01,2.178571748097559990e-01
3.076000000000000156e+01,2.145234449770428709e-01
3.080000000000000071e+01,2.151055363603257831e-01
3.083999999999999986e+01,2.072017176991735599e-01
3.087999999999999901e+01,1.816738711202546819e-01
3.092000000000000171e+01,1.546224889438071737e-01
3.096000000000000085e+01,1.306166295223172291e-01
3.100000000000000000e+01,1.255392109502163622e-01
3.103999999999999915e+01,1.054486536122164336e-01
3.107999999999999829e+01,1.136422280543849805e-01
3.112000000000000099e+01,9.268033827431722271e-02
3.116000000000000014e+01,7.563426620516884580e-02
3.119999999999999929e+01,7.512331655427166577e-02
3.123999999999999844e+01,5.981680041601717540e-02
3.128000000000000114e+01,6.148055436872125468e-02
3.132000000000000028e+01,5.639898741000761578e-02
3.135999999999999943e+01,5.501566198914179667e-02
3.139999999999999858e+01,6.102933955538366456e-02
3.144000000000000128e+01,5.268259713861660892e-02
3.148000000000000043e+01,3.933112605907321951e-02
3.151999999999999957e+01,2.750215270149929808e-02
3.155999999999999872e+01,3.155557557967986898e-02
3.160000000000000142e+01,3.321515933640468293e-02
3.164000000000000057e+01,2.508337990479513058e-02
3.167999999999999972e+01,4.936963670188537073e-02
3.171999999999999886e+01,5.168037288656381067e-02
3.176000000000000156e+01,3.071014271453756037e-02
3.180000000000000071e+01,2.279384150606176759e-02
3.183999999999999986e+01,2.553815238781035127e-02
3.187999999999999901e+01,3.502673890581101124e-02
3.192000000000000171e+01,2.449797089639466768e-02
3.196000000000000085e+01,4.094788074434143471e-02
3.200000000000000000e+01,3.085320851176626133e-02
3.203999999999999915e+01,2.445677119633830540e-02
3.207999999999999829e+01,2.589247869893073276e-02
3.211999999999999744e+01,2.580463892040520124e-02
3.215999999999999659e+01,2.767443908421490795e-02
3.220000000000000284e+01,1.213777270411644030e-02
3.224000000000000199e+01,3.315304739070219775e-02
3.228000000000000114e+01,2.479527233510894768e-02
3.232000000000000028e+01,3.645379640598968296e-02
3.235999999999999943e+01,3.244644618160345134e-02
3.239999999999999858e+01,1.734228001443650219e-02
3.243999999999999773e+01,3.487371690216954645e-02
3.247999999999999687e+01,2.346725055207187285e-02
3.252000000000000313e+01,8.579064994066862640e-03
3.256000000000000227e+01,0.000000000000000000e+00
3.260000000000000142e+01,2.101049734172837427e-02
3.264000000000000057e+01,2.156848469427293663e-02
3.267999999999999972e+01,3.387494708756264017e-02
3.271999999999999886e+01,2.224771109985643203e-02
3.275999999999999801e+01,1.540657414817715731e-02
3.279999999999999716e+01,3.771984913341486223e-02
3.284000000000000341e+01,3.392368231123139843e-02
3.288000000000000256e+01,2.599307009864386397e-02
3.292000000000000171e+01,1.980251620297854634e-02
3.296000000000000085e+01,1.078296149284297366e-02
3.300000000000000000e+01,2.787177761106669413e-02
3.303999999999999915e+01,1.819842729718448154e-02
3.307999999999999829e+01,3.049953674242943807e-02
3.311999999999999744e+01,2.474144800892797216e-02
3.315999999999999659e+01,3.551846261048188791e-02
3.320000000000000284e+01,3.128231741567628205e-02
3.324000000000000199e+01,4.271097787379363186e-02
3.328000000000000114e+01,3.129380562760656487e-02
3.332000000000000028e+01,2.161668780381193616e-02
3.335999999999999943e+01,2.934496827103433986e-02
3.339999999999999858e+01,2.684671996237834174e-02
3.343999999999999773e+01,3.674966197228086290e-02
3.347999999999999687e+01,4.491146923385774120e-02
3.352000000000000313e+01,2.326506622860006687e-02
3.356000000000000227e+01,2.032950492193444716e-02
3.360000000000000142e+01,3.566963647279468297e-02
3.364000000000000057e+01,4.513472142719120866e-02
3.367999999999999972e+01,3.654060275049965389e-02
3.371999999999999886e+01,3.120955418231717224e-02
3.375999999999999801e+01,8.472023881560496877e-03
3.379999999999999716e+01,1.924038029752913465e-02
3.384000000000000341e+01,4.110447778268684627e-02
3.388000000000000256e+01,2.641556049592758137e-02
3.392000000000000171e+01,2.521569998332436752e-02
3.396000000000000085e+01,1.792321553282708382e-02
3.400000000000000000e+01,3.608636949694480484e-02
3.403999999999999915e+01,2.444130813133943425e-02
3.407999999999999829e+01,2.497985662723832892e-02
3.411999999999999744e+01,2.551785795001705950e-02
3.415999999999999659e+01,2.801347974248229872e-02
3.420000000000000284e+01,3.072612780872809729e-02
3.424000000000000199e+01,1.907832863025691814e-02
3.428000000000000114e+01,3.071042288216361410e-02
3.432000000000000028e+01,4.277711646529847728e-02
3.435999999999999943e+01,3.874276782890433146e-02
3.439999999999999858e+01,4.297568987387136857e-02
3.443999999999999773e+01,3.480633075911623159e-02
3.447999999999999687e+01,3.599211267584948720e-02
3.452000000000000313e+01,2.281744462169488924e-02
3.456000000000000227e+01,2.313182711044879311e-02
3.460000000000000142e+01,3.911100201072452431e-02
3.464000000000000057e+01,4.464606183627292668e-02
3.467999999999999972e+01,5.714294426217186862e-02
3.471999999999999886e+01,3.569769444732098090e-02
3.475999999999999801e+01,5.689643948620272396e-02
3.479999999999999716e+01,7.874735340868366240e-02
3.484000000000000341e+01,7.340093492206156700e-02
3.488000000000000256e+01,1.126566781530728978e-01
3.492000000000000171e+01,1.490834014864183543e-01
3.496000000000000085e+01,2.322880280165575961e-01
3.500000000000000000e+01,2.902534886120415880e-01
3.503999999999999915e+01,3.473480961737605566e-01
3.507999999999999829e+01,3.778980916670784396e-01
3.511999999999999744e+01,4.108408467348248494e-01
3.515999999999999659e+01,4.126699302133249314e-01
3.520000000000000284e+01,3.881719746808718341e-01
3.524000000000000199e+01,3.706358362964275455e-01
3.528000000000000114e+01,4.196768525415571216e-01
3.532000000000000028e+01,4.856880995428947134e-01
3.535999999999999943e+01,5.784604170722862371e-01
3.539999999999999858e+01,6.607886121273435220e-01
3.543999999999999773e+01,7.418108018024929251e-01
3.547999999999999687e+01,7.327567015791743854e-01
3.552000000000000313e+01,6.790993242615213088e-01
3.556000000000000227e+01,6.171735651697889402e-01
3.560000000000000142e+01,4.980252231080313785e-01
3.564000000000000057e+01,4.010688901062174350e-01
3.567999999999999972e+01,3.648152037426684036e-01
3.571999999999999886e+01,2.961423949826916258e-01
3.575999999999999801e+01,2.524900590497858310e-01
3.579999999999999716e+01,2.044856750706021686e-01
3.584000000000000341e+01,1.825896342686166018e-01
3.588000000000000256e+01,1.737474827059781179e-01
3.592000000000000171e+01,1.394485820254594000e-01
3.596000000000000085e+01,1.375676759021722539e-01
3.600000000000000000e+01,1.263305125917898730e-01
3.603999999999999915e+01,1.203145648339037643e-01
3.607999999999999829e+01,1.149507734971217526e-01
3.611999999999999744e+01,1.091512670629575521e-01
3.615999999999999659e+01,6.571085252902361673e-02
3.620000000000000284e+01,6.230352811883578534e-02
3.624000000000000199e+01,7.760701931389062114e-02
3.628000000000000114e+01,4.939509714403784307e-02
3.632000000000000028e+01,4.859695883278724454e-02
3.635999999999999943e+01,3.996557941001108866e-02
3.639999999999999858e+01,5.156803361531224483e-02
3.643999999999999773e+01,5.533724593018195248e-02
3.647999999999999687e+01,6.389252106195196512e-02
3.652000000000000313e+01,5.482371336308591164e-02
3.656000000000000227e+01,5.989665941189956100e-02
3.660000000000000142e+01,3.690195901245276605e-02
3.664000000000000057e+01,3.718712906565836002e-02
3.667999999999999972e+01,3.507841053688049576e-02
3.671999999999999886e+01,5.472654210120255630e-02
3.675999999999999801e+01,4.434885762719256719e-02
3.679999999999999716e+01,3.679906482219944680e-02
3.684000000000000341e+01,3.381775710322321854e-02
3.688000000000000256e+01,4.954725875824225745e-02
3.692000000000000171e+01,4.699995101067559744e-02
3.696000000000000085e+01,4.749810760012050659e-02
3.700000000000000000e+01,3.037217668549366256e-02
3.703999999999999915e+01,3.935457726447574855e-02
3.707999999999999829e+01,5.660422243146968208e-02
3.711999999999999744e+01,5.209586863570692117e-02
3.715999999999999659e+01,7.152010290712783325e-02
3.720000000000000284e+01,5.678460656590784278e-02
3.724000000000000199e+01,9.796510870654090430e-02
3.728000000000000114e+01,1.030277114233674879e-01
3.732000000000000028e+01,1.126587945527752488e-01
3.735999999999999943e+01,1.070591031569075452e-01
3.739999999999999858e+01,8.731650797534455666e-02
3.743999999999999773e+01,8.563199403801520504e-02
3.747999999999999687e+01,8.459962289093582444e-02
3.752000000000000313e+01,6.746617875754251648e-02
3.756000000000000227e+01,6.904353737744380048e-02
3.760000000000000142e+01,7.627724481278871926e-02
3.764000000000000057e+01,8.024675741605220847e-02
3.767999999999999972e+01,9.748771595908559129e-02
3.771999999999999886e+01,1.277825458266292069e-01
3.775999999999999801e+01,1.258758076614500399e-01
3.779999999999999716e+01,1.215751700096041471e-01
3.784000000000000341e+01,1.335920159010091646e-01
3.788000000000000256e+01,1.353822893978025577e-01
3.792000000000000171e+01,1.082346066911608756e-01
3.796000000000000085e+01,1.265593526175000927e-01
3.800000000000000000e+01,1.666409361744441708e-01
3.803999999999999915e+01,2.025880241015506900e-01
3.807999999999999829e+01,2.246097758480678219e-01
3.811999999999999744e+01,2.929742515729806818e-01
3.815999999999999659e+01,3.182584440803092329e-01
3.820000000000000284e+01,3.365796744645019878e-01
3.824000000000000199e+01,2.848414168521819501e-01
3.828000000000000114e+01,2.468097477894503899e-01
3.832000000000000028e+01,2.200913504029813617e-01
3.835999999999999943e+01,1.700919224000670416e-01
3.839999999999999858e+01,1.337990817783823172e-01
3.843999999999999773e+01,9.554748389039646739e-02
3.847999999999999687e+01,1.149524662176745204e-01
3.852000000000000313e+01,9.758681437068401909e-02
3.856000000000000227e+01,1.132918544439016906e-01
3.860000000000000142e+01,1.185527408865476584e-01
3.864000000000000057e+01,1.377377865995119688e-01
3.867999999999999972e+01,1.438677871933189967e-01
3.871999999999999886e+01,1.441226917301347554e-01
3.875999999999999801e+01,1.809294738527999491e-01
3.879999999999999716e+01,2.190411085911868616e-01
3.884000000000000341e+01,2.530182399106765678e-01
3.888000000000000256e+01,3.457398186799335860e-01
3.892000000000000171e+01,4.745781250256149719e-01
3.896000000000000085e+01,6.055915793324326835e-01
3.900000000000000000e+01,7.472655760173924078e-01
3.903999999999999915e+01,8.399847768200233711e-01
3.907999999999999829e+01,8.944103184153977537e-01
3.911999999999999744e+01,8.937889850269514769e-01
3.915999999999999659e+01,7.486977694587051424e-01
3.920000000000000284e+01,5.811958119987273852e-01
3.924000000000000199e+01,4.532917666124561817e-01
3.928000000000000114e+01,2.792613879426247836e-01
3.932000000000000028e+01,1.802935193740755615e-01
3.935999999999999943e+01,1.489906368399299408e-01
3.939999999999999858e+01,1.300888865958497453e-01
3.943999999999999773e+01,1.111865373814038549e-01
3.947999999999999687e+01,9.815809290391845632e-02
3.952000000000000313e+01,1.018822640642721988e-01
3.956000000000000227e+01,9.625014337621609628e-02
3.960000000000000142e+01,9.235801596643536393e-02
3.964000000000000057e+01,9.738583089709618168e-02
3.967999999999999972e+01,1.013251733916402109e-01
3.971999999999999886e+01,1.102681213832003154e-01
3.975999999999999801e+01,1.279134363210363001e-01
3.979999999999999716e+01,1.433824065253634927e-01
3.984000000000000341e+01,1.758215634777127168e-01
3.988000000000000256e+01,2.043437811111941116e-01
3.992000000000000171e+01,2.513592042944380878e-01
3.996000000000000085e+01,3.325331768960692602e-01
4.000000000000000000e+01,4.187107522685457606e-01
4.003999999999999915e+01,4.998835156353093612e-01
4.007999999999999829e+01,5.473316688004310482e-01
4.011999999999999744e+01,6.221935688261227559e-01
4.015999999999999659e+01,6.300420013228514859e-01
4.020000000000000284e+01,6.561660624173656364e-01
4.024000000000000199e+01,6.877288723976201501e-01
4.028000000000000114e+01,7.893499759387330172e-01
4.032000000000000028e+01,8.448447360705081399e-01
4.035999999999999943e+01,9.157866583067703070e-01
4.039999999999999858e+01,1.000000000000000000e+00
4.043999999999999773e+01,9.591075531477247784e-01
4.047999999999999687e+01,8.555531201669956953e-01
4.052000000000000313e+01,7.343745654103331910e-01
4.056000000000000227e+01,6.197226275528205930e-01
4.060000000000000142e+01,4.970198330759606486e-01
4.064000000000000057e+01,3.804085062677317053e-01
4.067999999999999972e+01,3.162319568354936550e-01
4.071999999999999886e+01,2.418288073574829944e-01
4.075999999999999801e+01,1.952745469604076634e-01
4.079999999999999716e+01,1.504602681580186063e-01
4.084000000000000341e+01,1.452438858512172526e-01
4.088000000000000256e+01,1.119598154246872618e-01
4.092000000000000171e+01,9.999740574708174123e-02
4.096000000000000085e+01,9.630220288054958111e-02
4.100000000000000000e+01,7.345985398400189936e-02
4.103999999999999915e+01,8.173000482931831734e-02
4.107999999999999829e+01,8.608320467217762950e-02
4.111999999999999744e+01,7.237712844569567372e-02
4.115999999999999659e+01,6.041103030882322145e-02
4.120000000000000284e+01,6.128119538824566837e-02
4.124000000000000199e+01,5.562351719771947006e-02
4.128000000000000114e+01,6.171423031554907485e-02
4.132000000000000028e+01,4.996323964257912836e-02
4.135999999999999943e+01,5.431212401519170535e-02
4.139999999999999858e+01,5.148044088262387907e-02
4.143999999999999773e+01,3.863972491993648839e-02
4.147999999999999687e+01,4.298675396350587485e-02
4.152000000000000313e+01,3.079752262385061778e-02
4.156000000000000227e+01,4.885048905994424095e-02
4.160000000000000142e+01,3.948848304357564093e-02
4.164000000000000057e+01,3.186645044338082267e-02
4.167999999999999972e+01,4.012671554733812651e-02
4.171999999999999886e+01,3.446160903048552104e-02
4.175999999999999801e+01,4.707211592275199752e-02
4.179999999999999716e+01,5.598323902821464304e-02
4.184000000000000341e+01,2.790612140900512392e-02
4.188000000000000256e+01,4.464867157896529326e-02
4.192000000000000171e+01,3.484654308406588685e-02
4.196000000000000085e+01,3.592250237359513598e-02
4.200000000000000000e+01,2.960031409034283648e-02
4.203999999999999915e+01,3.437378703841987432e-02
4.207999999999999829e+01,3.892906108642825436e-02
4.211999999999999744e+01,2.542504932877095308e-02
4.215999999999999659e+01,4.325110063410119582e-02
4.220000000000000284e+01,2.778766954839537173e-02
4.224000000000000199e+01,2.429019464998057737e-02
4.228000000000000114e+01,3.602228893650333968e-02
4.232000000000000028e+01,2.556118517976953969e-02
4.235999999999999943e+01,3.359326321616686040e-02
4.239999999999999858e+01,3.509748668847938874e-02
4.243999999999999773e+01,2.550479646531480030e-02
4.247999999999999687e+01,3.135924770562949215e-02
4.252000000000000313e+01,4.134698027802556630e-02
4.256000000000000227e+01,3.349299698657991903e-02
4.260000000000000142e+01,3.238318495798934299e-02
4.264000000000000057e+01,2.344007067375625947e-02
4.267999999999999972e+01,2.820350209928453034e-02
4.271999999999999886e+01,4.101654897414872686e-02
4.275999999999999801e+01,1.792921729595562882e-02
4.279999999999999716e+01,2.530164554627589366e-02
4.284000000000000341e+01,2.810438298078835398e-02
4.288000000000000256e+01,3.025376527455942224e-02
4.292000000000000171e+01,2.913890132845651029e-02
4.296000000000000085e+01,2.236647426915368969e-02
4.300000000000000000e+01,3.473994544915432608e-02
4.303999999999999915e+01,3.471105173704345376e-02
4.307999999999999829e+01,1.879860513046185608e-02
4.311999999999999744e+01,2.442537207869781291e-02
4.315999999999999659e+01,3.135694919228129013e-02
4.320000000000000284e+01,4.198665256563226950e-02
4.324000000000000199e+01,3.085829738992158094e-02
4.328000000000000114e+01,1.842386050151978774e-02
4.332000000000000028e+01,2.230685380131151516e-02
4.335999999999999943e+01,2.923524912563894851e-02
4.339999999999999858e+01,2.941820592375062049e-02
4.343999999999999773e+01,2.285572380619341204e-02
4.347999999999999687e+01,3.696215483515045974e-02
4.352000000000000313e+01,1.690879371789678551e-02
4.356000000000000227e+01,2.252855216180400452e-02
4.360000000000000142e+01,3.010583916449601632e-02
4.364000000000000057e+01,2.745649769134810014e-02
4.367999999999999972e+01,1.806171496581354327e-02
4.371999999999999886e+01,2.063287401781007530e-02
4.375999999999999801e+01,1.993977865142014180e-02
4.379999999999999716e+01,2.120420989655005806e-02
4.384000000000000341e+01,2.029225707342076704e-02
4.388000000000000256e+01,3.025837334097740070e-02
4.392000000000000171e+01,1.759612753554525358e-02
4.396000000000000085e+01,3.017184894513094684e-02
4.400000000000000000e+01,2.468826624476118392e-02
4.403999999999999915e+01,1.441740681918780506e-02
4.407999999999999829e+01,2.894936498866003752e-02
4.411999999999999744e+01,2.302870139594500112e-02
4.415999999999999659e+01,3.668907320001044831e-02
4.420000000000000284e+01,2.075870497910392923e-02
4.424000000000000199e+01,1.570640234380658862e-02
4.428000000000000114e+01,2.914726280789762744e-02
4.432000000000000028e+01,2.039490575608335354e-02
4.435999999999999943e+01,3.274660173443123823e-02
4.439999999999999858e+01,4.792611538573079283e-02
4.443999999999999773e+01,6.158196180439653999e-02
4.447999999999999687e+01,7.066810143968252356e-02
4.452000000000000313e+01,7.757785038600864547e-02
4.456000000000000227e+01,5.968348877003213510e-02
4.460000000000000142e+01,6.876768194427894387e-02
4.464000000000000057e+01,5.783439674506302836e-02
4.467999999999999972e+01,5.930219242812002217e-02
4.471999999999999886e+01,5.163122024914008901e-02
4.475999999999999801e+01,2.916454994769774461e-02
4.479999999999999716e+01,3.258856136018073446e-02
4.484000000000000341e+01,3.274830783904690568e-02
4.488000000000000256e+01,2.855591786581033326e-02
4.492000000000000171e+01,2.283985598650414145e-02
4.496000000000000085e+01,1.755828984393509318e-02
4.500000000000000000e+01,2.598324682285492460e-02
4.503999999999999915e+01,3.680086679186570647e-02
4.507999999999999829e+01,2.651313297439789399e-02
4.511999999999999744e+01,3.080221801328659678e-02
4.515999999999999659e+01,2.704040203518876667e-02
4.520000000000000284e+01,2.588882171517666725e-02
4.524000000000000199e+01,3.757346527670904490e-02
4.528000000000000114e+01,2.662973352385152384e-02
4.532000000000000028e+01,2.808707642201922761e-02
4.535999999999999943e+01,3.106678229142759151e-02
4.539999999999999858e+01,2.773617861358478390e-02
4.543999999999999773e+01,3.136729277324235010e-02
4.547999999999999687e+01,3.042869041319589199e-02
4.552000000000000313e+01,3.188274636980465565e-02
4.556000000000000227e+01,3.398886644716260508e-02
4.560000000000000142e+01,3.609432757839687450e-02
4.564000000000000057e+01,4.516150459986672389e-02
4.567999999999999972e+01,4.334931060597522340e-02
4.571999999999999886e+01,3.196319056210916026e-02
4.575999999999999801e+01,3.319571511109227491e-02
4.579999999999999716e+01,4.378327047637220470e-02
4.584000000000000341e+01,3.348303888137359879e-02
4.588000000000000256e+01,3.688932183989851454e-02
4.592000000000000171e+01,3.811920047860956756e-02
4.596000000000000085e+01,4.522292076289925050e-02
4.600000000000000000e+01,4.166484114201043920e-02
4.603999999999999915e+01,4.441575083940763752e-02
4.607999999999999829e+01,4.977688762692504543e-02
4.611999999999999744e+01,2.728785950218086745e-02
4.615999999999999659e+01,5.157662552739782080e-02
4.620000000000000284e+01,2.886869399046332677e-02
4.624000000000000199e+01,3.096355901811390435e-02
4.628000000000000114e+01,3.218746157571372724e-02
4.632000000000000028e+01,2.470772914477094989e-02
4.635999999999999943e+01,1.157040049712544302e-02
4.639999999999999858e+01,2.475888643689952082e-02
4.643999999999999773e+01,1.901774760686027535e-02
4.647999999999999687e+01,1.958559381112429110e-02
4.652000000000000313e+01,1.950004943442633018e-02
4.656000000000000227e+01,2.267745015183278076e-02
4.660000000000000142e+01,2.824749867066417980e-02
4.664000000000000057e+01,2.533148331113578913e-02
4.667999999999999972e+01,1.458212636121459724e-02
4.671999999999999886e+01,2.798283862502284544e-02
4.675999999999999801e+01,3.355020851953232491e-02
4.679999999999999716e+01,3.063151297787012131e-02
4.684000000000000341e+01,1.705100935251693470e-02
4.688000000000000256e+01,2.283394041533539157e-02
4.692000000000000171e+01,2.622288319620903405e-02
4.696000000000000085e+01,2.221363011213224256e-02
4.700000000000000000e+01,2.560122812850326723e-02
4.703999999999999915e+01,3.377478614618947828e-02
4.707999999999999829e+01,3.389742445314646024e-02
4.711999999999999744e+01,3.380181478896013975e-02
4.715999999999999659e+01,1.999835476416612218e-02
4.720000000000000284e+01,2.555832631191995441e-02
4.724000000000000199e+01,2.524311884919901161e-02
4.728000000000000114e+01,1.731213818009723002e-02
4.732000000000000028e+01,2.004161888291901283e-02
4.735999999999999943e+01,1.384988024561418195e-02
4.739999999999999858e+01,2.027677023358664954e-02
4.743999999999999773e+01,1.756486587671997682e-02
4.747999999999999687e+01,2.420797597912508967e-02
4.752000000000000313e+01,2.301773631262494027e-02
4.756000000000000227e+01,2.160924439099870184e-02
4.760000000000000142e+01,1.998249982479345654e-02
4.764000000000000057e+01,1.552661151487657112e-02
4.767999999999999972e+01,1.890271613632020856e-02
4.771999999999999886e+01,1.509819171901359211e-02
4.775999999999999801e+01,1.564447184125533283e-02
4.779999999999999716e+01,3.337843543618403824e-02
4.784000000000000341e+01,2.326221737237319648e-02
4.788000000000000256e+01,2.989853355073001859e-02
4.792000000000000171e+01,2.413243732371245578e-02
4.796000000000000085e+01,2.424016326962487658e-02
4.800000000000000000e+01,2.369448422481528274e-02
4.803999999999999915e+01,3.228623996112926081e-02
4.807999999999999829e+01,3.173919512135645049e-02
4.811999999999999744e+01,3.771869357412162976e-02
4.815999999999999659e+01,3.347151954286096270e-02
4.820000000000000284e+01,1.899767263812143087e-02
4.824000000000000199e+01,1.692487195434014616e-02
4.828000000000000114e+01,2.464222639238442675e-02
4.832000000000000028e+01,3.322919230472936442e-02
4.835999999999999943e+01,2.266894052771148763e-02
4.839999999999999858e+01,1.645948705899446737e-02
4.843999999999999773e+01,3.091889844462290468e-02
4.847999999999999687e+01,3.515163423060167075e-02
4.852000000000000313e+01,4.221214757587590100e-02
4.856000000000000227e+01,3.534722270388174908e-02
4.860000000000000142e+01,3.370339109615005935e-02
4.864000000000000057e+01,1.965714007289047494e-02
4.867999999999999972e+01,3.171910721242435921e-02
4.871999999999999886e+01,2.572172428655190857e-02
4.875999999999999801e+01,3.016721448648930146e-02
4.879999999999999716e+01,1.220186932598169884e-02
4.884000000000000341e+01,2.056231499626227921e-02
4.888000000000000256e+01,1.608519046268385919e-02
4.892000000000000171e+01,1.704673030355078125e-02
4.896000000000000085e+01,2.083604341973043297e-02
4.900000000000000000e+01,2.571253561531679221e-02
4.903999999999999915e+01,2.645442508149762825e-02
4.907999999999999829e+01,2.393200833204650949e-02
4.911999999999999744e+01,2.641310555816257094e-02
4.915999999999999659e+01,3.215712256393980784e-02
4.920000000000000284e+01,4.508039502444459445e-02
4.924000000000000199e+01,4.016188658246106630e-02
4.928000000000000114e+01,3.981174210661949514e-02
4.932000000000000028e+01,3.902575401391443488e-02
4.935999999999999943e+01,3.932694149553924573e-02
4.939999999999999858e+01,5.485762883947226803e-02
4.943999999999999773e+01,6.625370955947006146e-02
4.947999999999999687e+01,4.588325658863701140e-02
4.952000000000000313e+01,7.511902998920157171e-02
4.956000000000000227e+01,5.061327211355916983e-02
4.960000000000000142e+01,4.634121934651273117e-02
4.964000000000000057e+01,5.011871465343773618e-02
4.967999999999999972e+01,3.931803816099112975e-02
4.971999999999999886e+01,2.742879147973136325e-02
4.975999999999999801e+01,3.620839680086890278e-02
4.979999999999999716e+01,2.845166112201619538e-02
4.984000000000000341e+01,1.917120563437818906e-02
4.988000000000000256e+01,3.752197620659081939e-02
4.992000000000000171e+01,4.042427573948752240e-02
4.996000000000000085e+01,2.831325229522856091e-02
5.000000000000000000e+01,3.143172287148318644e-02
5.003999999999999915e+01,2.911013562716816341e-02
5.007999999999999829e+01,2.308908397928355685e-02
5.011999999999999744e+01,3.142722828032706861e-02
5.015999999999999659e+01,3.432531359244202912e-02
5.020000000000000284e+01,3.330635910682180900e-02
5.024000000000000199e+01,3.707333346627892517e-02
5.028000000000000114e+01,4.127475176522764355e-02
5.032000000000000028e+01,3.285616006581690979e-02
5.035999999999999943e+01,3.596829704313025261e-02
5.039999999999999858e+01,3.233492733995730478e-02
5.043999999999999773e+01,4.741223498622142152e-02
5.047999999999999687e+01,2.919997962468387498e-02
5.052000000000000313e+01,4.949765538208122928e-02
5.056000000000000227e+01,3.868150961083733491e-02
5.060000000000000142e+01,4.048396130863277792e-02
5.064000000000000057e+01,4.337357611826302140e-02
5.067999999999999972e+01,3.777708771478308081e-02
5.071999999999999886e+01,4.110043377327084191e-02
5.075999999999999801e+01,4.442307064620124035e-02
5.079999999999999716e+01,4.774499794412133402e-02
5.084000000000000341e+01,5.411225443887105607e-02
5.088000000000000256e+01,6.200182016035090532e-02
5.092000000000000171e+01,6.793250710620181432e-02
5.096000000000000085e+01,7.038129530632442066e-02
5.100000000000000000e+01,6.826031324223245933e-02
5.103999999999999915e+01,7.832277591158388896e-02
5.107999999999999829e+01,8.707908092491443985e-02
5.111999999999999744e+01,9.061289182825155164e-02
5.115999999999999659e+01,7.804549694181071862e-02
5.120000000000000284e+01,8.505906890842690471e-02
5.124000000000000199e+01,9.468281772572971489e-02
5.128000000000000114e+01,8.907565648812205972e-02
5.132000000000000028e+01,7.933387032228936264e-02
5.135999999999999943e+01,8.199310000008296073e-02
5.139999999999999858e+01,7.420805142235313567e-02
5.143999999999999773e+01,6.555199013513884898e-02
5.147999999999999687e+01,5.580734152318057861e-02
5.152000000000000313e+01,5.128375774541765741e-02
5.156000000000000227e+01,5.372183221885022675e-02
5.160000000000000142e+01,5.311315016692014224e-02
5.164000000000000057e+01,4.967528542598103475e-02
5.167999999999999972e+01,4.797729634851922997e-02
5.171999999999999886e+01,4.562586606120886540e-02
5.175999999999999801e+01,4.262099417459688094e-02
5.179999999999999716e+01,4.440203594439619955e-02
5.184000000000000341e+01,4.357146730372832288e-02
5.188000000000000256e+01,2.881542812119515864e-02
5.192000000000000171e+01,2.841856736220630536e-02
5.196000000000000085e+01,3.955241970182249434e-02
5.200000000000000000e+01,5.133827346025915395e-02
5.203999999999999915e+01,3.288058818352102008e-02
5.207999999999999829e+01,2.399544680476932423e-02
5.211999999999999744e+01,3.403854064423645492e-02
5.215999999999999659e+01,2.754527050598788024e-02
5.220000000000000284e+01,3.519360183930615726e-02
5.224000000000000199e+01,3.413824054504171340e-02
5.228000000000000114e+01,2.829552229826092294e-02
5.232000000000000028e+01,3.093747448371556366e-02
5.235999999999999943e+01,2.922721738936121319e-02
5.239999999999999858e+01,2.838653204510418332e-02
5.243999999999999773e+01,2.754512115826484794e-02
5.247999999999999687e+01,2.909630082326327208e-02
5.252000000000000313e+01,4.718239532807780301e-02
5.256000000000000227e+01,4.111702405741469307e-02
5.260000000000000142e+01,4.679993387991566306e-02
5.264000000000000057e+01,5.248211621256958226e-02
5.267999999999999972e+01,6.120960982721626586e-02
5.271999999999999886e+01,6.427944530213738905e-02
5.275999999999999801e+01,6.930672015111219442e-02
5.279999999999999716e+01,6.106123817822333572e-02
5.284000000000000341e+01,6.586948031662050174e-02
5.288000000000000256e+01,7.481090291877875997e-02
5.292000000000000171e+01,6.155902427264241944e-02
5.296000000000000085e+01,6.310146237588627749e-02
5.300000000000000000e+01,7.008252512937211687e-02
5.303999999999999915e+01,6.313810604685653194e-02
5.307999999999999829e+01,5.858627167438405781e-02
5.311999999999999744e+01,5.751489275153492259e-02
5.315999999999999659e+01,4.621679266303822808e-02
5.320000000000000284e+01,5.101845234204373247e-02
5.324000000000000199e+01,4.428794472165587665e-02
5.328000000000000114e+01,3.907972296081980296e-02
5.332000000000000028e+01,4.213858767008816369e-02
5.335999999999999943e+01,3.910463955677005721e-02
5.339999999999999858e+01,2.954272977979930867e-02
5.343999999999999773e+01,2.977092488522055727e-02
5.347999999999999687e+01,2.586447403195615488e-02
5.352000000000000313e+01,2.522090050797874336e-02
5.356000000000000227e+01,2.609961011738230058e-02
5.360000000000000142e+01,2.219094992232132149e-02
5.364000000000000057e+01,3.764565859787943197e-02
5.367999999999999972e+01,3.243007820618277331e-02
5.371999999999999886e+01,2.569074022876231822e-02
5.375999999999999801e+01,3.548630501811567833e-02
5.379999999999999716e+01,4.375811144283924675e-02
5.384000000000000341e+01,3.571111175862887177e-02
5.388000000000000256e+01,3.049183744701543242e-02
5.392000000000000171e+01,2.505424895725308354e-02
5.396000000000000085e+01,3.136492831925378338e-02
5.400000000000000000e+01,4.441966795001191931e-02
5.403999999999999915e+01,2.853629442778640724e-02
5.407999999999999829e+01,2.135514842767212776e-02
5.411999999999999744e+01,2.657499139892887524e-02
5.415999999999999659e+01,2.613716221015299074e-02
5.420000000000000284e+01,3.157309443964315121e-02
5.424000000000000199e+01,2.939318569793506961e-02
5.428000000000000114e+01,3.178159224074723899e-02
5.432000000000000028e+01,3.286380958184755008e-02
5.435999999999999943e+01,1.893266110596512897e-02
5.439999999999999858e+01,2.719333903658143273e-02
5.443999999999999773e+01,2.022307614550238400e-02
5.447999999999999687e+01,2.826468943039719267e-02
5.452000000000000313e+01,2.651471675985655682e-02
5.456000000000000227e+01,2.563429480895262555e-02
5.460000000000000142e+01,2.344768093016602606e-02
5.464000000000000057e+01,2.213061699211019140e-02
5.467999999999999972e+01,3.234423966985716659e-02
5.471999999999999886e+01,3.385414557393700424e-02
5.475999999999999801e+01,2.818335389554321030e-02
5.479999999999999716e+01,2.708087243878100001e-02
5.484000000000000341e+01,2.663036474967800382e-02
5.488000000000000256e+01,2.770212734200781096e-02
5.492000000000000171e+01,2.899071447147760425e-02
5.496000000000000085e+01,2.462162165185531257e-02
5.500000000000000000e+01,2.438568865498649471e-02
5.503999999999999915e+01,2.219083676883244760e-02
5.507999999999999829e+01,2.412914392652588946e-02
5.511999999999999744e+01,2.606669944828783614e-02
5.515999999999999659e+01,3.039681942853829713e-02
5.520000000000000284e+01,2.667594063910588148e-02
5.524000000000000199e+01,2.991668427119528392e-02
5.528000000000000114e+01,3.467969429018780830e-02
5.532000000000000028e+01,2.986868479049198041e-02
5.535999999999999943e+01,2.679751512459990076e-02
5.539999999999999858e+01,2.611890758047847802e-02
5.543999999999999773e+01,2.761528754286813464e-02
5.547999999999999687e+01,2.911091236424950129e-02
5.552000000000000313e+01,3.147607855839615332e-02
5.556000000000000227e+01,3.601623109069499590e-02
5.560000000000000142e+01,4.273136957169295508e-02
5.564000000000000057e+01,3.334525864417978852e-02
5.567999999999999972e+01,3.744799262840492471e-02
5.571999999999999886e+01,3.589303926393135752e-02
5.575999999999999801e+01,3.934153522583132973e-02
5.579999999999999716e+01,3.843778841496653387e-02
5.584000000000000341e+01,3.078848195801110396e-02
5.588000000000000256e+01,3.641044423972231159e-02
5.592000000000000171e+01,3.419897496740371273e-02
5.596000000000000085e+01,4.482362520323266569e-02
5.600000000000000000e+01,4.087004210612007332e-02
5.603999999999999915e+01,5.301619112534859679e-02
5.607999999999999829e+01,5.145440293595630182e-02
5.611999999999999744e+01,5.163244718076117484e-02
5.615999999999999659e+01,6.225329250257569808e-02
5.620000000000000284e+01,6.634614889902945567e-02
5.624000000000000199e+01,8.044665714197357653e-02
5.628000000000000114e+01,7.627016748709264382e-02
5.632000000000000028e+01,9.254489173851465633e-02
5.635999999999999943e+01,8.945474618417251222e-02
5.639999999999999858e+01,1.022467550152880295e-01
5.643999999999999773e+01,1.098162179391646565e-01
5.647999999999999687e+01,8.757724705019975797e-02
5.652000000000000313e+01,7.012414386219516238e-02
5.656000000000000227e+01,6.659502546957664360e-02
5.660000000000000142e+01,6.632875441836617869e-02
5.664000000000000057e+01,5.779389635135904341e-02
5.667999999999999972e+01,5.056371681459428252e-02
5.671999999999999886e+01,3.550009793474012687e-02
5.675999999999999801e+01,2.326417638686888861e-02
5.679999999999999716e+01,2.908614758799183200e-02
5.684000000000000341e+01,2.402863911637371022e-02
5.688000000000000256e+01,3.050179584064490260e-02
5.692000000000000171e+01,3.371057001650121926e-02
5.696000000000000085e+01,2.560471489964419659e-02
5.700000000000000000e+01,3.642704748774319018e-02
5.703999999999999915e+01,2.744935519776410190e-02
5.707999999999999829e+01,3.239564264028244739e-02
5.711999999999999744e+01,3.081393220002154321e-02
5.715999999999999659e+01,4.859555635851803279e-02
5.720000000000000284e+01,3.678631391982601501e-02
5.724000000000000199e+01,3.193867443000716205e-02
5.728000000000000114e+01,2.904843030605595150e-02
5.732000000000000028e+01,3.420765948110517096e-02
5.735999999999999943e+01,4.371759972698897878e-02
5.739999999999999858e+01,3.386266004133137858e-02
5.743999999999999773e+01,3.684382545406116732e-02
5.747999999999999687e+01,3.438486060796814431e-02
5.752000000000000313e+01,2.974937850069887119e-02
5.756000000000000227e+01,2.707128903312635768e-02
5.760000000000000142e+01,2.004093926740527914e-02
5.764000000000000057e+01,3.454966168507221658e-02
5.767999999999999972e+01,2.969350144502684238e-02
5.771999999999999886e+01,3.506255286751843586e-02
5.775999999999999801e+01,3.738478778888937315e-02
5.779999999999999716e+01,3.774807694871988584e-02
5.784000000000000341e+01,3.571727150594365685e-02
5.788000000000000256e+01,3.499113290982051178e-02
5.792000000000000171e+01,2.469094948056584429e-02
5.796000000000000085e+01,2.222265889325729729e-02
5.800000000000000000e+01,3.215531950038133524e-02
5.803999999999999915e+01,3.360180523504799344e-02
5.807999999999999829e+01,3.439478783684322277e-02
5.811999999999999744e+01,3.148822775502112953e-02
5.815999999999999659e+01,2.553484727754859809e-02
5.820000000000000284e+01,3.916236549886273344e-02
5.824000000000000199e+01,4.060494506174182339e-02
5.828000000000000114e+01,3.486679277028553042e-02
5.832000000000000028e+01,3.717810404150535125e-02
5.835999999999999943e+01,4.275224551820223234e-02
5.839999999999999858e+01,3.614144677865223365e-02
5.843999999999999773e+01,3.257590323986677555e-02
5.847999999999999687e+01,3.575437635110571832e-02
5.852000000000000313e+01,4.284840078742974817e-02
5.856000000000000227e+01,3.906292880453484523e-02
5.860000000000000142e+01,3.484152285168646418e-02
5.864000000000000057e+01,2.974903408781829489e-02
5.867999999999999972e+01,3.444659918800247606e-02
5.871999999999999886e+01,2.674164673050938648e-02
5.875999999999999801e+01,3.209036074526221138e-02
5.879999999999999716e+01,2.742987290730472538e-02
5.884000000000000341e+01,2.842552708526166136e-02
5.888000000000000256e+01,3.420702598645360137e-02
5.892000000000000171e+01,3.411323215690226923e-02
5.896000000000000085e+01,4.250404411039275521e-02
5.900000000000000000e+01,2.870149561873655900e-02
5.903999999999999915e+01,2.621201706670234569e-02
5.907999999999999829e+01,3.938709258096994431e-02
5.911999999999999744e+01,3.472029099786465289e-02
5.915999999999999659e+01,2.657151083117127027e-02
5.920000000000000284e+01,2.429644340112219539e-02
5.924000000000000199e+01,3.485746354407680270e-02
5.928000000000000114e+01,3.910803899959817975e-02
5.932000000000000028e+01,3.291425908790728688e-02
5.935999999999999943e+01,3.542265529053508638e-02
5.939999999999999858e+01,4.336961383092905603e-02
5.943999999999999773e+01,3.717345399703906456e-02
5.947999999999999687e+01,3.859159798007560233e-02
5.952000000000000313e+01,2.543147435830904815e-02
5.956000000000000227e+01,3.294010732296113325e-02
5.960000000000000142e+01,3.783705432326905926e-02
5.964000000000000057e+01,2.663271296976846281e-02
5.967999999999999972e+01,3.587955280852096751e-02
5.971999999999999886e+01,2.924267774036560380e-02
5.975999999999999801e+01,3.283099447264563320e-02
5.979999999999999716e+01,2.597495116427780276e-02
5.984000000000000341e+01,3.891736481293124605e-02
5.988000000000000256e+01,2.466220225492000290e-02
5.992000000000000171e+01,4.064905871374259461e-02
5.996000000000000085e+01,3.074378354183424783e-02
