2.003999999999999915e+01,1.078283798949314885e-02
2.007999999999999829e+01,1.078236185163543651e-02
2.012000000000000099e+01,9.823416826068140720e-03
2.016000000000000014e+01,1.249270707161404675e-02
2.019999999999999929e+01,1.153365525534156069e-02
2.023999999999999844e+01,1.406592169326881595e-02
2.028000000000000114e+01,1.454438591543451113e-02
2.032000000000000028e+01,1.454358800183333696e-02
2.035999999999999943e+01,1.029832261999302778e-02
2.039999999999999858e+01,1.351495447869178503e-02
2.044000000000000128e+01,9.064204675335226294e-03
2.048000000000000043e+01,2.011985290377342819e-03
2.051999999999999957e+01,1.255348707292825230e-02
2.055999999999999872e+01,1.310002515797096916e-02
2.060000000000000142e+01,7.553720959139431819e-03
2.064000000000000057e+01,1.432985008805496945e-02
2.067999999999999972e+01,1.576617748492754878e-02
2.071999999999999886e+01,1.398490942590214017e-02
2.076000000000000156e+01,1.206666803038732722e-02
2.080000000000000071e+01,1.370819988846077100e-02
2.083999999999999986e+01,1.069451182392777353e-02
2.087999999999999901e+01,1.267822031000220839e-02
2.092000000000000171e+01,1.411420487672286617e-02
2.096000000000000085e+01,1.431788254496383327e-02
2.100000000000000000e+01,1.246775378656141652e-02
2.103999999999999915e+01,1.554656236849626984e-02
2.107999999999999829e+01,9.931111427587697299e-03
2.112000000000000099e+01,8.628472888471305086e-03
2.116000000000000014e+01,6.572734202817511265e-03
2.119999999999999929e+01,1.464876078517867580e-02
2.123999999999999844e+01,1.375669381086976409e-02
2.128000000000000114e+01,8.414779164194186728e-03
2.132000000000000028e+01,1.190392186786271359e-02
2.135999999999999943e+01,9.368676117356228294e-03
2.139999999999999858e+01,9.777075640700634562e-03
2.144000000000000128e+01,1.141766334098787312e-02
2.148000000000000043e+01,8.813777022775505510e-03
2.151999999999999957e+01,9.358910100156802789e-03
2.155999999999999872e+01,8.192524848358613901e-03
2.160000000000000142e+01,9.422117504571458219e-03
2.164000000000000057e+01,1.099393959929331060e-02
2.167999999999999972e+01,1.516711395770682473e-02
2.171999999999999886e+01,1.119369124642156064e-02
2.176000000000000156e+01,1.283378440977970582e-02
2.180000000000000071e+01,1.050323478121050966e-02
2.183999999999999986e+01,1.440232503007836048e-02
2.187999999999999901e+01,1.357773099943611859e-02
2.192000000000000171e+01,1.015165896542908133e-02
2.196000000000000085e+01,6.588606576796302884e-03
2.200000000000000000e+01,8.296777286585803671e-03
2.203999999999999915e+01,1.185325713491925705e-02
2.207999999999999829e+01,9.864552239827651184e-03
2.212000000000000099e+01,1.239402872163771797e-02
2.216000000000000014e+01,1.396502438490710915e-02
2.219999999999999929e+01,1.252379076013361396e-02
2.223999999999999844e+01,9.371034829236785449e-03
2.228000000000000114e+01,1.265329102601674832e-02
2.232000000000000028e+01,9.021195585368282574e-03
2.235999999999999943e+01,1.736923204054425032e-02
2.239999999999999858e+01,8.944924859707797937e-03
2.244000000000000128e+01,1.599212110727918704e-02
2.248000000000000043e+01,4.692432937029806898e-03
2.251999999999999957e+01,7.426623962417612870e-03
2.255999999999999872e+01,1.310445347745792244e-02
2.260000000000000142e+01,8.102724618970281664e-03
2.264000000000000057e+01,1.453345982259150737e-02
2.267999999999999972e+01,3.644183556484682611e-03
2.271999999999999886e+01,8.294867355739449222e-03
2.276000000000000156e+01,1.438310643554360432e-02
2.280000000000000071e+01,1.602148895334188153e-02
2.283999999999999986e+01,1.047168369444404466e-02
2.287999999999999901e+01,6.359433014282028090e-03
2.292000000000000171e+01,7.107650404858267650e-03
2.296000000000000085e+01,1.148408669089636021e-02
2.300000000000000000e+01,1.058916595101345830e-02
2.303999999999999915e+01,1.051567438344560602e-02
2.307999999999999829e+01,1.160590312684891927e-02
2.312000000000000099e+01,1.057385477038278940e-02
2.316000000000000014e+01,1.577143857140383618e-02
2.319999999999999929e+01,6.661171940331987208e-03
2.323999999999999844e+01,1.185861339209078741e-02
2.328000000000000114e+01,1.589219265149195010e-02
2.332000000000000028e+01,7.603210738031991427e-03
2.335999999999999943e+01,9.445981459941878849e-03
2.339999999999999858e+01,9.782597915086441165e-03
2.344000000000000128e+01,1.422663838007000650e-02
2.348000000000000043e+01,1.463156795321667383e-02
2.351999999999999957e+01,6.205307184272030978e-03
2.355999999999999872e+01,1.153908643050458212e-02
2.360000000000000142e+01,1.338142027923709676e-02
2.364000000000000057e+01,6.324104809545875311e-03
2.367999999999999972e+01,5.085668809036514651e-03
2.371999999999999886e+01,1.144602718126031503e-02
2.376000000000000156e+01,1.096048376881092468e-02
2.380000000000000071e+01,7.736534808878985266e-03
2.383999999999999986e+01,6.429342734805445873e-03
2.387999999999999901e+01,9.024197273697945679e-03
2.392000000000000171e+01,1.059210242626435448e-02
2.396000000000000085e+01,1.058539176241644550e-02
2.400000000000000000e+01,5.238859949681898449e-03
2.403999999999999915e+01,1.235165812901274814e-02
2.407999999999999829e+01,8.237223082963806078e-03
2.412000000000000099e+01,1.220078799190082476e-02
2.416000000000000014e+01,4.184078187875420879e-03
2.419999999999999929e+01,1.157040324447259141e-02
2.423999999999999844e+01,7.729494139938518187e-03
2.428000000000000114e+01,8.338295505142050493e-03
2.432000000000000028e+01,6.003313458114271049e-03
2.435999999999999943e+01,9.624123452362192896e-03
2.439999999999999858e+01,1.214952297851077355e-02
2.444000000000000128e+01,8.034391566598774945e-03
2.448000000000000043e+01,8.779719101847934665e-03
2.451999999999999957e+01,7.676594447477296662e-03
2.455999999999999872e+01,7.531806624820037988e-03
2.460000000000000142e+01,1.067293673357770471e-02
2.464000000000000057e+01,6.625868538435024900e-03
2.467999999999999972e+01,9.903756003441165426e-03
2.471999999999999886e+01,1.003248289328076588e-02
2.476000000000000156e+01,1.118800371966320421e-02
2.480000000000000071e+01,1.001586279722904704e-02
2.483999999999999986e+01,1.007589016701838751e-02
2.487999999999999901e+01,1.157346041864976832e-02
2.492000000000000171e+01,5.951289003334461411e-03
2.496000000000000085e+01,1.005011121876109824e-02
2.500000000000000000e+01,4.906984789282270269e-03
2.503999999999999915e+01,4.418939208277951509e-03
2.507999999999999829e+01,8.380599418253793439e-03
2.512000000000000099e+01,7.618556399751810933e-03
2.516000000000000014e+01,8.362512900045557945e-03
2.519999999999999929e+01,9.448678018377433541e-03
2.523999999999999844e+01,8.344095363613687061e-03
2.528000000000000114e+01,1.066234321235870822e-02
2.532000000000000028e+01,8.599178035530563591e-03
2.535999999999999943e+01,7.562803286177061969e-03
2.539999999999999858e+01,4.541054651532945748e-03
2.544000000000000128e+01,7.201258643766654879e-03
2.548000000000000043e+01,6.096173145344974641e-03
2.551999999999999957e+01,8.482375021323545691e-03
2.555999999999999872e+01,5.665663173876038169e-03
2.560000000000000142e+01,9.420860586299361142e-03
2.564000000000000057e+01,9.889975493947439009e-03
2.567999999999999972e+01,7.757590408070413369e-03
2.571999999999999886e+01,8.911116703347932155e-03
2.576000000000000156e+01,6.641643242998917021e-03
2.580000000000000071e+01,9.232621009861188138e-03
2.583999999999999986e+01,1.182351227916159445e-02
2.587999999999999901e+01,7.773864188637952602e-03
2.592000000000000171e+01,1.125453932974546101e-02
2.596000000000000085e+01,1.062763080034903954e-02
2.600000000000000000e+01,8.083803151112576094e-03
2.603999999999999915e+01,7.730552619226741841e-03
2.607999999999999829e+01,1.415458336351368800e-02
2.612000000000000099e+01,8.461411382844716278e-03
2.616000000000000014e+01,8.518646092690696642e-03
2.619999999999999929e+01,4.810587100999520228e-03
2.623999999999999844e+01,1.363030350930942262e-02
2.628000000000000114e+01,1.026435798239315467e-02
2.632000000000000028e+01,7.445989346810940289e-03
2.635999999999999943e+01,5.380572192181383787e-03
2.639999999999999858e+01,1.077701718740966749e-02
2.644000000000000128e+01,1.322966637169922972e-02
2.648000000000000043e+01,8.220273392870916518e-03
2.651999999999999957e+01,8.687451901041472885e-03
2.655999999999999872e+01,1.052370519114451466e-02
2.660000000000000142e+01,9.689994832632581323e-03
2.664000000000000057e+01,9.198484670395336293e-03
2.667999999999999972e+01,3.435595959952649978e-03
2.671999999999999886e+01,1.115889568551984776e-02
2.676000000000000156e+01,8.681820629651832225e-03
2.680000000000000071e+01,8.874526167946391805e-03
2.683999999999999986e+01,6.534183203036349717e-03
2.687999999999999901e+01,1.145032475717323861e-02
2.692000000000000171e+01,1.990135848476101525e-03
2.696000000000000085e+01,1.169817075722260659e-02
2.700000000000000000e+01,8.262123676597919741e-03
2.703999999999999915e+01,1.091876951244893403e-02
2.707999999999999829e+01,1.035778269628000355e-02
2.712000000000000099e+01,8.975202602311565039e-03
2.716000000000000014e+01,9.372443428320335196e-03
2.719999999999999929e+01,1.004342290095474113e-02
2.723999999999999844e+01,9.961266668494750745e-03
2.728000000000000114e+01,9.262891046040139242e-03
2.732000000000000028e+01,1.335649948663880128e-02
2.735999999999999943e+01,7.249729636734050797e-03
2.739999999999999858e+01,1.237002118677470348e-02
2.744000000000000128e+01,6.126143311616514403e-03
2.748000000000000043e+01,8.781745034888523149e-03
2.751999999999999957e+01,9.657335297718909820e-03
2.755999999999999872e+01,1.032745418010242236e-02
2.760000000000000142e+01,9.080644585130939056e-03
2.764000000000000057e+01,1.002440274999504347e-02
2.767999999999999972e+01,5.422943420131661613e-03
2.771999999999999886e+01,4.723508245198330784e-03
2.776000000000000156e+01,5.530057383098870884e-03
2.780000000000000071e+01,1.112858777679820617e-02
2.783999999999999986e+01,7.758986014078163816e-03
2.787999999999999901e+01,1.013978088254446214e-02
2.792000000000000171e+01,9.576771284370681064e-03
2.796000000000000085e+01,1.024591173126623497e-02
2.800000000000000000e+01,6.944373125863822181e-03
2.803999999999999915e+01,4.121943077948082325e-03
2.807999999999999829e+01,9.651322923243976434e-03
2.812000000000000099e+01,4.501112111585207042e-03
2.816000000000000014e+01,6.470461783923798539e-03
2.819999999999999929e+01,6.317504646282903757e-03
2.823999999999999844e+01,1.116190101468053468e-02
2.828000000000000114e+01,5.874371986522506674e-03
2.832000000000000028e+01,1.154006587966351950e-02
2.835999999999999943e+01,8.442999398749248541e-03
2.839999999999999858e+01,9.453327919377547267e-03
2.844000000000000128e+01,1.495520774518377134e-03
2.848000000000000043e+01,1.277438683198243649e-02
2.851999999999999957e+01,5.227125225375051955e-03
2.855999999999999872e+01,7.743127567694964644e-03
2.860000000000000142e+01,8.684486956807081423e-03
2.864000000000000057e+01,1.215869962990198151e-02
2.867999999999999972e+01,7.554732802626646336e-03
2.871999999999999886e+01,1.041261455681246305e-02
2.876000000000000156e+01,1.053206175521926788e-02
2.880000000000000071e+01,7.981532438427991344e-03
2.883999999999999986e+01,9.469937275343892971e-03
2.887999999999999901e+01,8.082990305629509514e-03
2.892000000000000171e+01,8.749687060701156691e-03
2.896000000000000085e+01,1.112773593402687639e-02
2.900000000000000000e+01,8.302850965269295558e-03
2.903999999999999915e+01,8.147733490153333605e-03
2.907999999999999829e+01,6.897178176206752651e-03
2.912000000000000099e+01,4.482726514972838056e-03
2.916000000000000014e+01,5.011874743642187255e-03
2.919999999999999929e+01,7.046998863381967980e-03
2.923999999999999844e+01,1.195726413063042531e-02
2.928000000000000114e+01,1.289684285956898928e-02
2.932000000000000028e+01,7.401236933582683655e-03
2.935999999999999943e+01,9.230559297013923165e-03
2.939999999999999858e+01,7.636860616472099586e-03
2.944000000000000128e+01,9.397509835381241683e-03
2.948000000000000043e+01,1.074730162126908729e-02
2.951999999999999957e+01,7.373364445512881234e-03
2.955999999999999872e+01,7.148399643837615759e-03
2.960000000000000142e+01,3.568870903018702811e-03
2.964000000000000057e+01,8.751892578947154805e-03
2.967999999999999972e+01,3.392231023381462023e-03
2.971999999999999886e+01,7.342785612837850022e-03
2.976000000000000156e+01,8.007233601917908630e-03
2.980000000000000071e+01,7.850072639360829510e-03
2.983999999999999986e+01,6.597469393153496640e-03
2.987999999999999901e+01,4.317881903876839671e-03
2.992000000000000171e+01,7.583304291398516341e-03
2.996000000000000085e+01,7.767993732410908778e-03
3.000000000000000000e+01,1.219698536648848759e-02
3.003999999999999915e+01,1.565045545389803566e-03
3.007999999999999829e+01,6.952230666715447822e-03
3.012000000000000099e+01,1.097013876875045299e-02
3.016000000000000014e+01,4.376902557518048444e-03
3.019999999999999929e+01,4.766298350413767856e-03
3.023999999999999844e+01,9.331536658228648320e-03
3.028000000000000114e+01,8.009250892760173823e-03
3.032000000000000028e+01,5.317686938311704664e-03
3.035999999999999943e+01,1.022487852290916537e-02
3.039999999999999858e+01,7.533088469439436392e-03
3.044000000000000128e+01,2.239770583837571039e-03
3.048000000000000043e+01,9.474203300822147192e-03
3.051999999999999957e+01,8.014321285624990271e-03
3.055999999999999872e+01,8.334240305685750722e-03
3.060000000000000142e+01,5.162672989118374106e-03
3.064000000000000057e+01,4.797780357715291169e-03
3.067999999999999972e+01,1.182626657029871124e-02
3.071999999999999886e+01,4.889149743062860126e-03
3.076000000000000156e+01,5.208494742900155600e-03
3.080000000000000071e+01,4.843141491691066794e-03
3.083999999999999986e+01,7.695211403069716037e-03
3.087999999999999901e+01,7.192709889292747336e-03
3.092000000000000171e+01,6.416259069768595093e-03
3.096000000000000085e+01,3.928234945664473877e-03
3.100000000000000000e+01,4.452258224840162718e-03
3.103999999999999915e+01,5.249997692605499165e-03
3.107999999999999829e+01,7.553702056361188966e-03
3.112000000000000099e+01,7.187416336522078723e-03
3.116000000000000014e+01,6.478721632789730990e-03
3.119999999999999929e+01,3.510786024699700299e-03
3.123999999999999844e+01,8.073142534503490245e-03
3.128000000000000114e+01,8.254051161990853119e-03
3.132000000000000028e+01,1.281617081163117546e-02
3.135999999999999943e+01,5.877181561123340052e-03
3.139999999999999858e+01,4.140902159118394800e-03
3.144000000000000128e+01,1.212557848991976418e-02
3.148000000000000043e+01,4.296273924074498103e-03
3.151999999999999957e+01,6.940965642866693368e-03
3.155999999999999872e+01,7.805622273491951216e-03
3.160000000000000142e+01,5.863369464230315867e-03
3.164000000000000057e+01,9.123825099844329323e-03
3.167999999999999972e+01,7.728997415687903841e-03
3.171999999999999886e+01,4.896425080207117246e-03
3.176000000000000156e+01,2.748314369547072162e-03
3.180000000000000071e+01,8.678158697801115554e-03
3.183999999999999986e+01,3.312266142208904716e-03
3.187999999999999901e+01,0.000000000000000000e+00
3.192000000000000171e+01,8.736268116982347579e-03
3.196000000000000085e+01,5.355299354079142739e-03
3.200000000000000000e+01,6.081704538309834485e-03
3.203999999999999915e+01,5.233446650675538728e-03
3.207999999999999829e+01,9.998644281713112147e-03
3.211999999999999744e+01,6.480267470166859931e-03
3.215999999999999659e+01,1.042371912142452291e-02
3.220000000000000284e+01,6.288970685779032149e-03
3.224000000000000199e+01,4.618596205188806904e-03
3.228000000000000114e+01,6.165636465422849946e-03
3.232000000000000028e+01,9.150176095054285072e-03
3.235999999999999943e+01,5.836429839520027030e-03
3.239999999999999858e+01,6.082388995590453165e-03
3.243999999999999773e+01,8.176596466357519827e-03
3.247999999999999687e+01,9.243804488093431554e-03
3.252000000000000313e+01,8.667888356191047472e-03
3.256000000000000227e+01,1.192550979821706443e-02
3.260000000000000142e+01,8.063344657224488440e-03
3.264000000000000057e+01,7.418592151615300070e-03
3.267999999999999972e+01,1.533099745991857790e-02
3.271999999999999886e+01,1.160536936514835853e-02
3.275999999999999801e+01,1.232940214528644232e-02
3.279999999999999716e+01,8.671978153468810901e-03
3.284000000000000341e+01,1.370862758884979632e-02
3.288000000000000256e+01,1.032478158778971783e-02
3.292000000000000171e+01,1.166442862396164376e-02
3.296000000000000085e+01,9.854866893764918298e-03
3.300000000000000000e+01,1.208421498773641460e-02
3.303999999999999915e+01,1.883168059356989110e-02
3.307999999999999829e+01,2.537364253552977511e-02
3.311999999999999744e+01,2.780797893210621222e-02
3.315999999999999659e+01,2.469706578446633286e-02
3.320000000000000284e+01,8.715867485159931732e-03
3.324000000000000199e+01,6.768485686140343627e-03
3.328000000000000114e+01,8.449262426610992111e-03
3.332000000000000028e+01,6.980828295272121543e-03
3.335999999999999943e+01,7.155262274502326159e-03
3.339999999999999858e+01,6.918815894799548727e-03
3.343999999999999773e+01,9.215194726534606251e-03
3.347999999999999687e+01,7.677779005520544986e-03
3.352000000000000313e+01,4.907982929534184836e-03
3.356000000000000227e+01,9.120799206894500410e-03
3.360000000000000142e+01,1.059515262199299881e-02
3.364000000000000057e+01,6.592711960139521071e-03
3.367999999999999972e+01,5.876136125803496646e-03
3.371999999999999886e+01,7.418550767264968891e-03
3.375999999999999801e+01,6.975542630420015176e-03
3.379999999999999716e+01,4.684028030368363876e-03
3.384000000000000341e+01,1.149733065618127950e-02
3.388000000000000256e+01,5.714177251459035857e-03
3.392000000000000171e+01,2.600762799957747565e-03
3.396000000000000085e+01,6.675333185980795309e-03
3.400000000000000000e+01,9.517520409777064511e-03
3.403999999999999915e+01,1.037428321770178345e-02
3.407999999999999829e+01,8.697955179666604780e-03
3.411999999999999744e+01,6.679200846335492728e-03
3.415999999999999659e+01,1.294376257314027931e-02
3.420000000000000284e+01,9.213280829621571869e-03
3.424000000000000199e+01,7.810244795226793310e-03
3.428000000000000114e+01,5.243282235558896325e-03
3.432000000000000028e+01,7.468262799816220016e-03
3.435999999999999943e+01,8.050108449293054413e-03
3.439999999999999858e+01,1.287623055866889479e-02
3.443999999999999773e+01,8.391890539282088543e-03
3.447999999999999687e+01,4.318163138865338362e-03
3.452000000000000313e+01,4.625628045571612140e-03
3.456000000000000227e+01,6.439037495673131765e-03
3.460000000000000142e+01,1.201751431435266020e-02
3.464000000000000057e+01,7.395570265835640575e-03
3.467999999999999972e+01,8.455524804547491849e-03
3.471999999999999886e+01,4.928636518729250654e-03
3.475999999999999801e+01,1.064347662724208707e-02
3.479999999999999716e+01,1.006001658037889920e-02
3.484000000000000341e+01,8.928751203781613507e-03
3.488000000000000256e+01,6.975847165437146051e-03
3.492000000000000171e+01,7.555759682829144355e-03
3.496000000000000085e+01,7.519407894154617189e-03
3.500000000000000000e+01,7.072166389032138491e-03
3.503999999999999915e+01,1.237527964021643313e-02
3.507999999999999829e+01,6.519553607624267721e-03
3.511999999999999744e+01,6.961848059613623581e-03
3.515999999999999659e+01,8.636250447854858930e-03
3.520000000000000284e+01,1.229580155811701991e-02
3.524000000000000199e+01,1.116313197910027977e-02
3.528000000000000114e+01,1.263173512489796681e-02
3.532000000000000028e+01,1.047190778036074209e-02
3.535999999999999943e+01,9.544187202386042804e-03
3.539999999999999858e+01,9.917031431554782991e-03
3.543999999999999773e+01,1.028973301807179115e-02
3.547999999999999687e+01,7.170919727540003494e-03
3.552000000000000313e+01,1.082933250384261054e-02
3.556000000000000227e+01,1.099622993522069402e-02
3.560000000000000142e+01,1.273752410212809251e-02
3.564000000000000057e+01,1.043963626008473887e-02
3.567999999999999972e+01,1.341289150971052002e-02
3.571999999999999886e+01,1.433225424355524108e-02
3.575999999999999801e+01,9.021769482033733037e-03
3.579999999999999716e+01,1.206304946371409940e-02
3.584000000000000341e+01,1.209202038453644455e-02
3.588000000000000256e+01,1.191547126583397502e-02
3.592000000000000171e+01,1.454556595249638547e-02
3.596000000000000085e+01,1.484793362167522064e-02
3.600000000000000000e+01,1.658777913796701670e-02
3.603999999999999915e+01,1.524685614919260926e-02
3.607999999999999829e+01,1.650720120647513819e-02
3.611999999999999744e+01,1.215382113361984477e-02
3.615999999999999659e+01,1.642603679660078683e-02
3.620000000000000284e+01,1.898664850914017280e-02
3.624000000000000199e+01,1.600199266424692096e-02
3.628000000000000114e+01,1.575552024475885410e-02
3.632000000000000028e+01,1.824723101673808232e-02
3.635999999999999943e+01,1.847967070637381026e-02
3.639999999999999858e+01,1.768508802106668817e-02
3.643999999999999773e+01,1.572656617784122524e-02
3.647999999999999687e+01,1.678005968840680373e-02
3.652000000000000313e+01,1.564273945539617142e-02
3.656000000000000227e+01,2.135109748135403246e-02
3.660000000000000142e+01,1.624289870649023651e-02
3.664000000000000057e+01,1.640583740878661517e-02
3.667999999999999972e+01,1.540483554953741945e-02
3.671999999999999886e+01,1.549901595392538974e-02
3.675999999999999801e+01,1.867366834905807849e-02
3.679999999999999716e+01,1.999979673564350122e-02
3.684000000000000341e+01,2.166806566434557532e-02
3.688000000000000256e+01,1.772260501809025390e-02
3.692000000000000171e+01,2.425110907485930611e-02
3.696000000000000085e+01,2.475513344168234556e-02
3.700000000000000000e+01,2.820271184658524471e-02
3.703999999999999915e+01,2.952793174123839737e-02
3.707999999999999829e+01,2.968920873496721721e-02
3.711999999999999744e+01,2.711200227990125805e-02
3.715999999999999659e+01,2.877905614302100901e-02
3.720000000000000284e+01,3.551186938461424469e-02
3.724000000000000199e+01,3.204424655304911190e-02
3.728000000000000114e+01,3.747604600513494699e-02
3.732000000000000028e+01,3.948477809354856288e-02
3.735999999999999943e+01,3.923423325117181282e-02
3.739999999999999858e+01,3.761436881281132738e-02
3.743999999999999773e+01,4.633154948724525074e-02
3.747999999999999687e+01,5.210486978388710610e-02
3.752000000000000313e+01,5.151141574285867525e-02
3.756000000000000227e+01,6.091271474021697774e-02
3.760000000000000142e+01,7.092998293294761059e-02
3.764000000000000057e+01,7.752418189050300223e-02
3.767999999999999972e+01,9.288088424329300763e-02
3.771999999999999886e+01,9.954322975508392291e-02
3.775999999999999801e+01,1.179117839985423799e-01
3.779999999999999716e+01,1.398400120719924811e-01
3.784000000000000341e+01,1.803887341356338880e-01
3.788000000000000256e+01,2.191573841489242169e-01
3.792000000000000171e+01,2.655932037615210684e-01
3.796000000000000085e+01,3.508447076455436520e-01
3.800000000000000000e+01,4.605356579181048016e-01
3.803999999999999915e+01,6.371786428214458731e-01
3.807999999999999829e+01,8.294299562325233577e-01
3.811999999999999744e+01,9.512375468472590301e-01
3.815999999999999659e+01,1.000000000000000000e+00
3.820000000000000284e+01,8.998655472899702579e-01
3.824000000000000199e+01,7.770712466959123210e-01
3.828000000000000114e+01,6.268250187675719065e-01
3.832000000000000028e+01,4.684320966853147694e-01
3.835999999999999943e+01,3.575490573989931753e-01
3.839999999999999858e+01,2.754867917310349634e-01
3.843999999999999773e+01,2.145779727013958638e-01
3.847999999999999687e+01,1.727688518405737783e-01
3.852000000000000313e+01,1.478003058555101834e-01
3.856000000000000227e+01,1.267337206282126705e-01
3.860000000000000142e+01,1.147719247881726218e-01
3.864000000000000057e+01,9.308889260878026872e-02
3.867999999999999972e+01,8.708264370257516596e-02
3.871999999999999886e+01,7.683181995064659875e-02
3.875999999999999801e+01,7.157828817909557551e-02
3.879999999999999716e+01,6.091639042712562041e-02
3.884000000000000341e+01,6.154994544338776574e-02
3.888000000000000256e+01,5.643284263876111734e-02
3.892000000000000171e+01,5.275320060378262121e-02
3.896000000000000085e+01,4.393902475070887020e-02
3.900000000000000000e+01,4.087518049409235438e-02
3.903999999999999915e+01,3.719504806974611999e-02
3.907999999999999829e+01,3.365166826343915507e-02
3.911999999999999744e+01,3.229878907679784028e-02
3.915999999999999659e+01,3.142495341291409727e-02
3.920000000000000284e+01,2.705958111575923128e-02
3.924000000000000199e+01,2.892374693306599617e-02
3.928000000000000114e+01,2.626950153144377853e-02
3.932000000000000028e+01,2.573729730527901660e-02
3.935999999999999943e+01,2.506801096151320754e-02
3.939999999999999858e+01,2.179714438353138814e-02
3.943999999999999773e+01,2.667264643684842326e-02
3.947999999999999687e+01,2.600286198376501601e-02
3.952000000000000313e+01,2.444295345762214494e-02
3.956000000000000227e+01,2.171908752640675996e-02
3.960000000000000142e+01,2.625163172199421191e-02
3.964000000000000057e+01,2.003605961200038282e-02
3.967999999999999972e+01,1.957081512151992442e-02
3.971999999999999886e+01,2.136452601615576943e-02
3.975999999999999801e+01,1.884519770816455927e-02
3.979999999999999716e+01,2.029628118038411672e-02
3.984000000000000341e+01,1.490136882490501920e-02
3.988000000000000256e+01,1.813203044903979530e-02
3.992000000000000171e+01,1.704965193479602084e-02
3.996000000000000085e+01,1.754164465685325441e-02
4.000000000000000000e+01,1.632201120437086830e-02
4.003999999999999915e+01,1.660829024579493426e-02
4.007999999999999829e+01,1.415606852702152620e-02
4.011999999999999744e+01,1.081371922612054705e-02
4.015999999999999659e+01,1.486469332592983174e-02
4.020000000000000284e+01,1.528720839498349734e-02
4.024000000000000199e+01,1.167051455223084427e-02
4.028000000000000114e+01,1.003893972138905979e-02
4.032000000000000028e+01,1.436306359061107971e-02
4.035999999999999943e+01,1.218347996353607611e-02
4.039999999999999858e+01,1.178363982300188219e-02
4.043999999999999773e+01,1.199975226825089787e-02
4.047999999999999687e+01,1.420098255572139687e-02
4.052000000000000313e+01,1.311604331352734035e-02
4.056000000000000227e+01,9.361058778400115424e-03
4.060000000000000142e+01,1.142485475673395319e-02
4.064000000000000057e+01,8.354107091581818023e-03
4.067999999999999972e+01,1.301897115854157988e-02
4.071999999999999886e+01,1.104320907472588174e-02
4.075999999999999801e+01,1.201097903882982799e-02
4.079999999999999716e+01,1.393699085587014538e-02
4.084000000000000341e+01,1.291912264433695348e-02
4.088000000000000256e+01,1.196953824911988623e-02
4.092000000000000171e+01,9.102947475235672117e-03
4.096000000000000085e+01,9.590637226694577119e-03
4.100000000000000000e+01,1.144731730851332625e-02
4.103999999999999915e+01,1.118161548629490083e-02
4.107999999999999829e+01,8.998906349657796733e-03
4.111999999999999744e+01,1.544176394056048264e-02
4.115999999999999659e+01,1.031499704201694657e-02
4.120000000000000284e+01,1.004859130460304846e-02
4.124000000000000199e+01,7.385969395387362649e-03
4.128000000000000114e+01,1.512882841544895690e-02
4.132000000000000028e+01,1.554647503047886653e-02
4.135999999999999943e+01,9.665783124321336919e-03
4.139999999999999858e+01,9.261575680273352595e-03
4.143999999999999773e+01,7.967232934147954609e-03
4.147999999999999687e+01,1.009562594669210882e-02
4.152000000000000313e+01,1.010163424794459364e-02
4.156000000000000227e+01,8.806756898193195821e-03
4.160000000000000142e+01,1.086615633077892343e-02
4.164000000000000057e+01,9.981671056033635317e-03
4.167999999999999972e+01,1.258837864478736142e-02
4.171999999999999886e+01,9.718244901138468547e-03
4.175999999999999801e+01,1.129771939637615012e-02
4.179999999999999716e+01,1.561534503359230004e-02
4.184000000000000341e+01,1.247083867554681612e-02
4.188000000000000256e+01,1.055840095219031174e-02
4.192000000000000171e+01,9.878031629584935192e-03
4.196000000000000085e+01,5.295359884882260698e-03
4.200000000000000000e+01,1.180274760376317372e-02
4.203999999999999915e+01,1.050571078509905318e-02
4.207999999999999829e+01,1.078303280402857604e-02
4.211999999999999744e+01,1.256625515209506758e-02
4.215999999999999659e+01,1.523925312469140252e-02
4.220000000000000284e+01,1.394148899704438470e-02
4.224000000000000199e+01,9.973669751073473491e-03
4.228000000000000114e+01,9.360123310495823204e-03
4.232000000000000028e+01,1.340155665723092616e-02
4.235999999999999943e+01,8.680147751654650884e-03
4.239999999999999858e+01,1.039363330300436226e-02
4.243999999999999773e+01,1.710438931244721156e-02
4.247999999999999687e+01,1.210859656345636588e-02
4.252000000000000313e+01,1.573836235417972601e-02
4.256000000000000227e+01,1.710882080218900994e-02
4.260000000000000142e+01,1.279705794760604108e-02
4.264000000000000057e+01,1.409868885209611573e-02
4.267999999999999972e+01,1.471555202599106327e-02
4.271999999999999886e+01,1.492148033342828410e-02
4.275999999999999801e+01,1.635947212892125552e-02
4.279999999999999716e+01,1.355286521702753384e-02
4.284000000000000341e+01,1.581198469836700080e-02
4.288000000000000256e+01,1.245733951406790239e-02
4.292000000000000171e+01,2.026120668730008872e-02
4.296000000000000085e+01,1.834381225588950504e-02
4.300000000000000000e+01,1.444094100652349583e-02
4.303999999999999915e+01,1.868441733404763855e-02
4.307999999999999829e+01,1.519192131616079952e-02
4.311999999999999744e+01,1.881889828950625634e-02
4.315999999999999659e+01,2.271952056826543470e-02
4.320000000000000284e+01,1.984258564306327563e-02
4.324000000000000199e+01,2.127833375200873997e-02
4.328000000000000114e+01,2.380922575877994149e-02
4.332000000000000028e+01,2.538151319387485158e-02
4.335999999999999943e+01,2.407836413682894888e-02
4.339999999999999858e+01,2.236427623638144457e-02
4.343999999999999773e+01,2.989186596574625737e-02
4.347999999999999687e+01,3.187414579492318240e-02
4.352000000000000313e+01,3.221323713754632723e-02
4.356000000000000227e+01,3.220984697553518766e-02
4.360000000000000142e+01,3.692988738934361442e-02
4.364000000000000057e+01,3.733686590855115478e-02
4.367999999999999972e+01,4.219344143762727983e-02
4.371999999999999886e+01,4.787132519313733181e-02
4.375999999999999801e+01,5.402822556854938729e-02
4.379999999999999716e+01,4.485028091608111306e-02
4.384000000000000341e+01,5.066450661362623814e-02
4.388000000000000256e+01,6.667882321093036857e-02
4.392000000000000171e+01,6.222392348963002445e-02
4.396000000000000085e+01,7.680023161313906388e-02
4.400000000000000000e+01,9.076022256062195315e-02
4.403999999999999915e+01,9.568352833232757204e-02
4.407999999999999829e+01,1.115599648538096733e-01
4.411999999999999744e+01,1.317490792628061291e-01
4.415999999999999659e+01,1.480358783831221547e-01
4.420000000000000284e+01,1.708260197076786890e-01
4.424000000000000199e+01,1.937528834722886395e-01
4.428000000000000114e+01,2.131197226189985861e-01
4.432000000000000028e+01,2.264620390311937459e-01
4.435999999999999943e+01,2.261125057288295714e-01
4.439999999999999858e+01,2.217237391851202000e-01
4.443999999999999773e+01,1.972765029287268101e-01
4.447999999999999687e+01,1.785111079447830318e-01
4.452000000000000313e+01,1.554326459196051780e-01
4.456000000000000227e+01,1.378306498754447162e-01
4.460000000000000142e+01,1.235829130682808280e-01
4.464000000000000057e+01,1.045429005964375740e-01
4.467999999999999972e+01,9.050014548216650523e-02
4.471999999999999886e+01,7.522494451031826179e-02
4.475999999999999801e+01,6.843837242862561843e-02
4.479999999999999716e+01,6.336305982578878393e-02
4.484000000000000341e+01,5.705530066356117452e-02
4.488000000000000256e+01,4.650293062917740250e-02
4.492000000000000171e+01,4.327539788237797641e-02
4.496000000000000085e+01,4.155374885512646416e-02
4.500000000000000000e+01,3.791506958754460588e-02
4.503999999999999915e+01,3.092173608079955283e-02
4.507999999999999829e+01,2.481816112111951897e-02
4.511999999999999744e+01,2.542329780866521213e-02
4.515999999999999659e+01,2.431677814368550170e-02
4.520000000000000284e+01,2.218318463743055094e-02
4.524000000000000199e+01,1.799564293818039715e-02
4.528000000000000114e+01,1.825768889128383948e-02
4.532000000000000028e+01,1.557582861477185138e-02
4.535999999999999943e+01,1.460522454198539752e-02
4.539999999999999858e+01,1.917953981203984401e-02
4.543999999999999773e+01,1.601786893434870712e-02
4.547999999999999687e+01,1.621045214702091300e-02
4.552000000000000313e+01,1.318529486231304233e-02
4.556000000000000227e+01,1.666347182795787155e-02
4.560000000000000142e+01,1.671853300479049856e-02
4.564000000000000057e+01,9.106065138706943493e-03
4.567999999999999972e+01,1.744417270475788831e-02
4.571999999999999886e+01,1.113200675909858592e-02
4.575999999999999801e+01,1.152854871765903420e-02
4.579999999999999716e+01,1.055572195328210831e-02
4.584000000000000341e+01,1.362172991901570117e-02
4.588000000000000256e+01,8.677916065611870899e-03
4.592000000000000171e+01,6.540687533104270687e-03
4.596000000000000085e+01,1.070141608801419841e-02
4.600000000000000000e+01,1.027523584791345188e-02
4.603999999999999915e+01,1.094418336392512237e-02
4.607999999999999829e+01,1.161292600981045538e-02
4.611999999999999744e+01,1.111767288481182482e-02
4.615999999999999659e+01,7.883883441058786232e-03
4.620000000000000284e+01,1.060575830850202413e-02
4.624000000000000199e+01,6.276225094630244472e-03
4.628000000000000114e+01,8.860771567342272045e-03
4.632000000000000028e+01,9.665196628811724075e-03
4.635999999999999943e+01,9.442541064807571244e-03
4.639999999999999858e+01,6.481347778421786381e-03
4.643999999999999773e+01,9.270442576048577160e-03
4.647999999999999687e+01,8.636416438229913353e-03
4.652000000000000313e+01,7.112225288223792720e-03
4.656000000000000227e+01,8.326157441589085439e-03
4.660000000000000142e+01,5.911593134138895013e-03
4.664000000000000057e+01,8.015066799673373904e-03
4.667999999999999972e+01,7.311542830742285594e-03
4.671999999999999886e+01,9.277682954912335606e-03
4.675999999999999801e+01,9.600615643560779164e-03
4.679999999999999716e+01,9.101839956975454199e-03
4.684000000000000341e+01,4.563816758834525651e-03
4.688000000000000256e+01,4.749204953607455079e-03
4.692000000000000171e+01,6.303548855934807370e-03
4.696000000000000085e+01,9.842972702547969632e-03
4.700000000000000000e+01,9.753897748966889464e-03
4.703999999999999915e+01,9.253862663637637750e-03
4.707999999999999829e+01,7.179076545802589270e-03
4.711999999999999744e+01,3.324164337967459686e-03
4.715999999999999659e+01,1.158615553351223341e-02
4.720000000000000284e+01,7.799278993360107479e-03
4.724000000000000199e+01,5.449814563778221897e-03
4.728000000000000114e+01,6.249218873798866557e-03
4.732000000000000028e+01,9.239075846220898280e-03
4.735999999999999943e+01,3.192228226022021057e-03
4.739999999999999858e+01,3.922537193108855541e-03
4.743999999999999773e+01,5.200299532332058883e-03
4.747999999999999687e+01,4.561017127076691727e-03
4.752000000000000313e+01,1.172576472507553223e-02
4.756000000000000227e+01,6.567809383861345461e-03
4.760000000000000142e+01,8.323926009281114660e-03
4.764000000000000057e+01,8.710663150621274567e-03
4.767999999999999972e+01,1.053480982921504994e-02
4.771999999999999886e+01,6.950538359243843035e-03
4.775999999999999801e+01,1.041725446919270978e-02
4.779999999999999716e+01,6.421803727136625450e-03
4.784000000000000341e+01,1.002500629327532367e-02
4.788000000000000256e+01,6.439874637608536227e-03
4.792000000000000171e+01,7.509690017952075879e-03
4.796000000000000085e+01,5.087917532629982614e-03
4.800000000000000000e+01,7.731841262555302734e-03
4.803999999999999915e+01,6.541885286345219992e-03
4.807999999999999829e+01,6.994711331566414760e-03
4.811999999999999744e+01,7.994986771980129928e-03
4.815999999999999659e+01,7.009755216452595757e-03
4.820000000000000284e+01,7.735763255061565286e-03
4.824000000000000199e+01,4.559432143326923662e-03
4.828000000000000114e+01,6.038045962161734531e-03
4.832000000000000028e+01,3.477403613739601246e-03
4.835999999999999943e+01,5.092497806379481934e-03
4.839999999999999858e+01,6.775831835015121672e-03
4.843999999999999773e+01,4.282992445542576146e-03
4.847999999999999687e+01,5.965888895318424354e-03
4.852000000000000313e+01,5.800192792749800721e-03
4.856000000000000227e+01,4.128195276492847149e-03
4.860000000000000142e+01,9.027972505828931252e-03
4.864000000000000057e+01,3.864163538750040559e-03
4.867999999999999972e+01,4.792920927756794125e-03
4.871999999999999886e+01,6.816790399038389660e-03
4.875999999999999801e+01,4.938317678784046559e-03
4.879999999999999716e+01,4.428789671004017790e-03
4.884000000000000341e+01,4.945914769166411158e-03
4.888000000000000256e+01,5.394360347032423585e-03
4.892000000000000171e+01,6.732542013927479176e-03
4.896000000000000085e+01,5.606004084492180982e-03
4.900000000000000000e+01,8.997490325706954811e-03
4.903999999999999915e+01,7.528216894557355175e-03
4.907999999999999829e+01,4.210347635933023823e-03
4.911999999999999744e+01,4.383627728363050612e-03
4.915999999999999659e+01,7.568849016277892118e-03
4.920000000000000284e+01,6.577892441264956980e-03
4.924000000000000199e+01,5.244421142439529768e-03
4.928000000000000114e+01,4.253017631051827542e-03
4.932000000000000028e+01,6.136637830359848930e-03
4.935999999999999943e+01,5.144786446845903312e-03
4.939999999999999858e+01,7.644082776821191534e-03
4.943999999999999773e+01,9.253197017144174433e-03
4.947999999999999687e+01,5.453882815635709320e-03
4.952000000000000313e+01,5.282632174840470873e-03
4.956000000000000227e+01,9.150194507933417931e-03
4.960000000000000142e+01,1.068995005072761670e-02
4.964000000000000057e+01,7.095109314014106001e-03
4.967999999999999972e+01,7.744455672931567156e-03
4.971999999999999886e+01,5.929077990699044981e-03
4.975999999999999801e+01,6.646430073251594073e-03
4.979999999999999716e+01,9.485762039538469734e-03
4.984000000000000341e+01,8.901953419598439970e-03
4.988000000000000256e+01,7.907168058321147400e-03
4.992000000000000171e+01,9.308194977039784684e-03
4.996000000000000085e+01,5.300790646672499072e-03
5.000000000000000000e+01,4.647613971688694876e-03
5.003999999999999915e+01,5.911040953255585796e-03
5.007999999999999829e+01,7.242697945427472618e-03
5.011999999999999744e+01,9.532542283010980722e-03
5.015999999999999659e+01,9.836867927759540206e-03
5.020000000000000284e+01,6.307301233727462264e-03
5.024000000000000199e+01,6.268877340489277354e-03
5.028000000000000114e+01,5.682557817497439073e-03
5.032000000000000028e+01,4.822175528889335698e-03
5.035999999999999943e+01,8.000601535411934820e-03
5.039999999999999858e+01,7.345134033464525980e-03
5.043999999999999773e+01,4.088021730447784566e-03
5.047999999999999687e+01,4.732800471710502804e-03
5.052000000000000313e+01,9.074095199758403299e-03
5.056000000000000227e+01,1.067682787588570582e-02
5.060000000000000142e+01,7.281875207033916206e-03
5.064000000000000057e+01,6.008897509221113216e-03
5.067999999999999972e+01,6.173311803321345111e-03
5.071999999999999886e+01,5.036786874644443371e-03
5.075999999999999801e+01,6.296069313268136750e-03
5.079999999999999716e+01,8.924284767472430435e-03
5.084000000000000341e+01,4.774898335581394780e-03
5.088000000000000256e+01,5.280441628297959968e-03
5.092000000000000171e+01,7.702583430931964417e-03
5.096000000000000085e+01,8.276118411011135559e-03
5.100000000000000000e+01,8.438670099492557100e-03
5.103999999999999915e+01,6.341864850430537631e-03
5.107999999999999829e+01,4.997866508714750126e-03
5.111999999999999744e+01,4.748966213001329546e-03
5.115999999999999659e+01,8.538869533661149272e-03
5.120000000000000284e+01,7.604917098348967092e-03
5.124000000000000199e+01,7.081479262037468012e-03
5.128000000000000114e+01,7.584680261458053019e-03
5.132000000000000028e+01,7.197688176146231978e-03
5.135999999999999943e+01,6.194335870239363676e-03
5.139999999999999858e+01,8.955952679003236980e-03
5.143999999999999773e+01,6.377587857498602172e-03
5.147999999999999687e+01,1.009714783998485153e-02
5.152000000000000313e+01,8.545183998845637743e-03
5.156000000000000227e+01,3.570069512150924468e-03
5.160000000000000142e+01,5.851294970896746619e-03
5.164000000000000057e+01,5.462410335918184770e-03
5.167999999999999972e+01,7.743160785744313164e-03
5.171999999999999886e+01,7.011509301376287612e-03
5.175999999999999801e+01,8.059534865192716224e-03
5.179999999999999716e+01,9.175780380285554483e-03
5.184000000000000341e+01,5.225875023806383565e-03
5.188000000000000256e+01,9.559182092984739101e-03
5.192000000000000171e+01,7.799463704933206828e-03
5.196000000000000085e+01,1.165308456842998296e-02
5.200000000000000000e+01,8.866013310670684336e-03
5.203999999999999915e+01,7.379409541899078530e-03
5.207999999999999829e+01,7.740939224327730503e-03
5.211999999999999744e+01,8.033770437492196090e-03
5.215999999999999659e+01,6.820279182559620471e-03
5.220000000000000284e+01,7.454920677013689330e-03
5.224000000000000199e+01,1.021152778499178487e-02
5.228000000000000114e+01,6.258982859629858356e-03
5.232000000000000028e+01,9.425857119789118888e-03
5.235999999999999943e+01,7.184286094589960661e-03
5.239999999999999858e+01,6.996221472644508117e-03
5.243999999999999773e+01,1.118924435365432381e-02
5.247999999999999687e+01,1.216448603209392514e-02
5.252000000000000313e+01,7.662823214904820532e-03
5.256000000000000227e+01,7.268414100782125652e-03
5.260000000000000142e+01,7.695261278885221455e-03
5.264000000000000057e+01,6.478866632599204582e-03
5.267999999999999972e+01,9.643558085641176433e-03
5.271999999999999886e+01,1.006967485411736432e-02
5.275999999999999801e+01,8.989465645428395060e-03
5.279999999999999716e+01,7.840553990531382716e-03
5.284000000000000341e+01,8.882062714609043411e-03
5.288000000000000256e+01,9.101827504895994639e-03
5.292000000000000171e+01,6.651474715446604839e-03
5.296000000000000085e+01,5.227750936338552458e-03
5.300000000000000000e+01,1.030731789513853434e-02
5.303999999999999915e+01,6.966271512808750767e-03
5.307999999999999829e+01,7.869392341390604381e-03
5.311999999999999744e+01,8.087684381592130656e-03
5.315999999999999659e+01,1.302935108646124072e-02
5.320000000000000284e+01,7.359738729847216734e-03
5.324000000000000199e+01,1.127403806086030823e-02
5.328000000000000114e+01,9.711428451425084193e-03
5.332000000000000028e+01,8.901612648815102058e-03
5.335999999999999943e+01,4.120969477294802140e-03
5.339999999999999858e+01,9.334986704762961510e-03
5.343999999999999773e+01,1.078355091900148367e-02
5.347999999999999687e+01,7.029038121177538095e-03
5.352000000000000313e+01,9.024772000362365001e-03
5.356000000000000227e+01,9.582633498143389508e-03
5.360000000000000142e+01,9.181830302214352701e-03
5.364000000000000057e+01,8.096195276712623776e-03
5.367999999999999972e+01,6.188811638662692835e-03
5.371999999999999886e+01,8.525591468518459171e-03
5.375999999999999801e+01,9.492956021799822675e-03
5.379999999999999716e+01,7.379448201598731889e-03
5.384000000000000341e+01,6.155647696068145165e-03
5.388000000000000256e+01,8.902176624616498640e-03
5.392000000000000171e+01,8.636290752387584119e-03
5.396000000000000085e+01,9.191653218496739081e-03
5.400000000000000000e+01,9.336014847667547384e-03
5.403999999999999915e+01,7.289460268473155376e-03
5.407999999999999829e+01,8.939400855593112108e-03
5.411999999999999744e+01,1.010988162944230148e-02
5.415999999999999659e+01,1.319694196424110039e-02
5.420000000000000284e+01,9.848672134757135294e-03
5.424000000000000199e+01,1.101839583006174531e-02
5.428000000000000114e+01,9.586452266261032834e-03
5.432000000000000028e+01,9.386504582470367453e-03
5.435999999999999943e+01,7.680221563999578907e-03
5.439999999999999858e+01,7.411308781219485935e-03
5.443999999999999773e+01,1.124963870642572625e-02
5.447999999999999687e+01,7.625762712001972476e-03
5.452000000000000313e+01,1.009441891873422842e-02
5.456000000000000227e+01,9.961406228796045384e-03
5.460000000000000142e+01,1.284030291879177318e-02
5.464000000000000057e+01,9.763074792819799452e-03
5.467999999999999972e+01,1.010850522601880637e-02
5.471999999999999886e+01,9.289889591690875942e-03
5.475999999999999801e+01,1.230468169577102894e-02
5.479999999999999716e+01,9.294889773613160266e-03
5.484000000000000341e+01,6.490216572490847304e-03
5.488000000000000256e+01,8.066616604113480138e-03
5.492000000000000171e+01,7.315178731700042875e-03
5.496000000000000085e+01,1.299856185972000401e-02
5.500000000000000000e+01,6.153823712525883019e-03
5.503999999999999915e+01,9.303736372867407040e-03
5.507999999999999829e+01,8.072061957857135789e-03
5.511999999999999744e+01,1.074225145033291112e-02
5.515999999999999659e+01,8.277812379874292456e-03
5.520000000000000284e+01,9.852153298063570999e-03
5.524000000000000199e+01,8.277155146488102480e-03
5.528000000000000114e+01,5.675024201293056743e-03
5.532000000000000028e+01,8.343921484270811623e-03
5.535999999999999943e+01,8.958811387971117590e-03
5.539999999999999858e+01,1.238023116929141271e-02
5.543999999999999773e+01,8.065606318397540442e-03
5.547999999999999687e+01,1.100729872097036023e-02
5.552000000000000313e+01,9.909692847468827212e-03
5.556000000000000227e+01,1.004407560190325420e-02
5.560000000000000142e+01,1.045203090707240955e-02
5.564000000000000057e+01,9.559018215105885216e-03
5.567999999999999972e+01,9.555702076667648912e-03
5.571999999999999886e+01,9.894416061669328993e-03
5.575999999999999801e+01,8.726786524165284359e-03
5.579999999999999716e+01,1.091335072105294353e-02
5.584000000000000341e+01,6.596116887686213556e-03
5.588000000000000256e+01,7.481449732843217792e-03
5.592000000000000171e+01,1.028335184568336495e-02
5.596000000000000085e+01,8.019078991350434699e-03
5.600000000000000000e+01,1.068353901565240530e-02
5.603999999999999915e+01,1.136244595825186901e-02
5.607999999999999829e+01,1.115113197751188556e-02
5.611999999999999744e+01,1.073417958468262171e-02
5.615999999999999659e+01,1.154921231072118110e-02
5.620000000000000284e+01,1.147402341160666701e-02
5.624000000000000199e+01,9.070988888506225506e-03
5.628000000000000114e+01,1.043289493965584257e-02
5.632000000000000028e+01,1.316370172295938321e-02
5.635999999999999943e+01,1.144445567038038930e-02
5.639999999999999858e+01,1.335323294120020418e-02
5.643999999999999773e+01,7.320584907802530836e-03
5.647999999999999687e+01,1.128257926017702494e-02
5.652000000000000313e+01,8.809229879872029420e-03
5.656000000000000227e+01,1.105923527951528304e-02
5.660000000000000142e+01,6.942354753122143181e-03
5.664000000000000057e+01,9.465660225328083321e-03
5.667999999999999972e+01,7.196619617554433392e-03
5.671999999999999886e+01,1.033551559916559906e-02
5.675999999999999801e+01,8.134398836770974708e-03
5.679999999999999716e+01,1.010896925454686165e-02
5.684000000000000341e+01,1.064564810801323265e-02
5.688000000000000256e+01,1.042901790842027353e-02
5.692000000000000171e+01,1.069132736316861544e-02
5.696000000000000085e+01,8.625786983049315432e-03
5.700000000000000000e+01,6.628436142282746919e-03
5.703999999999999915e+01,1.236660135303744440e-02
5.707999999999999829e+01,9.889504418493434701e-03
5.711999999999999744e+01,9.465886282533938698e-03
5.715999999999999659e+01,8.288957455950015166e-03
5.720000000000000284e+01,9.576256607187669939e-03
5.724000000000000199e+01,7.577288442729258368e-03
5.728000000000000114e+01,8.932505356961207427e-03
5.732000000000000028e+01,1.261503299816352230e-02
5.735999999999999943e+01,1.040987819014146595e-02
5.739999999999999858e+01,1.279115670033467538e-02
5.743999999999999773e+01,1.284458256840573416e-02
5.747999999999999687e+01,8.242574226777316451e-03
5.752000000000000313e+01,7.953165403475331158e-03
5.756000000000000227e+01,6.705068726613707362e-03
5.760000000000000142e+01,1.271327690451146304e-02
5.764000000000000057e+01,9.890095191311006756e-03
5.767999999999999972e+01,1.226946962942998022e-02
5.771999999999999886e+01,8.213493316733223512e-03
5.775999999999999801e+01,8.264740295179207052e-03
5.779999999999999716e+01,7.904964212588808103e-03
5.784000000000000341e+01,1.315849299267913761e-02
5.788000000000000256e+01,9.717547027081628597e-03
5.792000000000000171e+01,1.209528027984555984e-02
5.796000000000000085e+01,1.111828373151284993e-02
5.800000000000000000e+01,1.151017808994334903e-02
5.803999999999999915e+01,9.916507669777627210e-03
5.807999999999999829e+01,1.133472627695074515e-02
5.811999999999999744e+01,1.104121273572711628e-02
5.815999999999999659e+01,1.067896540062022830e-02
5.820000000000000284e+01,1.086410850836149952e-02
5.824000000000000199e+01,8.926769118779544557e-03
5.828000000000000114e+01,1.150739962626081206e-02
5.832000000000000028e+01,8.131883795489919936e-03
5.835999999999999943e+01,1.084887770783904762e-02
5.839999999999999858e+01,1.137492991259467408e-02
5.843999999999999773e+01,9.504665352262468142e-03
5.847999999999999687e+01,1.174161987219128796e-02
5.852000000000000313e+01,1.021309166878038230e-02
5.856000000000000227e+01,1.025882592055886097e-02
5.860000000000000142e+01,1.078349000128795906e-02
5.864000000000000057e+01,7.063462735232060516e-03
5.867999999999999972e+01,9.435943340793178855e-03
5.871999999999999886e+01,1.023360483792708567e-02
5.875999999999999801e+01,1.000411318884630862e-02
5.879999999999999716e+01,9.774342277395094841e-03
5.884000000000000341e+01,1.077654081097411190e-02
5.888000000000000256e+01,7.944796241253765726e-03
5.892000000000000171e+01,1.100018331596676509e-02
5.896000000000000085e+01,9.537044074316564785e-03
5.900000000000000000e+01,1.005891436165198306e-02
5.903999999999999915e+01,9.142880218094765268e-03
5.907999999999999829e+01,9.732647214015751821e-03
5.911999999999999744e+01,8.131468291461515716e-03
5.915999999999999659e+01,8.720672785697771226e-03
5.920000000000000284e+01,1.239021803153118710e-02
5.924000000000000199e+01,1.167815187247390508e-02
5.928000000000000114e+01,1.000738780052838964e-02
5.932000000000000028e+01,1.039008966058428858e-02
5.935999999999999943e+01,1.132017517928997352e-02
5.939999999999999858e+01,9.853938318398872825e-03
5.943999999999999773e+01,1.023579186413913975e-02
5.947999999999999687e+01,1.089119526864033502e-02
5.952000000000000313e+01,1.106710727825772032e-02
5.956000000000000227e+01,1.144811040424147976e-02
5.960000000000000142e+01,1.039120582420236319e-02
5.964000000000000057e+01,1.173005667725572632e-02
5.967999999999999972e+01,9.645709395365038158e-03
5.971999999999999886e+01,9.546367431578214185e-03
5.975999999999999801e+01,1.191123847358904753e-02
5.979999999999999716e+01,1.051061930624819750e-02
5.984000000000000341e+01,9.178173068670978166e-03
5.988000000000000256e+01,9.967647762483761512e-03
5.992000000000000171e+01,9.593045976845904210e-03
5.996000000000000085e+01,9.902740889827321355e-03
