2.003999999999999915e+01,6.458121905867325423e-03
2.007999999999999829e+01,2.758045894415810800e-02
2.012000000000000099e+01,1.833905520180331705e-02
2.016000000000000014e+01,4.665338282637611876e-03
2.019999999999999929e+01,5.795712713804229005e-03
2.023999999999999844e+01,1.135760772554863206e-02
2.028000000000000114e+01,1.682481072775849837e-02
2.032000000000000028e+01,1.804829352900828854e-02
2.035999999999999943e+01,1.351931872867855218e-02
2.039999999999999858e+01,1.530778727886799272e-02
2.044000000000000128e+01,1.492705040325491284e-02
2.048000000000000043e+01,1.897783527298203127e-02
2.051999999999999957e+01,1.312713493208530861e-02
2.055999999999999872e+01,1.425395141591764142e-02
2.060000000000000142e+01,1.377733984848569099e-02
2.064000000000000057e+01,1.367751851702130733e-02
2.067999999999999972e+01,7.730945037322444965e-03
2.071999999999999886e+01,3.292715377905126774e-03
2.076000000000000156e+01,4.794746417464016384e-03
2.080000000000000071e+01,1.157696565242469569e-02
2.083999999999999986e+01,1.571850090449539855e-02
2.087999999999999901e+01,1.571061477305689402e-02
2.092000000000000171e+01,1.937988372498324410e-02
2.096000000000000085e+01,8.338568518429513923e-03
2.100000000000000000e+01,1.662756132898914052e-02
2.103999999999999915e+01,8.885824973919558348e-03
2.107999999999999829e+01,8.404496266246111111e-03
2.112000000000000099e+01,1.820105058958862432e-02
2.116000000000000014e+01,1.055243483460852755e-02
2.119999999999999929e+01,8.655489714659269848e-03
2.123999999999999844e+01,1.052999733076328062e-02
2.128000000000000114e+01,7.312124507912336896e-03
2.132000000000000028e+01,1.342917468999631041e-02
2.135999999999999943e+01,1.577399021678255187e-02
2.139999999999999858e+01,1.180057659126367703e-02
2.144000000000000128e+01,1.669060605470265579e-02
2.148000000000000043e+01,1.629966385047877317e-02
2.151999999999999957e+01,1.694558885071978035e-02
2.155999999999999872e+01,1.495083336235846806e-02
2.160000000000000142e+01,1.361576106802963280e-02
2.164000000000000057e+01,1.492059025496499450e-02
2.167999999999999972e+01,1.000148774815641170e-02
2.171999999999999886e+01,1.102265059937414596e-02
2.176000000000000156e+01,1.260920132146101623e-02
2.180000000000000071e+01,1.032922342397646874e-02
2.183999999999999986e+01,1.172640507477989112e-02
2.187999999999999901e+01,6.522471603788057050e-03
2.192000000000000171e+01,1.112494454799569515e-02
2.196000000000000085e+01,1.714147123075279028e-02
2.200000000000000000e+01,1.617969897540941573e-02
2.203999999999999915e+01,8.051035776749274064e-03
2.207999999999999829e+01,1.453788085305119000e-02
2.212000000000000099e+01,1.489509247067867873e-02
2.216000000000000014e+01,8.745486425072290099e-03
2.219999999999999929e+01,1.768286973516743424e-02
2.223999999999999844e+01,7.006277915923168030e-03
2.228000000000000114e+01,1.471703932914251306e-02
2.232000000000000028e+01,1.818409024775585747e-02
2.235999999999999943e+01,1.599298937081556141e-02
2.239999999999999858e+01,2.011934155074864700e-02
2.244000000000000128e+01,1.707880472863585256e-02
2.248000000000000043e+01,8.191524494007363169e-03
2.251999999999999957e+01,1.797448695561982071e-02
2.255999999999999872e+01,1.823315850577637148e-02
2.260000000000000142e+01,1.132494183039538076e-02
2.264000000000000057e+01,1.309158186844152499e-02
2.267999999999999972e+01,1.391487664753331653e-02
2.271999999999999886e+01,1.209749656770806731e-02
2.276000000000000156e+01,1.207135850766061051e-02
2.280000000000000071e+01,1.242202116644322389e-02
2.283999999999999986e+01,1.541259113030259663e-02
2.287999999999999901e+01,1.444234161635020615e-02
2.292000000000000171e+01,1.677207249343034764e-02
2.296000000000000085e+01,1.976149316486378732e-02
2.300000000000000000e+01,2.821970490803192219e-02
2.303999999999999915e+01,1.913845959717874051e-02
2.307999999999999829e+01,1.326289935419471162e-02
2.312000000000000099e+01,1.568501375547619661e-02
2.316000000000000014e+01,1.829533842338819036e-02
2.319999999999999929e+01,1.732202956519167739e-02
2.323999999999999844e+01,1.361375227205855083e-02
2.328000000000000114e+01,1.282827271841515196e-02
2.332000000000000028e+01,1.845454678623964159e-02
2.335999999999999943e+01,1.050180153926883950e-02
2.339999999999999858e+01,1.499576068100574519e-02
2.344000000000000128e+01,7.513734590619714805e-03
2.348000000000000043e+01,1.257177416268986892e-03
2.351999999999999957e+01,1.706552737951579427e-02
2.355999999999999872e+01,1.109109832716896615e-02
2.360000000000000142e+01,1.445160334500091535e-02
2.364000000000000057e+01,9.796560287554517688e-03
2.367999999999999972e+01,2.041710596785511339e-02
2.371999999999999886e+01,1.132938760184679441e-02
2.376000000000000156e+01,1.912029205625765532e-02
2.380000000000000071e+01,8.900262646703432923e-03
2.383999999999999986e+01,0.000000000000000000e+00
2.387999999999999901e+01,1.542775263015756619e-02
2.392000000000000171e+01,1.793656136100052131e-02
2.396000000000000085e+01,1.441004166268667307e-02
2.400000000000000000e+01,1.333484269979166512e-02
2.403999999999999915e+01,1.301363487235297593e-02
2.407999999999999829e+01,1.024035098566144011e-02
2.412000000000000099e+01,1.255867920757632039e-02
2.416000000000000014e+01,1.676255234338849126e-02
2.419999999999999929e+01,1.493109821480631712e-02
2.423999999999999844e+01,1.536237378706236008e-02
2.428000000000000114e+01,1.466171966610400543e-02
2.432000000000000028e+01,1.113180625196873164e-02
2.435999999999999943e+01,1.769119939379997647e-02
2.439999999999999858e+01,8.314175776348806460e-03
2.444000000000000128e+01,7.329129309028501772e-03
2.448000000000000043e+01,2.011093786725043700e-02
2.451999999999999957e+01,5.829390487316229302e-03
2.455999999999999872e+01,1.200972159786569717e-02
2.460000000000000142e+01,1.479501817609784123e-02
2.464000000000000057e+01,1.842860490136420670e-02
2.467999999999999972e+01,1.800708478486590797e-02
2.471999999999999886e+01,1.569926831317799282e-02
2.476000000000000156e+01,1.574848016565196310e-02
2.480000000000000071e+01,1.023384816399609820e-02
2.483999999999999986e+01,1.301689915407029489e-02
2.487999999999999901e+01,1.268780526973183401e-02
2.492000000000000171e+01,1.877047277194458449e-02
2.496000000000000085e+01,1.787485570146100239e-02
2.500000000000000000e+01,6.656403849146637309e-04
2.503999999999999915e+01,2.032582723124452123e-02
2.507999999999999829e+01,1.424280625260049109e-02
2.512000000000000099e+01,9.668150448217251863e-03
2.516000000000000014e+01,1.065659229810285956e-02
2.519999999999999929e+01,1.390776850787658545e-02
2.523999999999999844e+01,1.989315977002379873e-02
2.528000000000000114e+01,1.371398253055048505e-02
2.532000000000000028e+01,1.356938422021265397e-02
2.535999999999999943e+01,1.776203523904761744e-02
2.539999999999999858e+01,1.799387901007708582e-02
2.544000000000000128e+01,1.501928452480144095e-02
2.548000000000000043e+01,1.525038675501990369e-02
2.551999999999999957e+01,1.519823020700859437e-02
2.555999999999999872e+01,1.410844627752141055e-02
2.560000000000000142e+01,1.320688445641672940e-02
2.564000000000000057e+01,1.258784103749347946e-02
2.567999999999999972e+01,1.687182509878960845e-02
2.571999999999999886e+01,1.455471267449062224e-02
2.576000000000000156e+01,1.412315292917233275e-02
2.580000000000000071e+01,2.066913543923106292e-02
2.583999999999999986e+01,1.627640146117991654e-02
2.587999999999999901e+01,1.226048314974434277e-02
2.592000000000000171e+01,2.238861125111250849e-02
2.596000000000000085e+01,1.478870427039318501e-02
2.600000000000000000e+01,7.282725239655564800e-03
2.603999999999999915e+01,1.363790490508815303e-02
2.607999999999999829e+01,1.565509622418904956e-02
2.612000000000000099e+01,1.361718769010025927e-02
2.616000000000000014e+01,1.214468838085993284e-02
2.619999999999999929e+01,8.880195998803680837e-03
2.623999999999999844e+01,1.202747140949255583e-02
2.628000000000000114e+01,1.715459812248575425e-02
2.632000000000000028e+01,1.483196636474527763e-02
2.635999999999999943e+01,1.986406397884766042e-02
2.639999999999999858e+01,6.979536446917017009e-03
2.644000000000000128e+01,1.465119262911466699e-02
2.648000000000000043e+01,1.383583402069880550e-02
2.651999999999999957e+01,1.914935626490254714e-02
2.655999999999999872e+01,7.772103435313166414e-03
2.660000000000000142e+01,2.119435958158468261e-02
2.664000000000000057e+01,7.930454477122182017e-03
2.667999999999999972e+01,1.720295234465511747e-02
2.671999999999999886e+01,1.506525749651580273e-02
2.676000000000000156e+01,1.566178507757914548e-02
2.680000000000000071e+01,1.408913809904629999e-02
2.683999999999999986e+01,1.525071393797026303e-02
2.687999999999999901e+01,1.094275211704443147e-02
2.692000000000000171e+01,1.106634329591932135e-02
2.696000000000000085e+01,7.134838698273321227e-03
2.700000000000000000e+01,1.140673147554828980e-02
2.703999999999999915e+01,1.068056786784009858e-02
2.707999999999999829e+01,1.231144384366456186e-02
2.712000000000000099e+01,1.422484540437246592e-02
2.716000000000000014e+01,1.594929224573271923e-02
2.719999999999999929e+01,8.055174594707078736e-03
2.723999999999999844e+01,1.241918776924596200e-02
2.728000000000000114e+01,1.348247551765386493e-02
2.732000000000000028e+01,1.435680932322237584e-02
2.735999999999999943e+01,1.343915568566045153e-02
2.739999999999999858e+01,9.880849902050431455e-03
2.744000000000000128e+01,1.169706063860974539e-02
2.748000000000000043e+01,1.379579870719626657e-02
2.751999999999999957e+01,1.391395790981737011e-02
2.755999999999999872e+01,1.808648881958604959e-02
2.760000000000000142e+01,1.348912207528449661e-02
2.764000000000000057e+01,9.174283439518491137e-03
2.767999999999999972e+01,1.617461676799838641e-02
2.771999999999999886e+01,1.713963991526738784e-02
2.776000000000000156e+01,1.159787257709419921e-02
2.780000000000000071e+01,1.746557388521981918e-02
2.783999999999999986e+01,1.069723861750013216e-02
2.787999999999999901e+01,9.680606404034182433e-03
2.792000000000000171e+01,1.177538664814306926e-02
2.796000000000000085e+01,1.952757423508828458e-02
2.800000000000000000e+01,2.313037499314514467e-02
2.803999999999999915e+01,1.494580504303693810e-02
2.807999999999999829e+01,5.252139443100751690e-03
2.812000000000000099e+01,1.356867101949583120e-02
2.816000000000000014e+01,1.688715164646591160e-02
2.819999999999999929e+01,1.586765421583981664e-02
2.823999999999999844e+01,1.258469311452090934e-02
2.828000000000000114e+01,1.184736961989054337e-02
2.832000000000000028e+01,8.469398444134907181e-03
2.835999999999999943e+01,1.452068053935261921e-02
2.839999999999999858e+01,1.745983484334096003e-02
2.844000000000000128e+01,1.351501756336099397e-02
2.848000000000000043e+01,9.381251970227044712e-03
2.851999999999999957e+01,6.190091454126115181e-03
2.855999999999999872e+01,1.101374368455907554e-02
2.860000000000000142e+01,8.764832908188727525e-03
2.864000000000000057e+01,1.330488597087507545e-02
2.867999999999999972e+01,8.697862222235872715e-03
2.871999999999999886e+01,1.210565199663894524e-02
2.876000000000000156e+01,5.894884849612495349e-03
2.880000000000000071e+01,4.775752524061237410e-03
2.883999999999999986e+01,1.242580310130678330e-02
2.887999999999999901e+01,1.158885053556377685e-02
2.892000000000000171e+01,4.339409213735730304e-03
2.896000000000000085e+01,9.536699264280103921e-03
2.900000000000000000e+01,1.529941232269584062e-02
2.903999999999999915e+01,1.210364251627314008e-02
2.907999999999999829e+01,1.069914540170746435e-02
2.912000000000000099e+01,1.004866407673768447e-02
2.916000000000000014e+01,1.034079093483418130e-02
2.919999999999999929e+01,1.242419106716890868e-02
2.923999999999999844e+01,1.479012707312259145e-02
2.928000000000000114e+01,9.234838475388518902e-03
2.932000000000000028e+01,1.348599220636436530e-02
2.935999999999999943e+01,1.745390579531047939e-02
2.939999999999999858e+01,1.434926025999492573e-02
2.944000000000000128e+01,1.152715156893368426e-02
2.948000000000000043e+01,1.521112249458288386e-02
2.951999999999999957e+01,1.370845687178481702e-02
2.955999999999999872e+01,1.578869216413006718e-02
2.960000000000000142e+01,1.249369909693889835e-02
2.964000000000000057e+01,1.495041762559327567e-02
2.967999999999999972e+01,7.882879797412638279e-03
2.971999999999999886e+01,1.222481993363088229e-02
2.976000000000000156e+01,1.496337647368705878e-02
2.980000000000000071e+01,9.309230435349319030e-03
2.983999999999999986e+01,1.082123845856731992e-02
2.987999999999999901e+01,1.421881915585571261e-02
2.992000000000000171e+01,1.261835744531087863e-02
2.996000000000000085e+01,1.233769219906061081e-02
3.000000000000000000e+01,1.262245481385880670e-02
3.003999999999999915e+01,7.909175603205064950e-03
3.007999999999999829e+01,1.375671120704906672e-02
3.012000000000000099e+01,1.272028338026225808e-02
3.016000000000000014e+01,4.517004017956743542e-03
3.019999999999999929e+01,4.045657062380672055e-03
3.023999999999999844e+01,9.703209013243018627e-03
3.028000000000000114e+01,1.064560860243093238e-02
3.032000000000000028e+01,4.043973033921815195e-03
3.035999999999999943e+01,6.117231645367028799e-03
3.039999999999999858e+01,1.101902645125116265e-02
3.044000000000000128e+01,8.282490582147954833e-03
3.048000000000000043e+01,1.686114026618654865e-02
3.051999999999999957e+01,7.994665297640089416e-03
3.055999999999999872e+01,8.368862077713316167e-03
3.060000000000000142e+01,1.468336731202537875e-02
3.064000000000000057e+01,1.618842583213506853e-02
3.067999999999999972e+01,1.825891551345363781e-02
3.071999999999999886e+01,1.410551737374918929e-02
3.076000000000000156e+01,1.080043908252277876e-02
3.080000000000000071e+01,7.306423737513253851e-03
3.083999999999999986e+01,9.375533612818533896e-03
3.087999999999999901e+01,9.181192629818521467e-03
3.092000000000000171e+01,4.460294590520675825e-03
3.096000000000000085e+01,1.256332202863606230e-02
3.100000000000000000e+01,7.370255529244152878e-03
3.103999999999999915e+01,4.157063433279638634e-03
3.107999999999999829e+01,1.169328320433329557e-02
3.112000000000000099e+01,1.687175718217253165e-02
3.116000000000000014e+01,7.999769201639557806e-03
3.119999999999999929e+01,9.594305371491033269e-03
3.123999999999999844e+01,1.326301301507698711e-02
3.128000000000000114e+01,9.199097960672695737e-03
3.132000000000000028e+01,1.182986365216798751e-02
3.135999999999999943e+01,1.002837052243502579e-02
3.139999999999999858e+01,1.218697163637795511e-02
3.144000000000000128e+01,1.245930900848136319e-02
3.148000000000000043e+01,1.084538283287239148e-02
3.151999999999999957e+01,1.187140608791742609e-02
3.155999999999999872e+01,1.138835058219079578e-02
3.160000000000000142e+01,1.118784240358104871e-02
3.164000000000000057e+01,1.240143494227502127e-02
3.167999999999999972e+01,1.964963727631082943e-02
3.171999999999999886e+01,1.171582717369376234e-02
3.176000000000000156e+01,1.792609182643476254e-02
3.180000000000000071e+01,8.860048331105393679e-03
3.183999999999999986e+01,1.054342039120880099e-02
3.187999999999999901e+01,1.062341914388559468e-02
3.192000000000000171e+01,1.834106255108479758e-02
3.196000000000000085e+01,1.021662198869204528e-02
3.200000000000000000e+01,9.069753771374297613e-03
3.203999999999999915e+01,8.016842817228041901e-03
3.207999999999999829e+01,1.271565530067943206e-02
3.211999999999999744e+01,2.986826086122025461e-03
3.215999999999999659e+01,6.459112571477004100e-03
3.220000000000000284e+01,1.426868158173614370e-02
3.224000000000000199e+01,1.123386126389050270e-02
3.228000000000000114e+01,1.479943025132285199e-02
3.232000000000000028e+01,1.025519718938249988e-02
3.235999999999999943e+01,9.482470830824717839e-03
3.239999999999999858e+01,1.276413966879157147e-02
3.243999999999999773e+01,1.764850530594715486e-02
3.247999999999999687e+01,1.017974518501403407e-02
3.252000000000000313e+01,7.991230138718267983e-03
3.256000000000000227e+01,7.688300773007424906e-03
3.260000000000000142e+01,1.059110267741177579e-02
3.264000000000000057e+01,7.552914377908109302e-03
3.267999999999999972e+01,1.281244711904297277e-02
3.271999999999999886e+01,5.624559167180010616e-03
3.275999999999999801e+01,6.168616046179858578e-03
3.279999999999999716e+01,8.503963670855504628e-03
3.284000000000000341e+01,1.017890364387104112e-02
3.288000000000000256e+01,1.100484396001032671e-02
3.292000000000000171e+01,9.473047218653952647e-03
3.296000000000000085e+01,1.058120689652658312e-02
3.300000000000000000e+01,8.954445506471141181e-03
3.303999999999999915e+01,1.694555229960112777e-02
3.307999999999999829e+01,5.511328771174735415e-03
3.311999999999999744e+01,1.369036037938311558e-02
3.315999999999999659e+01,6.310202140827025387e-03
3.320000000000000284e+01,1.203686854981587777e-02
3.324000000000000199e+01,1.003092177304154738e-02
3.328000000000000114e+01,1.292803936063254347e-02
3.332000000000000028e+01,1.148720373889405670e-02
3.335999999999999943e+01,2.023001445138756030e-02
3.339999999999999858e+01,1.011327299337131010e-02
3.343999999999999773e+01,1.348054174634908536e-02
3.347999999999999687e+01,1.665888645205840235e-02
3.352000000000000313e+01,1.417913352367046291e-02
3.356000000000000227e+01,6.889948052357281610e-03
3.360000000000000142e+01,1.157603597380003381e-02
3.364000000000000057e+01,1.465875912940787715e-02
3.367999999999999972e+01,9.254502437277255592e-03
3.371999999999999886e+01,1.243086013210431030e-02
3.375999999999999801e+01,1.117497065332815481e-02
3.379999999999999716e+01,1.123889627504662606e-02
3.384000000000000341e+01,1.026523469959552542e-02
3.388000000000000256e+01,9.951315915191645198e-03
3.392000000000000171e+01,1.227735820906679549e-02
3.396000000000000085e+01,6.399310313108062115e-03
3.400000000000000000e+01,1.579690123968390328e-02
3.403999999999999915e+01,5.203389905723458143e-03
3.407999999999999829e+01,9.508333383865192126e-03
3.411999999999999744e+01,5.232003049994714793e-03
3.415999999999999659e+01,1.368531762403257454e-02
3.420000000000000284e+01,1.685772226282025721e-02
3.424000000000000199e+01,1.078878097427542378e-02
3.428000000000000114e+01,9.528612803601418588e-03
3.432000000000000028e+01,1.345440234361184456e-02
3.435999999999999943e+01,1.125061782783553718e-02
3.439999999999999858e+01,8.197841032012168072e-03
3.443999999999999773e+01,6.559178542388402998e-03
3.447999999999999687e+01,3.505747562941792170e-03
3.452000000000000313e+01,1.223900224183071747e-02
3.456000000000000227e+01,1.182520864607549717e-02
3.460000000000000142e+01,1.244834573434163739e-02
3.464000000000000057e+01,9.582200916516884007e-03
3.467999999999999972e+01,9.167428666042459068e-03
3.471999999999999886e+01,1.205269407409030255e-02
3.475999999999999801e+01,1.031712496236868865e-02
3.479999999999999716e+01,1.093863290070699185e-02
3.484000000000000341e+01,9.862485797351246489e-03
3.488000000000000256e+01,1.104912003263792443e-02
3.492000000000000171e+01,5.351814132543835159e-03
3.496000000000000085e+01,1.030964283012339271e-02
3.500000000000000000e+01,9.986565474994456293e-03
3.503999999999999915e+01,1.060612483961313399e-02
3.507999999999999829e+01,9.810918626315206365e-03
3.511999999999999744e+01,1.250434421215371184e-02
3.515999999999999659e+01,6.993685431970832721e-03
3.520000000000000284e+01,8.932095025387916734e-03
3.524000000000000199e+01,9.550035917068379690e-03
3.528000000000000114e+01,8.093139503766121762e-03
3.532000000000000028e+01,1.531116134217656508e-02
3.535999999999999943e+01,9.704590901290048588e-03
3.539999999999999858e+01,1.399878839610189767e-02
3.543999999999999773e+01,1.640674156178267146e-02
3.547999999999999687e+01,1.626837789475783433e-02
3.552000000000000313e+01,1.018903800097501269e-02
3.556000000000000227e+01,1.504772391578708575e-02
3.560000000000000142e+01,7.459003114751305320e-03
3.564000000000000057e+01,7.885129420743337142e-03
3.567999999999999972e+01,6.896493060725045719e-03
3.571999999999999886e+01,5.436055225540028027e-03
3.575999999999999801e+01,8.784397690927871552e-03
3.579999999999999716e+01,8.171983381552033743e-03
3.584000000000000341e+01,1.302842245870482717e-02
3.588000000000000256e+01,1.081233386018353240e-02
3.592000000000000171e+01,7.181483760414429998e-03
3.596000000000000085e+01,8.548007131196933353e-03
3.600000000000000000e+01,1.312027827289673557e-02
3.603999999999999915e+01,4.773664335788370579e-03
3.607999999999999829e+01,4.819084039792344287e-03
3.611999999999999744e+01,1.523675567214042084e-02
3.615999999999999659e+01,1.000095591758371275e-02
3.620000000000000284e+01,1.315719038652056992e-02
3.624000000000000199e+01,1.584162590394281103e-02
3.628000000000000114e+01,1.965729635839557135e-02
3.632000000000000028e+01,1.225141288701949750e-02
3.635999999999999943e+01,8.899943830749348223e-03
3.639999999999999858e+01,1.186599577583185260e-02
3.643999999999999773e+01,1.558609903576661099e-02
3.647999999999999687e+01,1.261086193062019474e-02
3.652000000000000313e+01,1.293567121971484976e-02
3.656000000000000227e+01,1.514608560210279134e-02
3.660000000000000142e+01,1.188700949752231721e-02
3.664000000000000057e+01,8.156136382698025641e-03
3.667999999999999972e+01,1.526899841235529465e-02
3.671999999999999886e+01,1.116030845745457148e-02
3.675999999999999801e+01,1.431210224776679335e-02
3.679999999999999716e+01,8.222562534879884408e-03
3.684000000000000341e+01,1.571134563346076804e-02
3.688000000000000256e+01,1.263865022169357970e-02
3.692000000000000171e+01,1.729791983000590963e-02
3.696000000000000085e+01,1.545044360210538412e-02
3.700000000000000000e+01,1.426272530716465349e-02
3.703999999999999915e+01,1.213173144489265373e-02
3.707999999999999829e+01,1.792129557855186295e-02
3.711999999999999744e+01,1.758129905119312775e-02
3.715999999999999659e+01,1.846683783133242635e-02
3.720000000000000284e+01,9.168084052826933755e-03
3.724000000000000199e+01,1.476780042246320611e-02
3.728000000000000114e+01,1.744402429642605626e-02
3.732000000000000028e+01,1.719675586884256147e-02
3.735999999999999943e+01,1.327162653646664185e-02
3.739999999999999858e+01,1.472106206190391432e-02
3.743999999999999773e+01,9.380865781638374201e-03
3.747999999999999687e+01,2.091935890738180412e-02
3.752000000000000313e+01,1.991615853570581282e-02
3.756000000000000227e+01,1.721531632297748290e-02
3.760000000000000142e+01,2.290651512819062013e-02
3.764000000000000057e+01,1.426439512460422020e-02
3.767999999999999972e+01,2.287814989634882196e-02
3.771999999999999886e+01,2.036465363638415363e-02
3.775999999999999801e+01,1.379611401421128834e-02
3.779999999999999716e+01,1.712835397536176946e-02
3.784000000000000341e+01,2.187472474351404711e-02
3.788000000000000256e+01,1.596532575482366781e-02
3.792000000000000171e+01,2.438862361640555323e-02
3.796000000000000085e+01,1.951586131859271364e-02
3.800000000000000000e+01,2.435528737539537775e-02
3.803999999999999915e+01,1.523858096335589142e-02
3.807999999999999829e+01,1.875724238400731242e-02
3.811999999999999744e+01,2.001248808335562637e-02
3.815999999999999659e+01,2.890540872105143433e-02
3.820000000000000284e+01,2.817981825130942350e-02
3.824000000000000199e+01,2.387066724724246081e-02
3.828000000000000114e+01,2.842504105963569380e-02
3.832000000000000028e+01,2.911296642694317580e-02
3.835999999999999943e+01,2.716029283902346089e-02
3.839999999999999858e+01,2.982782016472088418e-02
3.843999999999999773e+01,3.947295108995377277e-02
3.847999999999999687e+01,3.968816446598176506e-02
3.852000000000000313e+01,3.971447825475386134e-02
3.856000000000000227e+01,4.322944053759159022e-02
3.860000000000000142e+01,4.391521283062130299e-02
3.864000000000000057e+01,4.714667300925430571e-02
3.867999999999999972e+01,5.386678226433414679e-02
3.871999999999999886e+01,5.860636700903214952e-02
3.875999999999999801e+01,6.796615441449098405e-02
3.879999999999999716e+01,7.496823329913551714e-02
3.884000000000000341e+01,8.093274925249599461e-02
3.888000000000000256e+01,9.095169185096860232e-02
3.892000000000000171e+01,1.170949620466520680e-01
3.896000000000000085e+01,1.306965457334910430e-01
3.900000000000000000e+01,1.627798598975863098e-01
3.903999999999999915e+01,1.963716067921674469e-01
3.907999999999999829e+01,2.323204515084065225e-01
3.911999999999999744e+01,2.621397452699818498e-01
3.915999999999999659e+01,3.321288732098018337e-01
3.920000000000000284e+01,3.918394221976594927e-01
3.924000000000000199e+01,4.888909227618662978e-01
3.928000000000000114e+01,5.673657879912596957e-01
3.932000000000000028e+01,6.630965359551945770e-01
3.935999999999999943e+01,7.808922679310521531e-01
3.939999999999999858e+01,8.788855158587460803e-01
3.943999999999999773e+01,9.316163330210572857e-01
3.947999999999999687e+01,1.000000000000000000e+00
3.952000000000000313e+01,9.650348392040765111e-01
3.956000000000000227e+01,9.437423105199342910e-01
3.960000000000000142e+01,8.746413571557828392e-01
3.964000000000000057e+01,8.216647348831296327e-01
3.967999999999999972e+01,7.136188886440043566e-01
3.971999999999999886e+01,6.291467657586921058e-01
3.975999999999999801e+01,5.376021340280330296e-01
3.979999999999999716e+01,4.568069564840963048e-01
3.984000000000000341e+01,3.887414514141138699e-01
3.988000000000000256e+01,3.219957909519427508e-01
3.992000000000000171e+01,2.845759168941908723e-01
3.996000000000000085e+01,2.336714001840551891e-01
4.000000000000000000e+01,1.967224060201134828e-01
4.003999999999999915e+01,1.687312413138953582e-01
4.007999999999999829e+01,1.441344363789003602e-01
4.011999999999999744e+01,1.345304116688688378e-01
4.015999999999999659e+01,1.117246335761038628e-01
4.020000000000000284e+01,9.429343393004796514e-02
4.024000000000000199e+01,8.374555051957471852e-02
4.028000000000000114e+01,7.894943034275134219e-02
4.032000000000000028e+01,7.188990512161448632e-02
4.035999999999999943e+01,5.973809206014166900e-02
4.039999999999999858e+01,6.550223967234314326e-02
4.043999999999999773e+01,4.938939409090871424e-02
4.047999999999999687e+01,5.147539787041767456e-02
4.052000000000000313e+01,4.422579010087467066e-02
4.056000000000000227e+01,4.084202493043807142e-02
4.060000000000000142e+01,4.226706354995152237e-02
4.064000000000000057e+01,3.595952489721233880e-02
4.067999999999999972e+01,4.030714860231977142e-02
4.071999999999999886e+01,2.890702695133830907e-02
4.075999999999999801e+01,2.910502904317418399e-02
4.079999999999999716e+01,3.175443340380418311e-02
4.084000000000000341e+01,2.374808237299574215e-02
4.088000000000000256e+01,2.781133616574417433e-02
4.092000000000000171e+01,2.970548392575700358e-02
4.096000000000000085e+01,2.631875455799685334e-02
4.100000000000000000e+01,2.887238411751737524e-02
4.103999999999999915e+01,2.567365643916081491e-02
4.107999999999999829e+01,1.568531462066606250e-02
4.111999999999999744e+01,2.681900435896926796e-02
4.115999999999999659e+01,2.192206257756652149e-02
4.120000000000000284e+01,1.947652500622878632e-02
4.124000000000000199e+01,1.995387233744134320e-02
4.128000000000000114e+01,1.826211538306210178e-02
4.132000000000000028e+01,1.449555043688978244e-02
4.135999999999999943e+01,1.468912807203721048e-02
4.139999999999999858e+01,1.676833428985513227e-02
4.143999999999999773e+01,1.667843699858960124e-02
4.147999999999999687e+01,1.536239738908417619e-02
4.152000000000000313e+01,1.102858976170456931e-02
4.156000000000000227e+01,1.819861366001233882e-02
4.160000000000000142e+01,1.612732735037104501e-02
4.164000000000000057e+01,1.509300589111788049e-02
4.167999999999999972e+01,1.160669378852874876e-02
4.171999999999999886e+01,1.896414129043376418e-02
4.175999999999999801e+01,1.387421197206185550e-02
4.179999999999999716e+01,1.623338305825880110e-02
4.184000000000000341e+01,1.500901108156827909e-02
4.188000000000000256e+01,1.265279482758042799e-02
4.192000000000000171e+01,9.541918889108848972e-03
4.196000000000000085e+01,1.293718313499790488e-02
4.200000000000000000e+01,1.529489978564249966e-02
4.203999999999999915e+01,1.322040944699020767e-02
4.207999999999999829e+01,1.840642867245301240e-02
4.211999999999999744e+01,1.604847000770860677e-02
4.215999999999999659e+01,1.274726062389968696e-02
4.220000000000000284e+01,9.257169512526587998e-03
4.224000000000000199e+01,1.547928733323989357e-02
4.228000000000000114e+01,1.990949012022507486e-02
4.232000000000000028e+01,9.629212412592881576e-03
4.235999999999999943e+01,9.721216917129899340e-03
4.239999999999999858e+01,1.160455875784284843e-02
4.243999999999999773e+01,1.490205373017219372e-02
4.247999999999999687e+01,8.863946665676667586e-03
4.252000000000000313e+01,9.520574702664262243e-03
4.256000000000000227e+01,1.149706035397786083e-02
4.260000000000000142e+01,1.469910771407289575e-02
4.264000000000000057e+01,1.111154850498600674e-02
4.267999999999999972e+01,1.204991488144254753e-02
4.271999999999999886e+01,1.195073715694211849e-02
4.275999999999999801e+01,1.477445171182123484e-02
4.279999999999999716e+01,1.316596296581804514e-02
4.284000000000000341e+01,9.671265804194273744e-03
4.288000000000000256e+01,1.051390299940607037e-02
4.292000000000000171e+01,1.531669034689387907e-02
4.296000000000000085e+01,9.369436492007053238e-03
4.300000000000000000e+01,1.219143426090467212e-02
4.303999999999999915e+01,1.539033097693678388e-02
4.307999999999999829e+01,1.377984135228959781e-02
4.311999999999999744e+01,1.207477056467280187e-02
4.315999999999999659e+01,8.106308515765504527e-03
4.320000000000000284e+01,1.149265756620327511e-02
4.324000000000000199e+01,1.355857674032123934e-02
4.328000000000000114e+01,6.288897760155989260e-03
4.332000000000000028e+01,8.165656355478502840e-03
4.335999999999999943e+01,1.249382964372850943e-02
4.339999999999999858e+01,1.427572453643554187e-02
4.343999999999999773e+01,1.879192280933922668e-02
4.347999999999999687e+01,1.133223310778887216e-02
4.352000000000000313e+01,1.254750145400341209e-02
4.356000000000000227e+01,8.859089689392000630e-03
4.360000000000000142e+01,1.054527287229183041e-02
4.364000000000000057e+01,1.128821251882928221e-02
4.367999999999999972e+01,1.174798152083298720e-02
4.371999999999999886e+01,9.189993181952113566e-03
4.375999999999999801e+01,1.530696405559864824e-02
4.379999999999999716e+01,9.919529006166105667e-03
4.384000000000000341e+01,1.188690816211199035e-02
4.388000000000000256e+01,8.856312660576931561e-03
4.392000000000000171e+01,1.355771615136110164e-02
4.396000000000000085e+01,1.326114537291850012e-02
4.400000000000000000e+01,1.437873529704858377e-02
4.403999999999999915e+01,1.228997723396747267e-02
4.407999999999999829e+01,1.595300084660920478e-02
4.411999999999999744e+01,1.131768747802468743e-02
4.415999999999999659e+01,1.318852497079040474e-02
4.420000000000000284e+01,1.553056314004770330e-02
4.424000000000000199e+01,1.702365678452050571e-02
4.428000000000000114e+01,1.087848692197698058e-02
4.432000000000000028e+01,1.595427368087465325e-02
4.435999999999999943e+01,1.556060761345811998e-02
4.439999999999999858e+01,2.016435597740787872e-02
4.443999999999999773e+01,1.420666252102842537e-02
4.447999999999999687e+01,1.890414986456857502e-02
4.452000000000000313e+01,1.728352026125798760e-02
4.456000000000000227e+01,1.811431117468747382e-02
4.460000000000000142e+01,2.196229939701392284e-02
4.464000000000000057e+01,1.873780245749772505e-02
4.467999999999999972e+01,1.739895001907291322e-02
4.471999999999999886e+01,2.407498875452392106e-02
4.475999999999999801e+01,1.802077693021436264e-02
4.479999999999999716e+01,2.460196555194577028e-02
4.484000000000000341e+01,2.788251396933600149e-02
4.488000000000000256e+01,2.550501988472087672e-02
4.492000000000000171e+01,3.397130093476653789e-02
4.496000000000000085e+01,2.678415330586586193e-02
4.500000000000000000e+01,3.817306137295566060e-02
4.503999999999999915e+01,2.938232836511396259e-02
4.507999999999999829e+01,3.567869575366578588e-02
4.511999999999999744e+01,4.291774878199034610e-02
4.515999999999999659e+01,4.506453726522901410e-02
4.520000000000000284e+01,4.164758089915066019e-02
4.524000000000000199e+01,4.605692603125687706e-02
4.528000000000000114e+01,4.990021998489779093e-02
4.532000000000000028e+01,6.138122362563420975e-02
4.535999999999999943e+01,6.352663920669576747e-02
4.539999999999999858e+01,7.783597764734632996e-02
4.543999999999999773e+01,8.761882949983047786e-02
4.547999999999999687e+01,9.136645736352888569e-02
4.552000000000000313e+01,1.069008242705108969e-01
4.556000000000000227e+01,1.188516661684242970e-01
4.560000000000000142e+01,1.323109726336653968e-01
4.564000000000000057e+01,1.541623591363918411e-01
4.567999999999999972e+01,1.679983045278632958e-01
4.571999999999999886e+01,1.912635874414624904e-01
4.575999999999999801e+01,2.116054190143299985e-01
4.579999999999999716e+01,2.371332640123550994e-01
4.584000000000000341e+01,2.620007644500224053e-01
4.588000000000000256e+01,2.776269754513385757e-01
4.592000000000000171e+01,2.884438138949984021e-01
4.596000000000000085e+01,2.913395086859644767e-01
4.600000000000000000e+01,2.832965848288709343e-01
4.603999999999999915e+01,2.901521738278776685e-01
4.607999999999999829e+01,2.808828590851380480e-01
4.611999999999999744e+01,2.591661886819737748e-01
4.615999999999999659e+01,2.426355334511107187e-01
4.620000000000000284e+01,2.131860424497188378e-01
4.624000000000000199e+01,1.953347017865547097e-01
4.628000000000000114e+01,1.857811481672377585e-01
4.632000000000000028e+01,1.587825465755338672e-01
4.635999999999999943e+01,1.376300338244682286e-01
4.639999999999999858e+01,1.250581969986459263e-01
4.643999999999999773e+01,1.070169174411177426e-01
4.647999999999999687e+01,9.708483369872877855e-02
4.652000000000000313e+01,8.347493350664957068e-02
4.656000000000000227e+01,7.580541922551568834e-02
4.660000000000000142e+01,7.002155876357323006e-02
4.664000000000000057e+01,6.018269803563512654e-02
4.667999999999999972e+01,5.213519541547092379e-02
4.671999999999999886e+01,4.729349259228252805e-02
4.675999999999999801e+01,4.565758976019696630e-02
4.679999999999999716e+01,3.468610585701160237e-02
4.684000000000000341e+01,3.531277520396031849e-02
4.688000000000000256e+01,3.113007665230270796e-02
4.692000000000000171e+01,2.996458666891299583e-02
4.696000000000000085e+01,2.823305366039544420e-02
4.700000000000000000e+01,3.225331649887788060e-02
4.703999999999999915e+01,2.882392142445604905e-02
4.707999999999999829e+01,2.907180839251202395e-02
4.711999999999999744e+01,2.413314422803754938e-02
4.715999999999999659e+01,2.438050008904148538e-02
4.720000000000000284e+01,1.812115981036599779e-02
4.724000000000000199e+01,1.469043745363177340e-02
4.728000000000000114e+01,1.644573570475719310e-02
4.732000000000000028e+01,1.886084197363004783e-02
4.735999999999999943e+01,2.127568375667582279e-02
4.739999999999999858e+01,1.774960696870756319e-02
4.743999999999999773e+01,1.799511007003246413e-02
4.747999999999999687e+01,1.899471806528479217e-02
4.752000000000000313e+01,1.603362616500901214e-02
4.756000000000000227e+01,1.627833813837775007e-02
4.760000000000000142e+01,9.544875414979676898e-03
4.764000000000000057e+01,1.290083222951090604e-02
4.767999999999999972e+01,1.653941441024671735e-02
4.771999999999999886e+01,1.876329235722443492e-02
4.775999999999999801e+01,1.353751588558538450e-02
4.779999999999999716e+01,1.170613665169671462e-02
4.784000000000000341e+01,1.251478605231224998e-02
4.788000000000000256e+01,9.645625603558338410e-03
4.792000000000000171e+01,1.582862895523518693e-02
4.796000000000000085e+01,1.107302317107956846e-02
4.800000000000000000e+01,1.452091667856397934e-02
4.803999999999999915e+01,1.183930252172438018e-02
4.807999999999999829e+01,1.028898056940502279e-02
4.811999999999999744e+01,6.569587527225205330e-03
4.815999999999999659e+01,1.642857223447792211e-02
4.820000000000000284e+01,8.088149295943473926e-03
4.824000000000000199e+01,1.049722150494617097e-02
4.828000000000000114e+01,6.871083314058975926e-03
4.832000000000000028e+01,9.751116173738754930e-03
4.835999999999999943e+01,8.670453214559165414e-03
4.839999999999999858e+01,7.872419115871666720e-03
4.843999999999999773e+01,1.273189175308749900e-02
4.847999999999999687e+01,1.061319396433234481e-02
4.852000000000000313e+01,1.198319300728671079e-02
4.856000000000000227e+01,9.675385501032094174e-03
4.860000000000000142e+01,1.189353231112931508e-02
4.864000000000000057e+01,1.071676125928668240e-02
4.867999999999999972e+01,1.189713461960205561e-02
4.871999999999999886e+01,9.588294406560107438e-03
4.875999999999999801e+01,8.787934096885463911e-03
4.879999999999999716e+01,1.251352907419807717e-02
4.884000000000000341e+01,9.355251472355132630e-03
4.888000000000000256e+01,7.516862156917438267e-03
4.892000000000000171e+01,7.752730119385297866e-03
4.896000000000000085e+01,9.497078955855905655e-03
4.900000000000000000e+01,1.208983616275476070e-02
4.903999999999999915e+01,9.307459355879892093e-03
4.907999999999999829e+01,1.218259239094170165e-02
4.911999999999999744e+01,7.325189308692674033e-03
4.915999999999999659e+01,1.180284434382891830e-02
4.920000000000000284e+01,1.260269593578952629e-02
4.924000000000000199e+01,9.724744278701584824e-03
4.928000000000000114e+01,5.809280357498436236e-03
4.932000000000000028e+01,9.248657237084203370e-03
4.935999999999999943e+01,5.144091363464945582e-03
4.939999999999999858e+01,8.300070579217090627e-03
4.943999999999999773e+01,9.192689011630904988e-03
4.947999999999999687e+01,6.313209260087022413e-03
4.952000000000000313e+01,1.229730887471391400e-02
4.956000000000000227e+01,8.002879816293261353e-03
4.960000000000000142e+01,1.040322021984955124e-02
4.964000000000000057e+01,1.091738520938953690e-02
4.967999999999999972e+01,9.073894480681991490e-03
4.971999999999999886e+01,5.344228726212325864e-03
4.975999999999999801e+01,1.066673570201922411e-02
4.979999999999999716e+01,7.785229362317425475e-03
4.984000000000000341e+01,1.159849364935508498e-02
4.988000000000000256e+01,1.229973439140744779e-02
4.992000000000000171e+01,1.281213087242281945e-02
4.996000000000000085e+01,1.106116909375193767e-02
5.000000000000000000e+01,1.157306203376115734e-02
5.003999999999999915e+01,9.255820504308379451e-03
5.007999999999999829e+01,7.032623789341903471e-03
5.011999999999999744e+01,6.695097976750199499e-03
5.015999999999999659e+01,1.069494185212331583e-02
5.020000000000000284e+01,6.679366552601867860e-03
5.024000000000000199e+01,1.171596631288203925e-02
5.028000000000000114e+01,1.250899127338789447e-02
5.032000000000000028e+01,1.018999482430638787e-02
5.035999999999999943e+01,9.096597744660603682e-03
5.039999999999999858e+01,5.362660142039839088e-03
5.043999999999999773e+01,8.229199978393164638e-03
5.047999999999999687e+01,1.090689827148863360e-02
5.052000000000000313e+01,1.179272152103530424e-02
5.056000000000000227e+01,1.022659722345867564e-02
5.060000000000000142e+01,4.605491878467682897e-03
5.064000000000000057e+01,1.029966992666882762e-02
5.067999999999999972e+01,9.109984325560238280e-03
5.071999999999999886e+01,1.131471013347912224e-02
5.075999999999999801e+01,9.841640069178644173e-03
5.079999999999999716e+01,1.025424420741335302e-02
5.084000000000000341e+01,6.611868462996254095e-03
5.088000000000000256e+01,1.221026308375738369e-02
5.092000000000000171e+01,1.318790161209096659e-02
5.096000000000000085e+01,8.979007644094193566e-03
5.100000000000000000e+01,8.353118643357745204e-03
5.103999999999999915e+01,9.990089408605618698e-03
5.107999999999999829e+01,9.080819050710630530e-03
5.111999999999999744e+01,8.925671252307665685e-03
5.115999999999999659e+01,9.713238406867148386e-03
5.120000000000000284e+01,6.068643027231958309e-03
5.124000000000000199e+01,6.478534277977883102e-03
5.128000000000000114e+01,9.622766957828907813e-03
5.132000000000000028e+01,9.466390881926326981e-03
5.135999999999999943e+01,1.195006052371135573e-02
5.139999999999999858e+01,1.396200478814649780e-02
5.143999999999999773e+01,1.267334087920933550e-02
5.147999999999999687e+01,6.763923595623800092e-03
5.152000000000000313e+01,7.832173391130174689e-03
5.156000000000000227e+01,1.276631917069102548e-02
5.160000000000000142e+01,1.034512526750687618e-02
5.164000000000000057e+01,1.141264333794473652e-02
5.167999999999999972e+01,1.134836469222077170e-02
5.171999999999999886e+01,1.034088172380540072e-02
5.175999999999999801e+01,7.730121929124061063e-03
5.179999999999999716e+01,1.351147206749906023e-02
5.184000000000000341e+01,1.476636667804107420e-02
5.188000000000000256e+01,1.111762155619058605e-02
5.192000000000000171e+01,9.165963873090326661e-03
5.196000000000000085e+01,1.060872361695713688e-02
5.200000000000000000e+01,6.393475413439505747e-03
5.203999999999999915e+01,1.264485250051700961e-02
5.207999999999999829e+01,9.372081941926469970e-03
5.211999999999999744e+01,9.399433487139698812e-03
5.215999999999999659e+01,8.106398446372790195e-03
5.220000000000000284e+01,9.924893698320487109e-03
5.224000000000000199e+01,1.296899744367686208e-02
5.228000000000000114e+01,9.506429703493466873e-03
5.232000000000000028e+01,1.321012512428697619e-02
5.235999999999999943e+01,7.201082058958729534e-03
5.239999999999999858e+01,1.099859333366785819e-02
5.243999999999999773e+01,7.157880703285700655e-03
5.247999999999999687e+01,7.937437319254201512e-03
5.252000000000000313e+01,1.097986088390913786e-02
5.256000000000000227e+01,1.025020121239179384e-02
5.260000000000000142e+01,1.432940356894964878e-02
5.264000000000000057e+01,1.048749469203674560e-02
5.267999999999999972e+01,9.757118437363439256e-03
5.271999999999999886e+01,1.025235300562379361e-02
5.275999999999999801e+01,8.861427301780366167e-03
5.279999999999999716e+01,9.073297207811409706e-03
5.284000000000000341e+01,8.719152625395935538e-03
5.288000000000000256e+01,9.873507941437421193e-03
5.292000000000000171e+01,9.707480359913384788e-03
5.296000000000000085e+01,1.614194244736967543e-02
5.300000000000000000e+01,1.522107164652885397e-02
5.303999999999999915e+01,1.043382383936914369e-02
5.307999999999999829e+01,1.469876487503399276e-02
5.311999999999999744e+01,9.911043810693223946e-03
5.315999999999999659e+01,1.012077969155015730e-02
5.320000000000000284e+01,1.259338582125390550e-02
5.324000000000000199e+01,1.053954321757260941e-02
5.328000000000000114e+01,1.206871664639546510e-02
5.332000000000000028e+01,1.010869882647564590e-02
5.335999999999999943e+01,1.078873643059757512e-02
5.339999999999999858e+01,1.080846616438055005e-02
5.343999999999999773e+01,1.441121270717602224e-02
5.347999999999999687e+01,8.018337900393099002e-03
5.352000000000000313e+01,1.256357606526570768e-02
5.356000000000000227e+01,1.097933335535189112e-02
5.360000000000000142e+01,1.222373943358562483e-02
5.364000000000000057e+01,1.412798420164603289e-02
5.367999999999999972e+01,7.168161786823334936e-03
5.371999999999999886e+01,1.369244800542619191e-02
5.375999999999999801e+01,1.135266742940009566e-02
5.379999999999999716e+01,8.352580924305862825e-03
5.384000000000000341e+01,1.185869225931619232e-02
5.388000000000000256e+01,8.952435973541755798e-03
5.392000000000000171e+01,1.179800911875280092e-02
5.396000000000000085e+01,9.457064327164775575e-03
5.400000000000000000e+01,1.286794935481637425e-02
5.403999999999999915e+01,9.206394840490005407e-03
5.407999999999999829e+01,1.082519003529919255e-02
5.411999999999999744e+01,1.263234575110181585e-02
5.415999999999999659e+01,9.158688401069113583e-03
5.420000000000000284e+01,8.796571050105200795e-03
5.424000000000000199e+01,8.811407001859287297e-03
5.428000000000000114e+01,1.269215213830954432e-02
5.432000000000000028e+01,1.261223038083593255e-02
5.435999999999999943e+01,1.215489371108836869e-02
5.439999999999999858e+01,9.905700828119083645e-03
5.443999999999999773e+01,1.340833989978735923e-02
5.447999999999999687e+01,1.342179335239838261e-02
5.452000000000000313e+01,1.258635217088550917e-02
5.456000000000000227e+01,1.212786584510725831e-02
5.460000000000000142e+01,1.176344627017579525e-02
5.464000000000000057e+01,8.004137952367066863e-03
5.467999999999999972e+01,1.216547304640640086e-02
5.471999999999999886e+01,1.114029389206123641e-02
5.475999999999999801e+01,1.341524965390738372e-02
5.479999999999999716e+01,1.088087595430978216e-02
5.484000000000000341e+01,1.126945316047099112e-02
5.488000000000000256e+01,6.942997393114362474e-03
5.492000000000000171e+01,1.374325359120445039e-02
5.496000000000000085e+01,1.215092931683635531e-02
5.500000000000000000e+01,1.235000352867563107e-02
5.503999999999999915e+01,1.132300123135649567e-02
5.507999999999999829e+01,9.447107017692595379e-03
5.511999999999999744e+01,8.796835274587374784e-03
5.515999999999999659e+01,8.429225199451431325e-03
5.520000000000000284e+01,1.456781956474085399e-02
5.524000000000000199e+01,1.410546071022308022e-02
5.528000000000000114e+01,1.496302120244400770e-02
5.532000000000000028e+01,1.214280795293311462e-02
5.535999999999999943e+01,1.394287792692288502e-02
5.539999999999999858e+01,1.281954334480823500e-02
5.543999999999999773e+01,1.226176008856742251e-02
5.547999999999999687e+01,9.912125860536139671e-03
5.552000000000000313e+01,1.501165862266343534e-02
5.556000000000000227e+01,1.237868652194042823e-02
5.560000000000000142e+01,8.613936729509765952e-03
5.564000000000000057e+01,8.432214423081191984e-03
5.567999999999999972e+01,1.447381058758808250e-02
5.571999999999999886e+01,1.419734416082772677e-02
5.575999999999999801e+01,1.307198911788305835e-02
5.579999999999999716e+01,1.090915345353783879e-02
5.584000000000000341e+01,1.327230724254667427e-02
5.588000000000000256e+01,1.412650030005083678e-02
5.592000000000000171e+01,1.045425763068461023e-02
5.596000000000000085e+01,1.159089329606863457e-02
5.600000000000000000e+01,1.517900499853865222e-02
5.603999999999999915e+01,1.574941915126593789e-02
5.607999999999999829e+01,1.415080084542247492e-02
5.611999999999999744e+01,1.076033467382190092e-02
5.615999999999999659e+01,1.227304390727863848e-02
5.620000000000000284e+01,1.718019114517335688e-02
5.624000000000000199e+01,1.482631731873638309e-02
5.628000000000000114e+01,1.614977018400649139e-02
5.632000000000000028e+01,1.181523606761721024e-02
5.635999999999999943e+01,1.304395102462223809e-02
5.639999999999999858e+01,1.361237267081956415e-02
5.643999999999999773e+01,1.182317140624656454e-02
5.647999999999999687e+01,1.399418610303104944e-02
5.652000000000000313e+01,1.088439918747812797e-02
5.656000000000000227e+01,1.531808040905962252e-02
5.660000000000000142e+01,1.371659160918471503e-02
5.664000000000000057e+01,1.484947025144410689e-02
5.667999999999999972e+01,1.598212963948697496e-02
5.671999999999999886e+01,1.390850257860422844e-02
5.675999999999999801e+01,1.240043324978907721e-02
5.679999999999999716e+01,1.400391653830314678e-02
5.684000000000000341e+01,1.541858914976573444e-02
5.688000000000000256e+01,1.306119949078115780e-02
5.692000000000000171e+01,1.645565382231333612e-02
5.696000000000000085e+01,1.664382286968239810e-02
5.700000000000000000e+01,1.334281852800051765e-02
5.703999999999999915e+01,1.390773676578359666e-02
5.707999999999999829e+01,1.400095719226273142e-02
5.711999999999999744e+01,9.473451616012306190e-03
5.715999999999999659e+01,1.126356779307111089e-02
5.720000000000000284e+01,1.371353993726701602e-02
5.724000000000000199e+01,1.173137886045793471e-02
5.728000000000000114e+01,1.257788443148816215e-02
5.732000000000000028e+01,1.493291144908165217e-02
5.735999999999999943e+01,1.596757711721591075e-02
5.739999999999999858e+01,1.294729473954013381e-02
5.743999999999999773e+01,1.549026667668989936e-02
5.747999999999999687e+01,1.444977145464203250e-02
5.752000000000000313e+01,1.180602736062835376e-02
5.756000000000000227e+01,1.189665517367188320e-02
5.760000000000000142e+01,1.387299019085488569e-02
5.764000000000000057e+01,1.292593152305016035e-02
5.767999999999999972e+01,1.575050244107212630e-02
5.771999999999999886e+01,1.253990877319597838e-02
5.775999999999999801e+01,1.338383337841564380e-02
5.779999999999999716e+01,1.526480126136532146e-02
5.784000000000000341e+01,1.120490124046980528e-02
5.788000000000000256e+01,1.468847576290247502e-02
5.792000000000000171e+01,1.223118276974415400e-02
5.796000000000000085e+01,1.260255972458554363e-02
5.800000000000000000e+01,1.608549512056870953e-02
5.803999999999999915e+01,1.296749088564055387e-02
5.807999999999999829e+01,1.692148166631775655e-02
5.811999999999999744e+01,1.153994631385986923e-02
5.815999999999999659e+01,1.992542944194879845e-02
5.820000000000000284e+01,1.407198964223093166e-02
5.824000000000000199e+01,1.208447824579053469e-02
5.828000000000000114e+01,1.443437594511297502e-02
5.832000000000000028e+01,1.329510666157823588e-02
5.835999999999999943e+01,1.498450926731403725e-02
5.839999999999999858e+01,1.554214777023811035e-02
5.843999999999999773e+01,1.015892128122325953e-02
5.847999999999999687e+01,1.128191515105469132e-02
5.852000000000000313e+01,1.476210118830674836e-02
5.856000000000000227e+01,1.107557352026966764e-02
5.860000000000000142e+01,1.295230579674360762e-02
5.864000000000000057e+01,1.341438683615332403e-02
5.867999999999999972e+01,1.811958281292507661e-02
5.871999999999999886e+01,1.688391515664751028e-02
5.875999999999999801e+01,1.159330605488071222e-02
5.879999999999999716e+01,1.601498625381303845e-02
5.884000000000000341e+01,1.430721120273397394e-02
5.888000000000000256e+01,1.457944566753273039e-02
5.892000000000000171e+01,1.107962776236555077e-02
5.896000000000000085e+01,1.587765843933102924e-02
5.900000000000000000e+01,2.058118502177924691e-02
5.903999999999999915e+01,1.887236902583649609e-02
5.907999999999999829e+01,1.518312733019757180e-02
5.911999999999999744e+01,1.545411440830367182e-02
5.915999999999999659e+01,1.751652016183381788e-02
5.920000000000000284e+01,1.420384120986955059e-02
5.924000000000000199e+01,1.230539692289694433e-02
5.928000000000000114e+01,1.512155098355086671e-02
5.932000000000000028e+01,1.227973262207666429e-02
5.935999999999999943e+01,1.188940660436351750e-02
5.939999999999999858e+01,1.413916532388185578e-02
5.943999999999999773e+01,1.271117029675799918e-02
5.947999999999999687e+01,9.208455411537162794e-03
5.952000000000000313e+01,1.126900493575024031e-02
5.956000000000000227e+01,1.125483499012048215e-02
5.960000000000000142e+01,1.425793515104421816e-02
5.964000000000000057e+01,9.434254150408527204e-03
5.967999999999999972e+01,1.168257593046148103e-02
5.971999999999999886e+01,1.798542549583735314e-02
5.975999999999999801e+01,1.118091290042249643e-02
5.979999999999999716e+01,8.902408976943021815e-03
5.984000000000000341e+01,1.218717101591408093e-02
5.988000000000000256e+01,1.141699704495434224e-02
5.992000000000000171e+01,9.703658547355338559e-03
5.996000000000000085e+01,1.204484899984171846e-02
