2.003999999999999915e+01,4.697753306989901206e-02
2.007999999999999829e+01,6.985867238951966318e-02
2.012000000000000099e+01,8.460161336491192619e-02
2.016000000000000014e+01,6.520996467284034814e-02
2.019999999999999929e+01,4.765851866086530386e-02
2.023999999999999844e+01,5.846883626913396137e-02
2.028000000000000114e+01,9.370206612504103361e-02
2.032000000000000028e+01,4.123237519344209040e-02
2.035999999999999943e+01,6.150210268607500530e-02
2.039999999999999858e+01,8.282423881058915971e-02
2.044000000000000128e+01,5.767003181578311127e-02
2.048000000000000043e+01,4.643512185167784911e-02
2.051999999999999957e+01,6.382453059916394500e-02
2.055999999999999872e+01,8.935625172267487593e-02
2.060000000000000142e+01,8.547994440104927927e-02
2.064000000000000057e+01,7.083947673493037889e-02
2.067999999999999972e+01,4.779815162331686740e-02
2.071999999999999886e+01,8.331635324915066809e-02
2.076000000000000156e+01,7.183299261020863191e-02
2.080000000000000071e+01,7.531924842441262147e-02
2.083999999999999986e+01,4.939744607636340629e-02
2.087999999999999901e+01,6.470422640743912768e-02
2.092000000000000171e+01,3.773604036603092626e-02
2.096000000000000085e+01,6.171224826676497549e-02
2.100000000000000000e+01,5.628037819383499563e-02
2.103999999999999915e+01,8.761304504623235179e-02
2.107999999999999829e+01,8.927503425794304504e-02
2.112000000000000099e+01,5.601454564977772360e-02
2.116000000000000014e+01,3.299701321538021231e-02
2.119999999999999929e+01,4.595622861094852962e-02
2.123999999999999844e+01,7.572313430750034213e-02
2.128000000000000114e+01,6.794164475959635352e-02
2.132000000000000028e+01,6.278798849586082753e-02
2.135999999999999943e+01,7.785567457166939209e-02
2.139999999999999858e+01,5.721307887368186351e-02
2.144000000000000128e+01,6.230620059718661868e-02
2.148000000000000043e+01,7.239044364530032583e-02
2.151999999999999957e+01,6.041905764953543062e-02
2.155999999999999872e+01,6.000352710559480468e-02
2.160000000000000142e+01,3.411869071495118172e-02
2.164000000000000057e+01,5.944075382926973516e-02
2.167999999999999972e+01,5.404170596484261097e-02
2.171999999999999886e+01,6.623805825111646339e-02
2.176000000000000156e+01,7.843629172700958274e-02
2.180000000000000071e+01,4.442060344790531301e-02
2.183999999999999986e+01,4.244273733336981907e-02
2.187999999999999901e+01,4.440558396964806864e-02
2.192000000000000171e+01,6.055013909524432220e-02
2.196000000000000085e+01,5.621454926348239123e-02
2.200000000000000000e+01,2.640960405648961479e-02
2.203999999999999915e+01,5.621438118807037948e-02
2.207999999999999829e+01,5.477281828974411154e-02
2.212000000000000099e+01,3.915324489425292542e-02
2.216000000000000014e+01,5.898512093762731806e-02
2.219999999999999929e+01,6.595192538471550403e-02
2.223999999999999844e+01,4.718675497813926145e-02
2.228000000000000114e+01,5.179389013129543501e-02
2.232000000000000028e+01,5.666542689544927514e-02
2.235999999999999943e+01,4.840928249058878974e-02
2.239999999999999858e+01,4.645709430130789963e-02
2.244000000000000128e+01,4.870813928421866001e-02
2.248000000000000043e+01,4.177033465930955064e-02
2.251999999999999957e+01,2.721921404162907718e-02
2.255999999999999872e+01,3.551518479107777099e-02
2.260000000000000142e+01,4.827695866262421420e-02
2.264000000000000057e+01,5.106209383098916921e-02
2.267999999999999972e+01,5.568712460257779079e-02
2.271999999999999886e+01,3.064127466651599477e-02
2.276000000000000156e+01,6.756836576952932050e-02
2.280000000000000071e+01,4.016271776536387700e-02
2.283999999999999986e+01,5.083433261473502274e-02
2.287999999999999901e+01,5.494294594092718337e-02
2.292000000000000171e+01,3.568280806680935308e-02
2.296000000000000085e+01,6.158984174322478661e-02
2.300000000000000000e+01,3.918208698852502364e-02
2.303999999999999915e+01,5.038754438071163522e-02
2.307999999999999829e+01,5.660551405335633585e-02
2.312000000000000099e+01,4.890793916883380554e-02
2.316000000000000014e+01,5.565450899650994931e-02
2.319999999999999929e+01,5.163660149711526981e-02
2.323999999999999844e+01,3.186500625277697424e-02
2.328000000000000114e+01,3.467782346290142204e-02
2.332000000000000028e+01,2.646355872607988879e-02
2.335999999999999943e+01,4.135887606064900940e-02
2.339999999999999858e+01,4.864076843968560132e-02
2.344000000000000128e+01,4.883441043297056389e-02
2.348000000000000043e+01,4.115202780370059987e-02
2.351999999999999957e+01,5.657920743441033351e-02
2.355999999999999872e+01,4.811237709653206490e-02
2.360000000000000142e+01,3.544576393597650976e-02
2.364000000000000057e+01,3.249662034968320984e-02
2.367999999999999972e+01,4.399155708850265023e-02
2.371999999999999886e+01,4.761043948765061873e-02
2.376000000000000156e+01,4.886764758192781166e-02
2.380000000000000071e+01,4.146102214687751031e-02
2.383999999999999986e+01,6.162794529137095162e-02
2.387999999999999901e+01,3.951953555227521314e-02
2.392000000000000171e+01,5.758897303022630920e-02
2.396000000000000085e+01,3.443342676415023923e-02
2.400000000000000000e+01,3.753846045962266897e-02
2.403999999999999915e+01,5.508752990453285453e-02
2.407999999999999829e+01,5.714539735590828951e-02
2.412000000000000099e+01,7.259693160574852422e-02
2.416000000000000014e+01,3.343137952013866543e-02
2.419999999999999929e+01,6.070261611329039186e-02
2.423999999999999844e+01,4.543588548586137421e-02
2.428000000000000114e+01,4.277503256153552397e-02
2.432000000000000028e+01,5.061933429692559716e-02
2.435999999999999943e+01,3.089327034823648524e-02
2.439999999999999858e+01,2.403565900540925726e-02
2.444000000000000128e+01,5.945654858307743845e-02
2.448000000000000043e+01,3.579628626008698328e-02
2.451999999999999957e+01,2.631741049098450247e-02
2.455999999999999872e+01,3.968537844637257117e-02
2.460000000000000142e+01,3.152251551085243769e-02
2.464000000000000057e+01,3.622807546407741386e-02
2.467999999999999972e+01,2.885602602809469314e-02
2.471999999999999886e+01,2.463656840642857934e-02
2.476000000000000156e+01,2.330710788490929219e-02
2.480000000000000071e+01,1.488922858064413088e-02
2.483999999999999986e+01,3.640808188645502236e-02
2.487999999999999901e+01,2.536729965608085918e-02
2.492000000000000171e+01,4.531359917534464460e-02
2.496000000000000085e+01,3.716427919510396222e-02
2.500000000000000000e+01,7.549482697648926544e-02
2.503999999999999915e+01,2.454633096584056193e-02
2.507999999999999829e+01,3.977192490987547374e-02
2.512000000000000099e+01,3.582993142776744189e-02
2.516000000000000014e+01,3.451529575596194027e-02
2.519999999999999929e+01,3.950426960004171928e-02
2.523999999999999844e+01,2.269974354625186111e-02
2.528000000000000114e+01,4.948656320963340516e-02
2.532000000000000028e+01,2.349428123405247412e-02
2.535999999999999943e+01,2.533794939092679638e-02
2.539999999999999858e+01,4.425138251341335927e-02
2.544000000000000128e+01,4.741085548405364614e-02
2.548000000000000043e+01,2.142428552283617144e-02
2.551999999999999957e+01,2.248587659871244607e-02
2.555999999999999872e+01,2.171075001397710161e-02
2.560000000000000142e+01,2.382551651948028315e-02
2.564000000000000057e+01,3.119347901422091923e-02
2.567999999999999972e+01,4.932901753300005659e-02
2.571999999999999886e+01,3.385445746041835374e-02
2.576000000000000156e+01,0.000000000000000000e+00
2.580000000000000071e+01,5.516485257748085513e-02
2.583999999999999986e+01,2.971602442932780655e-02
2.587999999999999901e+01,3.866782605946499085e-02
2.592000000000000171e+01,2.425050502533454555e-02
2.596000000000000085e+01,2.558993081029312458e-02
2.600000000000000000e+01,3.612135442856684309e-02
2.603999999999999915e+01,2.092033267216292236e-02
2.607999999999999829e+01,3.539330022608232901e-02
2.612000000000000099e+01,3.673812104282683788e-02
2.616000000000000014e+01,2.154112327242501540e-02
2.619999999999999929e+01,4.625910064514496961e-02
2.623999999999999844e+01,6.625178878427100126e-02
2.628000000000000114e+01,1.587174240773932613e-02
2.632000000000000028e+01,3.035268364087128495e-02
2.635999999999999943e+01,4.220903887238550839e-02
2.639999999999999858e+01,2.544441677906192703e-02
2.644000000000000128e+01,4.045445751092154735e-02
2.648000000000000043e+01,1.555215127561350441e-02
2.651999999999999957e+01,1.060795870052494948e-02
2.655999999999999872e+01,4.820459430605189555e-02
2.660000000000000142e+01,4.195002166610019290e-02
2.664000000000000057e+01,2.282982766320457851e-02
2.667999999999999972e+01,1.867852204409758271e-02
2.671999999999999886e+01,1.689179131271789647e-02
2.676000000000000156e+01,4.924299163555071607e-02
2.680000000000000071e+01,3.196598419967060234e-02
2.683999999999999986e+01,2.992043509748460936e-02
2.687999999999999901e+01,6.148762266831939854e-02
2.692000000000000171e+01,4.342658762188281174e-02
2.696000000000000085e+01,3.665814963082958400e-02
2.700000000000000000e+01,4.091971398099028545e-02
2.703999999999999915e+01,2.995229958782745158e-02
2.707999999999999829e+01,3.342854452729188131e-02
2.712000000000000099e+01,3.322975031566861165e-02
2.716000000000000014e+01,3.066886080668908623e-02
2.719999999999999929e+01,5.305520622445196455e-02
2.723999999999999844e+01,5.522334266960793325e-02
2.728000000000000114e+01,1.354018667078800940e-02
2.732000000000000028e+01,3.566753541504498470e-02
2.735999999999999943e+01,3.442558319233449127e-02
2.739999999999999858e+01,3.318481380700275679e-02
2.744000000000000128e+01,3.483370968068211226e-02
2.748000000000000043e+01,2.781831636257861909e-02
2.751999999999999957e+01,3.655947670230610957e-02
2.755999999999999872e+01,1.405361847129699658e-02
2.760000000000000142e+01,2.909925418171112332e-02
2.764000000000000057e+01,2.917842661732723483e-02
2.767999999999999972e+01,1.140264345080729824e-02
2.771999999999999886e+01,3.432941650295438102e-02
2.776000000000000156e+01,2.469619741351687311e-02
2.780000000000000071e+01,2.425475327901968625e-02
2.783999999999999986e+01,2.775328392027322927e-02
2.787999999999999901e+01,2.573855297701854727e-02
2.792000000000000171e+01,3.396594117541334307e-02
2.796000000000000085e+01,3.116567289594066384e-02
2.800000000000000000e+01,3.256794934212434156e-02
2.803999999999999915e+01,3.160802152819096322e-02
2.807999999999999829e+01,1.463121691281161693e-02
2.812000000000000099e+01,4.518425278180953492e-02
2.816000000000000014e+01,4.028875960620972169e-02
2.819999999999999929e+01,1.675047715743736843e-02
2.823999999999999844e+01,3.286432749497849443e-02
2.828000000000000114e+01,3.296127626681008560e-02
2.832000000000000028e+01,4.671396154888224350e-02
2.835999999999999943e+01,3.525909371344974896e-02
2.839999999999999858e+01,3.430887534675023526e-02
2.844000000000000128e+01,4.255035268934678067e-02
2.848000000000000043e+01,4.580367367727731370e-02
2.851999999999999957e+01,3.146452481448030331e-02
2.855999999999999872e+01,4.679905818513480781e-02
2.860000000000000142e+01,3.324975206273203532e-02
2.864000000000000057e+01,1.471226977425195426e-02
2.867999999999999972e+01,3.530168626807150128e-02
2.871999999999999886e+01,4.144968528270182029e-02
2.876000000000000156e+01,1.214908095994287306e-02
2.880000000000000071e+01,2.171277079960818104e-02
2.883999999999999986e+01,3.232782421921978622e-02
2.887999999999999901e+01,2.613813249637942510e-02
2.892000000000000171e+01,4.463287296629566553e-02
2.896000000000000085e+01,2.977970342509357604e-02
2.900000000000000000e+01,3.435916094460540748e-02
2.903999999999999915e+01,6.014930822734067652e-04
2.907999999999999829e+01,2.067570110745626036e-02
2.912000000000000099e+01,4.652785374631912552e-02
2.916000000000000014e+01,3.062919924766066906e-02
2.919999999999999929e+01,5.175666105368104813e-02
2.923999999999999844e+01,2.351820273828598637e-02
2.928000000000000114e+01,4.307203103585468401e-02
2.932000000000000028e+01,4.398293138037337457e-02
2.935999999999999943e+01,4.830843876960363298e-02
2.939999999999999858e+01,2.795144378979088490e-02
2.944000000000000128e+01,2.886514971852952027e-02
2.948000000000000043e+01,4.028337138897652298e-02
2.951999999999999957e+01,3.463417891001036031e-02
2.955999999999999872e+01,3.765136393782905072e-02
2.960000000000000142e+01,1.519825254839013255e-02
2.964000000000000057e+01,3.554817773122007085e-02
2.967999999999999972e+01,5.905008057462262511e-02
2.971999999999999886e+01,4.001333765661474473e-02
2.976000000000000156e+01,4.539833316013822812e-02
2.980000000000000071e+01,3.371587984427926871e-02
2.983999999999999986e+01,4.514220623766213719e-02
2.987999999999999901e+01,1.954425204587692880e-02
2.992000000000000171e+01,2.677088882635086931e-02
2.996000000000000085e+01,1.929336482788308882e-02
3.000000000000000000e+01,4.385265261201853892e-02
3.003999999999999915e+01,2.298476763743600298e-02
3.007999999999999829e+01,3.730476167555310529e-02
3.012000000000000099e+01,1.853929183113837281e-02
3.016000000000000014e+01,3.679981942293573255e-02
3.019999999999999929e+01,4.298205413184296581e-02
3.023999999999999844e+01,4.049965790212625011e-02
3.028000000000000114e+01,2.278788174801182204e-02
3.032000000000000028e+01,2.687187706232160508e-02
3.035999999999999943e+01,4.251063820084585027e-02
3.039999999999999858e+01,2.585167007081931242e-02
3.044000000000000128e+01,5.409635754654080336e-02
3.048000000000000043e+01,5.004330584800580073e-02
3.051999999999999957e+01,4.205220424458069178e-02
3.055999999999999872e+01,2.539643207970950292e-02
3.060000000000000142e+01,2.817308886144157323e-02
3.064000000000000057e+01,4.985699011429007427e-02
3.067999999999999972e+01,4.213161480310392837e-02
3.071999999999999886e+01,4.097175527543733126e-02
3.076000000000000156e+01,5.399250965662596297e-02
3.080000000000000071e+01,4.233058831892461127e-02
3.083999999999999986e+01,4.747516859754125768e-02
3.087999999999999901e+01,3.975360251082021845e-02
3.092000000000000171e+01,2.284214176434437235e-02
3.096000000000000085e+01,1.223357732295472788e-02
3.100000000000000000e+01,3.970126535313635296e-02
3.103999999999999915e+01,1.780281038352807613e-02
3.107999999999999829e+01,4.317123962587499780e-02
3.112000000000000099e+01,2.468790095038008933e-02
3.116000000000000014e+01,4.454338469636232034e-02
3.119999999999999929e+01,5.468375958998659969e-02
3.123999999999999844e+01,4.906945616811290989e-02
3.128000000000000114e+01,2.875082852315576781e-02
3.132000000000000028e+01,4.992208062406691682e-02
3.135999999999999943e+01,4.824871599536686984e-02
3.139999999999999858e+01,4.132424369243137274e-02
3.144000000000000128e+01,3.098678709162572958e-02
3.148000000000000043e+01,4.113200951992956184e-02
3.151999999999999957e+01,3.132108278169665888e-02
3.155999999999999872e+01,3.779138898579815359e-02
3.160000000000000142e+01,4.032351155798481052e-02
3.164000000000000057e+01,3.786708650013617672e-02
3.167999999999999972e+01,2.910916005281543456e-02
3.171999999999999886e+01,3.794539554300244838e-02
3.176000000000000156e+01,4.967076138410105035e-02
3.180000000000000071e+01,5.246871336400086433e-02
3.183999999999999986e+01,5.605506769857216548e-02
3.187999999999999901e+01,4.624997232385267415e-02
3.192000000000000171e+01,4.721168032813915366e-02
3.196000000000000085e+01,2.926754372977558374e-02
3.200000000000000000e+01,3.049307296685148036e-02
3.203999999999999915e+01,4.694941666676120950e-02
3.207999999999999829e+01,4.213659305361123347e-02
3.211999999999999744e+01,6.016967707577789565e-02
3.215999999999999659e+01,3.303791559934655953e-02
3.220000000000000284e+01,4.792110442865587377e-02
3.224000000000000199e+01,3.103151568082064896e-02
3.228000000000000114e+01,5.563168781038697192e-02
3.232000000000000028e+01,2.561376322253772209e-02
3.235999999999999943e+01,4.207479507140446384e-02
3.239999999999999858e+01,4.278100497204291586e-02
3.243999999999999773e+01,4.480072245719484564e-02
3.247999999999999687e+01,4.235696782503715202e-02
3.252000000000000313e+01,3.387419755481593103e-02
3.256000000000000227e+01,4.823728043853101055e-02
3.260000000000000142e+01,5.551097873320971071e-02
3.264000000000000057e+01,4.676723560122653112e-02
3.267999999999999972e+01,4.852761198272969451e-02
3.271999999999999886e+01,4.556189676848976244e-02
3.275999999999999801e+01,4.653554712910960151e-02
3.279999999999999716e+01,3.884424956852815247e-02
3.284000000000000341e+01,5.242323192401260323e-02
3.288000000000000256e+01,2.713943390115318779e-02
3.292000000000000171e+01,5.358631820140782875e-02
3.296000000000000085e+01,4.957328457975219982e-02
3.300000000000000000e+01,6.814345986933553756e-02
3.303999999999999915e+01,7.463499062348188939e-02
3.307999999999999829e+01,9.373130945312183049e-02
3.311999999999999744e+01,1.367237711420265234e-01
3.315999999999999659e+01,1.004145945398243756e-01
3.320000000000000284e+01,4.624977884180362514e-02
3.324000000000000199e+01,5.904581200045161404e-02
3.328000000000000114e+01,4.190706713700077107e-02
3.332000000000000028e+01,4.525077347143202644e-02
3.335999999999999943e+01,8.194382435541788801e-02
3.339999999999999858e+01,4.248628436698229788e-02
3.343999999999999773e+01,2.797520666025682737e-02
3.347999999999999687e+01,4.786381768979500878e-02
3.352000000000000313e+01,6.801544353155457301e-02
3.356000000000000227e+01,4.641571742198802308e-02
3.360000000000000142e+01,6.367969113251291391e-02
3.364000000000000057e+01,1.240814733168845753e-02
3.367999999999999972e+01,5.199306618598474594e-02
3.371999999999999886e+01,5.665394707178170175e-02
3.375999999999999801e+01,7.181881374404014418e-02
3.379999999999999716e+01,4.260640113468752016e-02
3.384000000000000341e+01,4.674327364065624518e-02
3.388000000000000256e+01,4.930498805395338441e-02
3.392000000000000171e+01,9.230590123242118916e-02
3.396000000000000085e+01,5.547989754009281793e-02
3.400000000000000000e+01,6.145639055908113518e-02
3.403999999999999915e+01,4.590088381390676486e-02
3.407999999999999829e+01,5.765506795664979145e-02
3.411999999999999744e+01,6.888442333487206082e-02
3.415999999999999659e+01,6.593427740724513986e-02
3.420000000000000284e+01,3.620031667770758771e-02
3.424000000000000199e+01,4.926882294237007465e-02
3.428000000000000114e+01,4.894558232657540697e-02
3.432000000000000028e+01,5.833848887335295330e-02
3.435999999999999943e+01,5.460222839528480754e-02
3.439999999999999858e+01,4.351377068848848173e-02
3.443999999999999773e+01,8.284285828981678701e-02
3.447999999999999687e+01,5.179819604066931288e-02
3.452000000000000313e+01,3.493368213221655083e-02
3.456000000000000227e+01,4.564138943876475119e-02
3.460000000000000142e+01,5.319831093339050243e-02
3.464000000000000057e+01,5.996774951509256657e-02
3.467999999999999972e+01,5.255762240385938172e-02
3.471999999999999886e+01,5.407582364272018466e-02
3.475999999999999801e+01,8.080291348046653166e-02
3.479999999999999716e+01,6.315260021528219803e-02
3.484000000000000341e+01,6.152052399718840880e-02
3.488000000000000256e+01,5.489949896798485690e-02
3.492000000000000171e+01,5.510605943407668322e-02
3.496000000000000085e+01,8.104666325742387878e-02
3.500000000000000000e+01,6.628609587201250708e-02
3.503999999999999915e+01,5.073799604514972472e-02
3.507999999999999829e+01,7.037715612439025825e-02
3.511999999999999744e+01,6.743382366717605436e-02
3.515999999999999659e+01,6.422812343258579859e-02
3.520000000000000284e+01,4.710538287929109946e-02
3.524000000000000199e+01,6.989649812439170662e-02
3.528000000000000114e+01,8.586048670063702037e-02
3.532000000000000028e+01,8.108008630538159067e-02
3.535999999999999943e+01,6.947254933556522294e-02
3.539999999999999858e+01,7.808461625396997952e-02
3.543999999999999773e+01,7.277961313655363640e-02
3.547999999999999687e+01,8.690643471770227724e-02
3.552000000000000313e+01,9.709458728736419797e-02
3.556000000000000227e+01,6.841962763754662336e-02
3.560000000000000142e+01,8.779876181127167778e-02
3.564000000000000057e+01,1.137428025676253396e-01
3.567999999999999972e+01,9.951076743935687030e-02
3.571999999999999886e+01,6.716019142422843813e-02
3.575999999999999801e+01,7.866225324016203058e-02
3.579999999999999716e+01,8.543784209068890079e-02
3.584000000000000341e+01,8.643659397768910235e-02
3.588000000000000256e+01,9.058655583308231063e-02
3.592000000000000171e+01,8.344528583158948576e-02
3.596000000000000085e+01,7.919262613146745011e-02
3.600000000000000000e+01,9.332136769755701444e-02
3.603999999999999915e+01,8.801857994738013224e-02
3.607999999999999829e+01,1.000468245124419425e-01
3.611999999999999744e+01,8.529101653866023869e-02
3.615999999999999659e+01,9.469356476864956851e-02
3.620000000000000284e+01,9.201707718783301571e-02
3.624000000000000199e+01,1.037831147363587475e-01
3.628000000000000114e+01,8.114997685644143033e-02
3.632000000000000028e+01,7.348453372279466211e-02
3.635999999999999943e+01,8.026160085993190585e-02
3.639999999999999858e+01,9.727973713393095467e-02
3.643999999999999773e+01,9.250298671128420747e-02
3.647999999999999687e+01,1.008557828942790863e-01
3.652000000000000313e+01,1.026438886312995014e-01
3.656000000000000227e+01,9.314068326578948953e-02
3.660000000000000142e+01,1.114720362811059684e-01
3.664000000000000057e+01,1.221883249466222260e-01
3.667999999999999972e+01,8.931474700907829356e-02
3.671999999999999886e+01,1.113224580094370891e-01
3.675999999999999801e+01,9.945611366975320999e-02
3.679999999999999716e+01,1.193631493663846049e-01
3.684000000000000341e+01,1.035579914880498109e-01
3.688000000000000256e+01,1.071844849584331211e-01
3.692000000000000171e+01,1.121239312938194649e-01
3.696000000000000085e+01,1.028835296236624841e-01
3.700000000000000000e+01,1.023085842296746067e-01
3.703999999999999915e+01,1.319314505869842447e-01
3.707999999999999829e+01,1.103492977345175013e-01
3.711999999999999744e+01,1.210656648181774181e-01
3.715999999999999659e+01,1.451740840702985536e-01
3.720000000000000284e+01,1.456493941923533431e-01
3.724000000000000199e+01,1.445491301821038022e-01
3.728000000000000114e+01,1.599919806175593151e-01
3.732000000000000028e+01,1.862009657968966003e-01
3.735999999999999943e+01,1.816868984792016917e-01
3.739999999999999858e+01,1.892519048062671627e-01
3.743999999999999773e+01,2.094211593478740308e-01
3.747999999999999687e+01,2.259140919495251920e-01
3.752000000000000313e+01,2.392558771810014417e-01
3.756000000000000227e+01,2.426191762952124298e-01
3.760000000000000142e+01,2.756550382981482472e-01
3.764000000000000057e+01,3.139426104344900104e-01
3.767999999999999972e+01,3.194063723604426142e-01
3.771999999999999886e+01,3.742369144153251392e-01
3.775999999999999801e+01,4.091105346586384472e-01
3.779999999999999716e+01,4.258653564667474467e-01
3.784000000000000341e+01,5.082675087468722097e-01
3.788000000000000256e+01,5.696623653116018593e-01
3.792000000000000171e+01,6.405103335208375270e-01
3.796000000000000085e+01,7.386675121912718023e-01
3.800000000000000000e+01,8.268461502630598536e-01
3.803999999999999915e+01,8.921793444788239658e-01
3.807999999999999829e+01,9.443829110544345040e-01
3.811999999999999744e+01,1.000000000000000000e+00
3.815999999999999659e+01,9.881313708071196578e-01
3.820000000000000284e+01,9.444892260620316726e-01
3.824000000000000199e+01,9.039979990670231613e-01
3.828000000000000114e+01,7.907692438486743081e-01
3.832000000000000028e+01,7.481769651331277027e-01
3.835999999999999943e+01,6.430881489798917494e-01
3.839999999999999858e+01,5.771250280657316267e-01
3.843999999999999773e+01,5.143128001373872271e-01
3.847999999999999687e+01,4.567521783325404483e-01
3.852000000000000313e+01,4.356913392950428343e-01
3.856000000000000227e+01,4.109540445905647266e-01
3.860000000000000142e+01,3.484036202950636651e-01
3.864000000000000057e+01,2.989824751511544476e-01
3.867999999999999972e+01,2.852733236792328597e-01
3.871999999999999886e+01,2.424164898811858870e-01
3.875999999999999801e+01,2.229299210675291798e-01
3.879999999999999716e+01,2.331157665570143811e-01
3.884000000000000341e+01,1.850064513556463897e-01
3.888000000000000256e+01,2.080587228397758337e-01
3.892000000000000171e+01,2.111539288796056291e-01
3.896000000000000085e+01,1.520151129502711196e-01
3.900000000000000000e+01,1.721781514486978026e-01
3.903999999999999915e+01,1.392977997183444672e-01
3.907999999999999829e+01,1.591977266170456207e-01
3.911999999999999744e+01,1.328815871754988609e-01
3.915999999999999659e+01,1.433277410169738197e-01
3.920000000000000284e+01,1.332916152215458949e-01
3.924000000000000199e+01,1.295573604906803955e-01
3.928000000000000114e+01,1.066537650237907447e-01
3.932000000000000028e+01,8.401246620547050958e-02
3.935999999999999943e+01,8.710466593060069151e-02
3.939999999999999858e+01,9.439799881834733120e-02
3.943999999999999773e+01,8.646081757841139748e-02
3.947999999999999687e+01,5.909168107687066268e-02
3.952000000000000313e+01,7.163587041847865877e-02
3.956000000000000227e+01,8.312937788495525226e-02
3.960000000000000142e+01,7.597868451521921918e-02
3.964000000000000057e+01,6.909024817123048112e-02
3.967999999999999972e+01,4.670867822112560047e-02
3.971999999999999886e+01,6.660371720175735366e-02
3.975999999999999801e+01,7.441927956768629171e-02
3.979999999999999716e+01,5.019853850597985612e-02
3.984000000000000341e+01,5.302418536007480476e-02
3.988000000000000256e+01,5.164803358041393511e-02
3.992000000000000171e+01,5.316000176969940677e-02
3.996000000000000085e+01,6.254929044009839567e-02
4.000000000000000000e+01,5.093102089390536685e-02
4.003999999999999915e+01,3.878718956098148318e-02
4.007999999999999829e+01,6.839474306048540231e-02
4.011999999999999744e+01,4.443359308155060000e-02
4.015999999999999659e+01,6.616266444909073285e-02
4.020000000000000284e+01,4.403884360120983305e-02
4.024000000000000199e+01,5.815200278669200445e-02
4.028000000000000114e+01,3.917844006503806015e-02
4.032000000000000028e+01,3.543466656569429357e-02
4.035999999999999943e+01,6.188829373086792568e-02
4.039999999999999858e+01,4.370123463240609823e-02
4.043999999999999773e+01,3.470438538740871354e-02
4.047999999999999687e+01,4.828981887018193170e-02
4.052000000000000313e+01,4.506906593034679109e-02
4.056000000000000227e+01,5.629030321175444718e-02
4.060000000000000142e+01,3.258665063398610146e-02
4.064000000000000057e+01,4.932136474212258509e-02
4.067999999999999972e+01,6.264195044339834761e-02
4.071999999999999886e+01,9.801960963269455707e-02
4.075999999999999801e+01,1.137025653077803206e-01
4.079999999999999716e+01,1.031260684828818885e-01
4.084000000000000341e+01,6.707788348909696219e-02
4.088000000000000256e+01,5.124862384270346960e-02
4.092000000000000171e+01,5.563828459084849132e-02
4.096000000000000085e+01,3.324329350496445235e-02
4.100000000000000000e+01,3.500605932766617800e-02
4.103999999999999915e+01,1.339783030775229186e-02
4.107999999999999829e+01,2.119914351705543681e-02
4.111999999999999744e+01,3.005029978050370587e-02
4.115999999999999659e+01,3.837575557734335813e-02
4.120000000000000284e+01,3.829781311521644055e-02
4.124000000000000199e+01,4.084523741657736934e-02
4.128000000000000114e+01,2.816191975902828867e-02
4.132000000000000028e+01,4.436293509094578480e-02
4.135999999999999943e+01,4.402024975166349274e-02
4.139999999999999858e+01,4.236406494470543183e-02
4.143999999999999773e+01,3.493034977483250314e-02
4.147999999999999687e+01,3.537376687766768252e-02
4.152000000000000313e+01,2.347489967896142921e-02
4.156000000000000227e+01,3.625889957153578813e-02
4.160000000000000142e+01,4.221499024451672716e-02
4.164000000000000057e+01,2.558778106604102376e-02
4.167999999999999972e+01,3.784486030135714163e-02
4.171999999999999886e+01,3.145747619926362454e-02
4.175999999999999801e+01,5.316660132130572591e-02
4.179999999999999716e+01,3.811255966937072276e-02
4.184000000000000341e+01,3.356150332763726402e-02
4.188000000000000256e+01,4.476522256958945928e-02
4.192000000000000171e+01,3.364819705143259898e-02
4.196000000000000085e+01,3.434709079150318617e-02
4.200000000000000000e+01,3.819643671349283454e-02
4.203999999999999915e+01,3.521781893450860734e-02
4.207999999999999829e+01,4.536805436177780010e-02
4.211999999999999744e+01,4.370111071734772423e-02
4.215999999999999659e+01,3.756949636523705671e-02
4.220000000000000284e+01,5.086887463242564800e-02
4.224000000000000199e+01,5.786544395701030685e-02
4.228000000000000114e+01,4.464194203634559710e-02
4.232000000000000028e+01,5.084941787642194289e-02
4.235999999999999943e+01,4.734040301821697966e-02
4.239999999999999858e+01,4.881991914262109877e-02
4.243999999999999773e+01,5.056134559307851745e-02
4.247999999999999687e+01,4.862583099698365025e-02
4.252000000000000313e+01,3.907452398173132807e-02
4.256000000000000227e+01,5.000452405537064715e-02
4.260000000000000142e+01,5.752015798521634138e-02
4.264000000000000057e+01,4.796675322993979723e-02
4.267999999999999972e+01,4.497738335520400088e-02
4.271999999999999886e+01,3.988658128470043418e-02
4.275999999999999801e+01,4.267275299561638230e-02
4.279999999999999716e+01,4.624596997954426303e-02
4.284000000000000341e+01,5.979686892972080337e-02
4.288000000000000256e+01,5.575351995502476898e-02
4.292000000000000171e+01,5.538568876926763807e-02
4.296000000000000085e+01,5.554229328379450825e-02
4.300000000000000000e+01,5.884922615892111686e-02
4.303999999999999915e+01,6.530648244179450279e-02
4.307999999999999829e+01,6.808672338532419099e-02
4.311999999999999744e+01,8.714676589673737983e-02
4.315999999999999659e+01,6.051542135240645798e-02
4.320000000000000284e+01,6.959551080769967035e-02
4.324000000000000199e+01,6.817123131800026381e-02
4.328000000000000114e+01,8.433968239135740397e-02
4.332000000000000028e+01,1.002447553053731205e-01
4.335999999999999943e+01,7.597280138703448038e-02
4.339999999999999858e+01,7.165687102504579575e-02
4.343999999999999773e+01,9.622501115132678362e-02
4.347999999999999687e+01,8.796862290356678715e-02
4.352000000000000313e+01,1.033445000120341573e-01
4.356000000000000227e+01,9.377353168026024421e-02
4.360000000000000142e+01,8.157584266732383071e-02
4.364000000000000057e+01,1.024636355594628345e-01
4.367999999999999972e+01,1.209872876260506269e-01
4.371999999999999886e+01,1.290065113134124253e-01
4.375999999999999801e+01,1.388630204505870713e-01
4.379999999999999716e+01,1.366395527349289762e-01
4.384000000000000341e+01,1.391418479378634943e-01
4.388000000000000256e+01,1.534598246620924589e-01
4.392000000000000171e+01,1.622625537078515312e-01
4.396000000000000085e+01,1.658126198836047671e-01
4.400000000000000000e+01,1.856423786644804952e-01
4.403999999999999915e+01,1.800000530482480099e-01
4.407999999999999829e+01,1.956266155964525300e-01
4.411999999999999744e+01,2.196551630517158682e-01
4.415999999999999659e+01,2.095461491278569621e-01
4.420000000000000284e+01,2.230693163617281372e-01
4.424000000000000199e+01,2.205736058416336298e-01
4.428000000000000114e+01,2.285805785077216490e-01
4.432000000000000028e+01,2.174175863783362472e-01
4.435999999999999943e+01,2.293615760726364083e-01
4.439999999999999858e+01,2.331643610410648881e-01
4.443999999999999773e+01,2.141209096970258796e-01
4.447999999999999687e+01,2.155585277049455184e-01
4.452000000000000313e+01,2.130563623095047820e-01
4.456000000000000227e+01,1.816683812327508640e-01
4.460000000000000142e+01,1.846787119991899206e-01
4.464000000000000057e+01,1.598535762238776359e-01
4.467999999999999972e+01,1.368656119827643403e-01
4.471999999999999886e+01,1.419737904546816143e-01
4.475999999999999801e+01,1.313256165468638936e-01
4.479999999999999716e+01,1.227771890760036705e-01
4.484000000000000341e+01,1.084508102497431098e-01
4.488000000000000256e+01,1.043644505555565566e-01
4.492000000000000171e+01,1.026404122010860925e-01
4.496000000000000085e+01,7.596935505652742393e-02
4.500000000000000000e+01,9.945194590564450376e-02
4.503999999999999915e+01,8.301989166390777442e-02
4.507999999999999829e+01,7.892854988051604959e-02
4.511999999999999744e+01,8.008799204706186503e-02
4.515999999999999659e+01,8.964929034649446460e-02
4.520000000000000284e+01,7.084987324160316180e-02
4.524000000000000199e+01,6.465373854496260508e-02
4.528000000000000114e+01,4.453931541071903116e-02
4.532000000000000028e+01,5.147060165144698440e-02
4.535999999999999943e+01,5.787566737602521660e-02
4.539999999999999858e+01,5.403868646287784960e-02
4.543999999999999773e+01,4.389850037890475482e-02
4.547999999999999687e+01,4.898746459923417063e-02
4.552000000000000313e+01,4.383436732327965907e-02
4.556000000000000227e+01,5.601112853645697637e-02
4.560000000000000142e+01,5.978394667686264680e-02
4.564000000000000057e+01,4.806289323608926162e-02
4.567999999999999972e+01,3.817888750819557753e-02
4.571999999999999886e+01,4.614989998065623794e-02
4.575999999999999801e+01,4.755507789815210246e-02
4.579999999999999716e+01,3.005269752593892063e-02
4.584000000000000341e+01,4.117150070951221263e-02
4.588000000000000256e+01,3.259496641372036652e-02
4.592000000000000171e+01,3.793457913426638572e-02
4.596000000000000085e+01,3.014358850266259798e-02
4.600000000000000000e+01,3.311765784588908967e-02
4.603999999999999915e+01,2.637478082837928575e-02
4.607999999999999829e+01,3.249767197052891299e-02
4.611999999999999744e+01,4.833524918368305862e-02
4.615999999999999659e+01,4.158896687301725376e-02
4.620000000000000284e+01,3.037751361654094512e-02
4.624000000000000199e+01,2.441670563012447379e-02
4.628000000000000114e+01,2.475689700618253358e-02
4.632000000000000028e+01,3.192326231449601343e-02
4.635999999999999943e+01,1.598056381209197324e-02
4.639999999999999858e+01,2.813380000290204019e-02
4.643999999999999773e+01,2.400529627152707748e-02
4.647999999999999687e+01,3.326769069391744688e-02
4.652000000000000313e+01,2.204689910734774355e-02
4.656000000000000227e+01,2.001555958776838479e-02
4.660000000000000142e+01,3.715207811236662799e-02
4.664000000000000057e+01,3.249244696286213846e-02
4.667999999999999972e+01,2.441794447858130351e-02
4.671999999999999886e+01,2.579546401119659285e-02
4.675999999999999801e+01,2.717176920044876015e-02
4.679999999999999716e+01,3.169793222928735110e-02
4.684000000000000341e+01,3.175884506667104451e-02
4.688000000000000256e+01,3.812068297373769066e-02
4.692000000000000171e+01,2.688777271780174241e-02
4.696000000000000085e+01,4.821475375752728998e-02
4.700000000000000000e+01,3.277792415241535806e-02
4.703999999999999915e+01,1.130028102368367190e-02
4.707999999999999829e+01,3.314869454604572885e-02
4.711999999999999744e+01,3.503902728928981469e-02
4.715999999999999659e+01,3.587773711537579208e-02
4.720000000000000284e+01,1.176915079161825611e-02
4.724000000000000199e+01,1.181754873141394567e-02
4.728000000000000114e+01,1.895459149631529769e-02
4.732000000000000028e+01,1.795006797709269852e-02
4.735999999999999943e+01,3.348741078467670773e-02
4.739999999999999858e+01,2.670333029132164818e-02
4.743999999999999773e+01,2.123090006269061705e-02
4.747999999999999687e+01,2.258450013358468539e-02
4.752000000000000313e+01,4.047994671987412141e-02
4.756000000000000227e+01,2.660071878640714663e-02
4.760000000000000142e+01,2.506189128156057974e-02
4.764000000000000057e+01,3.034907426482787510e-02
4.767999999999999972e+01,1.725364569693949024e-02
4.771999999999999886e+01,3.540506551392573475e-02
4.775999999999999801e+01,1.784293962713912746e-02
4.779999999999999716e+01,3.336578054873957228e-02
4.784000000000000341e+01,2.367865631353539488e-02
4.788000000000000256e+01,2.580671831434831406e-02
4.792000000000000171e+01,2.136867830614695707e-02
4.796000000000000085e+01,1.115230062002876658e-02
4.800000000000000000e+01,4.426186566939063066e-02
4.803999999999999915e+01,2.721541347258395888e-02
4.807999999999999829e+01,2.986181558703591629e-02
4.811999999999999744e+01,4.117229708458646636e-02
4.815999999999999659e+01,2.911090213172797675e-02
4.820000000000000284e+01,2.466321761099514454e-02
4.824000000000000199e+01,2.310262286583197877e-02
4.828000000000000114e+01,3.519529315737626035e-02
4.832000000000000028e+01,1.813909243812992719e-02
4.835999999999999943e+01,2.760304515441076509e-02
4.839999999999999858e+01,4.047924735748389263e-02
4.843999999999999773e+01,3.392238485993125108e-02
4.847999999999999687e+01,3.944322406692114119e-02
4.852000000000000313e+01,3.183314293918401705e-02
4.856000000000000227e+01,4.365326692715539025e-02
4.860000000000000142e+01,4.391799924259513072e-02
4.864000000000000057e+01,3.735395063635375129e-02
4.867999999999999972e+01,2.763737281401419318e-02
4.871999999999999886e+01,3.603803148938791029e-02
4.875999999999999801e+01,2.448040631867999528e-02
4.879999999999999716e+01,3.182777702393032454e-02
4.884000000000000341e+01,1.212693042183872819e-02
4.888000000000000256e+01,1.789581382292091197e-02
4.892000000000000171e+01,3.705529325374939953e-02
4.896000000000000085e+01,3.047948932526182292e-02
4.900000000000000000e+01,2.967916844262655923e-02
4.903999999999999915e+01,3.176583827850550795e-02
4.907999999999999829e+01,3.253805769897648303e-02
4.911999999999999744e+01,2.779438557011718047e-02
4.915999999999999659e+01,2.541250977858016541e-02
4.920000000000000284e+01,4.429888818632525538e-02
4.924000000000000199e+01,3.587440999688388393e-02
4.928000000000000114e+01,2.140884092406742517e-02
4.932000000000000028e+01,3.451366546357904908e-02
4.935999999999999943e+01,3.553782470372275626e-02
4.939999999999999858e+01,1.108923586448672290e-02
4.943999999999999773e+01,3.232971930988255693e-02
4.947999999999999687e+01,2.625931644097527148e-02
4.952000000000000313e+01,3.515497387692373410e-02
4.956000000000000227e+01,3.118217196528983229e-02
4.960000000000000142e+01,2.563226548984506165e-02
4.964000000000000057e+01,2.848366042777664836e-02
4.967999999999999972e+01,2.581909447643919095e-02
4.971999999999999886e+01,2.052705005746519387e-02
4.975999999999999801e+01,4.648160142787449711e-02
4.979999999999999716e+01,3.357127736321741801e-02
4.984000000000000341e+01,3.536438421927708825e-02
4.988000000000000256e+01,3.059114637653642318e-02
4.992000000000000171e+01,3.054291861876694963e-02
4.996000000000000085e+01,3.837077312891798431e-02
5.000000000000000000e+01,3.411788309405671543e-02
5.003999999999999915e+01,3.957919375062829426e-02
5.007999999999999829e+01,3.085903186594729855e-02
5.011999999999999744e+01,3.290341981226095613e-02
5.015999999999999659e+01,2.444258197005230726e-02
5.020000000000000284e+01,3.803764378975700577e-02
5.024000000000000199e+01,3.508790540494648169e-02
5.028000000000000114e+01,2.583436255412474222e-02
5.032000000000000028e+01,3.259713999637070536e-02
5.035999999999999943e+01,2.491582046607779960e-02
5.039999999999999858e+01,3.115009323261231852e-02
5.043999999999999773e+01,2.950500315382350094e-02
5.047999999999999687e+01,3.048413572953231551e-02
5.052000000000000313e+01,4.117740956244071715e-02
5.056000000000000227e+01,3.217476643220956029e-02
5.060000000000000142e+01,3.446179322137351425e-02
5.064000000000000057e+01,3.700971500177242107e-02
5.067999999999999972e+01,3.535450087816716103e-02
5.071999999999999886e+01,4.210045444091344014e-02
5.075999999999999801e+01,4.963246765896999618e-02
5.079999999999999716e+01,3.615558539018618595e-02
5.084000000000000341e+01,3.738201022079981617e-02
5.088000000000000256e+01,3.729376175763067514e-02
5.092000000000000171e+01,5.374693881737131057e-02
5.096000000000000085e+01,3.343581489984992494e-02
5.100000000000000000e+01,3.728120967772118044e-02
5.103999999999999915e+01,3.350975707879442350e-02
5.107999999999999829e+01,3.551352997737578648e-02
5.111999999999999744e+01,4.644360055641461732e-02
5.115999999999999659e+01,3.925321844742345884e-02
5.120000000000000284e+01,3.442438008026308532e-02
5.124000000000000199e+01,4.219808119343767400e-02
5.128000000000000114e+01,3.762828950899445302e-02
5.132000000000000028e+01,3.226894957202169206e-02
5.135999999999999943e+01,5.132867351608345202e-02
5.139999999999999858e+01,4.045137579574062392e-02
5.143999999999999773e+01,3.981328493961727721e-02
5.147999999999999687e+01,5.151511408539546227e-02
5.152000000000000313e+01,3.905688145718123200e-02
5.156000000000000227e+01,4.051409749306398439e-02
5.160000000000000142e+01,3.855583299327940833e-02
5.164000000000000057e+01,4.289790417369779979e-02
5.167999999999999972e+01,3.384607398270327722e-02
5.171999999999999886e+01,4.396146787073147016e-02
5.175999999999999801e+01,4.015777095900753546e-02
5.179999999999999716e+01,4.002849230290712879e-02
5.184000000000000341e+01,3.884701124587428694e-02
5.188000000000000256e+01,4.107734877744254748e-02
5.192000000000000171e+01,2.124829309702542732e-02
5.196000000000000085e+01,3.266556079908918692e-02
5.200000000000000000e+01,3.383996464271992605e-02
5.203999999999999915e+01,4.341537272856067081e-02
5.207999999999999829e+01,4.852488179923346301e-02
5.211999999999999744e+01,4.785553809530125602e-02
5.215999999999999659e+01,4.219510594786182039e-02
5.220000000000000284e+01,4.992486369624127285e-02
5.224000000000000199e+01,3.664554765508064998e-02
5.228000000000000114e+01,2.651541091267652431e-02
5.232000000000000028e+01,3.949127037625622949e-02
5.235999999999999943e+01,4.353717021231216788e-02
5.239999999999999858e+01,4.889410615934843690e-02
5.243999999999999773e+01,4.427071352788809755e-02
5.247999999999999687e+01,3.596914163668248759e-02
5.252000000000000313e+01,4.447138691559267970e-02
5.256000000000000227e+01,3.406523687267522943e-02
5.260000000000000142e+01,5.648086953449532599e-02
5.264000000000000057e+01,3.845573654080124137e-02
5.267999999999999972e+01,5.929194085642652129e-02
5.271999999999999886e+01,3.784924128161413354e-02
5.275999999999999801e+01,4.870312507749453845e-02
5.279999999999999716e+01,3.697232717599499563e-02
5.284000000000000341e+01,4.703451228680892438e-02
5.288000000000000256e+01,5.683213550646890044e-02
5.292000000000000171e+01,2.513859935537786708e-02
5.296000000000000085e+01,5.383872627161790519e-02
5.300000000000000000e+01,5.417717197724349759e-02
5.303999999999999915e+01,4.033377863051141460e-02
5.307999999999999829e+01,3.725456860366884587e-02
5.311999999999999744e+01,4.861579360229885405e-02
5.315999999999999659e+01,4.868365206449812299e-02
5.320000000000000284e+01,5.163798614852330160e-02
5.324000000000000199e+01,3.962268713197641262e-02
5.328000000000000114e+01,3.574564905788681080e-02
5.332000000000000028e+01,5.261117551661008418e-02
5.335999999999999943e+01,5.503223353883664876e-02
5.339999999999999858e+01,4.747284411410005595e-02
5.343999999999999773e+01,4.778910605909278408e-02
5.347999999999999687e+01,4.679037277487253788e-02
5.352000000000000313e+01,5.314210143204242676e-02
5.356000000000000227e+01,2.981913073207487566e-02
5.360000000000000142e+01,4.404443461922875891e-02
5.364000000000000057e+01,4.540077396781756064e-02
5.367999999999999972e+01,4.334137523239478540e-02
5.371999999999999886e+01,4.233025940249409563e-02
5.375999999999999801e+01,5.287101197793638019e-02
5.379999999999999716e+01,4.555357473838242410e-02
5.384000000000000341e+01,5.320166289558483919e-02
5.388000000000000256e+01,5.795916772714554410e-02
5.392000000000000171e+01,4.853472454358757904e-02
5.396000000000000085e+01,4.987435571715818222e-02
5.400000000000000000e+01,3.335577231146871074e-02
5.403999999999999915e+01,5.123433187571807546e-02
5.407999999999999829e+01,4.180143554759555707e-02
5.411999999999999744e+01,4.392036304914105627e-02
5.415999999999999659e+01,6.520621250569016980e-02
5.420000000000000284e+01,5.760505264340803899e-02
5.424000000000000199e+01,3.687226418845242909e-02
5.428000000000000114e+01,4.764810161183372778e-02
5.432000000000000028e+01,5.264481385370754774e-02
5.435999999999999943e+01,4.923649834805272907e-02
5.439999999999999858e+01,3.190876515436277122e-02
5.443999999999999773e+01,5.212920253788604075e-02
5.447999999999999687e+01,5.055251948816340268e-02
5.452000000000000313e+01,5.002402028690732666e-02
5.456000000000000227e+01,4.345377642571029986e-02
5.460000000000000142e+01,3.871947579122485966e-02
5.464000000000000057e+01,4.737506292853929657e-02
5.467999999999999972e+01,3.528386391361126861e-02
5.471999999999999886e+01,4.183433799111446055e-02
5.475999999999999801e+01,4.759483787074968858e-02
5.479999999999999716e+01,3.339630602353465400e-02
5.484000000000000341e+01,5.490776689578728137e-02
5.488000000000000256e+01,3.308969737828514057e-02
5.492000000000000171e+01,4.566866186796085525e-02
5.496000000000000085e+01,4.669144718151421042e-02
5.500000000000000000e+01,3.904653574057771748e-02
5.503999999999999915e+01,4.820512944003232936e-02
5.507999999999999829e+01,3.845501578793468489e-02
5.511999999999999744e+01,4.156955095076995954e-02
5.515999999999999659e+01,4.888326785222959353e-02
5.520000000000000284e+01,4.201487824728183246e-02
5.524000000000000199e+01,4.013342975920336508e-02
5.528000000000000114e+01,4.507704576435934973e-02
5.532000000000000028e+01,5.185651584487697974e-02
5.535999999999999943e+01,5.705816815078459947e-02
5.539999999999999858e+01,4.886545846997142339e-02
5.543999999999999773e+01,5.695102487838797634e-02
5.547999999999999687e+01,3.194798729561507122e-02
5.552000000000000313e+01,5.105773059595154761e-02
5.556000000000000227e+01,4.390619379363100427e-02
5.560000000000000142e+01,5.277032350781218212e-02
5.564000000000000057e+01,4.692711271157175984e-02
5.567999999999999972e+01,4.108158308580021900e-02
5.571999999999999886e+01,4.678767917558578071e-02
5.575999999999999801e+01,5.354180557540193924e-02
5.579999999999999716e+01,5.057777711840544255e-02
5.584000000000000341e+01,4.052148646491197242e-02
5.588000000000000256e+01,4.936931503243610631e-02
5.592000000000000171e+01,5.165005102039136459e-02
5.596000000000000085e+01,4.473779186275658737e-02
5.600000000000000000e+01,5.305338040914527736e-02
5.603999999999999915e+01,5.427668199477314603e-02
5.607999999999999829e+01,5.155876880258943723e-02
5.611999999999999744e+01,5.697876490031621166e-02
5.615999999999999659e+01,3.534963731864372571e-02
5.620000000000000284e+01,5.074328286602888122e-02
5.624000000000000199e+01,4.355182077069556790e-02
5.628000000000000114e+01,4.791191505098053166e-02
5.632000000000000028e+01,4.202861056473313622e-02
5.635999999999999943e+01,4.900980135498272938e-02
5.639999999999999858e+01,5.021160941538072020e-02
5.643999999999999773e+01,4.011964480542061506e-02
5.647999999999999687e+01,5.076985345290444679e-02
5.652000000000000313e+01,5.196440785354258102e-02
5.656000000000000227e+01,4.580402114501696403e-02
5.660000000000000142e+01,4.541817644031689860e-02
5.664000000000000057e+01,4.161622714050024208e-02
5.667999999999999972e+01,5.934419561781418412e-02
5.671999999999999886e+01,4.923520179183959317e-02
5.675999999999999801e+01,4.122447349984368486e-02
5.679999999999999716e+01,4.476523719638006438e-02
5.684000000000000341e+01,4.383951248826858937e-02
5.688000000000000256e+01,4.002283299055743593e-02
5.692000000000000171e+01,5.616050298495926102e-02
5.696000000000000085e+01,5.023815570792639074e-02
5.700000000000000000e+01,4.483850567985459001e-02
5.703999999999999915e+01,3.444716296023732360e-02
5.707999999999999829e+01,3.481950827523242614e-02
5.711999999999999744e+01,5.829725545387863528e-02
5.715999999999999659e+01,4.632288276966749219e-02
5.720000000000000284e+01,6.296828703105557257e-02
5.724000000000000199e+01,3.497091987779117617e-02
5.728000000000000114e+01,5.449978257923318581e-02
5.732000000000000028e+01,5.013045510434770841e-02
5.735999999999999943e+01,4.890967791591673691e-02
5.739999999999999858e+01,4.952449725450328022e-02
5.743999999999999773e+01,4.541016413433354715e-02
5.747999999999999687e+01,4.339400739679259017e-02
5.752000000000000313e+01,4.531415041824562312e-02
5.756000000000000227e+01,4.985763943925561326e-02
5.760000000000000142e+01,4.599569953166236791e-02
5.764000000000000057e+01,3.609163359446482949e-02
5.767999999999999972e+01,5.717059302048486252e-02
5.771999999999999886e+01,4.043405539185705028e-02
5.775999999999999801e+01,4.365176324543391245e-02
5.779999999999999716e+01,3.347481194112376240e-02
5.784000000000000341e+01,4.167655764541166458e-02
5.788000000000000256e+01,6.274261041779122250e-02
5.792000000000000171e+01,4.914421850706113953e-02
5.796000000000000085e+01,4.499645686159826907e-02
5.800000000000000000e+01,4.294680721167812298e-02
5.803999999999999915e+01,4.693411102420066289e-02
5.807999999999999829e+01,3.647636196359938660e-02
5.811999999999999744e+01,3.258073598236888718e-02
5.815999999999999659e+01,3.734794621819113869e-02
5.820000000000000284e+01,4.815209010504493958e-02
5.824000000000000199e+01,4.109749441024489192e-02
5.828000000000000114e+01,3.456543747311713322e-02
5.832000000000000028e+01,4.483647954245318507e-02
5.835999999999999943e+01,3.672358764894333161e-02
5.839999999999999858e+01,5.407924697964752725e-02
5.843999999999999773e+01,5.882793719077088201e-02
5.847999999999999687e+01,4.913152500024266928e-02
5.852000000000000313e+01,5.098639182557752197e-02
5.856000000000000227e+01,4.259758252462473443e-02
5.860000000000000142e+01,4.392191400461165768e-02
5.864000000000000057e+01,4.209248300816012534e-02
5.867999999999999972e+01,3.999777195690264187e-02
5.871999999999999886e+01,4.446510969222440546e-02
5.875999999999999801e+01,5.076787555756939047e-02
5.879999999999999716e+01,5.391685913506485961e-02
5.884000000000000341e+01,3.868184931548128425e-02
5.888000000000000256e+01,5.154122889904683841e-02
5.892000000000000171e+01,4.496624613456035729e-02
5.896000000000000085e+01,4.364033363295224954e-02
5.900000000000000000e+01,4.362464002161706156e-02
5.903999999999999915e+01,3.152708252054315513e-02
5.907999999999999829e+01,4.542317156781980336e-02
5.911999999999999744e+01,6.614384963446487409e-02
5.915999999999999659e+01,3.198051785816748149e-02
5.920000000000000284e+01,4.534317819964334140e-02
5.924000000000000199e+01,3.900884680892828527e-02
5.928000000000000114e+01,3.214657130929877982e-02
5.932000000000000028e+01,4.313763004008120544e-02
5.935999999999999943e+01,3.810793883855000119e-02
5.939999999999999858e+01,3.018698081769455657e-02
5.943999999999999773e+01,3.460495718103895335e-02
5.947999999999999687e+01,3.980791347778935008e-02
5.952000000000000313e+01,3.187858740530034873e-02
5.956000000000000227e+01,2.315869279261075636e-02
5.960000000000000142e+01,4.069497010250262836e-02
5.964000000000000057e+01,4.509895018459662147e-02
5.967999999999999972e+01,3.033106357575289166e-02
5.971999999999999886e+01,3.971861594039740456e-02
5.975999999999999801e+01,4.884075452321118282e-02
5.979999999999999716e+01,5.087014057710354670e-02
5.984000000000000341e+01,3.582835821918165659e-02
5.988000000000000256e+01,3.076214791222756095e-02
5.992000000000000171e+01,3.908517160050738876e-02
5.996000000000000085e+01,4.477944889084099767e-02
