2.003999999999999915e+01,1.783951398149550074e-02
2.007999999999999829e+01,3.103316600903466282e-02
2.012000000000000099e+01,3.576409176643575299e-02
2.016000000000000014e+01,1.730827628486944145e-02
2.019999999999999929e+01,1.831459111946846102e-02
2.023999999999999844e+01,3.624441312949801958e-02
2.028000000000000114e+01,3.403384232794121056e-02
2.032000000000000028e+01,1.997571497681803823e-02
2.035999999999999943e+01,1.590219159159260778e-02
2.039999999999999858e+01,1.808995815935376950e-02
2.044000000000000128e+01,1.503058922145994979e-02
2.048000000000000043e+01,1.603237035893948295e-02
2.051999999999999957e+01,1.601805513353682375e-02
2.055999999999999872e+01,1.989564874391124005e-02
2.060000000000000142e+01,2.411107873031922977e-02
2.064000000000000057e+01,2.866434524954681803e-02
2.067999999999999972e+01,5.461350632483721879e-03
2.071999999999999886e+01,2.913761998302501557e-02
2.076000000000000156e+01,3.301198150974529733e-02
2.080000000000000071e+01,3.417783223940354387e-02
2.083999999999999986e+01,1.012604575743482165e-02
2.087999999999999901e+01,2.009116582944200577e-02
2.092000000000000171e+01,4.444117244471705586e-02
2.096000000000000085e+01,2.664938700191799015e-02
2.100000000000000000e+01,1.461116920438797380e-02
2.103999999999999915e+01,1.374224891029027576e-02
2.107999999999999829e+01,8.133920278614483260e-03
2.112000000000000099e+01,2.706497216421845445e-02
2.116000000000000014e+01,2.467094381534699205e-02
2.119999999999999929e+01,2.379944506647230923e-02
2.123999999999999844e+01,2.681985781873299016e-02
2.128000000000000114e+01,2.967038495288152472e-02
2.132000000000000028e+01,2.304274120146117960e-02
2.135999999999999943e+01,1.421431350748377995e-02
2.139999999999999858e+01,2.010925734453982219e-02
2.144000000000000128e+01,3.125004589200453681e-02
2.148000000000000043e+01,1.666547507691077540e-02
2.151999999999999957e+01,3.440539779268496356e-02
2.155999999999999872e+01,2.303513039611130436e-02
2.160000000000000142e+01,2.892685861202082612e-02
2.164000000000000057e+01,1.332426692171632954e-02
2.167999999999999972e+01,1.650684513597888703e-02
2.171999999999999886e+01,2.578147692399086754e-02
2.176000000000000156e+01,3.725560671967285964e-02
2.180000000000000071e+01,1.674244093986484647e-02
2.183999999999999986e+01,2.584590509452226043e-02
2.187999999999999901e+01,3.224086268533377098e-02
2.192000000000000171e+01,2.417486341811410713e-03
2.196000000000000085e+01,1.913489571991664265e-02
2.200000000000000000e+01,3.348228211086928113e-02
2.203999999999999915e+01,2.193506978109638350e-02
2.207999999999999829e+01,2.104943437168228099e-02
2.212000000000000099e+01,2.574812944437121151e-02
2.216000000000000014e+01,2.367652177468145339e-02
2.219999999999999929e+01,4.411340021747117007e-02
2.223999999999999844e+01,3.814795606396002847e-02
2.228000000000000114e+01,2.507372653209153854e-02
2.232000000000000028e+01,4.246233658195806837e-02
2.235999999999999943e+01,4.326463458962821057e-02
2.239999999999999858e+01,3.492724905128152812e-02
2.244000000000000128e+01,4.199020533307104563e-02
2.248000000000000043e+01,3.635940576588640727e-02
2.251999999999999957e+01,4.274411726904852465e-02
2.255999999999999872e+01,4.591260021421880028e-02
2.260000000000000142e+01,2.910994099454628989e-02
2.264000000000000057e+01,3.566197737783712712e-02
2.267999999999999972e+01,3.121267422776325892e-02
2.271999999999999886e+01,3.150149614573889006e-02
2.276000000000000156e+01,3.043574737450022855e-02
2.280000000000000071e+01,2.310742302895953809e-02
2.283999999999999986e+01,2.457902149785891333e-02
2.287999999999999901e+01,2.401908353522905215e-02
2.292000000000000171e+01,2.650485589289731936e-02
2.296000000000000085e+01,2.797454145161612851e-02
2.300000000000000000e+01,7.611429328501448550e-03
2.303999999999999915e+01,2.786565279934893891e-02
2.307999999999999829e+01,3.830322917686592582e-02
2.312000000000000099e+01,3.993960793684638716e-02
2.316000000000000014e+01,2.989768283221939243e-02
2.319999999999999929e+01,1.003911110461928879e-02
2.323999999999999844e+01,4.213705981716939913e-02
2.328000000000000114e+01,3.243170867155678594e-02
2.332000000000000028e+01,1.223274516065627100e-02
2.335999999999999943e+01,2.029648511673643255e-02
2.339999999999999858e+01,2.734413999851100646e-02
2.344000000000000128e+01,2.102107658149805075e-02
2.348000000000000043e+01,2.062083208364099904e-02
2.351999999999999957e+01,2.868202995924624271e-02
2.355999999999999872e+01,2.201857758107689592e-02
2.360000000000000142e+01,1.772387197589185212e-02
2.364000000000000057e+01,3.086041153243298044e-02
2.367999999999999972e+01,2.013325743448248287e-02
2.371999999999999886e+01,3.411473559805570932e-02
2.376000000000000156e+01,1.678589208131478147e-02
2.380000000000000071e+01,1.824222677878753474e-02
2.383999999999999986e+01,2.206730918995916321e-02
2.387999999999999901e+01,1.370636589916334434e-02
2.392000000000000171e+01,2.413060129293860545e-02
2.396000000000000085e+01,2.913847342503995269e-02
2.400000000000000000e+01,1.011341160376773990e-02
2.403999999999999915e+01,9.196562724751743134e-03
2.407999999999999829e+01,2.334157898775299569e-02
2.412000000000000099e+01,3.173174950988739973e-02
2.416000000000000014e+01,3.335162512893227738e-02
2.419999999999999929e+01,2.329320095980003461e-02
2.423999999999999844e+01,2.118849732677017400e-02
2.428000000000000114e+01,2.703751438662834253e-02
2.432000000000000028e+01,2.425458008569170154e-02
2.435999999999999943e+01,1.977859826063609744e-02
2.439999999999999858e+01,2.850282574703529026e-02
2.444000000000000128e+01,1.624046896172948173e-02
2.448000000000000043e+01,2.039391131164316334e-02
2.451999999999999957e+01,2.150037433923653735e-02
2.455999999999999872e+01,2.531407100900894339e-02
2.460000000000000142e+01,3.538907409427525380e-02
2.464000000000000057e+01,2.075417952206845898e-02
2.467999999999999972e+01,1.915025380564902915e-02
2.471999999999999886e+01,1.619176508251866584e-02
2.476000000000000156e+01,2.592576242241120821e-02
2.480000000000000071e+01,2.296601300690507760e-02
2.483999999999999986e+01,2.119032435256623312e-02
2.487999999999999901e+01,1.162889429827362528e-02
2.492000000000000171e+01,2.203733772037315061e-02
2.496000000000000085e+01,1.365933910016753003e-02
2.500000000000000000e+01,2.423576495091723723e-02
2.503999999999999915e+01,2.516479294400797775e-02
2.507999999999999829e+01,2.473925934145983219e-02
2.512000000000000099e+01,2.448233827857101974e-02
2.516000000000000014e+01,2.050147418926227469e-02
2.519999999999999929e+01,1.262742567715122513e-02
2.523999999999999844e+01,6.275922600401366395e-03
2.528000000000000114e+01,7.878144136184227209e-03
2.532000000000000028e+01,1.303381005891631264e-02
2.535999999999999943e+01,2.563547624824847812e-02
2.539999999999999858e+01,2.723581356564933401e-02
2.544000000000000128e+01,2.612765827313911701e-02
2.548000000000000043e+01,2.146480276166309528e-02
2.551999999999999957e+01,2.018615086789726787e-02
2.555999999999999872e+01,2.821515710950906961e-02
2.560000000000000142e+01,1.898089779590071344e-02
2.564000000000000057e+01,2.887030701498828622e-02
2.567999999999999972e+01,9.649542270663795732e-03
2.571999999999999886e+01,3.019991585910878143e-02
2.576000000000000156e+01,2.062466647870497480e-02
2.580000000000000071e+01,1.172575696282303175e-02
2.583999999999999986e+01,2.381217384841456675e-02
2.587999999999999901e+01,2.794361170052899954e-02
2.592000000000000171e+01,2.953580037732975866e-02
2.596000000000000085e+01,6.418096570588271814e-03
2.600000000000000000e+01,5.808893770975654715e-03
2.603999999999999915e+01,1.027631215896899694e-02
2.607999999999999829e+01,2.049731810402606602e-02
2.612000000000000099e+01,3.156390672105927747e-02
2.616000000000000014e+01,7.258385788892172084e-03
2.619999999999999929e+01,1.206178722133676752e-02
2.623999999999999844e+01,2.989616362421446474e-02
2.628000000000000114e+01,2.115899171298761886e-02
2.632000000000000028e+01,1.631375121469066936e-02
2.635999999999999943e+01,2.517645236985641480e-02
2.639999999999999858e+01,2.303782857273532075e-02
2.644000000000000128e+01,2.496037821206955470e-02
2.648000000000000043e+01,1.351222146833605704e-02
2.651999999999999957e+01,1.983380428124146416e-02
2.655999999999999872e+01,3.106276876679974971e-02
2.660000000000000142e+01,2.722861180796702987e-02
2.664000000000000057e+01,2.017824228329260713e-02
2.667999999999999972e+01,1.769677179529232508e-02
2.671999999999999886e+01,2.063040826659235522e-02
2.676000000000000156e+01,2.220948972725641027e-02
2.680000000000000071e+01,2.057235924922188458e-02
2.683999999999999986e+01,2.231943756282834396e-02
2.687999999999999901e+01,2.271196133615629997e-02
2.692000000000000171e+01,2.733490198053705952e-02
2.696000000000000085e+01,2.061803676129596308e-02
2.700000000000000000e+01,2.100869513053614870e-02
2.703999999999999915e+01,2.478356307534616484e-02
2.707999999999999829e+01,1.823407494590012848e-02
2.712000000000000099e+01,2.319239125766176662e-02
2.716000000000000014e+01,3.068870984951063696e-02
2.719999999999999929e+01,3.852289068704762426e-02
2.723999999999999844e+01,6.415444273063113968e-03
2.728000000000000114e+01,1.814093958252690000e-02
2.732000000000000028e+01,1.531104092924786587e-02
2.735999999999999943e+01,1.620383621216111777e-02
2.739999999999999858e+01,2.285022422606918305e-02
2.744000000000000128e+01,2.171088087431383845e-02
2.748000000000000043e+01,2.649437212029271543e-02
2.751999999999999957e+01,2.349213231417985812e-02
2.755999999999999872e+01,6.272982592375036040e-03
2.760000000000000142e+01,2.171683333921352668e-02
2.764000000000000057e+01,7.542793145639296523e-03
2.767999999999999972e+01,1.756967607587751889e-02
2.771999999999999886e+01,1.947234563161671927e-02
2.776000000000000156e+01,1.426625128865102732e-02
2.780000000000000071e+01,1.396754347869762387e-02
2.783999999999999986e+01,1.840698080537428102e-02
2.787999999999999901e+01,1.827627800122396187e-02
2.792000000000000171e+01,2.474537773212392988e-02
2.796000000000000085e+01,3.493717375100287986e-02
2.800000000000000000e+01,1.297245694302048315e-02
2.803999999999999915e+01,2.519391630683738906e-02
2.807999999999999829e+01,1.473639013477526759e-02
2.812000000000000099e+01,5.970662239818743701e-03
2.816000000000000014e+01,2.140585935010419147e-02
2.819999999999999929e+01,1.483903760753990317e-02
2.823999999999999844e+01,1.267187946312753680e-02
2.828000000000000114e+01,6.950032074754407610e-03
2.832000000000000028e+01,2.864469982895916436e-02
2.835999999999999943e+01,1.970603014588708304e-02
2.839999999999999858e+01,3.192193845174678274e-02
2.844000000000000128e+01,2.010493020745489356e-02
2.848000000000000043e+01,2.521146143646519483e-02
2.851999999999999957e+01,2.760951212806971727e-02
2.855999999999999872e+01,2.611439156687790294e-02
2.860000000000000142e+01,2.478789718570871548e-02
2.864000000000000057e+01,2.193761360966743276e-02
2.867999999999999972e+01,2.145609671840498570e-02
2.871999999999999886e+01,1.826610007366572322e-02
2.876000000000000156e+01,2.895329604270411444e-02
2.880000000000000071e+01,1.983861570186433790e-02
2.883999999999999986e+01,2.273947120352533963e-02
2.887999999999999901e+01,1.870080874965141665e-02
2.892000000000000171e+01,2.176967740997633877e-02
2.896000000000000085e+01,9.944675429439751163e-03
2.900000000000000000e+01,2.062818621496591981e-02
2.903999999999999915e+01,1.861796686438671466e-02
2.907999999999999829e+01,2.710011031851048205e-02
2.912000000000000099e+01,7.318301058640019202e-03
2.916000000000000014e+01,2.206115546690689405e-02
2.919999999999999929e+01,2.004848309017835672e-02
2.923999999999999844e+01,2.378941065659067114e-02
2.928000000000000114e+01,9.759362432570809626e-03
2.932000000000000028e+01,2.348431637710950842e-02
2.935999999999999943e+01,1.808436241944327838e-02
2.939999999999999858e+01,2.453070494611076652e-02
2.944000000000000128e+01,2.589918879709277727e-02
2.948000000000000043e+01,1.998967393799053888e-02
2.951999999999999957e+01,2.203390031071428626e-02
2.955999999999999872e+01,3.778608087976335211e-02
2.960000000000000142e+01,2.730520925426410325e-02
2.964000000000000057e+01,3.002456747915756979e-02
2.967999999999999972e+01,9.049497120595065280e-03
2.971999999999999886e+01,3.326131047475801294e-02
2.976000000000000156e+01,7.038530158484940756e-03
2.980000000000000071e+01,7.047579913687417388e-03
2.983999999999999986e+01,5.532845177591413574e-03
2.987999999999999901e+01,1.146412842488920246e-02
2.992000000000000171e+01,1.654859370713218994e-02
2.996000000000000085e+01,1.892458409625773566e-02
3.000000000000000000e+01,3.213142400249537067e-02
3.003999999999999915e+01,2.672108333139057088e-02
3.007999999999999829e+01,1.724833581218119388e-02
3.012000000000000099e+01,1.894492138677735665e-02
3.016000000000000014e+01,2.774904293593177806e-02
3.019999999999999929e+01,2.436716355527273475e-02
3.023999999999999844e+01,2.233860765502974563e-02
3.028000000000000114e+01,8.462534244880984269e-03
3.032000000000000028e+01,1.387938926453305410e-02
3.035999999999999943e+01,1.963411891595029032e-02
3.039999999999999858e+01,1.794161191018834103e-02
3.044000000000000128e+01,1.929484470045185474e-02
3.048000000000000043e+01,0.000000000000000000e+00
3.051999999999999957e+01,2.572280059482122752e-02
3.055999999999999872e+01,9.303846760156438828e-03
3.060000000000000142e+01,1.827051836684274663e-02
3.064000000000000057e+01,1.318953368351064546e-02
3.067999999999999972e+01,2.080105826749754916e-02
3.071999999999999886e+01,2.147307210809560468e-02
3.076000000000000156e+01,2.519082699900548200e-02
3.080000000000000071e+01,2.416921165128283269e-02
3.083999999999999986e+01,1.536187826468839342e-02
3.087999999999999901e+01,9.092561739259052284e-03
3.092000000000000171e+01,2.448555773976998987e-02
3.096000000000000085e+01,2.092289366267533965e-02
3.100000000000000000e+01,2.192914555511965569e-02
3.103999999999999915e+01,2.005768523449464463e-02
3.107999999999999829e+01,2.106272566529967388e-02
3.112000000000000099e+01,2.342109302580813041e-02
3.116000000000000014e+01,2.814823679181402763e-02
3.119999999999999929e+01,2.762828722754104294e-02
3.123999999999999844e+01,1.813793032007779069e-02
3.128000000000000114e+01,2.726353939260214507e-02
3.132000000000000028e+01,1.354093407572782778e-02
3.135999999999999943e+01,2.351154164745401440e-02
3.139999999999999858e+01,1.554194018522658989e-02
3.144000000000000128e+01,2.111105873508828737e-02
3.148000000000000043e+01,1.415569826594556026e-02
3.151999999999999957e+01,1.109228959188481370e-02
3.155999999999999872e+01,2.207532605977463938e-02
3.160000000000000142e+01,3.187306804127663235e-02
3.164000000000000057e+01,1.374535029262485483e-02
3.167999999999999972e+01,3.352713715297590130e-02
3.171999999999999886e+01,3.638416555266787283e-02
3.176000000000000156e+01,2.570126671184761250e-02
3.180000000000000071e+01,3.752689161209511043e-02
3.183999999999999986e+01,2.988913522452018787e-02
3.187999999999999901e+01,3.629782523318223625e-02
3.192000000000000171e+01,3.745942473370945935e-02
3.196000000000000085e+01,3.980511290327349433e-02
3.200000000000000000e+01,2.624149302868734185e-02
3.203999999999999915e+01,3.078611745351437362e-02
3.207999999999999829e+01,3.634558946456754869e-02
3.211999999999999744e+01,2.971906807152489491e-02
3.215999999999999659e+01,2.579981010996042906e-02
3.220000000000000284e+01,1.764891205676998726e-02
3.224000000000000199e+01,3.183729791612284477e-02
3.228000000000000114e+01,2.927016906298574028e-02
3.232000000000000028e+01,2.890257960896582337e-02
3.235999999999999943e+01,2.870363107283227522e-02
3.239999999999999858e+01,2.054972905930461252e-02
3.243999999999999773e+01,2.305744457365391936e-02
3.247999999999999687e+01,1.625627449883624426e-02
3.252000000000000313e+01,2.604017662634878008e-02
3.256000000000000227e+01,1.856084047936767609e-02
3.260000000000000142e+01,3.465034745257437442e-03
3.264000000000000057e+01,3.270991640339464268e-02
3.267999999999999972e+01,1.642822087833152936e-02
3.271999999999999886e+01,2.011642940288856096e-02
3.275999999999999801e+01,2.041920779666073216e-02
3.279999999999999716e+01,2.596787542800444923e-02
3.284000000000000341e+01,2.711566392312661847e-02
3.288000000000000256e+01,2.149319169446039721e-02
3.292000000000000171e+01,2.822475440678107877e-02
3.296000000000000085e+01,3.106316311274169920e-02
3.300000000000000000e+01,1.223805488648310562e-02
3.303999999999999915e+01,5.259257412064535092e-03
3.307999999999999829e+01,1.808112384517008425e-02
3.311999999999999744e+01,2.480969670787419937e-02
3.315999999999999659e+01,2.967601498616375885e-02
3.320000000000000284e+01,2.066392856189321753e-02
3.324000000000000199e+01,2.688298473675266795e-02
3.328000000000000114e+01,2.565481554300930514e-02
3.332000000000000028e+01,2.188742617932238829e-02
3.335999999999999943e+01,2.878165794958550266e-02
3.339999999999999858e+01,2.619776618358669873e-02
3.343999999999999773e+01,2.073617161166557005e-02
3.347999999999999687e+01,1.848957030465769522e-02
3.352000000000000313e+01,1.878099620667661104e-02
3.356000000000000227e+01,1.636396132629866843e-02
3.360000000000000142e+01,9.038325629124944680e-03
3.364000000000000057e+01,1.609762633309887517e-02
3.367999999999999972e+01,2.281784846938587213e-02
3.371999999999999886e+01,3.681486208733401183e-02
3.375999999999999801e+01,1.340889730736427241e-02
3.379999999999999716e+01,1.217298100141542098e-02
3.384000000000000341e+01,2.938379915657623673e-02
3.388000000000000256e+01,1.359191976654578610e-02
3.392000000000000171e+01,2.267795417158236654e-02
3.396000000000000085e+01,1.974724393783732629e-02
3.400000000000000000e+01,1.901607968821238809e-02
3.403999999999999915e+01,1.879204604781286106e-02
3.407999999999999829e+01,1.653651987590388020e-02
3.411999999999999744e+01,1.749598947748069039e-02
3.415999999999999659e+01,2.336287054100949848e-02
3.420000000000000284e+01,2.025935586349628115e-02
3.424000000000000199e+01,1.681676481329713937e-02
3.428000000000000114e+01,5.588469207803781549e-03
3.432000000000000028e+01,1.923808896523533651e-02
3.435999999999999943e+01,1.443978663135720569e-02
3.439999999999999858e+01,1.031785787094460088e-02
3.443999999999999773e+01,3.225853581599063408e-02
3.447999999999999687e+01,1.341140712190193839e-02
3.452000000000000313e+01,4.379696342710751901e-03
3.456000000000000227e+01,1.413320595310942063e-02
3.460000000000000142e+01,2.591702234624700465e-02
3.464000000000000057e+01,1.417567115053393161e-02
3.467999999999999972e+01,1.868091751724733005e-02
3.471999999999999886e+01,1.303107930895747862e-02
3.475999999999999801e+01,9.242306957381559926e-03
3.479999999999999716e+01,7.822325278809579355e-03
3.484000000000000341e+01,1.452534723774086614e-02
3.488000000000000256e+01,1.987384601355058483e-02
3.492000000000000171e+01,2.352933865668836028e-02
3.496000000000000085e+01,1.093705175148786818e-02
3.500000000000000000e+01,2.119178423655403848e-02
3.503999999999999915e+01,1.942977631605465744e-02
3.507999999999999829e+01,8.358892997464371227e-03
3.511999999999999744e+01,2.284289439018684711e-02
3.515999999999999659e+01,1.938670148681945551e-02
3.520000000000000284e+01,1.882870167013164829e-03
3.524000000000000199e+01,1.636510304926280107e-02
3.528000000000000114e+01,2.238466908319064474e-02
3.532000000000000028e+01,1.909536065974226995e-02
3.535999999999999943e+01,1.952877752964314942e-02
3.539999999999999858e+01,2.554657693452763723e-02
3.543999999999999773e+01,2.564033341575416153e-02
3.547999999999999687e+01,1.354810966289074839e-02
3.552000000000000313e+01,1.380993104209024200e-02
3.556000000000000227e+01,2.253324198727323438e-02
3.560000000000000142e+01,1.602422521169881431e-02
3.564000000000000057e+01,2.542332665507358522e-02
3.567999999999999972e+01,2.314417330779150808e-02
3.571999999999999886e+01,2.424926355859467406e-02
3.575999999999999801e+01,1.959955369319422991e-02
3.579999999999999716e+01,3.170417043972639792e-02
3.584000000000000341e+01,1.436016994009980952e-02
3.588000000000000256e+01,1.664760276983420079e-02
3.592000000000000171e+01,2.062686444990223869e-02
3.596000000000000085e+01,1.783587747868733281e-02
3.600000000000000000e+01,1.572127035236934450e-02
3.603999999999999915e+01,9.882762845364885529e-03
3.607999999999999829e+01,4.551393943660837771e-03
3.611999999999999744e+01,1.563586980183959141e-02
3.615999999999999659e+01,1.419588498495071710e-02
3.620000000000000284e+01,1.749407807292080799e-02
3.624000000000000199e+01,1.216036652225992859e-02
3.628000000000000114e+01,2.256553414595277932e-02
3.632000000000000028e+01,1.283037182915892915e-02
3.635999999999999943e+01,1.900333055345839947e-02
3.639999999999999858e+01,2.906826020070561040e-02
3.643999999999999773e+01,1.425409688911805084e-02
3.647999999999999687e+01,1.382488111046886910e-02
3.652000000000000313e+01,1.627218740611638403e-02
3.656000000000000227e+01,1.804194331631747347e-02
3.660000000000000142e+01,2.387291248656321641e-02
3.664000000000000057e+01,3.579599371165599619e-02
3.667999999999999972e+01,2.757874640733419189e-02
3.671999999999999886e+01,3.679279553369017852e-02
3.675999999999999801e+01,2.620499955053920416e-02
3.679999999999999716e+01,1.324723859097596580e-02
3.684000000000000341e+01,3.024464946688353723e-02
3.688000000000000256e+01,2.422462619344857224e-02
3.692000000000000171e+01,2.277354209384870737e-02
3.696000000000000085e+01,2.792229596288629476e-02
3.700000000000000000e+01,1.953114313034941610e-02
3.703999999999999915e+01,1.858603634586177000e-02
3.707999999999999829e+01,1.984048761799971083e-02
3.711999999999999744e+01,2.769477748591826077e-02
3.715999999999999659e+01,1.591646536535572601e-02
3.720000000000000284e+01,1.479978943017852371e-02
3.724000000000000199e+01,2.163688498648371622e-02
3.728000000000000114e+01,2.593477589463798888e-02
3.732000000000000028e+01,3.006284405577985125e-02
3.735999999999999943e+01,2.352811333027614304e-02
3.739999999999999858e+01,3.544013101981691866e-02
3.743999999999999773e+01,2.467319986135218732e-02
3.747999999999999687e+01,2.609107996428576895e-02
3.752000000000000313e+01,2.733913810413582737e-02
3.756000000000000227e+01,2.113998765146213668e-02
3.760000000000000142e+01,2.695640737737601406e-02
3.764000000000000057e+01,3.226452250422767037e-02
3.767999999999999972e+01,3.283329435960171544e-02
3.771999999999999886e+01,3.661707609918217476e-02
3.775999999999999801e+01,3.244592537066356280e-02
3.779999999999999716e+01,2.759722911705790940e-02
3.784000000000000341e+01,3.171775602572963343e-02
3.788000000000000256e+01,3.888405189258285766e-02
3.792000000000000171e+01,3.251044466393463589e-02
3.796000000000000085e+01,3.747544281227387780e-02
3.800000000000000000e+01,4.497848572964781300e-02
3.803999999999999915e+01,2.438685244942550082e-02
3.807999999999999829e+01,4.339716439561204508e-02
3.811999999999999744e+01,4.074397947815977528e-02
3.815999999999999659e+01,4.553684499875871455e-02
3.820000000000000284e+01,4.305174598857455098e-02
3.824000000000000199e+01,4.818193928318117991e-02
3.828000000000000114e+01,5.940425106085207158e-02
3.832000000000000028e+01,5.184017316266988085e-02
3.835999999999999943e+01,5.375304512448444982e-02
3.839999999999999858e+01,6.294272691189690960e-02
3.843999999999999773e+01,7.974770178802917386e-02
3.847999999999999687e+01,8.301277576366097866e-02
3.852000000000000313e+01,8.509258237684563797e-02
3.856000000000000227e+01,8.937195284772989079e-02
3.860000000000000142e+01,1.075285545016948369e-01
3.864000000000000057e+01,1.146838791798232421e-01
3.867999999999999972e+01,1.441785130130063264e-01
3.871999999999999886e+01,1.770574022032084527e-01
3.875999999999999801e+01,2.060431601209893882e-01
3.879999999999999716e+01,2.729384505556429197e-01
3.884000000000000341e+01,3.366175762441188657e-01
3.888000000000000256e+01,4.290671908919643229e-01
3.892000000000000171e+01,5.606110293992160321e-01
3.896000000000000085e+01,7.085707237981411222e-01
3.900000000000000000e+01,8.113423488923560134e-01
3.903999999999999915e+01,9.334069365956727538e-01
3.907999999999999829e+01,9.965748895012389585e-01
3.911999999999999744e+01,1.000000000000000000e+00
3.915999999999999659e+01,9.595909742465382752e-01
3.920000000000000284e+01,9.384749117293216258e-01
3.924000000000000199e+01,8.329067405131223012e-01
3.928000000000000114e+01,7.293688944235982019e-01
3.932000000000000028e+01,6.393697992329633317e-01
3.935999999999999943e+01,5.717100158627412831e-01
3.939999999999999858e+01,4.867870210283949395e-01
3.943999999999999773e+01,4.478971557715598073e-01
3.947999999999999687e+01,3.636499815382757683e-01
3.952000000000000313e+01,3.440525080445600570e-01
3.956000000000000227e+01,2.760513779309420879e-01
3.960000000000000142e+01,2.493446145332732511e-01
3.964000000000000057e+01,2.199294141846467876e-01
3.967999999999999972e+01,1.654658920236661834e-01
3.971999999999999886e+01,1.575432251972015696e-01
3.975999999999999801e+01,1.509739191661699231e-01
3.979999999999999716e+01,1.227411228565022522e-01
3.984000000000000341e+01,1.044930068674096435e-01
3.988000000000000256e+01,8.336721331490605513e-02
3.992000000000000171e+01,8.813480639434548292e-02
3.996000000000000085e+01,8.257809388455136790e-02
4.000000000000000000e+01,7.160508098418300049e-02
4.003999999999999915e+01,6.977054142247823831e-02
4.007999999999999829e+01,5.067279306200735134e-02
4.011999999999999744e+01,5.933008920225692900e-02
4.015999999999999659e+01,4.683162113444681862e-02
4.020000000000000284e+01,4.888735673382105934e-02
4.024000000000000199e+01,4.332665269215105197e-02
4.028000000000000114e+01,5.367408505658127077e-02
4.032000000000000028e+01,5.183555615800155419e-02
4.035999999999999943e+01,4.627314381160003987e-02
4.039999999999999858e+01,3.580215730198620799e-02
4.043999999999999773e+01,4.580882976115305955e-02
4.047999999999999687e+01,4.193712605277261085e-02
4.052000000000000313e+01,3.451078107688155400e-02
4.056000000000000227e+01,4.146939962607879698e-02
4.060000000000000142e+01,3.505736713759026457e-02
4.064000000000000057e+01,4.607664644478642185e-02
4.067999999999999972e+01,3.340154028461742725e-02
4.071999999999999886e+01,3.595760604252015019e-02
4.075999999999999801e+01,3.140495885709792406e-02
4.079999999999999716e+01,2.871340120304320329e-02
4.084000000000000341e+01,2.466734372694877331e-02
4.088000000000000256e+01,3.009824598835550424e-02
4.092000000000000171e+01,3.180526699694148640e-02
4.096000000000000085e+01,3.672731058938245169e-02
4.100000000000000000e+01,2.810946315882737953e-02
4.103999999999999915e+01,3.083023317776513797e-02
4.107999999999999829e+01,3.084257189003356686e-02
4.111999999999999744e+01,2.696178858024210132e-02
4.115999999999999659e+01,2.443437155338599315e-02
4.120000000000000284e+01,2.579894426377177946e-02
4.124000000000000199e+01,1.751618261474127691e-02
4.128000000000000114e+01,3.004956633332911756e-02
4.132000000000000028e+01,2.447353834766992017e-02
4.135999999999999943e+01,3.243626925697445235e-02
4.139999999999999858e+01,1.636613441472186542e-02
4.143999999999999773e+01,2.280456109891111638e-02
4.147999999999999687e+01,2.788849046963330636e-02
4.152000000000000313e+01,1.621694134538169407e-02
4.156000000000000227e+01,2.451533092040865044e-02
4.160000000000000142e+01,2.722818482312459876e-02
4.164000000000000057e+01,3.450999640039825039e-02
4.167999999999999972e+01,2.875964427953836208e-02
4.171999999999999886e+01,1.082333638317099951e-02
4.175999999999999801e+01,1.674952369287618231e-02
4.179999999999999716e+01,2.792163551695438575e-02
4.184000000000000341e+01,1.912268059015220789e-02
4.188000000000000256e+01,2.657035144721777570e-02
4.192000000000000171e+01,1.980116867468821248e-02
4.196000000000000085e+01,1.929336036268304230e-02
4.200000000000000000e+01,1.861574764760230011e-02
4.203999999999999915e+01,2.030695398375253341e-02
4.207999999999999829e+01,2.064366535822236351e-02
4.211999999999999744e+01,2.351843765066275599e-02
4.215999999999999659e+01,1.793057006193631009e-02
4.220000000000000284e+01,1.064972487555080130e-02
4.224000000000000199e+01,1.504598494856775916e-02
4.228000000000000114e+01,1.639533531215282836e-02
4.232000000000000028e+01,1.503625922942782543e-02
4.235999999999999943e+01,2.180021625993369336e-02
4.239999999999999858e+01,1.011628271307260345e-02
4.243999999999999773e+01,1.789456665527317317e-02
4.247999999999999687e+01,1.924111060860972736e-02
4.252000000000000313e+01,1.635605492105276018e-02
4.256000000000000227e+01,2.227099934332774089e-02
4.260000000000000142e+01,1.989254716224763200e-02
4.264000000000000057e+01,1.819050085250474569e-02
4.267999999999999972e+01,2.173438250642209524e-02
4.271999999999999886e+01,2.189287306921506443e-02
4.275999999999999801e+01,1.629659095331677937e-02
4.279999999999999716e+01,2.237741629182200473e-02
4.284000000000000341e+01,2.134953683986311190e-02
4.288000000000000256e+01,1.862868245560344790e-02
4.292000000000000171e+01,7.614432722274981115e-03
4.296000000000000085e+01,2.824779434432279218e-02
4.300000000000000000e+01,1.452456174299386268e-02
4.303999999999999915e+01,1.874037500400098019e-02
4.307999999999999829e+01,1.940155703178766261e-02
4.311999999999999744e+01,3.224757242776826738e-02
4.315999999999999659e+01,2.241466139611066055e-02
4.320000000000000284e+01,1.325815843079124201e-02
4.324000000000000199e+01,2.119449434589642037e-02
4.328000000000000114e+01,1.965274545082852306e-02
4.332000000000000028e+01,2.251071926215320734e-02
4.335999999999999943e+01,2.435268623527879830e-02
4.339999999999999858e+01,2.568637118649511053e-02
4.343999999999999773e+01,1.483410710399269208e-02
4.347999999999999687e+01,9.566257227202301996e-03
4.352000000000000313e+01,2.156048888150521176e-02
4.356000000000000227e+01,2.170725507878273550e-02
4.360000000000000142e+01,2.659222818628950019e-02
4.364000000000000057e+01,2.098366857568683200e-02
4.367999999999999972e+01,2.451359657125426125e-02
4.371999999999999886e+01,2.161178943831702087e-02
4.375999999999999801e+01,1.955563411988700886e-02
4.379999999999999716e+01,2.037602941076660859e-02
4.384000000000000341e+01,1.645710557517938294e-02
4.388000000000000256e+01,2.218439478919530250e-02
4.392000000000000171e+01,1.944905102061889393e-02
4.396000000000000085e+01,3.516048137995572004e-02
4.400000000000000000e+01,2.802374705098767058e-02
4.403999999999999915e+01,3.104095105827002488e-02
4.407999999999999829e+01,2.407234873159071545e-02
4.411999999999999744e+01,3.758141979798441945e-02
4.415999999999999659e+01,2.367280486767904882e-02
4.420000000000000284e+01,2.922641432500988276e-02
4.424000000000000199e+01,2.310180254384180953e-02
4.428000000000000114e+01,1.765360306222807027e-02
4.432000000000000028e+01,2.675962339673447488e-02
4.435999999999999943e+01,2.418742296309929485e-02
4.439999999999999858e+01,3.278461159579488388e-02
4.443999999999999773e+01,4.138124694251577723e-02
4.447999999999999687e+01,3.017606743938612557e-02
4.452000000000000313e+01,3.386359164264163280e-02
4.456000000000000227e+01,3.907373700879222117e-02
4.460000000000000142e+01,3.379035341969233858e-02
4.464000000000000057e+01,3.206048994507568195e-02
4.467999999999999972e+01,3.743821935825712016e-02
4.471999999999999886e+01,3.926132396643534916e-02
4.475999999999999801e+01,4.108387654292516150e-02
4.479999999999999716e+01,4.866009005222603906e-02
4.484000000000000341e+01,4.625050020649519589e-02
4.488000000000000256e+01,5.162547024516359745e-02
4.492000000000000171e+01,4.921477743355647666e-02
4.496000000000000085e+01,5.560409413892843100e-02
4.500000000000000000e+01,5.623864694561300087e-02
4.503999999999999915e+01,6.347306939166359741e-02
4.507999999999999829e+01,7.967674337821863129e-02
4.511999999999999744e+01,7.692481278933592515e-02
4.515999999999999659e+01,9.651221675480504969e-02
4.520000000000000284e+01,1.057753356699784597e-01
4.524000000000000199e+01,1.177457692855816834e-01
4.528000000000000114e+01,1.231152323341577759e-01
4.532000000000000028e+01,1.581014173504549647e-01
4.535999999999999943e+01,1.688855105838195925e-01
4.539999999999999858e+01,2.035321132907632335e-01
4.543999999999999773e+01,1.907905317443231996e-01
4.547999999999999687e+01,2.325441811084505150e-01
4.552000000000000313e+01,2.333408255531516928e-01
4.556000000000000227e+01,2.481839700148280869e-01
4.560000000000000142e+01,2.422098546976477196e-01
4.564000000000000057e+01,2.372506401170744184e-01
4.567999999999999972e+01,2.383835730249356522e-01
4.571999999999999886e+01,2.190377297306333737e-01
4.575999999999999801e+01,2.125536963650589695e-01
4.579999999999999716e+01,2.103001538734277920e-01
4.584000000000000341e+01,1.823213475017811114e-01
4.588000000000000256e+01,1.731278058901013772e-01
4.592000000000000171e+01,1.595334364111516967e-01
4.596000000000000085e+01,1.481386597952717987e-01
4.600000000000000000e+01,1.233732533077870619e-01
4.603999999999999915e+01,1.087617929958418911e-01
4.607999999999999829e+01,9.194964563495461318e-02
4.611999999999999744e+01,1.005231845483028630e-01
4.615999999999999659e+01,8.692553345245086771e-02
4.620000000000000284e+01,7.434278528820699450e-02
4.624000000000000199e+01,7.783743844431333103e-02
4.628000000000000114e+01,6.203800846543363473e-02
4.632000000000000028e+01,5.994659837612305309e-02
4.635999999999999943e+01,5.125422195300156913e-02
4.639999999999999858e+01,4.763854652145033119e-02
4.643999999999999773e+01,5.569999281180893630e-02
4.647999999999999687e+01,4.565204762328677751e-02
4.652000000000000313e+01,3.780369749283533226e-02
4.656000000000000227e+01,3.384735810892094965e-02
4.660000000000000142e+01,2.769033371427965032e-02
4.664000000000000057e+01,4.133402637754345771e-02
4.667999999999999972e+01,3.652984523951926382e-02
4.671999999999999886e+01,3.358677683715871609e-02
4.675999999999999801e+01,3.808979258179307631e-02
4.679999999999999716e+01,2.177555325114413631e-02
4.684000000000000341e+01,3.304714320805950817e-02
4.688000000000000256e+01,1.927043957406191291e-02
4.692000000000000171e+01,1.412451158637876604e-02
4.696000000000000085e+01,2.319433065634139354e-02
4.700000000000000000e+01,2.583242745423378062e-02
4.703999999999999915e+01,2.390045922169019982e-02
4.707999999999999829e+01,2.213718960420177004e-02
4.711999999999999744e+01,1.597309682301702172e-02
4.715999999999999659e+01,2.063992082004598161e-02
4.720000000000000284e+01,2.175212973279046572e-02
4.724000000000000199e+01,1.118612916596983461e-02
4.728000000000000114e+01,2.465188699482808929e-02
4.732000000000000028e+01,2.542398633868461419e-02
4.735999999999999943e+01,1.096380405680434829e-02
4.739999999999999858e+01,1.495040938641478863e-02
4.743999999999999773e+01,1.859799008264828232e-02
4.747999999999999687e+01,1.818323213259358251e-02
4.752000000000000313e+01,1.912186539441402058e-02
4.756000000000000227e+01,1.989071604638295923e-02
4.760000000000000142e+01,1.338163901222812723e-02
4.764000000000000057e+01,1.821120529722066936e-02
4.767999999999999972e+01,2.524037118707167862e-02
4.771999999999999886e+01,2.990207949310036330e-03
4.775999999999999801e+01,1.492629817873959708e-02
4.779999999999999716e+01,1.839977063379798911e-02
4.784000000000000341e+01,1.239517615226272060e-02
4.788000000000000256e+01,2.128329854711849545e-02
4.792000000000000171e+01,1.849321412776755783e-02
4.796000000000000085e+01,1.841045507027973954e-02
4.800000000000000000e+01,2.289667861628942244e-02
4.803999999999999915e+01,1.553545426528167225e-02
4.807999999999999829e+01,1.578956078836780269e-02
4.811999999999999744e+01,1.841251019412417159e-02
4.815999999999999659e+01,1.714236517211870786e-02
4.820000000000000284e+01,1.333305830448163441e-02
4.824000000000000199e+01,2.204708797995500943e-02
4.828000000000000114e+01,1.925215380546173305e-02
4.832000000000000028e+01,2.085696193558417982e-02
4.835999999999999943e+01,1.789171020920152233e-02
4.839999999999999858e+01,1.611061159081324939e-02
4.843999999999999773e+01,1.686759866254950238e-02
4.847999999999999687e+01,2.388598575089309964e-02
4.852000000000000313e+01,2.565734739720261851e-02
4.856000000000000227e+01,2.268940841776788744e-02
4.860000000000000142e+01,1.989017401124815523e-02
4.864000000000000057e+01,1.336708861156408329e-02
4.867999999999999972e+01,1.784416750112165218e-02
4.871999999999999886e+01,9.289110286843815789e-03
4.875999999999999801e+01,1.156497612221113296e-02
4.879999999999999716e+01,1.502499663343064007e-02
4.884000000000000341e+01,1.662282402026328543e-02
4.888000000000000256e+01,1.551225067365455054e-02
4.892000000000000171e+01,2.387866857848977911e-02
4.896000000000000085e+01,1.498191249100305940e-02
4.900000000000000000e+01,1.251580001150697299e-02
4.903999999999999915e+01,1.224929246758609327e-02
4.907999999999999829e+01,1.587480554770662536e-02
4.911999999999999744e+01,2.237689008964617587e-02
4.915999999999999659e+01,1.787773889041049252e-02
4.920000000000000284e+01,1.523971014755702395e-02
4.924000000000000199e+01,1.987853371924917095e-02
4.928000000000000114e+01,1.791640240249267255e-02
4.932000000000000028e+01,1.933856799098824034e-02
4.935999999999999943e+01,1.669840230212746648e-02
4.939999999999999858e+01,1.693480917258615576e-02
4.943999999999999773e+01,2.055551341865421641e-02
4.947999999999999687e+01,1.909843753871502681e-02
4.952000000000000313e+01,1.865627760360414819e-02
4.956000000000000227e+01,2.870656074751803608e-02
4.960000000000000142e+01,1.827808289748958717e-02
4.964000000000000057e+01,2.088067173757825537e-02
4.967999999999999972e+01,1.248202687470687661e-02
4.971999999999999886e+01,2.083776318522118434e-02
4.975999999999999801e+01,1.345350261764174764e-02
4.979999999999999716e+01,2.637769615354849939e-02
4.984000000000000341e+01,2.017706206157211801e-02
4.988000000000000256e+01,1.685300241034457316e-02
4.992000000000000171e+01,1.285144474012268369e-02
4.996000000000000085e+01,2.154247190796803810e-02
5.000000000000000000e+01,1.415502003209819816e-02
5.003999999999999915e+01,1.353669894698550716e-02
5.007999999999999829e+01,2.256461521327249309e-02
5.011999999999999744e+01,1.382163737452118436e-02
5.015999999999999659e+01,1.150930769054826774e-02
5.020000000000000284e+01,1.935094048783655638e-02
5.024000000000000199e+01,2.194555458487947378e-02
5.028000000000000114e+01,2.149329032964739442e-02
5.032000000000000028e+01,1.545552458140545156e-02
5.035999999999999943e+01,1.398675068702223689e-02
5.039999999999999858e+01,1.454834550576284032e-02
5.043999999999999773e+01,1.866348317292553655e-02
5.047999999999999687e+01,2.007022637807825971e-02
5.052000000000000313e+01,2.232264789453582143e-02
5.056000000000000227e+01,2.525150632591595737e-02
5.060000000000000142e+01,2.107169038327424276e-02
5.064000000000000057e+01,1.299878973358939080e-02
5.067999999999999972e+01,1.948013382896441117e-02
5.071999999999999886e+01,1.936052868017910239e-02
5.075999999999999801e+01,1.382466531619556439e-02
5.079999999999999716e+01,1.505793572189901251e-02
5.084000000000000341e+01,1.036722356647172376e-02
5.088000000000000256e+01,2.327710489705802840e-02
5.092000000000000171e+01,1.909306147099399525e-02
5.096000000000000085e+01,1.558545652771036773e-02
5.100000000000000000e+01,1.258504867082487280e-02
5.103999999999999915e+01,2.583130250175183842e-02
5.107999999999999829e+01,9.798240375072065148e-03
5.111999999999999744e+01,1.932012567401890368e-02
5.115999999999999659e+01,1.327126113554252806e-02
5.120000000000000284e+01,2.279209269934948795e-02
5.124000000000000199e+01,1.843459027098522107e-02
5.128000000000000114e+01,1.187642117583087575e-02
5.132000000000000028e+01,1.885705001530064290e-02
5.135999999999999943e+01,2.532942803323239359e-02
5.139999999999999858e+01,2.401616860018577354e-02
5.143999999999999773e+01,1.965603536165189472e-02
5.147999999999999687e+01,2.629607738736467609e-02
5.152000000000000313e+01,1.431902302970129021e-02
5.156000000000000227e+01,1.114200405867143799e-02
5.160000000000000142e+01,2.319619965144679996e-02
5.164000000000000057e+01,2.475689388326965737e-02
5.167999999999999972e+01,2.394768146299221939e-02
5.171999999999999886e+01,1.044482780414932033e-02
5.175999999999999801e+01,1.894285146297662245e-02
5.179999999999999716e+01,2.185537942986806592e-02
5.184000000000000341e+01,2.476738311615500968e-02
5.188000000000000256e+01,1.989375123289296998e-02
5.192000000000000171e+01,1.451187072309386566e-02
5.196000000000000085e+01,1.945320114629855990e-02
5.200000000000000000e+01,1.880903666149635889e-02
5.203999999999999915e+01,1.765662402051437763e-02
5.207999999999999829e+01,2.445804103854087863e-02
5.211999999999999744e+01,1.721188596051538219e-02
5.215999999999999659e+01,2.790481249198476996e-02
5.220000000000000284e+01,1.642657268890737599e-02
5.224000000000000199e+01,1.730244355435092349e-02
5.228000000000000114e+01,2.410124622471526007e-02
5.232000000000000028e+01,2.260669039067010957e-02
5.235999999999999943e+01,8.418495826632056006e-03
5.239999999999999858e+01,1.318483313181191899e-02
5.243999999999999773e+01,7.796155318091126281e-03
5.247999999999999687e+01,1.763869551746272829e-02
5.252000000000000313e+01,1.749546246467337945e-02
5.256000000000000227e+01,1.802867416609579831e-02
5.260000000000000142e+01,2.330012805454896932e-02
5.264000000000000057e+01,1.723187673585414512e-02
5.267999999999999972e+01,2.521015334200428157e-02
5.271999999999999886e+01,2.252569126725012180e-02
5.275999999999999801e+01,1.713284366727572255e-02
5.279999999999999716e+01,2.375562582448719276e-02
5.284000000000000341e+01,2.445443325985699121e-02
5.288000000000000256e+01,2.346030495937222529e-02
5.292000000000000171e+01,2.500427990901989833e-02
5.296000000000000085e+01,1.622400022481407939e-02
5.300000000000000000e+01,1.945935108172292330e-02
5.303999999999999915e+01,1.778617731972743921e-02
5.307999999999999829e+01,1.695869190332700144e-02
5.311999999999999744e+01,1.917703518049205733e-02
5.315999999999999659e+01,2.714907215869718365e-02
5.320000000000000284e+01,1.531932846635278463e-02
5.324000000000000199e+01,1.093569432030050068e-02
5.328000000000000114e+01,2.398342151424091503e-02
5.332000000000000028e+01,1.519846986997267987e-02
5.335999999999999943e+01,2.164473968808407547e-02
5.339999999999999858e+01,1.827448125648976560e-02
5.343999999999999773e+01,2.082715917660407992e-02
5.347999999999999687e+01,1.407103382008839491e-02
5.352000000000000313e+01,2.169992278725522278e-02
5.356000000000000227e+01,1.375807132414593598e-02
5.360000000000000142e+01,1.749336964760194596e-02
5.364000000000000057e+01,1.682787036344449150e-02
5.367999999999999972e+01,1.565412935132453817e-02
5.371999999999999886e+01,2.226498287326218392e-02
5.375999999999999801e+01,1.702841091854961214e-02
5.379999999999999716e+01,1.737629362028155627e-02
5.384000000000000341e+01,1.992380007188292168e-02
5.388000000000000256e+01,2.145534091994646952e-02
5.392000000000000171e+01,2.552498893778704439e-02
5.396000000000000085e+01,1.943962779458686257e-02
5.400000000000000000e+01,2.113886228294473146e-02
5.403999999999999915e+01,1.623716054036236645e-02
5.407999999999999829e+01,2.267412735943868593e-02
5.411999999999999744e+01,2.115622583580200472e-02
5.415999999999999659e+01,1.422207942375875410e-02
5.420000000000000284e+01,1.930356825640372476e-02
5.424000000000000199e+01,2.980027191696888247e-02
5.428000000000000114e+01,2.489547952256995419e-02
5.432000000000000028e+01,1.728230771759643389e-02
5.435999999999999943e+01,2.083856401861403432e-02
5.439999999999999858e+01,2.033250879728415797e-02
5.443999999999999773e+01,2.236456278394654759e-02
5.447999999999999687e+01,1.576478362629575233e-02
5.452000000000000313e+01,2.930423551968580967e-02
5.456000000000000227e+01,2.405736139225133144e-02
5.460000000000000142e+01,2.490266971648120997e-02
5.464000000000000057e+01,1.576221309819677077e-02
5.467999999999999972e+01,2.032980913771035084e-02
5.471999999999999886e+01,1.728102229263385123e-02
5.475999999999999801e+01,1.930896920735653693e-02
5.479999999999999716e+01,2.624440848549618177e-02
5.484000000000000341e+01,2.234787583921007612e-02
5.488000000000000256e+01,2.945153178396230434e-02
5.492000000000000171e+01,1.641493069361766449e-02
5.496000000000000085e+01,1.810183267757993139e-02
5.500000000000000000e+01,1.555718393781346277e-02
5.503999999999999915e+01,2.418196596939652110e-02
5.507999999999999829e+01,2.874443914399043426e-02
5.511999999999999744e+01,1.790541955612181407e-02
5.515999999999999659e+01,1.823583120996004336e-02
5.520000000000000284e+01,1.755028243419138115e-02
5.524000000000000199e+01,2.126450308697915709e-02
5.528000000000000114e+01,2.227034809205117455e-02
5.532000000000000028e+01,2.801444594558727061e-02
5.535999999999999943e+01,1.717236110519921102e-02
5.539999999999999858e+01,1.140701253318291038e-02
5.543999999999999773e+01,2.374999998026395415e-02
5.547999999999999687e+01,2.136846228862667937e-02
5.552000000000000313e+01,1.560158367731612206e-02
5.556000000000000227e+01,1.897323923755369832e-02
5.560000000000000142e+01,1.912879574485756157e-02
5.564000000000000057e+01,2.402260635491182753e-02
5.567999999999999972e+01,1.994610541789044317e-02
5.571999999999999886e+01,2.466965617322411028e-02
5.575999999999999801e+01,1.703806463169266205e-02
5.579999999999999716e+01,2.497618722280984041e-02
5.584000000000000341e+01,2.360551578765837655e-02
5.588000000000000256e+01,2.917323958715659429e-02
5.592000000000000171e+01,1.730857512189140288e-02
5.596000000000000085e+01,2.422921492661093967e-02
5.600000000000000000e+01,2.539513394873388341e-02
5.603999999999999915e+01,2.046784923871000986e-02
5.607999999999999829e+01,2.975634733349087971e-02
5.611999999999999744e+01,1.839686843724428963e-02
5.615999999999999659e+01,1.651440917066868130e-02
5.620000000000000284e+01,1.970868930818057974e-02
5.624000000000000199e+01,2.628729347488522466e-02
5.628000000000000114e+01,2.829586882867013778e-02
5.632000000000000028e+01,2.421124154780875809e-02
5.635999999999999943e+01,2.604956206401824736e-02
5.639999999999999858e+01,2.128695559964876791e-02
5.643999999999999773e+01,2.295502190542584794e-02
5.647999999999999687e+01,2.208395882022881271e-02
5.652000000000000313e+01,1.664286786282671501e-02
5.656000000000000227e+01,2.270969674097000554e-02
5.660000000000000142e+01,2.319104874147163639e-02
5.664000000000000057e+01,1.859464868062141868e-02
5.667999999999999972e+01,2.449071960666568404e-02
5.671999999999999886e+01,1.803165199870363292e-02
5.675999999999999801e+01,2.223429724437567603e-02
5.679999999999999716e+01,2.694416231038464921e-02
5.684000000000000341e+01,8.805913016325645978e-03
5.688000000000000256e+01,1.554566751237420642e-02
5.692000000000000171e+01,2.380809161812531133e-02
5.696000000000000085e+01,3.240849461818842009e-02
5.700000000000000000e+01,2.425347979937654899e-02
5.703999999999999915e+01,1.999051680497726524e-02
5.707999999999999829e+01,1.843491491960004558e-02
5.711999999999999744e+01,2.314074691655968949e-02
5.715999999999999659e+01,2.226110423087867413e-02
5.720000000000000284e+01,2.205792448656043042e-02
5.724000000000000199e+01,2.659300511642400874e-02
5.728000000000000114e+01,2.554261153400421910e-02
5.732000000000000028e+01,2.263005806578385209e-02
5.735999999999999943e+01,2.157865903824583015e-02
5.739999999999999858e+01,2.188068994867180608e-02
5.743999999999999773e+01,1.862814591197409914e-02
5.747999999999999687e+01,2.485262667887822019e-02
5.752000000000000313e+01,2.024514602600423208e-02
5.756000000000000227e+01,1.851426991674972808e-02
5.760000000000000142e+01,1.593668433820349603e-02
5.764000000000000057e+01,2.148219176505788280e-02
5.767999999999999972e+01,1.771891237778970563e-02
5.771999999999999886e+01,2.021706922464511919e-02
5.775999999999999801e+01,1.577582131530220338e-02
5.779999999999999716e+01,2.470415518671255709e-02
5.784000000000000341e+01,2.212356267995877618e-02
5.788000000000000256e+01,1.903474490774986760e-02
5.792000000000000171e+01,1.814556687756039080e-02
5.796000000000000085e+01,2.334858446904116563e-02
5.800000000000000000e+01,1.907357494751760543e-02
5.803999999999999915e+01,1.801365495737907232e-02
5.807999999999999829e+01,1.966109999590729199e-02
5.811999999999999744e+01,3.078557234660989420e-02
5.815999999999999659e+01,2.430842365938490693e-02
5.820000000000000284e+01,2.426195464088109696e-02
5.824000000000000199e+01,2.099939691730536018e-02
5.828000000000000114e+01,1.841330636830864828e-02
5.832000000000000028e+01,1.751913246968512042e-02
5.835999999999999943e+01,2.796364390879917117e-02
5.839999999999999858e+01,2.249895078238087903e-02
5.843999999999999773e+01,3.006535883895226566e-02
5.847999999999999687e+01,1.681455760168954275e-02
5.852000000000000313e+01,2.302603688137386251e-02
5.856000000000000227e+01,2.771384424195308047e-02
5.860000000000000142e+01,2.495452547933137491e-02
5.864000000000000057e+01,1.864063647315946856e-02
5.867999999999999972e+01,2.620405735653223017e-02
5.871999999999999886e+01,2.141234754518794858e-02
5.875999999999999801e+01,2.491297668241425692e-02
5.879999999999999716e+01,2.316662067155313837e-02
5.884000000000000341e+01,2.311218334928030402e-02
5.888000000000000256e+01,2.018014293684429819e-02
5.892000000000000171e+01,1.792457220755982669e-02
5.896000000000000085e+01,2.666920606146368569e-02
5.900000000000000000e+01,2.661278293468005707e-02
5.903999999999999915e+01,2.486344821705263261e-02
5.907999999999999829e+01,2.666769021357676128e-02
5.911999999999999744e+01,2.271722365679564037e-02
5.915999999999999659e+01,2.502819897842633798e-02
5.920000000000000284e+01,2.226143227299544683e-02
5.924000000000000199e+01,2.457141688737175117e-02
5.928000000000000114e+01,2.857332191497994472e-02
5.932000000000000028e+01,1.615830132362466171e-02
5.935999999999999943e+01,1.575893620232388451e-02
5.939999999999999858e+01,2.212873855965388770e-02
5.943999999999999773e+01,1.952824410777185410e-02
5.947999999999999687e+01,2.623554074561287169e-02
5.952000000000000313e+01,2.244936690930112930e-02
5.956000000000000227e+01,2.610932739143537532e-02
5.960000000000000142e+01,2.367609809535764151e-02
5.964000000000000057e+01,2.191934130457568602e-02
5.967999999999999972e+01,2.066981562270707451e-02
5.971999999999999886e+01,2.669718333325967613e-02
5.975999999999999801e+01,2.240032306354219210e-02
5.979999999999999716e+01,2.250325009596067932e-02
5.984000000000000341e+01,2.548279060878834781e-02
5.988000000000000256e+01,1.593796342051875814e-02
5.992000000000000171e+01,2.247059117333774503e-02
5.996000000000000085e+01,1.850975017664746938e-02
