2.003999999999999915e+01,7.800979369715278777e-03
2.007999999999999829e+01,1.808805011915102373e-02
2.012000000000000099e+01,1.813025459106563583e-02
2.016000000000000014e+01,1.618935561283533706e-02
2.019999999999999929e+01,1.061300072193908234e-02
2.023999999999999844e+01,1.800733311474512696e-02
2.028000000000000114e+01,1.689176974894456701e-02
2.032000000000000028e+01,1.379310327617979705e-02
2.035999999999999943e+01,1.482503821101410421e-02
2.039999999999999858e+01,1.313031156373277962e-02
2.044000000000000128e+01,1.672283327946226528e-02
2.048000000000000043e+01,6.104843373872473333e-03
2.051999999999999957e+01,6.144247784910226474e-03
2.055999999999999872e+01,1.130566556151312539e-02
2.060000000000000142e+01,1.687989202677678963e-02
2.064000000000000057e+01,1.303542960401797221e-02
2.067999999999999972e+01,1.323895164780516422e-02
2.071999999999999886e+01,3.858549720328923426e-03
2.076000000000000156e+01,1.339730536583056374e-02
2.080000000000000071e+01,2.694463275023185021e-03
2.083999999999999986e+01,1.049769079170548292e-02
2.087999999999999901e+01,1.483069910907374583e-02
2.092000000000000171e+01,1.181045982438143349e-02
2.096000000000000085e+01,1.399485239062324589e-02
2.100000000000000000e+01,7.586733115158329072e-03
2.103999999999999915e+01,9.357480449186349192e-03
2.107999999999999829e+01,1.228459614816107895e-02
2.112000000000000099e+01,1.248505180933571872e-02
2.116000000000000014e+01,1.111549430232664469e-02
2.119999999999999929e+01,1.024136439832380729e-02
2.123999999999999844e+01,1.060622082986458978e-02
2.128000000000000114e+01,1.683665081802830643e-02
2.132000000000000028e+01,1.191342320095841942e-02
2.135999999999999943e+01,1.549953338940720897e-02
2.139999999999999858e+01,1.701992515994954838e-02
2.144000000000000128e+01,1.193062909051231801e-02
2.148000000000000043e+01,1.601161210330615675e-02
2.151999999999999957e+01,1.488740711377948590e-02
2.155999999999999872e+01,1.525004202840628785e-02
2.160000000000000142e+01,9.581312838145457367e-03
2.164000000000000057e+01,1.448736273936513871e-02
2.167999999999999972e+01,9.892108355824777779e-03
2.171999999999999886e+01,1.132766372748742444e-02
2.176000000000000156e+01,5.988296690701547763e-03
2.180000000000000071e+01,1.419794367554574888e-02
2.183999999999999986e+01,6.049023643300968645e-03
2.187999999999999901e+01,1.409288188158208492e-02
2.192000000000000171e+01,1.478349466268541121e-02
2.196000000000000085e+01,1.018630275780097426e-02
2.200000000000000000e+01,1.318965612958668786e-02
2.203999999999999915e+01,1.305326329978561198e-02
2.207999999999999829e+01,1.357753521531929880e-02
2.212000000000000099e+01,1.542341298130942527e-02
2.216000000000000014e+01,1.313813327410918649e-02
2.219999999999999929e+01,1.870125215480306774e-02
2.223999999999999844e+01,1.625018524535546890e-02
2.228000000000000114e+01,1.322051909898233277e-02
2.232000000000000028e+01,1.795663417047342614e-02
2.235999999999999943e+01,1.757018066876143633e-02
2.239999999999999858e+01,1.858795124548879435e-02
2.244000000000000128e+01,2.043162259454031279e-02
2.248000000000000043e+01,1.525252019721166918e-02
2.251999999999999957e+01,7.016290255255817898e-03
2.255999999999999872e+01,8.528665103914898765e-03
2.260000000000000142e+01,1.855038041774747723e-02
2.264000000000000057e+01,1.626179417377088959e-02
2.267999999999999972e+01,1.240319802183246535e-02
2.271999999999999886e+01,1.862367751335339619e-02
2.276000000000000156e+01,1.088150315613541259e-02
2.280000000000000071e+01,1.016155239958329258e-02
2.283999999999999986e+01,1.753785448589759502e-02
2.287999999999999901e+01,1.119935586310624037e-02
2.292000000000000171e+01,1.122214007904046018e-02
2.296000000000000085e+01,1.132726753589582969e-02
2.300000000000000000e+01,1.366279663227808194e-02
2.303999999999999915e+01,1.038005284948296213e-02
2.307999999999999829e+01,7.510123074658062343e-03
2.312000000000000099e+01,1.381047589967199403e-02
2.316000000000000014e+01,6.809116753226464314e-03
2.319999999999999929e+01,1.145656920068392065e-02
2.323999999999999844e+01,1.271642513816675576e-02
2.328000000000000114e+01,1.058868465147025373e-02
2.332000000000000028e+01,9.452082079426400024e-03
2.335999999999999943e+01,1.343749887861981490e-02
2.339999999999999858e+01,9.573967630567409987e-03
2.344000000000000128e+01,1.512857255096376752e-02
2.348000000000000043e+01,4.489849226710569338e-03
2.351999999999999957e+01,1.210934837598577098e-02
2.355999999999999872e+01,1.477151678074894135e-02
2.360000000000000142e+01,1.239373689937969467e-02
2.364000000000000057e+01,9.850448835204533501e-03
2.367999999999999972e+01,1.325535710278700173e-02
2.371999999999999886e+01,1.426408141892804814e-02
2.376000000000000156e+01,1.386803339841241600e-02
2.380000000000000071e+01,1.165412498995643635e-02
2.383999999999999986e+01,8.365914926097636414e-03
2.387999999999999901e+01,7.803814153757309031e-03
2.392000000000000171e+01,9.141646484573013459e-03
2.396000000000000085e+01,1.237941200434006586e-02
2.400000000000000000e+01,1.289052366356975739e-02
2.403999999999999915e+01,1.125330493996787827e-02
2.407999999999999829e+01,1.572951866090835024e-02
2.412000000000000099e+01,1.706599064161846632e-02
2.416000000000000014e+01,1.617151486946723227e-02
2.419999999999999929e+01,1.701173754620756776e-02
2.423999999999999844e+01,1.768645332707182924e-02
2.428000000000000114e+01,6.463959204813720695e-03
2.432000000000000028e+01,1.316921876232719953e-02
2.435999999999999943e+01,1.458667878157179909e-02
2.439999999999999858e+01,1.228607426924270031e-02
2.444000000000000128e+01,9.902580917429903984e-03
2.448000000000000043e+01,1.198016831979687412e-02
2.451999999999999957e+01,1.455319044618121928e-02
2.455999999999999872e+01,1.266458973743108882e-02
2.460000000000000142e+01,1.292377647260468596e-02
2.464000000000000057e+01,1.326531005210273943e-02
2.467999999999999972e+01,1.129327936666260981e-02
2.471999999999999886e+01,1.601300589040038913e-02
2.476000000000000156e+01,9.826935069549033383e-03
2.480000000000000071e+01,1.297638570677132897e-02
2.483999999999999986e+01,8.359509012794927654e-03
2.487999999999999901e+01,1.464788886938268170e-02
2.492000000000000171e+01,1.358302970344140749e-02
2.496000000000000085e+01,1.681401706639204172e-02
2.500000000000000000e+01,1.740097034110399052e-02
2.503999999999999915e+01,1.154347875224648150e-02
2.507999999999999829e+01,1.221250988989303066e-02
2.512000000000000099e+01,9.907036687023669866e-03
2.516000000000000014e+01,1.611090944022797178e-02
2.519999999999999929e+01,1.355704410540202812e-02
2.523999999999999844e+01,1.125076215666171234e-02
2.528000000000000114e+01,1.307509216834435405e-02
2.532000000000000028e+01,7.050478250956326680e-03
2.535999999999999943e+01,1.201373954109203820e-02
2.539999999999999858e+01,8.136645544758257242e-03
2.544000000000000128e+01,1.904783778866505142e-02
2.548000000000000043e+01,8.973883687572495674e-03
2.551999999999999957e+01,1.112706954842171587e-02
2.555999999999999872e+01,9.149105228682572269e-03
2.560000000000000142e+01,1.989398680697050323e-02
2.564000000000000057e+01,1.543695630254538105e-02
2.567999999999999972e+01,8.005422658738796035e-03
2.571999999999999886e+01,1.569264636540305957e-02
2.576000000000000156e+01,8.508428756403370666e-03
2.580000000000000071e+01,7.024559144065553422e-03
2.583999999999999986e+01,1.429788982856913283e-02
2.587999999999999901e+01,6.038838435468345776e-03
2.592000000000000171e+01,1.083310413642037465e-02
2.596000000000000085e+01,1.810563070799996177e-02
2.600000000000000000e+01,1.182859851734001724e-02
2.603999999999999915e+01,1.389567891541907893e-02
2.607999999999999829e+01,5.965758701728019267e-03
2.612000000000000099e+01,1.331983195129252465e-02
2.616000000000000014e+01,1.150308103483538985e-02
2.619999999999999929e+01,8.942504034562068910e-03
2.623999999999999844e+01,5.059777644357425601e-03
2.628000000000000114e+01,1.224754606238451747e-02
2.632000000000000028e+01,1.009925540273971280e-02
2.635999999999999943e+01,1.447749021504913733e-02
2.639999999999999858e+01,9.767519003524509358e-03
2.644000000000000128e+01,1.373213174835519537e-02
2.648000000000000043e+01,1.629197799061065169e-02
2.651999999999999957e+01,1.092026525023904841e-02
2.655999999999999872e+01,1.496669537035070878e-02
2.660000000000000142e+01,9.263978876278741378e-03
2.664000000000000057e+01,1.289678778686492028e-02
2.667999999999999972e+01,1.347247807553666500e-02
2.671999999999999886e+01,4.712110144489570739e-03
2.676000000000000156e+01,7.187473306049696649e-03
2.680000000000000071e+01,1.313251066892836931e-02
2.683999999999999986e+01,9.658872442058423491e-03
2.687999999999999901e+01,1.362055470405542854e-02
2.692000000000000171e+01,1.055947274295219313e-02
2.696000000000000085e+01,1.551203483421704013e-02
2.700000000000000000e+01,9.806657267677756570e-03
2.703999999999999915e+01,9.223306965544632655e-03
2.707999999999999829e+01,1.442292503293933319e-02
2.712000000000000099e+01,2.143986543969944591e-02
2.716000000000000014e+01,8.958780398347599219e-03
2.719999999999999929e+01,1.002672096099334852e-02
2.723999999999999844e+01,1.373816039454829087e-02
2.728000000000000114e+01,1.141824790615030179e-02
2.732000000000000028e+01,8.519746991036518391e-03
2.735999999999999943e+01,8.595215713880994049e-03
2.739999999999999858e+01,1.131418365081598119e-02
2.744000000000000128e+01,6.349447460663569173e-03
2.748000000000000043e+01,1.080285610428663966e-02
2.751999999999999957e+01,1.566908827915992203e-02
2.755999999999999872e+01,1.714773320995261960e-02
2.760000000000000142e+01,8.298910279533987591e-03
2.764000000000000057e+01,1.432099593551398528e-02
2.767999999999999972e+01,1.455958340974152984e-02
2.771999999999999886e+01,1.611978874576950466e-02
2.776000000000000156e+01,1.495334828601974260e-02
2.780000000000000071e+01,1.254737940977164977e-02
2.783999999999999986e+01,1.394155747518349871e-02
2.787999999999999901e+01,1.715305951007171578e-02
2.792000000000000171e+01,2.086000356157909075e-02
2.796000000000000085e+01,1.374377475953834048e-02
2.800000000000000000e+01,4.561841695817966252e-03
2.803999999999999915e+01,1.446431707465441197e-02
2.807999999999999829e+01,1.065200289777618568e-02
2.812000000000000099e+01,9.400571851888292474e-03
2.816000000000000014e+01,1.484090539357533697e-02
2.819999999999999929e+01,1.259753643828595560e-02
2.823999999999999844e+01,7.710140344178400933e-03
2.828000000000000114e+01,5.053157214579264908e-03
2.832000000000000028e+01,0.000000000000000000e+00
2.835999999999999943e+01,9.322047151640271492e-03
2.839999999999999858e+01,4.268364414602036916e-03
2.844000000000000128e+01,1.292894519604776728e-02
2.848000000000000043e+01,1.861502884378403097e-02
2.851999999999999957e+01,1.364317609393809333e-02
2.855999999999999872e+01,6.357767401299671724e-03
2.860000000000000142e+01,9.895005610773896856e-03
2.864000000000000057e+01,1.855427451646692733e-02
2.867999999999999972e+01,6.724109705280540382e-03
2.871999999999999886e+01,1.273909038393458530e-02
2.876000000000000156e+01,1.602742741169373500e-02
2.880000000000000071e+01,1.022756356333782458e-02
2.883999999999999986e+01,1.301967119164030087e-02
2.887999999999999901e+01,8.789018800812951546e-03
2.892000000000000171e+01,9.928250589018979000e-03
2.896000000000000085e+01,8.340839155306695521e-03
2.900000000000000000e+01,1.303210597379205957e-02
2.903999999999999915e+01,5.826173098797557404e-03
2.907999999999999829e+01,1.778726852445382950e-02
2.912000000000000099e+01,1.016772507855278479e-02
2.916000000000000014e+01,1.411438838264093137e-02
2.919999999999999929e+01,1.029473370721973625e-02
2.923999999999999844e+01,6.887906252247286490e-03
2.928000000000000114e+01,1.273399223700795793e-02
2.932000000000000028e+01,5.856702854698090169e-03
2.935999999999999943e+01,5.010239614496351905e-03
2.939999999999999858e+01,1.630830703096614390e-02
2.944000000000000128e+01,1.405682306359348765e-02
2.948000000000000043e+01,1.130937292986784574e-02
2.951999999999999957e+01,6.413604167268809747e-03
2.955999999999999872e+01,7.466044348338672816e-03
2.960000000000000142e+01,1.355789965729908668e-02
2.964000000000000057e+01,1.460981963521955883e-02
2.967999999999999972e+01,7.317099271263970139e-03
2.971999999999999886e+01,6.798764468316361928e-03
2.976000000000000156e+01,1.247649192026161966e-02
2.980000000000000071e+01,1.195763760052718366e-02
2.983999999999999986e+01,1.044711212210285879e-02
2.987999999999999901e+01,1.248888507865218538e-02
2.992000000000000171e+01,1.213448738203387958e-02
2.996000000000000085e+01,1.425835913557464175e-02
3.000000000000000000e+01,1.431653091720155695e-02
3.003999999999999915e+01,1.280470857720465705e-02
3.007999999999999829e+01,6.418187104747856767e-03
3.012000000000000099e+01,1.143263918653619760e-02
3.016000000000000014e+01,1.512495028633401538e-02
3.019999999999999929e+01,1.328162149173160722e-02
3.023999999999999844e+01,1.589938580583427283e-02
3.028000000000000114e+01,8.850629026338072830e-03
3.032000000000000028e+01,1.312022860264778351e-02
3.035999999999999943e+01,1.325868829380687924e-02
3.039999999999999858e+01,1.108359598875790705e-02
3.044000000000000128e+01,9.073480595769775614e-03
3.048000000000000043e+01,1.474654629547428666e-02
3.051999999999999957e+01,8.687650730957148862e-03
3.055999999999999872e+01,1.485590593859145887e-02
3.060000000000000142e+01,1.094455260191049169e-02
3.064000000000000057e+01,9.759323056156236215e-03
3.067999999999999972e+01,5.847453977682256186e-03
3.071999999999999886e+01,1.151897193723584560e-02
3.076000000000000156e+01,1.248102747768147641e-02
3.080000000000000071e+01,1.195570815403002550e-02
3.083999999999999986e+01,1.250416050196623101e-02
3.087999999999999901e+01,3.386093043233246152e-03
3.092000000000000171e+01,9.552029343193631575e-03
3.096000000000000085e+01,1.133897416268572940e-02
3.100000000000000000e+01,1.006880962615744508e-02
3.103999999999999915e+01,1.482947483514050237e-02
3.107999999999999829e+01,1.083241456800456727e-02
3.112000000000000099e+01,7.413420808528779944e-03
3.116000000000000014e+01,1.250378587442382491e-02
3.119999999999999929e+01,7.845014192596429237e-03
3.123999999999999844e+01,1.095204286098842850e-02
3.128000000000000114e+01,1.009316887235360040e-02
3.132000000000000028e+01,1.121686148642383161e-02
3.135999999999999943e+01,1.581023808247852824e-02
3.139999999999999858e+01,6.275744106750756439e-03
3.144000000000000128e+01,1.210787263247120257e-02
3.148000000000000043e+01,1.273483451890464711e-02
3.151999999999999957e+01,1.327892275162506630e-02
3.155999999999999872e+01,7.378580105412259685e-03
3.160000000000000142e+01,1.130947926697136070e-02
3.164000000000000057e+01,7.887153819614261055e-03
3.167999999999999972e+01,8.347601177683090096e-03
3.171999999999999886e+01,1.359961532854683623e-02
3.176000000000000156e+01,1.067222885372248568e-02
3.180000000000000071e+01,1.327996799002570220e-02
3.183999999999999986e+01,1.530912839448371997e-02
3.187999999999999901e+01,1.659447489806027340e-02
3.192000000000000171e+01,5.156451611261775834e-03
3.196000000000000085e+01,5.615111589787624875e-03
3.200000000000000000e+01,6.651839963470520915e-03
3.203999999999999915e+01,1.380201785496337590e-02
3.207999999999999829e+01,1.078997274915182228e-02
3.211999999999999744e+01,1.240426003925674571e-02
3.215999999999999659e+01,1.393567504837365557e-02
3.220000000000000284e+01,5.883190709482608895e-03
3.224000000000000199e+01,1.014047837356201603e-02
3.228000000000000114e+01,7.127160428866068966e-03
3.232000000000000028e+01,1.328414481693137965e-02
3.235999999999999943e+01,9.113671553427824673e-03
3.239999999999999858e+01,8.412884502587026497e-03
3.243999999999999773e+01,9.859901711551603137e-03
3.247999999999999687e+01,6.514842563190978084e-03
3.252000000000000313e+01,7.383028531621074232e-03
3.256000000000000227e+01,1.337325360421079065e-02
3.260000000000000142e+01,2.013523209661831435e-03
3.264000000000000057e+01,1.130794604503083077e-02
3.267999999999999972e+01,5.896177662156896863e-03
3.271999999999999886e+01,6.102154491118614785e-03
3.275999999999999801e+01,1.465225832243218472e-02
3.279999999999999716e+01,4.447907449515295722e-03
3.284000000000000341e+01,4.405271553688182642e-03
3.288000000000000256e+01,7.501852390404378790e-03
3.292000000000000171e+01,1.291147377130138357e-02
3.296000000000000085e+01,1.344640219700112514e-02
3.300000000000000000e+01,8.032608596893732467e-03
3.303999999999999915e+01,1.137603073678435453e-02
3.307999999999999829e+01,1.504967070605813841e-02
3.311999999999999744e+01,2.632387980309957437e-02
3.315999999999999659e+01,2.586613329841013290e-02
3.320000000000000284e+01,1.128052008272735496e-02
3.324000000000000199e+01,1.437482679692402010e-02
3.328000000000000114e+01,1.325538226161221064e-02
3.332000000000000028e+01,1.254877369787128077e-02
3.335999999999999943e+01,1.134620728992287962e-02
3.339999999999999858e+01,1.799206349255668552e-02
3.343999999999999773e+01,5.718231108853474680e-03
3.347999999999999687e+01,6.662967289349149350e-03
3.352000000000000313e+01,1.116000971219212150e-02
3.356000000000000227e+01,1.202162487800435137e-02
3.360000000000000142e+01,1.238728271438101214e-02
3.364000000000000057e+01,1.027416024913855273e-02
3.367999999999999972e+01,1.105240335009836754e-02
3.371999999999999886e+01,1.232610090799798538e-02
3.375999999999999801e+01,1.260813571514858393e-02
3.379999999999999716e+01,1.297253701375066827e-02
3.384000000000000341e+01,1.507165743791529129e-02
3.388000000000000256e+01,1.246132213500649247e-02
3.392000000000000171e+01,1.026382409059826625e-02
3.396000000000000085e+01,1.219695662419629546e-02
3.400000000000000000e+01,6.694251983385928265e-03
3.403999999999999915e+01,1.250991167734575964e-02
3.407999999999999829e+01,1.105496962331942688e-02
3.411999999999999744e+01,1.604395205812255559e-02
3.415999999999999659e+01,1.268830376012491587e-02
3.420000000000000284e+01,9.828110948610867953e-03
3.424000000000000199e+01,1.076807880600711732e-02
3.428000000000000114e+01,6.502886029788380352e-03
3.432000000000000028e+01,7.194500877891580985e-03
3.435999999999999943e+01,5.985660360601841208e-03
3.439999999999999858e+01,1.105550967787723160e-02
3.443999999999999773e+01,1.439013905618191300e-02
3.447999999999999687e+01,6.405903801080016675e-03
3.452000000000000313e+01,1.015312204737104339e-02
3.456000000000000227e+01,8.282092123535388095e-03
3.460000000000000142e+01,1.335069348256771177e-02
3.464000000000000057e+01,9.331106491600960062e-03
3.467999999999999972e+01,4.567711605424774023e-03
3.471999999999999886e+01,9.635565219055015895e-03
3.475999999999999801e+01,7.267583288387856333e-03
3.479999999999999716e+01,9.691174756754832725e-03
3.484000000000000341e+01,9.140282732867452062e-03
3.488000000000000256e+01,5.284436792857856620e-03
3.492000000000000171e+01,8.037752312415623324e-03
3.496000000000000085e+01,7.733966969689200568e-03
3.500000000000000000e+01,7.182080182610564231e-03
3.503999999999999915e+01,1.580050156237461367e-02
3.507999999999999829e+01,9.712736871614615144e-03
3.511999999999999744e+01,9.077487285577579348e-03
3.515999999999999659e+01,6.954872187132837835e-03
3.520000000000000284e+01,1.615062391152245064e-02
3.524000000000000199e+01,1.229254245688497435e-02
3.528000000000000114e+01,1.438268221464643858e-02
3.532000000000000028e+01,1.638995646924980287e-02
3.535999999999999943e+01,1.228327850513804761e-02
3.539999999999999858e+01,9.415617248111348564e-03
3.543999999999999773e+01,7.704355156549323388e-03
3.547999999999999687e+01,6.075463159841996107e-03
3.552000000000000313e+01,1.312117459502641116e-02
3.556000000000000227e+01,1.041775863417770433e-02
3.560000000000000142e+01,1.035785947545901815e-02
3.564000000000000057e+01,1.186744804826047293e-02
3.567999999999999972e+01,1.065040781275651376e-02
3.571999999999999886e+01,1.199426700935274544e-02
3.575999999999999801e+01,7.224174845186984509e-03
3.579999999999999716e+01,9.063246028085539599e-03
3.584000000000000341e+01,1.305012876339128707e-02
3.588000000000000256e+01,1.125353090498413047e-02
3.592000000000000171e+01,8.052186791696032755e-03
3.596000000000000085e+01,1.319497654438498563e-02
3.600000000000000000e+01,1.238905070591542201e-02
3.603999999999999915e+01,1.174811379085077823e-02
3.607999999999999829e+01,1.193310690431266183e-02
3.611999999999999744e+01,8.647913506475540454e-03
3.615999999999999659e+01,1.643323610831296661e-02
3.620000000000000284e+01,2.107884288010515236e-02
3.624000000000000199e+01,1.473605930314779086e-02
3.628000000000000114e+01,1.549814586729320910e-02
3.632000000000000028e+01,1.683831009248971250e-02
3.635999999999999943e+01,1.636064086947476917e-02
3.639999999999999858e+01,1.001687454067025015e-02
3.643999999999999773e+01,8.299449873676242873e-03
3.647999999999999687e+01,8.812455759230236260e-03
3.652000000000000313e+01,1.411703873301691815e-02
3.656000000000000227e+01,1.388599545385842821e-02
3.660000000000000142e+01,1.497658908306025161e-02
3.664000000000000057e+01,1.350579121787581077e-02
3.667999999999999972e+01,1.451327721646330018e-02
3.671999999999999886e+01,1.213319561809731058e-02
3.675999999999999801e+01,6.778634645652061724e-03
3.679999999999999716e+01,1.406432596650632715e-02
3.684000000000000341e+01,2.085406690734552607e-02
3.688000000000000256e+01,1.293762563844988445e-02
3.692000000000000171e+01,1.039108570765054709e-02
3.696000000000000085e+01,1.453632923939544158e-02
3.700000000000000000e+01,1.314594746194363596e-02
3.703999999999999915e+01,1.629929100581621951e-02
3.707999999999999829e+01,2.283971317298759060e-02
3.711999999999999744e+01,1.673939433059058388e-02
3.715999999999999659e+01,1.890059430061432483e-02
3.720000000000000284e+01,1.593925752749683275e-02
3.724000000000000199e+01,2.024802820940128575e-02
3.728000000000000114e+01,2.059090910357613824e-02
3.732000000000000028e+01,1.779407656997455262e-02
3.735999999999999943e+01,2.507635108091756798e-02
3.739999999999999858e+01,2.244426688758036081e-02
3.743999999999999773e+01,2.080335089464193862e-02
3.747999999999999687e+01,2.321045540228171972e-02
3.752000000000000313e+01,2.429543471426892295e-02
3.756000000000000227e+01,2.984152283550386975e-02
3.760000000000000142e+01,2.720822285716665082e-02
3.764000000000000057e+01,3.300167797562553879e-02
3.767999999999999972e+01,3.235071534183441011e-02
3.771999999999999886e+01,3.872200831036161361e-02
3.775999999999999801e+01,4.434949998991865455e-02
3.779999999999999716e+01,4.890271995663766913e-02
3.784000000000000341e+01,5.089455100282987143e-02
3.788000000000000256e+01,6.098266715092690027e-02
3.792000000000000171e+01,7.454048135144004938e-02
3.796000000000000085e+01,9.008087639668052593e-02
3.800000000000000000e+01,1.085126462740172854e-01
3.803999999999999915e+01,1.413196412800398483e-01
3.807999999999999829e+01,1.934589191454906265e-01
3.811999999999999744e+01,2.815366230667378233e-01
3.815999999999999659e+01,4.651200624963581776e-01
3.820000000000000284e+01,7.680857318433089720e-01
3.824000000000000199e+01,1.000000000000000000e+00
3.828000000000000114e+01,9.985192291802076348e-01
3.832000000000000028e+01,8.865784490644162963e-01
3.835999999999999943e+01,7.141613243249717025e-01
3.839999999999999858e+01,4.756498563833955195e-01
3.843999999999999773e+01,2.997623088392770141e-01
3.847999999999999687e+01,1.985608553811162302e-01
3.852000000000000313e+01,1.454426200668254843e-01
3.856000000000000227e+01,1.167789615412854476e-01
3.860000000000000142e+01,9.216332591859244250e-02
3.864000000000000057e+01,7.448733024409423531e-02
3.867999999999999972e+01,6.118982815369677919e-02
3.871999999999999886e+01,5.516243669274791678e-02
3.875999999999999801e+01,4.814339320546438816e-02
3.879999999999999716e+01,4.228075609045194722e-02
3.884000000000000341e+01,4.418393562676870695e-02
3.888000000000000256e+01,3.939484710244756105e-02
3.892000000000000171e+01,3.138343095474682709e-02
3.896000000000000085e+01,2.783312661912983738e-02
3.900000000000000000e+01,2.932225757330240642e-02
3.903999999999999915e+01,2.312770928102890131e-02
3.907999999999999829e+01,2.560777205643014962e-02
3.911999999999999744e+01,2.436980187293365588e-02
3.915999999999999659e+01,2.519703273543969987e-02
3.920000000000000284e+01,1.809273181243356912e-02
3.924000000000000199e+01,2.371130604365695449e-02
3.928000000000000114e+01,2.214190730770086712e-02
3.932000000000000028e+01,2.263770996092857868e-02
3.935999999999999943e+01,2.015903881677249751e-02
3.939999999999999858e+01,1.982818686080663542e-02
3.943999999999999773e+01,1.743165518062125482e-02
3.947999999999999687e+01,2.065288321167972618e-02
3.952000000000000313e+01,1.676875641774637146e-02
3.956000000000000227e+01,2.007212442754744211e-02
3.960000000000000142e+01,1.833557846934197669e-02
3.964000000000000057e+01,1.519429423521984068e-02
3.967999999999999972e+01,1.197015384962892524e-02
3.971999999999999886e+01,1.444639131746954311e-02
3.975999999999999801e+01,1.560050839419521024e-02
3.979999999999999716e+01,1.749794585099591349e-02
3.984000000000000341e+01,1.377714646265145240e-02
3.988000000000000256e+01,1.311296119361464972e-02
3.992000000000000171e+01,1.021786197507050520e-02
3.996000000000000085e+01,1.591475808428230443e-02
4.000000000000000000e+01,1.384535937871976020e-02
4.003999999999999915e+01,1.227142868575678905e-02
4.007999999999999829e+01,1.383673016849381460e-02
4.011999999999999744e+01,1.209708897429489713e-02
4.015999999999999659e+01,1.473594453862339497e-02
4.020000000000000284e+01,1.357415183311185686e-02
4.024000000000000199e+01,1.150332790310807513e-02
4.028000000000000114e+01,7.118973168339057765e-03
4.032000000000000028e+01,1.479655488494675299e-02
4.035999999999999943e+01,1.297287238320647684e-02
4.039999999999999858e+01,1.313177595970772479e-02
4.043999999999999773e+01,1.031620805529869823e-02
4.047999999999999687e+01,1.410981353600581321e-02
4.052000000000000313e+01,1.294612464941440229e-02
4.056000000000000227e+01,1.558260998739307950e-02
4.060000000000000142e+01,1.565771232472166347e-02
4.064000000000000057e+01,1.077552055213762579e-02
4.067999999999999972e+01,8.041150713193926172e-03
4.071999999999999886e+01,1.307260155795926873e-02
4.075999999999999801e+01,1.124655311963491076e-02
4.079999999999999716e+01,1.057691534334738621e-02
4.084000000000000341e+01,1.527718731309703551e-02
4.088000000000000256e+01,7.832432102532682280e-03
4.092000000000000171e+01,1.228437937544320062e-02
4.096000000000000085e+01,9.217886774914332143e-03
4.100000000000000000e+01,6.894717128319924858e-03
4.103999999999999915e+01,1.060239867606557924e-02
4.107999999999999829e+01,1.100513960596284646e-02
4.111999999999999744e+01,6.367969828075525050e-03
4.115999999999999659e+01,1.180991524528769189e-02
4.120000000000000284e+01,8.907245029674501838e-03
4.124000000000000199e+01,1.236589694704108046e-02
4.128000000000000114e+01,1.004107985306228711e-02
4.132000000000000028e+01,1.209476200567504746e-02
4.135999999999999943e+01,1.084350414100659042e-02
4.139999999999999858e+01,1.190530500912569643e-02
4.143999999999999773e+01,1.412351791200664938e-02
4.147999999999999687e+01,9.401615448697815333e-03
4.152000000000000313e+01,1.194982962050956769e-02
4.156000000000000227e+01,1.309330963457980279e-02
4.160000000000000142e+01,1.109708540097229315e-02
4.164000000000000057e+01,6.622098024808646330e-03
4.167999999999999972e+01,1.610925544762553327e-02
4.171999999999999886e+01,1.171641731609848573e-02
4.175999999999999801e+01,1.401537294255347441e-02
4.179999999999999716e+01,1.077871355524953091e-02
4.184000000000000341e+01,7.954908413918502022e-03
4.188000000000000256e+01,6.122280996266235217e-03
4.192000000000000171e+01,1.131191818944037378e-02
4.196000000000000085e+01,9.478823418552698513e-03
4.200000000000000000e+01,7.480259844908729305e-03
4.203999999999999915e+01,1.316490215880341055e-02
4.207999999999999829e+01,1.290084192242740846e-02
4.211999999999999744e+01,1.106681347461270677e-02
4.215999999999999659e+01,1.030658097845976728e-02
4.220000000000000284e+01,1.169417367616907774e-02
4.224000000000000199e+01,1.572529741803068912e-02
4.228000000000000114e+01,1.108133733387729920e-02
4.232000000000000028e+01,1.321178983625609718e-02
4.235999999999999943e+01,1.947289093365727961e-02
4.239999999999999858e+01,1.367158573838220259e-02
4.243999999999999773e+01,1.737107509174619022e-02
4.247999999999999687e+01,1.322165732222959841e-02
4.252000000000000313e+01,1.105483017810622755e-02
4.256000000000000227e+01,1.244032866607131665e-02
4.260000000000000142e+01,1.217324234472568281e-02
4.264000000000000057e+01,1.297995300458557912e-02
4.267999999999999972e+01,1.419951971212002340e-02
4.271999999999999886e+01,1.384911949514548019e-02
4.275999999999999801e+01,9.945929381478396669e-03
4.279999999999999716e+01,1.843515154816074975e-02
4.284000000000000341e+01,1.263129242568906789e-02
4.288000000000000256e+01,1.500634675695233095e-02
4.292000000000000171e+01,1.614190510234635167e-02
4.296000000000000085e+01,1.653367331216114289e-02
4.300000000000000000e+01,1.337265214005528211e-02
4.303999999999999915e+01,1.500322204081842338e-02
4.307999999999999829e+01,1.853376614069341885e-02
4.311999999999999744e+01,1.586775703872858254e-02
4.315999999999999659e+01,1.716716299286085226e-02
4.320000000000000284e+01,2.127533730506456916e-02
4.324000000000000199e+01,2.736610378697716325e-02
4.328000000000000114e+01,3.205213980034673366e-02
4.332000000000000028e+01,3.830768001793690564e-02
4.335999999999999943e+01,5.100716454307432923e-02
4.339999999999999858e+01,5.883197850559167968e-02
4.343999999999999773e+01,4.955471313374805453e-02
4.347999999999999687e+01,5.291771438302152880e-02
4.352000000000000313e+01,4.430092936930331987e-02
4.356000000000000227e+01,4.394567689525623322e-02
4.360000000000000142e+01,3.351084376037118812e-02
4.364000000000000057e+01,3.034613180775842800e-02
4.367999999999999972e+01,2.941186585085037858e-02
4.371999999999999886e+01,2.575098833049523778e-02
4.375999999999999801e+01,2.803835021114575374e-02
4.379999999999999716e+01,3.280401122713427764e-02
4.384000000000000341e+01,3.096003244851974062e-02
4.388000000000000256e+01,3.448596993638632091e-02
4.392000000000000171e+01,2.908897423359844622e-02
4.396000000000000085e+01,3.996742178776602206e-02
4.400000000000000000e+01,4.084890716646458197e-02
4.403999999999999915e+01,4.032566370673108802e-02
4.407999999999999829e+01,4.740301288268151947e-02
4.411999999999999744e+01,5.200160423538534998e-02
4.415999999999999659e+01,6.742287586457935966e-02
4.420000000000000284e+01,7.251671523761778204e-02
4.424000000000000199e+01,9.223364591986313310e-02
4.428000000000000114e+01,1.102153777687852054e-01
4.432000000000000028e+01,1.464553767047994393e-01
4.435999999999999943e+01,1.947573207575171716e-01
4.439999999999999858e+01,2.409109780972186754e-01
4.443999999999999773e+01,2.828509081243046341e-01
4.447999999999999687e+01,2.785247385699354261e-01
4.452000000000000313e+01,2.685803422084728775e-01
4.456000000000000227e+01,2.370725170344657740e-01
4.460000000000000142e+01,2.034990232038347835e-01
4.464000000000000057e+01,1.591023922963018811e-01
4.467999999999999972e+01,1.204887675082354087e-01
4.471999999999999886e+01,9.773749947015639150e-02
4.475999999999999801e+01,8.093447297796596551e-02
4.479999999999999716e+01,6.181792537588082920e-02
4.484000000000000341e+01,4.840176660902754252e-02
4.488000000000000256e+01,4.878252424994838216e-02
4.492000000000000171e+01,3.313523488734008982e-02
4.496000000000000085e+01,3.698547839578574664e-02
4.500000000000000000e+01,3.373037883319774527e-02
4.503999999999999915e+01,2.650940612717122072e-02
4.507999999999999829e+01,2.812829261294828853e-02
4.511999999999999744e+01,2.809459969451946412e-02
4.515999999999999659e+01,2.103818167565402880e-02
4.520000000000000284e+01,1.869074173518881984e-02
4.524000000000000199e+01,1.882160401869296951e-02
4.528000000000000114e+01,1.771297537825142557e-02
4.532000000000000028e+01,1.594317929156999214e-02
4.535999999999999943e+01,1.863450874422272266e-02
4.539999999999999858e+01,1.339431970963704879e-02
4.543999999999999773e+01,2.079440150013892735e-02
4.547999999999999687e+01,1.869323005409313440e-02
4.552000000000000313e+01,1.601350921819983536e-02
4.556000000000000227e+01,1.432497399915423630e-02
4.560000000000000142e+01,1.693232957938312772e-02
4.564000000000000057e+01,1.185602006939286308e-02
4.567999999999999972e+01,1.074513102060455950e-02
4.571999999999999886e+01,1.500416218488185779e-02
4.575999999999999801e+01,1.537993937745210649e-02
4.579999999999999716e+01,1.534240303557363010e-02
4.584000000000000341e+01,1.216517154032079745e-02
4.588000000000000256e+01,1.493618399322533749e-02
4.592000000000000171e+01,1.217159026928838622e-02
4.596000000000000085e+01,1.750329897790984732e-02
4.600000000000000000e+01,1.267281454599646431e-02
4.603999999999999915e+01,9.494457779800844974e-03
4.607999999999999829e+01,1.201649250849184253e-02
4.611999999999999744e+01,1.106836217471253610e-02
4.615999999999999659e+01,6.897919746505620960e-03
4.620000000000000284e+01,1.181519179461844836e-02
4.624000000000000199e+01,8.718329529778724718e-03
4.628000000000000114e+01,1.231327071779159989e-02
4.632000000000000028e+01,1.053784184174769330e-02
4.635999999999999943e+01,1.000145318070515786e-02
4.639999999999999858e+01,9.712693291469896503e-03
4.643999999999999773e+01,7.523503947026772935e-03
4.647999999999999687e+01,8.556178132949853604e-03
4.652000000000000313e+01,6.531776251434706811e-03
4.656000000000000227e+01,6.407356033223789507e-03
4.660000000000000142e+01,9.174329093101868393e-03
4.664000000000000057e+01,1.185846092989596007e-02
4.667999999999999972e+01,1.140289941501730284e-02
4.671999999999999886e+01,4.502939537629805332e-03
4.675999999999999801e+01,9.334459415001591931e-03
4.679999999999999716e+01,1.044796280617609971e-02
4.684000000000000341e+01,1.131339014841161242e-02
4.688000000000000256e+01,1.259168254682974976e-02
4.692000000000000171e+01,9.738870579357610663e-03
4.696000000000000085e+01,9.942687916963847267e-03
4.700000000000000000e+01,6.511106824765171969e-03
4.703999999999999915e+01,9.523477933282703534e-03
4.707999999999999829e+01,1.162683248830685342e-02
4.711999999999999744e+01,8.525053950012096218e-03
4.715999999999999659e+01,1.418052143746149733e-02
4.720000000000000284e+01,1.016950412273020035e-02
4.724000000000000199e+01,1.194149841836541701e-02
4.728000000000000114e+01,9.417153865436605348e-03
4.732000000000000028e+01,8.627557351091462434e-03
4.735999999999999943e+01,9.737944215956835861e-03
4.739999999999999858e+01,9.443609449196645536e-03
4.743999999999999773e+01,9.479523312337702692e-03
4.747999999999999687e+01,1.133280318465944118e-02
4.752000000000000313e+01,1.178136168274155834e-02
4.756000000000000227e+01,9.420699226311002317e-03
4.760000000000000142e+01,8.877403036447089127e-03
4.764000000000000057e+01,1.163859049242927692e-02
4.767999999999999972e+01,1.109485148679000173e-02
4.771999999999999886e+01,6.833097968245702147e-03
4.775999999999999801e+01,8.189121920575435920e-03
4.779999999999999716e+01,1.136251256844837514e-02
4.784000000000000341e+01,1.057003607855485673e-02
4.788000000000000256e+01,5.811692536690190800e-03
4.792000000000000171e+01,5.184009515396680035e-03
4.796000000000000085e+01,1.091766304069582798e-02
4.800000000000000000e+01,1.020692094893623121e-02
4.803999999999999915e+01,7.513135206365604071e-03
4.807999999999999829e+01,9.032627954963162037e-03
4.811999999999999744e+01,7.081959930856180849e-03
4.815999999999999659e+01,1.190571701939737055e-02
4.820000000000000284e+01,1.045031417468794861e-02
4.824000000000000199e+01,6.681397598480937929e-03
4.828000000000000114e+01,7.125759942418676690e-03
4.832000000000000028e+01,1.037890162622816595e-02
4.835999999999999943e+01,8.922618640868199003e-03
4.839999999999999858e+01,5.731145659102402853e-03
4.843999999999999773e+01,1.038812754695721437e-02
4.847999999999999687e+01,8.518097219881228324e-03
4.852000000000000313e+01,9.622081916485135389e-03
4.856000000000000227e+01,1.014752374368546074e-02
4.860000000000000142e+01,4.972129887498792818e-03
4.864000000000000057e+01,1.086727879912495476e-02
4.867999999999999972e+01,1.073112168929160615e-02
4.871999999999999886e+01,9.438098661325444727e-03
4.875999999999999801e+01,7.153445055853354523e-03
4.879999999999999716e+01,7.925424702044122846e-03
4.884000000000000341e+01,1.043215564704050823e-02
4.888000000000000256e+01,1.252557966382737871e-02
4.892000000000000171e+01,8.752933428758248591e-03
4.896000000000000085e+01,8.119538415949036428e-03
4.900000000000000000e+01,1.128633573052132549e-02
4.903999999999999915e+01,1.263532679399702492e-02
4.907999999999999829e+01,1.076201202610309847e-02
4.911999999999999744e+01,1.111915492207670060e-02
4.915999999999999659e+01,1.172393250973430452e-02
4.920000000000000284e+01,1.117184520880284797e-02
4.924000000000000199e+01,4.918923597209468035e-03
4.928000000000000114e+01,6.349223402106720510e-03
4.932000000000000028e+01,9.266422653106013568e-03
4.935999999999999943e+01,4.417347165434667988e-03
4.939999999999999858e+01,1.063881607568712556e-02
4.943999999999999773e+01,1.016803957526479785e-02
4.947999999999999687e+01,1.093630998187838758e-02
4.952000000000000313e+01,1.302624500873903954e-02
4.956000000000000227e+01,1.296790439017904764e-02
4.960000000000000142e+01,1.530525771986193315e-02
4.964000000000000057e+01,9.545866401778261776e-03
4.967999999999999972e+01,1.138707973072258274e-02
4.971999999999999886e+01,7.444842151132965644e-03
4.975999999999999801e+01,1.002918023375677127e-02
4.979999999999999716e+01,1.005215504865288913e-02
4.984000000000000341e+01,1.164464805240593252e-02
4.988000000000000256e+01,1.488927695822697857e-02
4.992000000000000171e+01,1.193736724741173948e-02
4.996000000000000085e+01,1.377706345205500713e-02
5.000000000000000000e+01,1.024639748581044306e-02
5.003999999999999915e+01,9.937602685715087383e-03
5.007999999999999829e+01,1.408994354880103127e-02
5.011999999999999744e+01,1.022815842107997059e-02
5.015999999999999659e+01,1.041442099105191824e-02
5.020000000000000284e+01,1.266590828653333181e-02
5.024000000000000199e+01,1.029059257264088728e-02
5.028000000000000114e+01,1.526802991045880797e-02
5.032000000000000028e+01,1.148778303970423957e-02
5.035999999999999943e+01,1.373840735359809981e-02
5.039999999999999858e+01,1.260149341253613726e-02
5.043999999999999773e+01,1.865209761153424281e-02
5.047999999999999687e+01,1.635810608222004053e-02
5.052000000000000313e+01,2.257351490320907983e-02
5.056000000000000227e+01,2.639279734141302541e-02
5.060000000000000142e+01,2.459386601341148962e-02
5.064000000000000057e+01,1.775504439691034247e-02
5.067999999999999972e+01,2.016918212063577298e-02
5.071999999999999886e+01,1.746081210003643316e-02
5.075999999999999801e+01,1.376081579169689297e-02
5.079999999999999716e+01,1.344792753444909970e-02
5.084000000000000341e+01,1.288697180779383236e-02
5.088000000000000256e+01,1.860474126337341438e-02
5.092000000000000171e+01,1.399509287641031823e-02
5.096000000000000085e+01,9.385230159673029621e-03
5.100000000000000000e+01,1.336738645019854704e-02
5.103999999999999915e+01,1.338368246658280282e-02
5.107999999999999829e+01,1.315191152833146242e-02
5.111999999999999744e+01,1.250683846640824638e-02
5.115999999999999659e+01,7.565434878066595349e-03
5.120000000000000284e+01,1.063772733405379811e-02
5.124000000000000199e+01,8.587513161055323335e-03
5.128000000000000114e+01,1.306387791049225602e-02
5.132000000000000028e+01,6.717119910844907005e-03
5.135999999999999943e+01,1.003641084702342270e-02
5.139999999999999858e+01,8.563666007060637825e-03
5.143999999999999773e+01,1.262608890372507800e-02
5.147999999999999687e+01,9.335329745949512079e-03
5.152000000000000313e+01,9.844768320660295460e-03
5.156000000000000227e+01,7.462376892974120594e-03
5.160000000000000142e+01,9.293271506443852650e-03
5.164000000000000057e+01,1.013254171967030784e-02
5.167999999999999972e+01,1.064112863777509285e-02
5.171999999999999886e+01,1.106688522880091251e-02
5.175999999999999801e+01,1.066625293180095864e-02
5.179999999999999716e+01,1.406581896785457676e-02
5.184000000000000341e+01,1.440832034724686198e-02
5.188000000000000256e+01,1.086758088161525818e-02
5.192000000000000171e+01,1.046609898709687306e-02
5.196000000000000085e+01,8.825140496450398567e-03
5.200000000000000000e+01,1.148008653232876486e-02
5.203999999999999915e+01,8.351586635801454273e-03
5.207999999999999829e+01,9.849461947052749050e-03
5.211999999999999744e+01,6.637920653894228973e-03
5.215999999999999659e+01,1.119222458190478019e-02
5.220000000000000284e+01,1.095449444968033675e-02
5.224000000000000199e+01,7.990171028410894202e-03
5.228000000000000114e+01,9.652223243896621355e-03
5.232000000000000028e+01,7.844123695185847844e-03
5.235999999999999943e+01,1.041454707257355276e-02
5.239999999999999858e+01,8.027701563871275994e-03
5.243999999999999773e+01,8.036556094879226259e-03
5.247999999999999687e+01,1.118466939813478854e-02
5.252000000000000313e+01,9.375514072686354922e-03
5.256000000000000227e+01,1.186226447489712420e-02
5.260000000000000142e+01,8.235099636173503698e-03
5.264000000000000057e+01,1.386089834164690171e-02
5.267999999999999972e+01,9.076665352155661656e-03
5.271999999999999886e+01,1.040592623665221629e-02
5.275999999999999801e+01,1.033047698609538753e-02
5.279999999999999716e+01,1.232025803774350857e-02
5.284000000000000341e+01,9.352771147050095366e-03
5.288000000000000256e+01,9.359308631725878416e-03
5.292000000000000171e+01,1.316604685172404268e-02
5.296000000000000085e+01,1.052840009328248269e-02
5.300000000000000000e+01,7.229602361301492967e-03
5.303999999999999915e+01,1.078785783641292295e-02
5.307999999999999829e+01,1.228046284350718317e-02
5.311999999999999744e+01,1.055077068455861043e-02
5.315999999999999659e+01,8.738251287162416073e-03
5.320000000000000284e+01,9.569286441834764720e-03
5.324000000000000199e+01,7.921583334592311593e-03
5.328000000000000114e+01,1.073502275415636267e-02
5.332000000000000028e+01,1.082187120114888775e-02
5.335999999999999943e+01,1.057803995642293479e-02
5.339999999999999858e+01,1.264729318307901938e-02
5.343999999999999773e+01,1.000713263657065574e-02
5.347999999999999687e+01,9.845291987866496008e-03
5.352000000000000313e+01,1.298794759691972514e-02
5.356000000000000227e+01,1.447804190457852719e-02
5.360000000000000142e+01,1.134134040966992829e-02
5.364000000000000057e+01,9.030606607431063831e-03
5.367999999999999972e+01,1.208981009152550364e-02
5.371999999999999886e+01,1.060483565785428836e-02
5.375999999999999801e+01,1.201126985963340069e-02
5.379999999999999716e+01,1.383058396018460937e-02
5.384000000000000341e+01,1.358424922282965887e-02
5.388000000000000256e+01,1.118964810594807145e-02
5.392000000000000171e+01,1.201692647736122763e-02
5.396000000000000085e+01,1.325708509072776910e-02
5.400000000000000000e+01,1.003568401431159489e-02
5.403999999999999915e+01,1.177113285930761997e-02
5.407999999999999829e+01,9.788580832853657418e-03
5.411999999999999744e+01,1.003649719468160950e-02
5.415999999999999659e+01,7.392589130808051648e-03
5.420000000000000284e+01,1.193620727175415119e-02
5.424000000000000199e+01,1.234873674735263369e-02
5.428000000000000114e+01,1.309152952385116836e-02
5.432000000000000028e+01,1.218176262906625965e-02
5.435999999999999943e+01,9.867289031040574199e-03
5.439999999999999858e+01,1.077469595085340896e-02
5.443999999999999773e+01,8.872896672947723495e-03
5.447999999999999687e+01,1.663715302290247680e-02
5.452000000000000313e+01,1.068667652784568815e-02
5.456000000000000227e+01,8.453786658303368007e-03
5.460000000000000142e+01,1.175607130321815706e-02
5.464000000000000057e+01,1.233176780680680408e-02
5.467999999999999972e+01,9.437317608122532120e-03
5.471999999999999886e+01,1.034307200554982278e-02
5.475999999999999801e+01,9.513650048026350489e-03
5.479999999999999716e+01,1.430202066135231181e-02
5.484000000000000341e+01,8.597746585244845502e-03
5.488000000000000256e+01,8.180794741914356252e-03
5.492000000000000171e+01,9.663842493108906750e-03
5.496000000000000085e+01,1.246856653271330960e-02
5.500000000000000000e+01,9.407233361349553666e-03
5.503999999999999915e+01,1.039395835470724276e-02
5.507999999999999829e+01,8.984566660150362580e-03
5.511999999999999744e+01,1.129276279224239801e-02
5.515999999999999659e+01,1.517048852396824486e-02
5.520000000000000284e+01,8.307717456171152121e-03
5.524000000000000199e+01,1.011959211735602958e-02
5.528000000000000114e+01,5.239233893982131636e-03
5.532000000000000028e+01,1.085110937432809050e-02
5.535999999999999943e+01,1.348854537541622350e-02
5.539999999999999858e+01,9.433748749331477557e-03
5.543999999999999773e+01,1.223601047805803615e-02
5.547999999999999687e+01,1.148550959300218520e-02
5.552000000000000313e+01,6.190834650969843228e-03
5.556000000000000227e+01,1.403215800473443797e-02
5.560000000000000142e+01,8.489221339624090923e-03
5.564000000000000057e+01,9.555490576054238849e-03
5.567999999999999972e+01,1.037370272431002022e-02
5.571999999999999886e+01,9.208887694455204082e-03
5.575999999999999801e+01,1.225736762846904755e-02
5.579999999999999716e+01,1.076167410607359667e-02
5.584000000000000341e+01,1.141383503374281821e-02
5.588000000000000256e+01,1.355290947794568837e-02
5.592000000000000171e+01,9.991163939304218561e-03
5.596000000000000085e+01,1.047747853867643866e-02
5.600000000000000000e+01,1.335950081354189516e-02
5.603999999999999915e+01,1.070593861778051416e-02
5.607999999999999829e+01,1.705749446236591235e-02
5.611999999999999744e+01,1.192499683397850452e-02
5.615999999999999659e+01,1.174935367415499456e-02
5.620000000000000284e+01,1.322585997205926768e-02
5.624000000000000199e+01,8.918929346065902417e-03
5.628000000000000114e+01,1.022979446534864369e-02
5.632000000000000028e+01,9.888104203113676910e-03
5.635999999999999943e+01,1.119856374178777522e-02
5.639999999999999858e+01,1.160002671727683107e-02
5.643999999999999773e+01,1.439719831200762627e-02
5.647999999999999687e+01,9.510728067049634485e-03
5.652000000000000313e+01,1.247273002236583793e-02
5.656000000000000227e+01,1.502144152217300965e-02
5.660000000000000142e+01,1.228242263473513195e-02
5.664000000000000057e+01,1.177387754068395798e-02
5.667999999999999972e+01,1.258701242424122187e-02
5.671999999999999886e+01,1.422612160670746681e-02
5.675999999999999801e+01,1.247770617567300032e-02
5.679999999999999716e+01,1.072908894098028101e-02
5.684000000000000341e+01,1.170665169314560015e-02
5.688000000000000256e+01,1.268401281324334391e-02
5.692000000000000171e+01,1.110002593717944810e-02
5.696000000000000085e+01,1.042463150221223205e-02
5.700000000000000000e+01,1.024474145705810309e-02
5.703999999999999915e+01,1.072559114234391923e-02
5.707999999999999829e+01,1.013221046813351199e-02
5.711999999999999744e+01,1.358689242000089836e-02
5.715999999999999659e+01,9.771022127778805633e-03
5.720000000000000284e+01,1.066415565255136866e-02
5.724000000000000199e+01,1.287897035606677155e-02
5.728000000000000114e+01,1.269767309040997078e-02
5.732000000000000028e+01,1.045073445103937571e-02
5.735999999999999943e+01,1.010380063970805174e-02
5.739999999999999858e+01,1.190472462445866901e-02
5.743999999999999773e+01,1.056597833647623767e-02
5.747999999999999687e+01,1.054891374200852064e-02
5.752000000000000313e+01,1.515823602348226329e-02
5.756000000000000227e+01,9.440154704435561178e-03
5.760000000000000142e+01,1.198363603921549086e-02
5.764000000000000057e+01,1.130482990282317794e-02
5.767999999999999972e+01,9.799647576111746722e-03
5.771999999999999886e+01,1.069017661409209057e-02
5.775999999999999801e+01,1.191097641716491913e-02
5.779999999999999716e+01,1.156184164056249866e-02
5.784000000000000341e+01,1.426935950536410008e-02
5.788000000000000256e+01,1.003679718005500050e-02
5.792000000000000171e+01,1.249606327403514003e-02
5.796000000000000085e+01,1.148518970095817847e-02
5.800000000000000000e+01,1.452238064145595746e-02
5.803999999999999915e+01,1.334587343974519627e-02
5.807999999999999829e+01,1.563910753128932435e-02
5.811999999999999744e+01,1.462743755378919513e-02
5.815999999999999659e+01,1.006301071079277257e-02
5.820000000000000284e+01,1.433847120046320874e-02
5.824000000000000199e+01,1.018673497869663179e-02
5.828000000000000114e+01,1.223112218388238900e-02
5.832000000000000028e+01,1.047489998450579392e-02
5.835999999999999943e+01,1.351030171760379990e-02
5.839999999999999858e+01,9.688242003345998513e-03
5.843999999999999773e+01,1.396251148978485367e-02
5.847999999999999687e+01,1.137931970045854245e-02
5.852000000000000313e+01,1.218325252071974021e-02
5.856000000000000227e+01,1.282175205748500857e-02
5.860000000000000142e+01,1.395575941587598456e-02
5.864000000000000057e+01,1.095868754640390817e-02
5.867999999999999972e+01,1.068779961037434438e-02
5.871999999999999886e+01,1.281262518391946235e-02
5.875999999999999801e+01,1.345013586429264635e-02
5.879999999999999716e+01,1.359174326627864658e-02
5.884000000000000341e+01,1.232865357409915034e-02
5.888000000000000256e+01,1.304818959759665095e-02
5.892000000000000171e+01,1.368491073717183724e-02
5.896000000000000085e+01,1.341264080446216353e-02
5.900000000000000000e+01,1.314017378683661995e-02
5.903999999999999915e+01,1.460247994582197090e-02
5.907999999999999829e+01,1.185109019327699846e-02
5.911999999999999744e+01,1.430441414039656557e-02
5.915999999999999659e+01,1.105692505409228837e-02
5.920000000000000284e+01,1.210535593746953249e-02
5.924000000000000199e+01,1.356667838778170126e-02
5.928000000000000114e+01,1.362330468767681234e-02
5.932000000000000028e+01,1.533208713733424586e-02
5.935999999999999943e+01,1.109220410029707234e-02
5.939999999999999858e+01,1.147871197158115142e-02
5.943999999999999773e+01,1.128670030978727590e-02
5.947999999999999687e+01,1.266422751352121699e-02
5.952000000000000313e+01,1.131517704295744407e-02
5.956000000000000227e+01,1.327063578524357960e-02
5.960000000000000142e+01,1.481281059246462167e-02
5.964000000000000057e+01,1.346317272794233730e-02
5.967999999999999972e+01,1.219595686444025807e-02
5.971999999999999886e+01,1.258089800865366641e-02
5.975999999999999801e+01,1.560940777536728302e-02
5.979999999999999716e+01,1.252401774430321468e-02
5.984000000000000341e+01,1.175172599766681654e-02
5.988000000000000256e+01,1.585367907114282673e-02
5.992000000000000171e+01,1.095011564467455144e-02
5.996000000000000085e+01,1.315147315013548250e-02
