2.003999999999999915e+01,2.347689719427912408e-02
2.007999999999999829e+01,2.268266825508051879e-02
2.012000000000000099e+01,1.829602551665049370e-02
2.016000000000000014e+01,2.861611959120420948e-02
2.019999999999999929e+01,2.669941377167822302e-02
2.023999999999999844e+01,1.153552462831272489e-02
2.028000000000000114e+01,2.690769711941818493e-02
2.032000000000000028e+01,1.151938630046334816e-02
2.035999999999999943e+01,2.475863498926202111e-02
2.039999999999999858e+01,2.104596083358846459e-02
2.044000000000000128e+01,1.127104208071402595e-02
2.048000000000000043e+01,1.799908918933688581e-02
2.051999999999999957e+01,2.517624453420509723e-02
2.055999999999999872e+01,2.483171125182357178e-02
2.060000000000000142e+01,2.740610865825488657e-02
2.064000000000000057e+01,2.245881576835609406e-02
2.067999999999999972e+01,2.233895235582704364e-02
2.071999999999999886e+01,2.053516308360079506e-02
2.076000000000000156e+01,2.456918421488353543e-02
2.080000000000000071e+01,3.219572025909134966e-02
2.083999999999999986e+01,2.893261985020270308e-02
2.087999999999999901e+01,3.218091573801550032e-02
2.092000000000000171e+01,3.374528159343041095e-02
2.096000000000000085e+01,2.834927414020461944e-02
2.100000000000000000e+01,3.025051360967508790e-02
2.103999999999999915e+01,5.078773718032180556e-02
2.107999999999999829e+01,3.461443074612932658e-02
2.112000000000000099e+01,4.538469697139426579e-02
2.116000000000000014e+01,4.414267273921951978e-02
2.119999999999999929e+01,5.581112789714909317e-02
2.123999999999999844e+01,6.590791107916141311e-02
2.128000000000000114e+01,7.858681656439715779e-02
2.132000000000000028e+01,7.846757512441715487e-02
2.135999999999999943e+01,9.294278072841358207e-02
2.139999999999999858e+01,9.787551498937721584e-02
2.144000000000000128e+01,1.057271624138100136e-01
2.148000000000000043e+01,9.999480644525104989e-02
2.151999999999999957e+01,1.209814853251434119e-01
2.155999999999999872e+01,1.144633322754931987e-01
2.160000000000000142e+01,1.149056194320300234e-01
2.164000000000000057e+01,1.184913450449394390e-01
2.167999999999999972e+01,9.210241210303779513e-02
2.171999999999999886e+01,8.962589151683200694e-02
2.176000000000000156e+01,8.456730551046706679e-02
2.180000000000000071e+01,6.323035584753661231e-02
2.183999999999999986e+01,6.367278611344005801e-02
2.187999999999999901e+01,5.367461715941111017e-02
2.192000000000000171e+01,4.401326249991890927e-02
2.196000000000000085e+01,4.771143030547651126e-02
2.200000000000000000e+01,4.613317409638158922e-02
2.203999999999999915e+01,4.320775868617010573e-02
2.207999999999999829e+01,3.556724125623667021e-02
2.212000000000000099e+01,3.073335806978716445e-02
2.216000000000000014e+01,2.208248905695277264e-02
2.219999999999999929e+01,1.837128254176330008e-02
2.223999999999999844e+01,2.296767967374416936e-02
2.228000000000000114e+01,2.823767778780681206e-02
2.232000000000000028e+01,2.082177284595152639e-02
2.235999999999999943e+01,2.261158691006337831e-02
2.239999999999999858e+01,2.069667487335144843e-02
2.244000000000000128e+01,1.833271315253870437e-02
2.248000000000000043e+01,2.809335098692942664e-02
2.251999999999999957e+01,2.673978785193175875e-02
2.255999999999999872e+01,2.482490779641064252e-02
2.260000000000000142e+01,2.829874082434149715e-02
2.264000000000000057e+01,2.559801862255948329e-02
2.267999999999999972e+01,2.592844844630327189e-02
2.271999999999999886e+01,2.614661694257149060e-02
2.276000000000000156e+01,1.233169640935370161e-02
2.280000000000000071e+01,6.824367839743643999e-03
2.283999999999999986e+01,1.972845635139753792e-02
2.287999999999999901e+01,1.669095287230769331e-02
2.292000000000000171e+01,1.253080129782187593e-02
2.296000000000000085e+01,9.156501251036921335e-03
2.300000000000000000e+01,8.588817087852035001e-03
2.303999999999999915e+01,1.509380782020985044e-02
2.307999999999999829e+01,8.239291243573228576e-03
2.312000000000000099e+01,1.474427293032109891e-02
2.316000000000000014e+01,8.114275104598495450e-03
2.319999999999999929e+01,1.955889265087170509e-02
2.323999999999999844e+01,1.551096962674822222e-02
2.328000000000000114e+01,8.880949469938836938e-03
2.332000000000000028e+01,1.976421851749376318e-02
2.335999999999999943e+01,2.088044586394280019e-02
2.339999999999999858e+01,1.514851372760250489e-02
2.344000000000000128e+01,1.974492539266629529e-02
2.348000000000000043e+01,1.973847056190401045e-02
2.351999999999999957e+01,2.601882748258705497e-02
2.355999999999999872e+01,2.634913944473747313e-02
2.360000000000000142e+01,1.219728592084928613e-02
2.364000000000000057e+01,1.409927339857566624e-02
2.367999999999999972e+01,2.251259875519091846e-02
2.371999999999999886e+01,2.598625841033251616e-02
2.376000000000000156e+01,2.710234038391040948e-02
2.380000000000000071e+01,1.833910674363814150e-02
2.383999999999999986e+01,1.058623573678731805e-02
2.387999999999999901e+01,1.091640469535499515e-02
2.392000000000000171e+01,1.180787568705501597e-02
2.396000000000000085e+01,1.505688360218194501e-02
2.400000000000000000e+01,4.557757018031332458e-04
2.403999999999999915e+01,0.000000000000000000e+00
2.407999999999999829e+01,1.784335077591301180e-02
2.412000000000000099e+01,1.749978903429316376e-02
2.416000000000000014e+01,1.019578722081831632e-02
2.419999999999999929e+01,1.097481869644067673e-02
2.423999999999999844e+01,1.792838216898288289e-02
2.428000000000000114e+01,1.489035528039077058e-02
2.432000000000000028e+01,1.207682788112252742e-02
2.435999999999999943e+01,1.016138753345117822e-02
2.439999999999999858e+01,1.554312317256082050e-02
2.444000000000000128e+01,1.362761869962769885e-02
2.448000000000000043e+01,1.171208091225341141e-02
2.451999999999999957e+01,1.529748088320484999e-02
2.455999999999999872e+01,4.512960071955420677e-03
2.460000000000000142e+01,8.884142370938827651e-03
2.464000000000000057e+01,5.733550919574197623e-03
2.467999999999999972e+01,1.032918854441812820e-02
2.471999999999999886e+01,7.852109681042326178e-03
2.476000000000000156e+01,9.753316240729290390e-03
2.480000000000000071e+01,7.612952428775111857e-03
2.483999999999999986e+01,8.503695577177098133e-03
2.487999999999999901e+01,6.924572944088133557e-03
2.492000000000000171e+01,1.185676231914259936e-02
2.496000000000000085e+01,7.021876611483955297e-03
2.500000000000000000e+01,4.432241396405548102e-03
2.503999999999999915e+01,9.925621945080525046e-03
2.507999999999999829e+01,8.683072693080797627e-03
2.512000000000000099e+01,1.305371341410611376e-02
2.516000000000000014e+01,2.605361903619332620e-03
2.519999999999999929e+01,8.996671977295370853e-03
2.523999999999999844e+01,1.471434448345378121e-02
2.528000000000000114e+01,5.163963323270809140e-03
2.532000000000000028e+01,9.646622923575719905e-03
2.535999999999999943e+01,1.738490810081870855e-02
2.539999999999999858e+01,9.181548711286688716e-03
2.544000000000000128e+01,6.366843152853980843e-03
2.548000000000000043e+01,5.909642805321437681e-03
2.551999999999999957e+01,8.820329429368542473e-03
2.555999999999999872e+01,1.925269730413590660e-02
2.560000000000000142e+01,1.767268208750364875e-02
2.564000000000000057e+01,1.283693210350180663e-02
2.567999999999999972e+01,1.428794880577565797e-02
2.571999999999999886e+01,2.154873653798858226e-03
2.576000000000000156e+01,7.759566264839814001e-03
2.580000000000000071e+01,1.560949267765742061e-02
2.583999999999999986e+01,1.009985419820820171e-02
2.587999999999999901e+01,4.814682661015918901e-03
2.592000000000000171e+01,1.142950944296730782e-02
2.596000000000000085e+01,1.602350684205167825e-02
2.600000000000000000e+01,4.097873097754219465e-04
2.603999999999999915e+01,6.238565881207788766e-03
2.607999999999999829e+01,1.386351348142667375e-02
2.612000000000000099e+01,8.353419813201914609e-03
2.616000000000000014e+01,8.905553351166320061e-03
2.619999999999999929e+01,1.630576639039483730e-02
2.623999999999999844e+01,9.336023596735290239e-03
2.628000000000000114e+01,1.392947741295117760e-02
2.632000000000000028e+01,1.537944700741657698e-02
2.635999999999999943e+01,1.155290162234994152e-02
2.639999999999999858e+01,1.670746148908814135e-02
2.644000000000000128e+01,8.614708678258937297e-03
2.648000000000000043e+01,4.226617008451755142e-03
2.651999999999999957e+01,1.712721831419015267e-02
2.655999999999999872e+01,7.462531616159710605e-03
2.660000000000000142e+01,1.430068309497929159e-02
2.664000000000000057e+01,2.615075281828141678e-03
2.667999999999999972e+01,8.218157106061975414e-03
2.671999999999999886e+01,1.168812895836322460e-02
2.676000000000000156e+01,1.953634450671815417e-02
2.680000000000000071e+01,2.233256536120347899e-02
2.683999999999999986e+01,6.380493285412750827e-03
2.687999999999999901e+01,1.108504865837159174e-02
2.692000000000000171e+01,1.287063675708163303e-02
2.696000000000000085e+01,7.583461633322031645e-03
2.700000000000000000e+01,1.408399756331909190e-02
2.703999999999999915e+01,1.362403333456830602e-02
2.707999999999999829e+01,1.641965879752801602e-02
2.712000000000000099e+01,2.600015411671925073e-03
2.716000000000000014e+01,1.022284676239942902e-02
2.719999999999999929e+01,1.560029339390993884e-02
2.723999999999999844e+01,7.169086993038661579e-03
2.728000000000000114e+01,7.045379087275199272e-03
2.732000000000000028e+01,1.736219876532072576e-02
2.735999999999999943e+01,1.095147985450726363e-02
2.739999999999999858e+01,1.520581632402675382e-02
2.744000000000000128e+01,8.233584442913808449e-03
2.748000000000000043e+01,8.782993754592462524e-03
2.751999999999999957e+01,5.852099609908719378e-03
2.755999999999999872e+01,1.549475796503445475e-02
2.760000000000000142e+01,8.073078525653473031e-03
2.764000000000000057e+01,4.917359689640141487e-03
2.767999999999999972e+01,1.310027878899167053e-02
2.771999999999999886e+01,1.263871255037964450e-02
2.776000000000000156e+01,8.809102580966418281e-03
2.780000000000000071e+01,4.530331099068349299e-03
2.783999999999999986e+01,1.069207635195704165e-02
2.787999999999999901e+01,1.786409994970911477e-02
2.792000000000000171e+01,1.470766304476391409e-02
2.796000000000000085e+01,9.754884495547146844e-03
2.800000000000000000e+01,8.955794306034180197e-03
2.803999999999999915e+01,1.073868538245436113e-02
2.807999999999999829e+01,1.521582162306967488e-02
2.812000000000000099e+01,8.915434257078105190e-03
2.816000000000000014e+01,1.238196855273878891e-02
2.819999999999999929e+01,1.472574459369989895e-02
2.823999999999999844e+01,1.314014322536667147e-02
2.828000000000000114e+01,1.110537033006656245e-02
2.832000000000000028e+01,2.040922201748857426e-02
2.835999999999999943e+01,1.826195669424951831e-02
2.839999999999999858e+01,2.116648924773004842e-02
2.844000000000000128e+01,2.059069915042403484e-02
2.848000000000000043e+01,2.091291014707647930e-02
2.851999999999999957e+01,1.797932628946644767e-02
2.855999999999999872e+01,1.729091865036068085e-02
2.860000000000000142e+01,1.985806899043860915e-02
2.864000000000000057e+01,2.601757067356660902e-02
2.867999999999999972e+01,2.532880271460167393e-02
2.871999999999999886e+01,2.273141252229950171e-02
2.876000000000000156e+01,2.529807742865745543e-02
2.880000000000000071e+01,2.337402957814766619e-02
2.883999999999999986e+01,2.414421103556960851e-02
2.887999999999999901e+01,2.850673882880054577e-02
2.892000000000000171e+01,2.411249151506041077e-02
2.896000000000000085e+01,2.757664871453176930e-02
2.900000000000000000e+01,2.306988226756686092e-02
2.903999999999999915e+01,2.451301820709615026e-02
2.907999999999999829e+01,3.392682088901854270e-02
2.912000000000000099e+01,3.918669833615835707e-02
2.916000000000000014e+01,2.816805857133980115e-02
2.919999999999999929e+01,2.916161342617237459e-02
2.923999999999999844e+01,2.869559412985420860e-02
2.928000000000000114e+01,2.778038244306478902e-02
2.932000000000000028e+01,3.259053783538377186e-02
2.935999999999999943e+01,3.459393977930528413e-02
2.939999999999999858e+01,4.131232453803530824e-02
2.944000000000000128e+01,3.792674654714569410e-02
2.948000000000000043e+01,3.903162023637983535e-02
2.951999999999999957e+01,4.821941622086736018e-02
2.955999999999999872e+01,5.954010282755254485e-02
2.960000000000000142e+01,5.761341082799624480e-02
2.964000000000000057e+01,6.635172747452296182e-02
2.967999999999999972e+01,6.375116430336501272e-02
2.971999999999999886e+01,7.271372597162714668e-02
2.976000000000000156e+01,8.066576157092496258e-02
2.980000000000000071e+01,8.715821133550949451e-02
2.983999999999999986e+01,9.454863381968632574e-02
2.987999999999999901e+01,1.104710300194637340e-01
2.992000000000000171e+01,1.242602494840941707e-01
2.996000000000000085e+01,1.401823512255204740e-01
3.000000000000000000e+01,1.570024223483783843e-01
3.003999999999999915e+01,1.813440812534564683e-01
3.007999999999999829e+01,2.066959726036880496e-01
3.012000000000000099e+01,2.210457691546994785e-01
3.016000000000000014e+01,2.462850929683759738e-01
3.019999999999999929e+01,3.050914192362179644e-01
3.023999999999999844e+01,3.477314704923189503e-01
3.028000000000000114e+01,4.038431353619146291e-01
3.032000000000000028e+01,4.651188227831035138e-01
3.035999999999999943e+01,5.244858537548077182e-01
3.039999999999999858e+01,5.994575257596277407e-01
3.044000000000000128e+01,6.588242422440167001e-01
3.048000000000000043e+01,7.620863107585905682e-01
3.051999999999999957e+01,8.333527710945347611e-01
3.055999999999999872e+01,9.017001882130738499e-01
3.060000000000000142e+01,9.694861206685133626e-01
3.064000000000000057e+01,1.000000000000000000e+00
3.067999999999999972e+01,9.871795298016761144e-01
3.071999999999999886e+01,9.458436539688886979e-01
3.076000000000000156e+01,8.781254015903398047e-01
3.080000000000000071e+01,7.982823928973656891e-01
3.083999999999999986e+01,7.092335101082833937e-01
3.087999999999999901e+01,6.411779655123389654e-01
3.092000000000000171e+01,5.571806611830749656e-01
3.096000000000000085e+01,5.130371684886353423e-01
3.100000000000000000e+01,4.254470548552611309e-01
3.103999999999999915e+01,3.594115997408753316e-01
3.107999999999999829e+01,3.141449491813224637e-01
3.112000000000000099e+01,2.903206907388754532e-01
3.116000000000000014e+01,2.450536956485607210e-01
3.119999999999999929e+01,2.158403838317667911e-01
3.123999999999999844e+01,1.968429883482400167e-01
3.128000000000000114e+01,1.681906506574541438e-01
3.132000000000000028e+01,1.627769366359080316e-01
3.135999999999999943e+01,1.258166558415970970e-01
3.139999999999999858e+01,1.255667649837074462e-01
3.144000000000000128e+01,1.029760137737513737e-01
3.148000000000000043e+01,9.621441052993048859e-02
3.151999999999999957e+01,8.080824266682906654e-02
3.155999999999999872e+01,7.696516125429946065e-02
3.160000000000000142e+01,6.436524882060681851e-02
3.164000000000000057e+01,5.917462605472497555e-02
3.167999999999999972e+01,6.532255777019015108e-02
3.171999999999999886e+01,4.149562146125935352e-02
3.176000000000000156e+01,4.247900590085702810e-02
3.180000000000000071e+01,4.671788155642407625e-02
3.183999999999999986e+01,5.308960026539851634e-02
3.187999999999999901e+01,4.834692272258280660e-02
3.192000000000000171e+01,4.540029236568760007e-02
3.196000000000000085e+01,3.459494133918509379e-02
3.200000000000000000e+01,3.512813811770818667e-02
3.203999999999999915e+01,3.846776217375086349e-02
3.207999999999999829e+01,3.181563313332434750e-02
3.211999999999999744e+01,3.246051901342425494e-02
3.215999999999999659e+01,2.614479791363351346e-02
3.220000000000000284e+01,2.757514899649762125e-02
3.224000000000000199e+01,2.327980349121466438e-02
3.228000000000000114e+01,2.515882224027566824e-02
3.232000000000000028e+01,3.433485173716228217e-02
3.235999999999999943e+01,2.049641329074532864e-02
3.239999999999999858e+01,1.990501476158926600e-02
3.243999999999999773e+01,1.201620921235471533e-02
3.247999999999999687e+01,1.310838206481776576e-02
3.252000000000000313e+01,2.924382805575603123e-02
3.256000000000000227e+01,2.258933139629425157e-02
3.260000000000000142e+01,2.412995750529425484e-02
3.264000000000000057e+01,3.218173455618316553e-02
3.267999999999999972e+01,2.631248034442380465e-02
3.271999999999999886e+01,2.089207983415520067e-02
3.275999999999999801e+01,2.658568180704440342e-02
3.279999999999999716e+01,1.948089734168660658e-02
3.284000000000000341e+01,1.922405384392336658e-02
3.288000000000000256e+01,2.929535719608214114e-02
3.292000000000000171e+01,2.465977114873628070e-02
3.296000000000000085e+01,2.619853516855135539e-02
3.300000000000000000e+01,2.706349972005412177e-02
3.303999999999999915e+01,3.062260595276983591e-02
3.307999999999999829e+01,2.520032082073146371e-02
3.311999999999999744e+01,2.830994180653912534e-02
3.315999999999999659e+01,2.165231662889707115e-02
3.320000000000000284e+01,1.948506551914217302e-02
3.324000000000000199e+01,2.315536443636039346e-02
3.328000000000000114e+01,1.571123789288218428e-02
3.332000000000000028e+01,1.971789634740582151e-02
3.335999999999999943e+01,1.979507057149231669e-02
3.339999999999999858e+01,2.705696827801739104e-02
3.343999999999999773e+01,2.331670191848747922e-02
3.347999999999999687e+01,2.069886180099807238e-02
3.352000000000000313e+01,1.796853503018489701e-02
3.356000000000000227e+01,1.748328016035364044e-02
3.360000000000000142e+01,1.396665391526157735e-02
3.364000000000000057e+01,1.886965820619102702e-02
3.367999999999999972e+01,1.557711174387899772e-02
3.371999999999999886e+01,1.542775170680561747e-02
3.375999999999999801e+01,2.044234245086994084e-02
3.379999999999999716e+01,1.591420314444607145e-02
3.384000000000000341e+01,2.092833752936464758e-02
3.388000000000000256e+01,1.819597591954951257e-02
3.392000000000000171e+01,2.062756175271143050e-02
3.396000000000000085e+01,2.283438701980546048e-02
3.400000000000000000e+01,1.504941913250166380e-02
3.403999999999999915e+01,1.579633816861978138e-02
3.407999999999999829e+01,1.676755306625820133e-02
3.411999999999999744e+01,1.538097413642662038e-02
3.415999999999999659e+01,1.971966130634184716e-02
3.420000000000000284e+01,1.440334534756492098e-02
3.424000000000000199e+01,1.818023580351989590e-02
3.428000000000000114e+01,1.802762283461360748e-02
3.432000000000000028e+01,2.281441949767817542e-02
3.435999999999999943e+01,1.794620969388983911e-02
3.439999999999999858e+01,1.779287838738764088e-02
3.443999999999999773e+01,2.055818901879652091e-02
3.447999999999999687e+01,2.388458136473049082e-02
3.452000000000000313e+01,2.305693581295768790e-02
3.456000000000000227e+01,2.896493061074957229e-02
3.460000000000000142e+01,1.488955851664683881e-02
3.464000000000000057e+01,3.932074448604576389e-02
3.467999999999999972e+01,3.119491182062531648e-02
3.471999999999999886e+01,3.384624654748744771e-02
3.475999999999999801e+01,4.345774691681768276e-02
3.479999999999999716e+01,4.307743744094653937e-02
3.484000000000000341e+01,4.527896735917808640e-02
3.488000000000000256e+01,5.915577919394891804e-02
3.492000000000000171e+01,4.945674601083382971e-02
3.496000000000000085e+01,6.535381994264811978e-02
3.500000000000000000e+01,7.327984504699940060e-02
3.503999999999999915e+01,8.513488216637868367e-02
3.507999999999999829e+01,9.137642817806035378e-02
3.511999999999999744e+01,1.034554849933267962e-01
3.515999999999999659e+01,1.236173464336813993e-01
3.520000000000000284e+01,1.426563035748051045e-01
3.524000000000000199e+01,1.523770300875985917e-01
3.528000000000000114e+01,1.677107346002116861e-01
3.532000000000000028e+01,2.063952440608489425e-01
3.535999999999999943e+01,2.207180461940430605e-01
3.539999999999999858e+01,2.518802971036545046e-01
3.543999999999999773e+01,2.617119868024012641e-01
3.547999999999999687e+01,2.755849440690362750e-01
3.552000000000000313e+01,2.872123430320971393e-01
3.556000000000000227e+01,2.842450622488038592e-01
3.560000000000000142e+01,2.762256031728015371e-01
3.564000000000000057e+01,2.467633139804315534e-01
3.567999999999999972e+01,2.283027016169841272e-01
3.571999999999999886e+01,2.169144995998427972e-01
3.575999999999999801e+01,1.872268774811743086e-01
3.579999999999999716e+01,1.536097202251177352e-01
3.584000000000000341e+01,1.469358285177327639e-01
3.588000000000000256e+01,1.224115731364089216e-01
3.592000000000000171e+01,1.032757529366574722e-01
3.596000000000000085e+01,9.547839792245391144e-02
3.600000000000000000e+01,8.375150359816134482e-02
3.603999999999999915e+01,7.808663034863377872e-02
3.607999999999999829e+01,6.635918619669545215e-02
3.611999999999999744e+01,5.777487839758502219e-02
3.615999999999999659e+01,5.267050031516885833e-02
3.620000000000000284e+01,4.689225600122611665e-02
3.624000000000000199e+01,4.650244019253436251e-02
3.628000000000000114e+01,3.859060778230258282e-02
3.632000000000000028e+01,3.662852587225235573e-02
3.635999999999999943e+01,2.894066141641663328e-02
3.639999999999999858e+01,2.462045693723196108e-02
3.643999999999999773e+01,2.815850091224535862e-02
3.647999999999999687e+01,2.597075983785274850e-02
3.652000000000000313e+01,2.097611593237065641e-02
3.656000000000000227e+01,1.890006973417014333e-02
3.660000000000000142e+01,2.221244453035903579e-02
3.664000000000000057e+01,2.687170910551859096e-02
3.667999999999999972e+01,1.884477102483600106e-02
3.671999999999999886e+01,1.463454517569176550e-02
3.675999999999999801e+01,1.918067896684158558e-02
3.679999999999999716e+01,1.699063843704435792e-02
3.684000000000000341e+01,2.007674916159327139e-02
3.688000000000000256e+01,1.429365397287329920e-02
3.692000000000000171e+01,1.367444363661692898e-02
3.696000000000000085e+01,1.361626327339454309e-02
3.700000000000000000e+01,1.681346563591833848e-02
3.703999999999999915e+01,1.013107615179285534e-02
3.707999999999999829e+01,1.804280573735354484e-02
3.711999999999999744e+01,1.809570699762385118e-02
3.715999999999999659e+01,1.972001665344690416e-02
3.720000000000000284e+01,2.314026333588687853e-02
3.724000000000000199e+01,2.442718056232722965e-02
3.728000000000000114e+01,2.133547284218416037e-02
3.732000000000000028e+01,2.217272956827891564e-02
3.735999999999999943e+01,2.222383112837968827e-02
3.739999999999999858e+01,2.912277851849465193e-02
3.743999999999999773e+01,3.040818556304146839e-02
3.747999999999999687e+01,3.090743493797379338e-02
3.752000000000000313e+01,2.994693741193831665e-02
3.756000000000000227e+01,4.548904939874392345e-02
3.760000000000000142e+01,4.239490869676760393e-02
3.764000000000000057e+01,4.884296240481679485e-02
3.767999999999999972e+01,4.608499931038693292e-02
3.771999999999999886e+01,5.320602315530875009e-02
3.775999999999999801e+01,5.055970486466027786e-02
3.779999999999999716e+01,5.812916604268965337e-02
3.784000000000000341e+01,4.941992891354185513e-02
3.788000000000000256e+01,3.262731813723598884e-02
3.792000000000000171e+01,4.872796035202804632e-02
3.796000000000000085e+01,4.596781290157223032e-02
3.800000000000000000e+01,3.411390670511816464e-02
3.803999999999999915e+01,3.404748122933139165e-02
3.807999999999999829e+01,2.522408953687257233e-02
3.811999999999999744e+01,2.807591216319847705e-02
3.815999999999999659e+01,2.329341423179380477e-02
3.820000000000000284e+01,3.074745261410442854e-02
3.824000000000000199e+01,1.496237091010086361e-02
3.828000000000000114e+01,1.736385468924785125e-02
3.832000000000000028e+01,1.415177976294280417e-02
3.835999999999999943e+01,1.621582437845708186e-02
3.839999999999999858e+01,1.783048632833929975e-02
3.843999999999999773e+01,2.000614737326886564e-02
3.847999999999999687e+01,1.488427538255292053e-02
3.852000000000000313e+01,6.281870436925518497e-03
3.856000000000000227e+01,1.025278849255833666e-02
3.860000000000000142e+01,9.059200932166541764e-03
3.864000000000000057e+01,1.157002081258232118e-02
3.867999999999999972e+01,1.307012852157386426e-02
3.871999999999999886e+01,1.378405269020534750e-02
3.875999999999999801e+01,9.221203171849327168e-03
3.879999999999999716e+01,1.217975867141432751e-02
3.884000000000000341e+01,1.648515805024019371e-02
3.888000000000000256e+01,1.046186826235986564e-02
3.892000000000000171e+01,1.892039442251527634e-02
3.896000000000000085e+01,1.053887524435759282e-02
3.900000000000000000e+01,1.574105248273784813e-02
3.903999999999999915e+01,9.155095689822839722e-03
3.907999999999999829e+01,2.524627700134205593e-02
3.911999999999999744e+01,2.371155650677225085e-02
3.915999999999999659e+01,3.317844023612942506e-02
3.920000000000000284e+01,2.434583209350413627e-02
3.924000000000000199e+01,3.145447474902151458e-02
3.928000000000000114e+01,1.824285867303674161e-02
3.932000000000000028e+01,1.726775554364228665e-02
3.935999999999999943e+01,2.684519353426524646e-02
3.939999999999999858e+01,1.374481090091972564e-02
3.943999999999999773e+01,1.770832222103777692e-02
3.947999999999999687e+01,1.448654437480803581e-02
3.952000000000000313e+01,1.216253728944738551e-02
3.956000000000000227e+01,1.028724119920693993e-02
3.960000000000000142e+01,1.099368519278794316e-02
3.964000000000000057e+01,1.125072064999130088e-02
3.967999999999999972e+01,2.632635039737352828e-02
3.971999999999999886e+01,2.512324261419023735e-02
3.975999999999999801e+01,2.279713539419567225e-02
3.979999999999999716e+01,2.462447034455218786e-02
3.984000000000000341e+01,1.960330281610589420e-02
3.988000000000000256e+01,2.053181151376523919e-02
3.992000000000000171e+01,2.404205361892456511e-02
3.996000000000000085e+01,3.013402829704378560e-02
4.000000000000000000e+01,2.275387792287072650e-02
4.003999999999999915e+01,1.806772318537930994e-02
4.007999999999999829e+01,2.123974095892974465e-02
4.011999999999999744e+01,1.610380888546771375e-02
4.015999999999999659e+01,1.253922261704499934e-02
4.020000000000000284e+01,1.189315811274758994e-02
4.024000000000000199e+01,9.562760493145923413e-03
4.028000000000000114e+01,9.140500373369544670e-03
4.032000000000000028e+01,9.952788522065228460e-03
4.035999999999999943e+01,7.733564258209891899e-03
4.039999999999999858e+01,5.289445067317921460e-03
4.043999999999999773e+01,8.682725686166906792e-03
4.047999999999999687e+01,6.799196732800731093e-03
4.052000000000000313e+01,4.690770348777336361e-03
4.056000000000000227e+01,1.010371226290709794e-02
4.060000000000000142e+01,5.412458590707345217e-03
4.064000000000000057e+01,1.273316085966765855e-02
4.067999999999999972e+01,2.764722973878447343e-03
4.071999999999999886e+01,8.737505008245317201e-03
4.075999999999999801e+01,1.482217880312045391e-02
4.079999999999999716e+01,1.046585864055861285e-02
4.084000000000000341e+01,1.565166612480796068e-02
4.088000000000000256e+01,1.095780164655090275e-02
4.092000000000000171e+01,1.288718009316791764e-02
4.096000000000000085e+01,6.508591167428716927e-03
4.100000000000000000e+01,1.214195067198795171e-02
4.103999999999999915e+01,8.456958539891002227e-03
4.107999999999999829e+01,6.118763552804860201e-03
4.111999999999999744e+01,1.141418991311155158e-02
4.115999999999999659e+01,1.513752869649201069e-02
4.120000000000000284e+01,7.184953116209764033e-03
4.124000000000000199e+01,1.045846782936957382e-02
4.128000000000000114e+01,1.272121612599353378e-02
4.132000000000000028e+01,1.228922617950877448e-02
4.135999999999999943e+01,1.443893959707757274e-02
4.139999999999999858e+01,8.505205927952541253e-03
4.143999999999999773e+01,1.559379410440363441e-02
4.147999999999999687e+01,2.200840589002447598e-02
4.152000000000000313e+01,2.280939220697896994e-02
4.156000000000000227e+01,2.102790000638581763e-02
4.160000000000000142e+01,2.508378341386845525e-02
4.164000000000000057e+01,3.003739335159070697e-02
4.167999999999999972e+01,3.633778791622111620e-02
4.171999999999999886e+01,3.848399436591259243e-02
4.175999999999999801e+01,3.883357125497084034e-02
4.179999999999999716e+01,4.075445973292105006e-02
4.184000000000000341e+01,4.301174690439907300e-02
4.188000000000000256e+01,4.717713819409531661e-02
4.192000000000000171e+01,4.337133628087754683e-02
4.196000000000000085e+01,5.853787620272917630e-02
4.200000000000000000e+01,4.552556934819382978e-02
4.203999999999999915e+01,4.014686464662719362e-02
4.207999999999999829e+01,3.297152370810588901e-02
4.211999999999999744e+01,3.836943149676888543e-02
4.215999999999999659e+01,3.108102229758522711e-02
4.220000000000000284e+01,3.299791817244012576e-02
4.224000000000000199e+01,3.356723340338831074e-02
4.228000000000000114e+01,2.526723005814347431e-02
4.232000000000000028e+01,2.123288104002067286e-02
4.235999999999999943e+01,1.528962521035972730e-02
4.239999999999999858e+01,2.090922967088222964e-02
4.243999999999999773e+01,1.642460015622698027e-02
4.247999999999999687e+01,1.586882743212651020e-02
4.252000000000000313e+01,1.564943921437080693e-02
4.256000000000000227e+01,1.363340474517826979e-02
4.260000000000000142e+01,6.565045938745436675e-03
4.264000000000000057e+01,1.453974913212259350e-02
4.267999999999999972e+01,5.225270443741361973e-03
4.271999999999999886e+01,1.151517575010066637e-02
4.275999999999999801e+01,8.037634603367331890e-03
4.279999999999999716e+01,1.050970876130660238e-02
4.284000000000000341e+01,8.603041971577619212e-03
4.288000000000000256e+01,1.040069416139721530e-02
4.292000000000000171e+01,5.798838544028918005e-03
4.296000000000000085e+01,1.264756680047943345e-02
4.300000000000000000e+01,8.269402070167842372e-03
4.303999999999999915e+01,5.125728859596164616e-03
4.307999999999999829e+01,4.339193662246052137e-03
4.311999999999999744e+01,3.327706789127107562e-03
4.315999999999999659e+01,7.143180381797347052e-03
4.320000000000000284e+01,7.702552843959519120e-03
4.324000000000000199e+01,1.578323769008283320e-02
4.328000000000000114e+01,1.488231836370651137e-02
4.332000000000000028e+01,5.448852961499018981e-03
4.335999999999999943e+01,1.184428766699361160e-02
4.339999999999999858e+01,4.879791117082870819e-03
4.343999999999999773e+01,9.927192090519721540e-03
4.347999999999999687e+01,8.911867771612671726e-03
4.352000000000000313e+01,1.216217274362233272e-02
4.356000000000000227e+01,6.318602968548830967e-03
4.360000000000000142e+01,2.326434172767156972e-02
4.364000000000000057e+01,7.877404380579298288e-03
4.367999999999999972e+01,1.516750916580072647e-02
4.371999999999999886e+01,1.358826533138268212e-02
4.375999999999999801e+01,1.683596944465114847e-02
4.379999999999999716e+01,1.525585365007830346e-02
4.384000000000000341e+01,1.850268413411156748e-02
4.388000000000000256e+01,1.815660510204723452e-02
4.392000000000000171e+01,1.152326213209267994e-02
4.396000000000000085e+01,1.095177499794773579e-02
4.400000000000000000e+01,1.037984729375438994e-02
4.403999999999999915e+01,1.463486169546629294e-02
4.407999999999999829e+01,1.855263965964293674e-02
4.411999999999999744e+01,1.842844416927208809e-02
4.415999999999999659e+01,1.212924446657219144e-02
4.420000000000000284e+01,1.335133711886918144e-02
4.424000000000000199e+01,7.051247096130550639e-03
4.428000000000000114e+01,1.680456745227419668e-02
4.432000000000000028e+01,1.622908514424737866e-02
4.435999999999999943e+01,1.722486101454108812e-02
4.439999999999999858e+01,1.586262858053883243e-02
4.443999999999999773e+01,3.834796780338987562e-03
4.447999999999999687e+01,1.639249087928635468e-02
4.452000000000000313e+01,1.233455310444015948e-02
4.456000000000000227e+01,1.198089925845504701e-02
4.460000000000000142e+01,1.016735079789053350e-02
4.464000000000000057e+01,9.026936811447842240e-03
4.467999999999999972e+01,3.283214022884320751e-03
4.471999999999999886e+01,1.325609823485459152e-02
4.475999999999999801e+01,1.132846434348184703e-02
4.479999999999999716e+01,1.523813929697057784e-02
4.484000000000000341e+01,1.375864898056247329e-02
4.488000000000000256e+01,1.003340507817841384e-02
4.492000000000000171e+01,1.686058629472691334e-02
4.496000000000000085e+01,1.728821714253840972e-02
4.500000000000000000e+01,2.007294594564283316e-02
4.503999999999999915e+01,1.791756423735826539e-02
4.507999999999999829e+01,1.969098507451686256e-02
4.511999999999999744e+01,2.101488304329330106e-02
4.515999999999999659e+01,2.099113944673001997e-02
4.520000000000000284e+01,1.838484138946279434e-02
4.524000000000000199e+01,2.666775597321329599e-02
4.528000000000000114e+01,2.349920053580715346e-02
4.532000000000000028e+01,3.009720874231649676e-02
4.535999999999999943e+01,3.175509976111542954e-02
4.539999999999999858e+01,3.520875672579459881e-02
4.543999999999999773e+01,4.045817880181386966e-02
4.547999999999999687e+01,4.581939416260032150e-02
4.552000000000000313e+01,4.242348808224144507e-02
4.556000000000000227e+01,5.698946613311622195e-02
4.560000000000000142e+01,6.324738000497409640e-02
4.564000000000000057e+01,6.748405390019693306e-02
4.567999999999999972e+01,7.441460576193625887e-02
4.571999999999999886e+01,7.584370926109262889e-02
4.575999999999999801e+01,7.300627562394981784e-02
4.579999999999999716e+01,7.376083531212045130e-02
4.584000000000000341e+01,7.541303390381187688e-02
4.588000000000000256e+01,6.202127850657423308e-02
4.592000000000000171e+01,6.827537072174136301e-02
4.596000000000000085e+01,6.296571399576669781e-02
4.600000000000000000e+01,4.934798474537324675e-02
4.603999999999999915e+01,4.493548045316116124e-02
4.607999999999999829e+01,4.680931723173361453e-02
4.611999999999999744e+01,4.385528569913438313e-02
4.615999999999999659e+01,3.472620822719711675e-02
4.620000000000000284e+01,3.446555817687397411e-02
4.624000000000000199e+01,3.644971547829607694e-02
4.628000000000000114e+01,3.427958952719888097e-02
4.632000000000000028e+01,2.649573796261386893e-02
4.635999999999999943e+01,2.365104483340592714e-02
4.639999999999999858e+01,2.215303785536502576e-02
4.643999999999999773e+01,2.054227466752266140e-02
4.647999999999999687e+01,2.117631382418446936e-02
4.652000000000000313e+01,1.821738838509681310e-02
4.656000000000000227e+01,1.626835156060897278e-02
4.660000000000000142e+01,1.095087793689570980e-02
4.664000000000000057e+01,1.742070560771127180e-02
4.667999999999999972e+01,2.299191893186904034e-02
4.671999999999999886e+01,1.643804379461070997e-02
4.675999999999999801e+01,9.097817374416353187e-03
4.679999999999999716e+01,1.197318265135962484e-02
4.684000000000000341e+01,1.496031283870396383e-02
4.688000000000000256e+01,1.390541198822855921e-02
4.692000000000000171e+01,8.134890868580107667e-03
4.696000000000000085e+01,1.718281215279796395e-02
4.700000000000000000e+01,1.230940340898355537e-02
4.703999999999999915e+01,7.772284868473708710e-03
4.707999999999999829e+01,8.062045008815519817e-03
4.711999999999999744e+01,9.923005744205551718e-03
4.715999999999999659e+01,1.155893051526868734e-02
4.720000000000000284e+01,8.703758640981896708e-03
4.724000000000000199e+01,6.409402262903169528e-03
4.728000000000000114e+01,1.971933474198458991e-02
4.732000000000000028e+01,1.113713448775744026e-02
4.735999999999999943e+01,4.911982950952663469e-03
4.739999999999999858e+01,1.316847043966574461e-02
4.743999999999999773e+01,1.233100223089837397e-02
4.747999999999999687e+01,1.564681596076774109e-02
4.752000000000000313e+01,1.346114377374614188e-02
4.756000000000000227e+01,1.688819338270930448e-02
4.760000000000000142e+01,1.335431387927276704e-02
4.764000000000000057e+01,1.071803572504902158e-02
4.767999999999999972e+01,7.744446024673883912e-03
4.771999999999999886e+01,1.094489844613373043e-02
4.775999999999999801e+01,1.347124345395529256e-02
4.779999999999999716e+01,1.083289090151114999e-02
4.784000000000000341e+01,7.071370335139660381e-03
4.788000000000000256e+01,1.015747694925548533e-02
4.792000000000000171e+01,1.313079647558326041e-02
4.796000000000000085e+01,1.217432716430856890e-02
4.800000000000000000e+01,1.054374543215455713e-02
4.803999999999999915e+01,1.239284555826173154e-02
4.807999999999999829e+01,1.008762487754155321e-02
4.811999999999999744e+01,8.118671867541140535e-03
4.815999999999999659e+01,6.598250426522466600e-03
4.820000000000000284e+01,9.792419566428265526e-03
4.824000000000000199e+01,9.730382423763474925e-03
4.828000000000000114e+01,1.258669846810789479e-02
4.832000000000000028e+01,1.095189449997735487e-02
4.835999999999999943e+01,1.189864785136911934e-02
4.839999999999999858e+01,1.363072196290811972e-02
4.843999999999999773e+01,1.255564455038434869e-02
4.847999999999999687e+01,1.361306302255360645e-02
4.852000000000000313e+01,1.781335914009539098e-02
4.856000000000000227e+01,1.527723558187750463e-02
4.860000000000000142e+01,1.644531166396266328e-02
4.864000000000000057e+01,2.086852762060197042e-02
4.867999999999999972e+01,1.350340842176291772e-02
4.871999999999999886e+01,1.960951811339617726e-02
4.875999999999999801e+01,1.650937983492090089e-02
4.879999999999999716e+01,1.015302359031250261e-02
4.884000000000000341e+01,1.423674594689698994e-02
4.888000000000000256e+01,1.876898485074000519e-02
4.892000000000000171e+01,2.341294526889481364e-02
4.896000000000000085e+01,1.952424194105330940e-02
4.900000000000000000e+01,1.978878883932176994e-02
4.903999999999999915e+01,2.443111459476441163e-02
4.907999999999999829e+01,2.166342142861197792e-02
4.911999999999999744e+01,3.203015460912349982e-02
4.915999999999999659e+01,2.499530597956547973e-02
4.920000000000000284e+01,2.503258645627325085e-02
4.924000000000000199e+01,3.012123001426740901e-02
4.928000000000000114e+01,3.262723398845936151e-02
4.932000000000000028e+01,3.412230380353957482e-02
4.935999999999999943e+01,3.101396717529799826e-02
4.939999999999999858e+01,3.621266754144530919e-02
4.943999999999999773e+01,3.714475399359704749e-02
4.947999999999999687e+01,2.954416585073011553e-02
4.952000000000000313e+01,3.137325952665339507e-02
4.956000000000000227e+01,2.635364793051034674e-02
4.960000000000000142e+01,2.762030396561605469e-02
4.964000000000000057e+01,2.989678435572782136e-02
4.967999999999999972e+01,3.206044093828360614e-02
4.971999999999999886e+01,2.883483043704077736e-02
4.975999999999999801e+01,3.212001369449031529e-02
4.979999999999999716e+01,2.507627995576486996e-02
4.984000000000000341e+01,3.195281067159540939e-02
4.988000000000000256e+01,3.029665844700553737e-02
4.992000000000000171e+01,2.055688137866374526e-02
4.996000000000000085e+01,3.079966183257524040e-02
5.000000000000000000e+01,2.453896081349084962e-02
5.003999999999999915e+01,2.860604862659178044e-02
5.007999999999999829e+01,2.941689176827388258e-02
5.011999999999999744e+01,2.899225459443627306e-02
5.015999999999999659e+01,3.305763764344998856e-02
5.020000000000000284e+01,3.633659763907232804e-02
5.024000000000000199e+01,4.275839939483952468e-02
5.028000000000000114e+01,4.109656879599316720e-02
5.032000000000000028e+01,5.021158011875962585e-02
5.035999999999999943e+01,5.595807619552382872e-02
5.039999999999999858e+01,5.687661466531721693e-02
5.043999999999999773e+01,5.959081392892837808e-02
5.047999999999999687e+01,5.803837758049927575e-02
5.052000000000000313e+01,7.579489867394785529e-02
5.056000000000000227e+01,8.524325210539732134e-02
5.060000000000000142e+01,9.626273352689942997e-02
5.064000000000000057e+01,1.058221943182551389e-01
5.067999999999999972e+01,1.104414269280566269e-01
5.071999999999999886e+01,1.367271721958806807e-01
5.075999999999999801e+01,1.413452424255451922e-01
5.079999999999999716e+01,1.697628535673933181e-01
5.084000000000000341e+01,1.840345250997476589e-01
5.088000000000000256e+01,2.068377322141086438e-01
5.092000000000000171e+01,2.280686481237398366e-01
5.096000000000000085e+01,2.411036527587722411e-01
5.100000000000000000e+01,2.681711623794976740e-01
5.103999999999999915e+01,2.785106393635782274e-01
5.107999999999999829e+01,2.840221445535049960e-01
5.111999999999999744e+01,2.806641467338591434e-01
5.115999999999999659e+01,2.748357348398249855e-01
5.120000000000000284e+01,2.605868771983466115e-01
5.124000000000000199e+01,2.513893409111456756e-01
5.128000000000000114e+01,2.268109437736850198e-01
5.132000000000000028e+01,2.034668654061471960e-01
5.135999999999999943e+01,1.906750777965732502e-01
5.139999999999999858e+01,1.814751666766875327e-01
5.143999999999999773e+01,1.499339779346461066e-01
5.147999999999999687e+01,1.336601962246395936e-01
5.152000000000000313e+01,1.157018460589983311e-01
5.156000000000000227e+01,1.031316047697195953e-01
5.160000000000000142e+01,8.898905808852800026e-02
5.164000000000000057e+01,7.922423601939891646e-02
5.167999999999999972e+01,7.181637253735295712e-02
5.171999999999999886e+01,7.058246772312409822e-02
5.175999999999999801e+01,5.329410364734020467e-02
5.179999999999999716e+01,5.048728679765448341e-02
5.184000000000000341e+01,4.801666000645191112e-02
5.188000000000000256e+01,4.240201572232459720e-02
5.192000000000000171e+01,4.576794425336806749e-02
5.196000000000000085e+01,4.048888171509958805e-02
5.200000000000000000e+01,3.532147643154916195e-02
5.203999999999999915e+01,3.666481733790093178e-02
5.207999999999999829e+01,3.385375398340748770e-02
5.211999999999999744e+01,3.104208064720941768e-02
5.215999999999999659e+01,2.800526702916208283e-02
5.220000000000000284e+01,3.046881366763662391e-02
5.224000000000000199e+01,2.473642232622672021e-02
5.228000000000000114e+01,2.304494804582996048e-02
5.232000000000000028e+01,2.629250785432360113e-02
5.235999999999999943e+01,2.347715710255368279e-02
5.239999999999999858e+01,2.694801556422004099e-02
5.243999999999999773e+01,3.311261095511261465e-02
5.247999999999999687e+01,2.367179099393569575e-02
5.252000000000000313e+01,2.276247239861811655e-02
5.256000000000000227e+01,3.161956639544368647e-02
5.260000000000000142e+01,2.835144925344681988e-02
5.264000000000000057e+01,2.440912288390988463e-02
5.267999999999999972e+01,2.293599897075375080e-02
5.271999999999999886e+01,3.078022538037132952e-02
5.275999999999999801e+01,3.098982662509303793e-02
5.279999999999999716e+01,3.018842110570742199e-02
5.284000000000000341e+01,3.488736249020076008e-02
5.288000000000000256e+01,2.993091101573844282e-02
5.292000000000000171e+01,2.755592172321807629e-02
5.296000000000000085e+01,2.663974645007761641e-02
5.300000000000000000e+01,2.224273611848092205e-02
5.303999999999999915e+01,2.480551004449069522e-02
5.307999999999999829e+01,2.433650617417260770e-02
5.311999999999999744e+01,2.106025313859083425e-02
5.315999999999999659e+01,1.890601575128158379e-02
5.320000000000000284e+01,1.832285210891334420e-02
5.324000000000000199e+01,1.246261267601290329e-02
5.328000000000000114e+01,1.389894669188440277e-02
5.332000000000000028e+01,1.578370462105459920e-02
5.335999999999999943e+01,1.362629631689603327e-02
5.339999999999999858e+01,1.382581071459287533e-02
5.343999999999999773e+01,1.391242285795698391e-02
5.347999999999999687e+01,1.029366046277833957e-02
5.352000000000000313e+01,9.144082998636747506e-03
5.356000000000000227e+01,1.315804321824441681e-02
5.360000000000000142e+01,1.548739158612806588e-02
5.364000000000000057e+01,1.164153795566027008e-02
5.367999999999999972e+01,1.138751324609060984e-02
5.371999999999999886e+01,1.304134563084624956e-02
5.375999999999999801e+01,1.121432710088225357e-02
5.379999999999999716e+01,1.769425376588749238e-02
5.384000000000000341e+01,9.242325101270248283e-03
5.388000000000000256e+01,1.392472347303568177e-02
5.392000000000000171e+01,1.276870820307494589e-02
5.396000000000000085e+01,1.711301646986824673e-02
5.400000000000000000e+01,1.460852683063537487e-02
5.403999999999999915e+01,1.086847509094525203e-02
5.407999999999999829e+01,1.464950957482786045e-02
5.411999999999999744e+01,1.169400838186597687e-02
5.415999999999999659e+01,1.446335601856153612e-02
5.420000000000000284e+01,1.072069577493660504e-02
5.424000000000000199e+01,1.461138314952590070e-02
5.428000000000000114e+01,1.176553150910994786e-02
5.432000000000000028e+01,9.704877116894753200e-03
5.435999999999999943e+01,1.101150799279034323e-02
5.439999999999999858e+01,1.882883582071757239e-02
5.443999999999999773e+01,1.238788419773272260e-02
5.447999999999999687e+01,1.402933411692971859e-02
5.452000000000000313e+01,1.567012398201131709e-02
5.456000000000000227e+01,1.192154578393262582e-02
5.460000000000000142e+01,1.704121975403050104e-02
5.464000000000000057e+01,1.239319941260265748e-02
5.467999999999999972e+01,1.324548758620558951e-02
5.471999999999999886e+01,1.679146512024459748e-02
5.475999999999999801e+01,1.449901148721370603e-02
5.479999999999999716e+01,1.613515760636248866e-02
5.484000000000000341e+01,1.552534233903081311e-02
5.488000000000000256e+01,7.393122408976003472e-03
5.492000000000000171e+01,1.183388415324828150e-02
5.496000000000000085e+01,1.245697574818904058e-02
5.500000000000000000e+01,9.711455290466807638e-03
5.503999999999999915e+01,1.538511888977048617e-02
5.507999999999999829e+01,1.275052052403481510e-02
5.511999999999999744e+01,1.808604561503594430e-02
5.515999999999999659e+01,1.275574768307158671e-02
5.520000000000000284e+01,1.045592329546768569e-02
5.524000000000000199e+01,9.839394824057887470e-03
5.528000000000000114e+01,1.416183868556528114e-02
5.532000000000000028e+01,1.489113435248387400e-02
5.535999999999999943e+01,1.438484037911933085e-02
5.539999999999999858e+01,1.567410371659033741e-02
5.543999999999999773e+01,1.651362887431313820e-02
5.547999999999999687e+01,1.308641410247334165e-02
5.552000000000000313e+01,1.908875596839691366e-02
5.556000000000000227e+01,2.284512142611681840e-02
5.560000000000000142e+01,2.446777437389503415e-02
5.564000000000000057e+01,2.418124344279575649e-02
5.567999999999999972e+01,2.681291130877264811e-02
5.571999999999999886e+01,2.023818599464987517e-02
5.575999999999999801e+01,3.162513200401516344e-02
5.579999999999999716e+01,3.133585904255248300e-02
5.584000000000000341e+01,2.846380963269836209e-02
5.588000000000000256e+01,3.086751423606524936e-02
5.592000000000000171e+01,2.967805812674067026e-02
5.596000000000000085e+01,4.050023832968770165e-02
5.600000000000000000e+01,4.626981462443453125e-02
5.603999999999999915e+01,4.215940266594719876e-02
5.607999999999999829e+01,3.973226909831025638e-02
5.611999999999999744e+01,3.943747201819215731e-02
5.615999999999999659e+01,4.194859898786588298e-02
5.620000000000000284e+01,3.783541161740804071e-02
5.624000000000000199e+01,3.585455823084851557e-02
5.628000000000000114e+01,3.376074333760353818e-02
5.632000000000000028e+01,3.222755449994602062e-02
5.635999999999999943e+01,2.822384309767692057e-02
5.639999999999999858e+01,3.028172798922178569e-02
5.643999999999999773e+01,2.593982299899831243e-02
5.647999999999999687e+01,1.901512820774056700e-02
5.652000000000000313e+01,2.522470537321366141e-02
5.656000000000000227e+01,2.054390084121065704e-02
5.660000000000000142e+01,2.068977636949674917e-02
5.664000000000000057e+01,1.926324135380743513e-02
5.667999999999999972e+01,1.435579450196545169e-02
5.671999999999999886e+01,1.719390825964873734e-02
5.675999999999999801e+01,1.700016744330771698e-02
5.679999999999999716e+01,1.377457121840222100e-02
5.684000000000000341e+01,1.200770806247929492e-02
5.688000000000000256e+01,1.293448920182279846e-02
5.692000000000000171e+01,7.124676246509287734e-03
5.696000000000000085e+01,8.723624695073416493e-03
5.700000000000000000e+01,1.357753859929433649e-02
5.703999999999999915e+01,1.236844430205080725e-02
5.707999999999999829e+01,1.520016692099895178e-02
5.711999999999999744e+01,1.522455692066555094e-02
5.715999999999999659e+01,1.300293713052133593e-02
5.720000000000000284e+01,1.392401389053080779e-02
5.724000000000000199e+01,1.001699033719893189e-02
5.728000000000000114e+01,1.722345769389527909e-02
5.732000000000000028e+01,1.095743864240194404e-02
5.735999999999999943e+01,1.176337845097792309e-02
5.739999999999999858e+01,1.167048025612821109e-02
5.743999999999999773e+01,1.427121467298237550e-02
5.747999999999999687e+01,9.124960716397402874e-03
5.752000000000000313e+01,9.703485488094897374e-03
5.756000000000000227e+01,1.443508189430407936e-02
5.760000000000000142e+01,1.501215887312339764e-02
5.764000000000000057e+01,1.401680444446283882e-02
5.767999999999999972e+01,1.986887273394583736e-02
5.771999999999999886e+01,1.348335833066132035e-02
5.775999999999999801e+01,2.135473734138399263e-02
5.779999999999999716e+01,2.529612221762026630e-02
5.784000000000000341e+01,1.677539243186413481e-02
5.788000000000000256e+01,1.667378745078120991e-02
5.792000000000000171e+01,1.017236170994335713e-02
5.796000000000000085e+01,1.253911803590703616e-02
5.800000000000000000e+01,1.209852338270523721e-02
5.803999999999999915e+01,8.401517984589030805e-03
5.807999999999999829e+01,1.424628054646697242e-02
5.811999999999999744e+01,8.863834665395276327e-03
5.815999999999999659e+01,7.858977366336955192e-03
5.820000000000000284e+01,1.538550292843261259e-02
5.824000000000000199e+01,1.168481754395808356e-02
5.828000000000000114e+01,5.176775338536805139e-03
5.832000000000000028e+01,5.179348300209690725e-03
5.835999999999999943e+01,1.012082933520596327e-02
5.839999999999999858e+01,1.775592295294185774e-02
5.843999999999999773e+01,1.045906526893471480e-02
5.847999999999999687e+01,1.000961361226754796e-02
5.852000000000000313e+01,1.315188989713688035e-02
5.856000000000000227e+01,1.618115710653059841e-02
5.860000000000000142e+01,1.236153043777764131e-02
5.864000000000000057e+01,8.316628291666476949e-03
5.867999999999999972e+01,1.280309899222708755e-02
5.871999999999999886e+01,1.493126262310775706e-02
5.875999999999999801e+01,1.413979468575733006e-02
5.879999999999999716e+01,1.559287205453600486e-02
5.884000000000000341e+01,1.929049389490360839e-02
5.888000000000000256e+01,3.039683708122031119e-02
5.892000000000000171e+01,2.702027788252052767e-02
5.896000000000000085e+01,3.127696782629384858e-02
5.900000000000000000e+01,2.733757875289249961e-02
5.903999999999999915e+01,2.485687684876392023e-02
5.907999999999999829e+01,3.000942158348787400e-02
5.911999999999999744e+01,2.966023838466901041e-02
5.915999999999999659e+01,3.088200458430453293e-02
5.920000000000000284e+01,3.412377827906298844e-02
5.924000000000000199e+01,3.511949878792135216e-02
5.928000000000000114e+01,3.308331214672411563e-02
5.932000000000000028e+01,3.542468988587512552e-02
5.935999999999999943e+01,2.687562750973748402e-02
5.939999999999999858e+01,2.955227654580079230e-02
5.943999999999999773e+01,2.998286822326306361e-02
5.947999999999999687e+01,2.771834277637541880e-02
5.952000000000000313e+01,2.893325967471766999e-02
5.956000000000000227e+01,2.992288190127762038e-02
5.960000000000000142e+01,2.013432373811007217e-02
5.964000000000000057e+01,2.168373671270455369e-02
5.967999999999999972e+01,1.919085159662201751e-02
5.971999999999999886e+01,2.287175824032082472e-02
5.975999999999999801e+01,2.172451199464701943e-02
5.979999999999999716e+01,1.956611294033460888e-02
5.984000000000000341e+01,2.593906253102875800e-02
5.988000000000000256e+01,2.366685581345563671e-02
5.992000000000000171e+01,3.172223179664365733e-02
5.996000000000000085e+01,2.619280155918798578e-02
