2.003999999999999915e+01,2.174873614745929593e-02
2.007999999999999829e+01,2.713580135709574293e-02
2.012000000000000099e+01,1.985680863674706489e-02
2.016000000000000014e+01,2.149470726540015156e-02
2.019999999999999929e+01,2.028872944752104293e-02
2.023999999999999844e+01,1.546344053228145693e-02
2.028000000000000114e+01,2.873102901213038171e-02
2.032000000000000028e+01,2.713549608292915860e-02
2.035999999999999943e+01,1.985282653081679727e-02
2.039999999999999858e+01,2.807825199437414057e-02
2.044000000000000128e+01,2.764404018522560735e-02
2.048000000000000043e+01,1.984258386801691573e-02
2.051999999999999957e+01,2.754922445640110157e-02
2.055999999999999872e+01,2.827633943707524855e-02
2.060000000000000142e+01,1.659588247439501563e-02
2.064000000000000057e+01,2.313754779004021170e-02
2.067999999999999972e+01,2.554295208417506693e-02
2.071999999999999886e+01,3.156644879480053484e-02
2.076000000000000156e+01,3.151509754185781442e-02
2.080000000000000071e+01,2.538889895532130472e-02
2.083999999999999986e+01,3.102286512362665075e-02
2.087999999999999901e+01,3.096970285868838255e-02
2.092000000000000171e+01,1.915516975752668341e-02
2.096000000000000085e+01,2.943994037849894524e-02
2.100000000000000000e+01,2.977269041173612532e-02
2.103999999999999915e+01,2.545222823936416773e-02
2.107999999999999829e+01,1.777094662602868302e-02
2.112000000000000099e+01,2.042820282921774949e-02
2.116000000000000014e+01,3.109769163649776097e-02
2.119999999999999929e+01,2.625787682682901442e-02
2.123999999999999844e+01,3.434138599295027960e-02
2.128000000000000114e+01,1.244080089375513079e-02
2.132000000000000028e+01,1.638746237700996686e-02
2.135999999999999943e+01,2.744168511995800919e-02
2.139999999999999858e+01,1.691236436287512496e-02
2.144000000000000128e+01,1.387832376583562032e-02
2.148000000000000043e+01,2.738630890151175917e-02
2.151999999999999957e+01,2.267097197722505938e-02
2.155999999999999872e+01,3.488537968600411571e-02
2.160000000000000142e+01,3.430451356038779348e-02
2.164000000000000057e+01,3.294762108279191554e-02
2.167999999999999972e+01,1.957089131155212089e-02
2.171999999999999886e+01,2.338238712020997492e-02
2.176000000000000156e+01,2.435003105133762280e-02
2.180000000000000071e+01,3.513926665468637689e-02
2.183999999999999986e+01,2.072626771064374138e-02
2.187999999999999901e+01,2.466464978760027349e-02
2.192000000000000171e+01,3.131646868601002665e-02
2.196000000000000085e+01,3.253965458741947536e-02
2.200000000000000000e+01,2.497398857165810532e-02
2.203999999999999915e+01,2.386969845781951663e-02
2.207999999999999829e+01,3.271624363948995307e-02
2.212000000000000099e+01,1.933306059333344401e-02
2.216000000000000014e+01,2.572289432613515670e-02
2.219999999999999929e+01,2.409931457244081365e-02
2.223999999999999844e+01,1.872721600663952365e-02
2.228000000000000114e+01,2.524454408822605217e-02
2.232000000000000028e+01,2.697944090991745772e-02
2.235999999999999943e+01,1.333429159738519498e-02
2.239999999999999858e+01,2.747499407861864543e-02
2.244000000000000128e+01,2.481402033743890581e-02
2.248000000000000043e+01,3.029453920297272423e-02
2.251999999999999957e+01,1.936110074644374623e-02
2.255999999999999872e+01,2.328959525686697882e-02
2.260000000000000142e+01,3.691045482553239471e-02
2.264000000000000057e+01,1.860865334600488030e-02
2.267999999999999972e+01,2.305237874484644331e-02
2.271999999999999886e+01,1.909498120645806638e-02
2.276000000000000156e+01,3.077495506569659020e-02
2.280000000000000071e+01,2.668717208002868366e-02
2.283999999999999986e+01,2.699295018029783735e-02
2.287999999999999901e+01,3.001218022140609079e-02
2.292000000000000171e+01,1.803909058833384066e-02
2.296000000000000085e+01,1.756772067181300301e-02
2.300000000000000000e+01,2.614252604594291887e-02
2.303999999999999915e+01,1.998349206274970674e-02
2.307999999999999829e+01,3.993021080781465615e-02
2.312000000000000099e+01,3.648406415320891438e-02
2.316000000000000014e+01,3.032332688364445736e-02
2.319999999999999929e+01,2.868539558325403430e-02
2.323999999999999844e+01,1.451069470435334928e-02
2.328000000000000114e+01,3.006044768066199607e-02
2.332000000000000028e+01,3.707984795588977617e-02
2.335999999999999943e+01,2.380812773450381378e-02
2.339999999999999858e+01,2.604454977686829903e-02
2.344000000000000128e+01,2.763421302956884859e-02
2.348000000000000043e+01,2.095200452802025229e-02
2.351999999999999957e+01,2.241130501251997059e-02
2.355999999999999872e+01,2.735950342822647541e-02
2.360000000000000142e+01,2.261420063146895448e-02
2.364000000000000057e+01,2.355486365480785951e-02
2.367999999999999972e+01,1.699909335457242682e-02
2.371999999999999886e+01,2.194505474040228318e-02
2.376000000000000156e+01,1.991154091647501234e-02
2.380000000000000071e+01,3.015519531936454098e-02
2.383999999999999986e+01,1.972001914493198144e-02
2.387999999999999901e+01,2.182049088419923955e-02
2.392000000000000171e+01,2.689290937057454631e-02
2.396000000000000085e+01,2.175487546038708253e-02
2.400000000000000000e+01,2.540455416327640908e-02
2.403999999999999915e+01,2.711509139144683417e-02
2.407999999999999829e+01,2.313855058432656361e-02
2.412000000000000099e+01,1.877374012404148251e-02
2.416000000000000014e+01,2.616914670647440752e-02
2.419999999999999929e+01,1.611670871803282112e-02
2.423999999999999844e+01,2.040927330160033359e-02
2.428000000000000114e+01,2.819074715591398869e-02
2.432000000000000028e+01,1.865361754274339964e-02
2.435999999999999943e+01,2.255681789723547326e-02
2.439999999999999858e+01,1.366478851554085543e-02
2.444000000000000128e+01,3.191244698897145043e-02
2.448000000000000043e+01,2.495791249332164619e-02
2.451999999999999957e+01,3.364077711417301497e-02
2.455999999999999872e+01,1.673373238549145936e-02
2.460000000000000142e+01,1.972898207767449438e-02
2.464000000000000057e+01,2.207749187942593255e-02
2.467999999999999972e+01,2.028980365710800898e-02
2.471999999999999886e+01,2.121559635445216876e-02
2.476000000000000156e+01,3.079987442092001204e-02
2.480000000000000071e+01,2.009305466985293262e-02
2.483999999999999986e+01,1.739852548052264747e-02
2.487999999999999901e+01,1.677128366341655227e-02
2.492000000000000171e+01,2.971361984708186313e-02
2.496000000000000085e+01,3.024845275460376001e-02
2.500000000000000000e+01,1.772958694862105875e-02
2.503999999999999915e+01,2.356215193161614527e-02
2.507999999999999829e+01,1.582406260718694987e-02
2.512000000000000099e+01,2.462805634314484474e-02
2.516000000000000014e+01,1.430411085254161205e-02
2.519999999999999929e+01,1.729126934559641407e-02
2.523999999999999844e+01,3.113398739640859877e-02
2.528000000000000114e+01,2.752887788565537563e-02
2.532000000000000028e+01,2.314779998056834195e-02
2.535999999999999943e+01,1.592292689564819494e-02
2.539999999999999858e+01,3.002199217921904320e-02
2.544000000000000128e+01,2.563931871338524446e-02
2.548000000000000043e+01,2.565024791179966457e-02
2.551999999999999957e+01,1.260748658637689083e-02
2.555999999999999872e+01,2.308573277828374765e-02
2.560000000000000142e+01,3.330497183954606033e-02
2.564000000000000057e+01,2.749802035715085205e-02
2.567999999999999972e+01,2.026891008285604950e-02
2.571999999999999886e+01,2.467080220681420327e-02
2.576000000000000156e+01,1.886227028305804618e-02
2.580000000000000071e+01,2.520169887137211143e-02
2.583999999999999986e+01,2.288157523352607470e-02
2.587999999999999901e+01,2.224103707686305581e-02
2.592000000000000171e+01,2.069530076201535687e-02
2.596000000000000085e+01,2.225078253643790471e-02
2.600000000000000000e+01,2.160867527795340068e-02
2.603999999999999915e+01,2.949583433430648036e-02
2.607999999999999829e+01,1.915974314777969117e-02
2.612000000000000099e+01,2.394411942286198483e-02
2.616000000000000014e+01,3.493145806029718248e-02
2.619999999999999929e+01,2.381837194076233052e-02
2.623999999999999844e+01,2.614564539768742327e-02
2.628000000000000114e+01,1.554847951375617869e-02
2.632000000000000028e+01,1.658232547769406331e-02
2.635999999999999943e+01,2.239750560571867471e-02
2.639999999999999858e+01,1.877770704642225605e-02
2.644000000000000128e+01,2.006848312462837167e-02
2.648000000000000043e+01,2.161722278549572593e-02
2.651999999999999957e+01,1.489413857016909197e-02
2.655999999999999872e+01,2.458392088084120422e-02
2.660000000000000142e+01,1.643817877870208319e-02
2.664000000000000057e+01,3.349357097827407315e-02
2.667999999999999972e+01,2.961169890177299535e-02
2.671999999999999886e+01,2.068898643562791517e-02
2.676000000000000156e+01,1.939087712959015192e-02
2.680000000000000071e+01,2.041856386148241040e-02
2.683999999999999986e+01,2.144574141887129956e-02
2.687999999999999901e+01,1.484729683717153116e-02
2.692000000000000171e+01,1.936291669908861771e-02
2.696000000000000085e+01,2.775520568043890468e-02
2.700000000000000000e+01,2.787567834528825381e-02
2.703999999999999915e+01,1.998281375054527381e-02
2.707999999999999829e+01,3.095836892734356652e-02
2.712000000000000099e+01,2.047970990391881352e-02
2.716000000000000014e+01,1.969348775581920841e-02
2.719999999999999929e+01,2.213774243966364075e-02
2.723999999999999844e+01,2.574464716995275224e-02
2.728000000000000114e+01,1.681484594914715858e-02
2.732000000000000028e+01,1.447574300035361222e-02
2.735999999999999943e+01,1.898581738048088496e-02
2.739999999999999858e+01,2.440006590001625800e-02
2.744000000000000128e+01,1.869924233649280718e-02
2.748000000000000043e+01,1.519498630699739339e-02
2.751999999999999957e+01,1.349958080110298664e-02
2.755999999999999872e+01,1.464694015652103463e-02
2.760000000000000142e+01,2.018793556483116508e-02
2.764000000000000057e+01,2.844245788093544350e-02
2.767999999999999972e+01,3.204387256718282950e-02
2.771999999999999886e+01,2.646880778219898658e-02
2.776000000000000156e+01,1.908389932358363003e-02
2.780000000000000071e+01,2.009904568521286503e-02
2.783999999999999986e+01,2.331076525063978042e-02
2.787999999999999901e+01,1.165948247218019478e-02
2.792000000000000171e+01,1.370706415604005732e-02
2.796000000000000085e+01,2.131144048376571593e-02
2.800000000000000000e+01,2.271184365982453074e-02
2.803999999999999915e+01,2.527490948181619623e-02
2.807999999999999829e+01,2.589889745650454309e-02
2.812000000000000099e+01,1.812184754050837759e-02
2.816000000000000014e+01,2.805008148415852678e-02
2.819999999999999929e+01,2.376151419105297993e-02
2.823999999999999844e+01,1.830930685134437089e-02
2.828000000000000114e+01,2.668520885719197905e-02
2.832000000000000028e+01,1.877648410073341073e-02
2.835999999999999943e+01,2.185260725350346780e-02
2.839999999999999858e+01,1.058269310592276601e-02
2.844000000000000128e+01,1.947361228368437933e-02
2.848000000000000043e+01,1.647404047691917311e-02
2.851999999999999957e+01,1.735116235858912698e-02
2.855999999999999872e+01,1.073192777356291733e-02
2.860000000000000142e+01,3.008929363979658683e-02
2.864000000000000057e+01,2.321061834655181733e-02
2.867999999999999972e+01,1.542678836335675645e-02
2.871999999999999886e+01,2.043716094769955360e-02
2.876000000000000156e+01,1.756346257481686962e-02
2.880000000000000071e+01,1.766178780592046055e-02
2.883999999999999986e+01,1.905202749591222711e-02
2.887999999999999901e+01,2.793766452118796179e-02
2.892000000000000171e+01,2.183107636844479685e-02
2.896000000000000085e+01,1.985966726078951250e-02
2.900000000000000000e+01,2.654681029954544455e-02
2.903999999999999915e+01,1.669085948860035348e-02
2.907999999999999829e+01,2.273085803817345360e-02
2.912000000000000099e+01,2.036983444642236421e-02
2.916000000000000014e+01,1.219257361266367842e-02
2.919999999999999929e+01,2.314224436602420679e-02
2.923999999999999844e+01,2.698328700265488836e-02
2.928000000000000114e+01,1.557363170410212480e-02
2.932000000000000028e+01,1.579503550149940344e-02
2.935999999999999943e+01,1.511129531851136513e-02
2.939999999999999858e+01,1.584871762752041585e-02
2.944000000000000128e+01,1.348393058715209591e-02
2.948000000000000043e+01,2.753205606091452956e-02
2.951999999999999957e+01,2.090144041372135608e-02
2.955999999999999872e+01,1.711362112656115292e-02
2.960000000000000142e+01,1.991653601995450190e-02
2.964000000000000057e+01,1.134593505194747033e-02
2.967999999999999972e+01,1.014150480524551000e-02
2.971999999999999886e+01,1.410617928088213346e-02
2.976000000000000156e+01,2.311071989536468349e-02
2.980000000000000071e+01,2.138794323568000977e-02
2.983999999999999986e+01,2.328340262665184665e-02
2.987999999999999901e+01,2.155970274409640258e-02
2.992000000000000171e+01,1.776771477959338333e-02
2.996000000000000085e+01,2.340972936169011948e-02
3.000000000000000000e+01,2.775889240259080126e-02
3.003999999999999915e+01,2.474096149931558422e-02
3.007999999999999829e+01,1.241734907983231030e-02
3.012000000000000099e+01,1.702361610793878821e-02
3.016000000000000014e+01,2.007855568781263811e-02
3.019999999999999929e+01,1.654183912421095318e-02
3.023999999999999844e+01,2.037130210155612894e-02
3.028000000000000114e+01,2.200324345325631314e-02
3.032000000000000028e+01,1.071080909151574806e-02
3.035999999999999943e+01,2.138858728242879967e-02
3.039999999999999858e+01,2.224373214306058985e-02
3.044000000000000128e+01,1.741189913433304967e-02
3.048000000000000043e+01,1.645679068278686069e-02
3.051999999999999957e+01,1.252872910463947997e-02
3.055999999999999872e+01,2.746914210580711155e-02
3.060000000000000142e+01,1.061625863715673357e-02
3.064000000000000057e+01,8.237717749888334023e-03
3.067999999999999972e+01,2.459841411839108413e-02
3.071999999999999886e+01,1.239679624367679388e-02
3.076000000000000156e+01,1.725430710960998773e-02
3.080000000000000071e+01,1.254766937194028847e-02
3.083999999999999986e+01,2.425396556753129859e-02
3.087999999999999901e+01,2.251893801545491042e-02
3.092000000000000171e+01,2.659923015228507145e-02
3.096000000000000085e+01,2.667266238449565383e-02
3.100000000000000000e+01,9.556835568415864360e-03
3.103999999999999915e+01,2.229482403604838431e-02
3.107999999999999829e+01,1.500029201906294234e-02
3.112000000000000099e+01,2.166315328928400050e-02
3.116000000000000014e+01,1.746947949100072922e-02
3.119999999999999929e+01,1.676482394903686460e-02
3.123999999999999844e+01,2.355560291084721550e-02
3.128000000000000114e+01,1.380332330152361613e-02
3.132000000000000028e+01,2.718442428544346617e-02
3.135999999999999943e+01,1.988681312723063546e-02
3.139999999999999858e+01,1.956768213882122479e-02
3.144000000000000128e+01,1.136452240147193052e-02
3.148000000000000043e+01,1.815267532883575383e-02
3.151999999999999957e+01,9.043969532247633780e-03
3.155999999999999872e+01,1.247103260444636444e-02
3.160000000000000142e+01,1.550994382869526171e-02
3.164000000000000057e+01,2.061624889084385723e-02
3.167999999999999972e+01,1.305667808561591751e-02
3.171999999999999886e+01,1.131243956878273324e-02
3.176000000000000156e+01,2.107005936287153700e-02
3.180000000000000071e+01,1.880800124684261013e-02
3.183999999999999986e+01,1.538235978190764970e-02
3.187999999999999901e+01,1.647966099059398198e-02
3.192000000000000171e+01,0.000000000000000000e+00
3.196000000000000085e+01,1.246949428826008704e-02
3.200000000000000000e+01,2.325845089364337454e-02
3.203999999999999915e+01,1.323946685299179533e-02
3.207999999999999829e+01,1.782408728626824757e-02
3.211999999999999744e+01,5.736423164406236064e-03
3.215999999999999659e+01,1.807454499992142485e-02
3.220000000000000284e+01,2.291636769641188995e-02
3.224000000000000199e+01,2.297591536666133277e-02
3.228000000000000114e+01,1.592688279823617145e-02
3.232000000000000028e+01,2.361069769705260307e-02
3.235999999999999943e+01,1.410527496670856487e-02
3.239999999999999858e+01,1.610172062687716121e-02
3.243999999999999773e+01,2.223340013990746100e-02
3.247999999999999687e+01,2.229041627187209468e-02
3.252000000000000313e+01,2.661190673011438329e-02
3.256000000000000227e+01,2.343710371910159851e-02
3.260000000000000142e+01,8.113396183992212241e-03
3.264000000000000057e+01,1.799091744675559990e-02
3.267999999999999972e+01,2.463704117460187998e-02
3.271999999999999886e+01,1.577404271812990824e-02
3.275999999999999801e+01,1.272639292938730279e-02
3.279999999999999716e+01,1.368474344980903819e-02
3.284000000000000341e+01,1.606431064002724826e-02
3.288000000000000256e+01,1.508324423173322548e-02
3.292000000000000171e+01,7.639803731690746752e-03
3.296000000000000085e+01,1.971107167676356547e-02
3.300000000000000000e+01,1.898724533014827312e-02
3.303999999999999915e+01,6.243760602621976734e-03
3.307999999999999829e+01,1.908922924308841321e-02
3.311999999999999744e+01,1.642558199898065327e-02
3.315999999999999659e+01,1.195217612778690271e-02
3.320000000000000284e+01,1.264792978670556227e-02
3.324000000000000199e+01,1.515262405556615753e-02
3.328000000000000114e+01,1.804462821620486657e-02
3.332000000000000028e+01,7.883064698016591099e-03
3.335999999999999943e+01,1.723621592468767283e-02
3.339999999999999858e+01,1.586210657488855771e-02
3.343999999999999773e+01,1.875248604077856332e-02
3.347999999999999687e+01,1.828224135777253151e-02
3.352000000000000313e+01,1.432213394237775821e-02
3.356000000000000227e+01,2.173467397328641970e-02
3.360000000000000142e+01,1.363810567931382847e-02
3.364000000000000057e+01,1.833581743973173098e-02
3.367999999999999972e+01,2.225769247046787899e-02
3.371999999999999886e+01,2.088035893014781111e-02
3.375999999999999801e+01,1.976110362783167068e-02
3.379999999999999716e+01,1.799525269922413670e-02
3.384000000000000341e+01,2.411259486312890624e-02
3.388000000000000256e+01,2.040735850452621292e-02
3.392000000000000171e+01,1.864031267889754845e-02
3.396000000000000085e+01,1.894069722968444794e-02
3.400000000000000000e+01,4.378175822669807052e-03
3.403999999999999915e+01,1.928179930704704281e-02
3.407999999999999829e+01,1.402371034142002593e-02
3.411999999999999744e+01,1.819968943973152703e-02
3.415999999999999659e+01,1.526711790816573204e-02
3.420000000000000284e+01,2.099318041968467261e-02
3.424000000000000199e+01,1.650895243806453291e-02
3.428000000000000114e+01,2.171727346721475174e-02
3.432000000000000028e+01,1.632758762277336517e-02
3.435999999999999943e+01,1.403925216222854690e-02
3.439999999999999858e+01,2.299433816398268118e-02
3.443999999999999773e+01,2.742566221502267670e-02
3.447999999999999687e+01,1.001517034073007295e-02
3.452000000000000313e+01,1.728898001923919597e-02
3.456000000000000227e+01,1.008761019998982884e-02
3.460000000000000142e+01,1.942847274506306204e-02
3.464000000000000057e+01,2.644264311823508670e-02
3.467999999999999972e+01,2.350500835492071866e-02
3.471999999999999886e+01,2.599503548768064554e-02
3.475999999999999801e+01,1.685314896883063907e-02
3.479999999999999716e+01,1.998860391976052878e-02
3.484000000000000341e+01,1.549856209650975897e-02
3.488000000000000256e+01,2.263966693565219734e-02
3.492000000000000171e+01,1.595179401414147449e-02
3.496000000000000085e+01,2.076582980150565999e-02
3.500000000000000000e+01,1.291404200936945891e-02
3.503999999999999915e+01,1.992438373620190190e-02
3.507999999999999829e+01,1.814607954749614116e-02
3.511999999999999744e+01,2.231240040847717876e-02
3.515999999999999659e+01,1.820703346773727693e-02
3.520000000000000284e+01,3.361641025067965693e-02
3.524000000000000199e+01,3.041496341448099092e-02
3.528000000000000114e+01,2.023422280115573166e-02
3.532000000000000028e+01,2.129691813954089075e-02
3.535999999999999943e+01,2.171304242063669745e-02
3.539999999999999858e+01,2.161183548788463485e-02
3.543999999999999773e+01,1.272198830936407260e-02
3.547999999999999687e+01,1.585101488325424066e-02
3.552000000000000313e+01,2.440771595270687516e-02
3.556000000000000227e+01,2.986230405886709446e-02
3.560000000000000142e+01,2.523586230448534792e-02
3.564000000000000057e+01,1.841198334102980491e-02
3.567999999999999972e+01,1.908360880850814775e-02
3.571999999999999886e+01,2.647530405609215681e-02
3.575999999999999801e+01,2.559532095157134035e-02
3.579999999999999716e+01,2.949682068509839120e-02
3.584000000000000341e+01,2.137870613592323527e-02
3.588000000000000256e+01,3.122447545839003233e-02
3.592000000000000171e+01,2.065008288274124831e-02
3.596000000000000085e+01,2.687642251747927868e-02
3.600000000000000000e+01,2.302173859141940296e-02
3.603999999999999915e+01,1.696962375602983908e-02
3.607999999999999829e+01,1.996389021292361080e-02
3.611999999999999744e+01,2.140692308777206176e-02
3.615999999999999659e+01,2.129872301054960143e-02
3.620000000000000284e+01,2.959071004819820161e-02
3.624000000000000199e+01,3.206657134931003433e-02
3.628000000000000114e+01,3.260348394787287302e-02
3.632000000000000028e+01,3.184764454119667215e-02
3.635999999999999943e+01,3.936275555582201963e-02
3.639999999999999858e+01,3.149804155724209020e-02
3.643999999999999773e+01,3.138732238604410169e-02
3.647999999999999687e+01,3.075928901030737170e-02
3.652000000000000313e+01,3.465427138522366585e-02
3.656000000000000227e+01,2.368638812070072291e-02
3.660000000000000142e+01,2.874381186535248517e-02
3.664000000000000057e+01,4.245990808152802498e-02
3.667999999999999972e+01,3.834063863844405090e-02
3.671999999999999886e+01,2.930992551278601213e-02
3.675999999999999801e+01,4.315420022995718891e-02
3.679999999999999716e+01,4.484963657034500562e-02
3.684000000000000341e+01,4.305526246622019132e-02
3.688000000000000256e+01,4.358684315357719968e-02
3.692000000000000171e+01,3.520056769075178421e-02
3.696000000000000085e+01,4.180569119913394444e-02
3.700000000000000000e+01,4.078535195195356899e-02
3.703999999999999915e+01,4.066933866801443476e-02
3.707999999999999829e+01,5.063363613345583936e-02
3.711999999999999744e+01,4.366724936362605114e-02
3.715999999999999659e+01,4.535954325498738754e-02
3.720000000000000284e+01,5.519356158364581433e-02
3.724000000000000199e+01,5.158635633056823239e-02
3.728000000000000114e+01,5.625011598820369579e-02
3.732000000000000028e+01,5.832874725528929688e-02
3.735999999999999943e+01,5.924388210993764697e-02
3.739999999999999858e+01,5.990019567639297965e-02
3.743999999999999773e+01,7.192921779666963666e-02
3.747999999999999687e+01,6.366734180129987597e-02
3.752000000000000313e+01,7.983133617987848984e-02
3.756000000000000227e+01,7.867693561250309331e-02
3.760000000000000142e+01,7.080175623345112690e-02
3.764000000000000057e+01,8.089048844491524004e-02
3.767999999999999972e+01,8.684322737399385872e-02
3.771999999999999886e+01,8.995236578533254146e-02
3.775999999999999801e+01,9.693834340919539605e-02
3.779999999999999716e+01,1.028900707638066292e-01
3.784000000000000341e+01,1.034134152212589502e-01
3.788000000000000256e+01,1.315936160591070214e-01
3.792000000000000171e+01,1.345718355992771564e-01
3.796000000000000085e+01,1.323801525591456751e-01
3.800000000000000000e+01,1.604301120586754947e-01
3.803999999999999915e+01,1.720663586662140032e-01
3.807999999999999829e+01,1.937829317724933387e-01
3.811999999999999744e+01,2.200225458284021385e-01
3.815999999999999659e+01,2.474249819137699091e-01
3.820000000000000284e+01,2.765071975124395176e-01
3.824000000000000199e+01,3.102416951641290277e-01
3.828000000000000114e+01,3.395817305561148469e-01
3.832000000000000028e+01,3.649150219587730115e-01
3.835999999999999943e+01,4.175174596611185285e-01
3.839999999999999858e+01,4.467272726140184558e-01
3.843999999999999773e+01,5.136746094173906263e-01
3.847999999999999687e+01,5.475363817212327566e-01
3.852000000000000313e+01,6.217204634048382195e-01
3.856000000000000227e+01,6.572616956697765467e-01
3.860000000000000142e+01,7.181334898122421206e-01
3.864000000000000057e+01,7.871470310710836360e-01
3.867999999999999972e+01,8.553848143470448306e-01
3.871999999999999886e+01,9.393894595938903080e-01
3.875999999999999801e+01,9.744121214945719034e-01
3.879999999999999716e+01,1.000000000000000000e+00
3.884000000000000341e+01,9.773813317000157319e-01
3.888000000000000256e+01,9.060391603707251829e-01
3.892000000000000171e+01,8.640339715762374029e-01
3.896000000000000085e+01,7.875215944937744572e-01
3.900000000000000000e+01,6.996358489639232792e-01
3.903999999999999915e+01,6.444473074089432929e-01
3.907999999999999829e+01,5.846058377668137407e-01
3.911999999999999744e+01,5.436329775185232416e-01
3.915999999999999659e+01,5.026598021278478878e-01
3.920000000000000284e+01,4.557413084052752694e-01
3.924000000000000199e+01,4.354457787744915875e-01
3.928000000000000114e+01,3.980903597135876937e-01
3.932000000000000028e+01,3.856777962293492235e-01
3.935999999999999943e+01,3.732649207525980395e-01
3.939999999999999858e+01,3.530973811052820488e-01
3.943999999999999773e+01,3.392622521852905471e-01
3.947999999999999687e+01,3.299501856340585348e-01
3.952000000000000313e+01,3.117203038809808202e-01
3.956000000000000227e+01,2.931023956448611800e-01
3.960000000000000142e+01,2.875373397562535627e-01
3.964000000000000057e+01,2.916649172949875024e-01
3.967999999999999972e+01,2.696858667606476523e-01
3.971999999999999886e+01,2.732958741700528549e-01
3.975999999999999801e+01,2.566150193723530371e-01
3.979999999999999716e+01,2.612583297339323707e-01
3.984000000000000341e+01,2.413458851039409492e-01
3.988000000000000256e+01,2.245348777943148577e-01
3.992000000000000171e+01,2.307281473089635992e-01
3.996000000000000085e+01,2.086177265314186347e-01
4.000000000000000000e+01,1.941321174355110368e-01
4.003999999999999915e+01,2.023923086268673843e-01
4.007999999999999829e+01,1.876476191681046846e-01
4.011999999999999744e+01,1.719979551920733374e-01
4.015999999999999659e+01,1.607421250808993562e-01
4.020000000000000284e+01,1.631853528341891957e-01
4.024000000000000199e+01,1.410728318956522842e-01
4.028000000000000114e+01,1.243880604196328232e-01
4.032000000000000028e+01,1.211438702710660870e-01
4.035999999999999943e+01,1.167362309581430474e-01
4.039999999999999858e+01,1.141376450205815740e-01
4.043999999999999773e+01,1.039136505052569853e-01
4.047999999999999687e+01,1.070010006238156924e-01
4.052000000000000313e+01,9.341619848186237529e-02
4.056000000000000227e+01,9.559828728961625166e-02
4.060000000000000142e+01,9.144736217417580304e-02
4.064000000000000057e+01,7.850787870964033577e-02
4.067999999999999972e+01,7.978441752312999402e-02
4.071999999999999886e+01,7.020457183199962925e-02
4.075999999999999801e+01,7.393607518457344374e-02
4.079999999999999716e+01,7.249772068502896571e-02
4.084000000000000341e+01,6.886201087308418956e-02
4.088000000000000256e+01,6.871547177126639816e-02
4.092000000000000171e+01,6.378679434765485712e-02
4.096000000000000085e+01,5.149119496288181996e-02
4.100000000000000000e+01,5.289466604206071593e-02
4.103999999999999915e+01,5.778731035126424831e-02
4.107999999999999829e+01,5.789781885857171045e-02
4.111999999999999744e+01,4.146542376845042260e-02
4.115999999999999659e+01,4.713265053754094047e-02
4.120000000000000284e+01,4.892241788892839893e-02
4.124000000000000199e+01,4.515461667751480973e-02
4.128000000000000114e+01,4.565142775677494963e-02
4.132000000000000028e+01,4.369241265639349503e-02
4.135999999999999943e+01,4.935823065677946014e-02
4.139999999999999858e+01,4.546006699678156737e-02
4.143999999999999773e+01,4.673119264162484132e-02
4.147999999999999687e+01,3.611203204362511271e-02
4.152000000000000313e+01,3.647792661643530637e-02
4.156000000000000227e+01,3.593886935105570363e-02
4.160000000000000142e+01,4.082758233734916364e-02
4.164000000000000057e+01,4.106340755485542865e-02
4.167999999999999972e+01,3.341536529687114121e-02
4.171999999999999886e+01,3.804477349423999316e-02
4.175999999999999801e+01,3.556575075686975451e-02
4.179999999999999716e+01,3.114786625341933388e-02
4.184000000000000341e+01,4.443548106086391697e-02
4.188000000000000256e+01,3.045334952262339703e-02
4.192000000000000171e+01,3.327204406095696926e-02
4.196000000000000085e+01,3.789981654365415231e-02
4.200000000000000000e+01,3.658231479266275260e-02
4.203999999999999915e+01,3.242128056116781731e-02
4.207999999999999829e+01,3.278334964676909991e-02
4.211999999999999744e+01,2.836329930980902372e-02
4.215999999999999659e+01,3.441135736938102929e-02
4.220000000000000284e+01,3.360946985086672029e-02
4.224000000000000199e+01,3.138568434985920114e-02
4.228000000000000114e+01,3.458967981008968795e-02
4.232000000000000028e+01,3.042677472828864832e-02
4.235999999999999943e+01,3.324252242927979578e-02
4.239999999999999858e+01,3.218082961180022961e-02
4.243999999999999773e+01,2.788789297315992510e-02
4.247999999999999687e+01,3.147828550150483240e-02
4.252000000000000313e+01,3.287134917637465903e-02
4.256000000000000227e+01,3.439339047015189249e-02
4.260000000000000142e+01,3.152103754146202280e-02
4.264000000000000057e+01,3.795364764779321498e-02
4.267999999999999972e+01,3.378838254518480577e-02
4.271999999999999886e+01,3.763568960287520110e-02
4.275999999999999801e+01,3.140207956544322637e-02
4.279999999999999716e+01,2.865767047691001809e-02
4.284000000000000341e+01,3.405507465206591977e-02
4.288000000000000256e+01,3.854754777818757139e-02
4.292000000000000171e+01,3.955030621590720913e-02
4.296000000000000085e+01,3.680487216826500846e-02
4.300000000000000000e+01,4.013342648873579471e-02
4.303999999999999915e+01,3.725824452791847569e-02
4.307999999999999829e+01,3.683835421808385330e-02
4.311999999999999744e+01,3.331647001012061349e-02
4.315999999999999659e+01,3.612705511710222195e-02
4.320000000000000284e+01,3.816195342831200238e-02
4.324000000000000199e+01,4.329834197773770044e-02
4.328000000000000114e+01,3.861230004864265458e-02
4.332000000000000028e+01,4.568677692000874119e-02
4.335999999999999943e+01,3.608914625904606488e-02
4.339999999999999858e+01,3.825203565849336768e-02
4.343999999999999773e+01,3.576206563800195942e-02
4.347999999999999687e+01,3.572739356823739082e-02
4.352000000000000313e+01,4.822867872960872465e-02
4.356000000000000227e+01,5.064905939534598139e-02
4.360000000000000142e+01,5.100136743038438669e-02
4.364000000000000057e+01,4.812245054349439943e-02
4.367999999999999972e+01,4.989590138614417858e-02
4.371999999999999886e+01,6.006965777885437535e-02
4.375999999999999801e+01,6.416892844328293821e-02
4.379999999999999716e+01,5.986740816699635120e-02
4.384000000000000341e+01,6.099369342094981133e-02
4.388000000000000256e+01,6.560919663311111372e-02
4.392000000000000171e+01,6.311630292915158813e-02
4.396000000000000085e+01,5.868458147773005645e-02
4.400000000000000000e+01,8.061742065811819402e-02
4.403999999999999915e+01,7.760685335384742700e-02
4.407999999999999829e+01,8.144572670780143853e-02
4.411999999999999744e+01,8.127794741871732787e-02
4.415999999999999659e+01,7.477721027416150967e-02
4.420000000000000284e+01,9.024690365340563847e-02
4.424000000000000199e+01,9.150004841563311175e-02
4.428000000000000114e+01,9.197752339139793343e-02
4.432000000000000028e+01,9.749509381669438368e-02
4.435999999999999943e+01,1.124468935793787316e-01
4.439999999999999858e+01,1.099511669082663262e-01
4.443999999999999773e+01,1.212838040923723271e-01
4.447999999999999687e+01,1.282220766628086039e-01
4.452000000000000313e+01,1.351601185074312872e-01
4.456000000000000227e+01,1.342143382347210645e-01
4.460000000000000142e+01,1.414103989445740506e-01
4.464000000000000057e+01,1.546804738514909183e-01
4.467999999999999972e+01,1.749292380797158875e-01
4.471999999999999886e+01,1.746287397907286543e-01
4.475999999999999801e+01,1.931969397219724938e-01
4.479999999999999716e+01,1.949638155864992506e-01
4.484000000000000341e+01,1.997029676747511806e-01
4.488000000000000256e+01,2.111623338072491363e-01
4.492000000000000171e+01,2.214583225924735554e-01
4.496000000000000085e+01,2.357605031990833988e-01
4.500000000000000000e+01,2.322274491811112673e-01
4.503999999999999915e+01,2.519572310510729274e-01
4.507999999999999829e+01,2.662587440492440449e-01
4.511999999999999744e+01,2.697039418399804767e-01
4.515999999999999659e+01,2.613881505589867871e-01
4.520000000000000284e+01,2.519089863405405971e-01
4.524000000000000199e+01,2.466944967802348621e-01
4.528000000000000114e+01,2.408335923962938441e-01
4.532000000000000028e+01,2.292859444934745305e-01
4.535999999999999943e+01,2.181257967347056403e-01
4.539999999999999858e+01,2.003742322227376194e-01
4.543999999999999773e+01,2.003282237193615978e-01
4.547999999999999687e+01,1.889089488244521942e-01
4.552000000000000313e+01,1.759385883914841575e-01
4.556000000000000227e+01,1.561183352982803141e-01
4.560000000000000142e+01,1.458615702851382701e-01
4.564000000000000057e+01,1.449098155550981315e-01
4.567999999999999972e+01,1.360742563470085653e-01
4.571999999999999886e+01,1.322788146375551144e-01
4.575999999999999801e+01,1.257691382486854914e-01
4.579999999999999716e+01,1.221025139894599126e-01
4.584000000000000341e+01,1.161093739511683542e-01
4.588000000000000256e+01,1.186458126950225289e-01
4.592000000000000171e+01,1.166586702908186390e-01
4.596000000000000085e+01,1.076924023126560048e-01
4.600000000000000000e+01,9.627038186185789270e-02
4.603999999999999915e+01,9.622120540937960376e-02
4.607999999999999829e+01,9.811041100209647037e-02
4.611999999999999744e+01,9.146962297914688900e-02
4.615999999999999659e+01,9.620168084444036261e-02
4.620000000000000284e+01,8.103069556891047409e-02
4.624000000000000199e+01,8.989800036134927563e-02
4.628000000000000114e+01,8.286867889039402357e-02
4.632000000000000028e+01,8.152568043502658734e-02
4.635999999999999943e+01,8.082867630000403758e-02
4.639999999999999858e+01,7.819288284595861394e-02
4.643999999999999773e+01,7.684928103954243028e-02
4.647999999999999687e+01,7.356689117405219858e-02
4.652000000000000313e+01,7.674626275482453186e-02
4.656000000000000227e+01,6.066879293187871225e-02
4.660000000000000142e+01,6.281385424065139000e-02
4.664000000000000057e+01,5.720436540422763061e-02
4.667999999999999972e+01,6.128762087064180270e-02
4.671999999999999886e+01,6.033035093461774218e-02
4.675999999999999801e+01,5.433255622612979258e-02
4.679999999999999716e+01,5.221174310438307653e-02
4.684000000000000341e+01,5.254628085121376690e-02
4.688000000000000256e+01,4.680638200776691960e-02
4.692000000000000171e+01,4.597738034872140417e-02
4.696000000000000085e+01,3.881546493241300883e-02
4.700000000000000000e+01,4.599891054355380315e-02
4.703999999999999915e+01,4.516933388230810753e-02
4.707999999999999829e+01,4.033315119613074123e-02
4.711999999999999744e+01,3.950319434995697154e-02
4.715999999999999659e+01,3.673446015427412475e-02
4.720000000000000284e+01,3.900586676628059468e-02
4.724000000000000199e+01,3.636599537898325962e-02
4.728000000000000114e+01,3.295050145330405411e-02
4.732000000000000028e+01,3.354123651750052365e-02
4.735999999999999943e+01,2.443884457403331517e-02
4.739999999999999858e+01,2.748475332881859454e-02
4.743999999999999773e+01,2.406851667256679553e-02
4.747999999999999687e+01,2.982808006477274260e-02
4.752000000000000313e+01,3.274419728296949078e-02
4.756000000000000227e+01,2.196077502589426078e-02
4.760000000000000142e+01,2.074087234760131279e-02
4.764000000000000057e+01,3.063536043967040115e-02
4.767999999999999972e+01,2.540867959825244410e-02
4.771999999999999886e+01,2.186192820404629644e-02
4.775999999999999801e+01,2.051206374089478007e-02
4.779999999999999716e+01,2.678713380439098207e-02
4.784000000000000341e+01,1.716560217349512307e-02
4.788000000000000256e+01,2.033857486788021376e-02
4.792000000000000171e+01,2.196049982267139072e-02
4.796000000000000085e+01,1.867115811769814657e-02
4.800000000000000000e+01,2.093892667377091413e-02
4.803999999999999915e+01,2.385271600911387582e-02
4.807999999999999829e+01,1.435936619352321149e-02
4.811999999999999744e+01,2.011606953893511907e-02
4.815999999999999659e+01,2.134922701485598637e-02
4.820000000000000284e+01,1.586177262231939014e-02
4.824000000000000199e+01,1.903317339388591045e-02
4.828000000000000114e+01,1.470852827614110327e-02
4.832000000000000028e+01,2.550470025580378608e-02
4.835999999999999943e+01,1.975808266340620123e-02
4.839999999999999858e+01,1.491596994698274857e-02
4.843999999999999773e+01,1.265847251158025780e-02
4.847999999999999687e+01,1.931831244706154818e-02
4.852000000000000313e+01,1.279558488052514112e-02
4.856000000000000227e+01,1.919661156230180465e-02
4.860000000000000142e+01,1.344898570974641452e-02
4.864000000000000057e+01,2.075435457892005689e-02
4.867999999999999972e+01,9.449111500354930721e-03
4.871999999999999886e+01,2.153600148083650856e-02
4.875999999999999801e+01,1.824326111020595914e-02
4.879999999999999716e+01,1.533807506142517534e-02
4.884000000000000341e+01,1.424207531260681531e-02
4.888000000000000256e+01,1.456754485332394100e-02
4.892000000000000171e+01,9.335566786327005248e-03
4.896000000000000085e+01,1.172854151523570511e-02
4.900000000000000000e+01,1.308744236772803327e-02
4.903999999999999915e+01,1.431694446804815044e-02
4.907999999999999829e+01,1.386617788456517841e-02
4.911999999999999744e+01,1.470764515699705260e-02
4.915999999999999659e+01,2.058928410586443117e-02
4.920000000000000284e+01,1.419304075654881196e-02
4.924000000000000199e+01,1.296620955708464688e-02
4.928000000000000114e+01,1.561639900277517722e-02
4.932000000000000028e+01,9.736645230752207641e-03
4.935999999999999943e+01,1.871924650853718647e-02
4.939999999999999858e+01,1.374385886293882919e-02
4.943999999999999773e+01,1.406712573053105035e-02
4.947999999999999687e+01,1.736274189888024552e-02
4.952000000000000313e+01,1.057754743778269862e-02
4.956000000000000227e+01,2.033482095143758495e-02
4.960000000000000142e+01,1.858965374745628549e-02
4.964000000000000057e+01,2.149694813920211001e-02
4.967999999999999972e+01,1.690821869074098094e-02
4.971999999999999886e+01,1.567955996328468729e-02
4.975999999999999801e+01,3.206941465024046659e-03
4.979999999999999716e+01,1.425571224858633058e-02
4.984000000000000341e+01,1.406052452129311937e-02
4.988000000000000256e+01,1.451138655209301652e-02
4.992000000000000171e+01,1.909775773457244447e-02
4.996000000000000085e+01,1.295712914998808397e-02
5.000000000000000000e+01,1.482918738104536081e-02
5.003999999999999915e+01,1.372859991301431624e-02
5.007999999999999829e+01,1.495417512802088046e-02
5.011999999999999744e+01,1.372406275775638756e-02
5.015999999999999659e+01,1.288152612847166291e-02
5.020000000000000284e+01,1.203884822973978405e-02
5.024000000000000199e+01,1.391005317434452181e-02
5.028000000000000114e+01,9.060679009161158246e-03
5.032000000000000028e+01,1.571345546302676394e-02
5.035999999999999943e+01,1.861815597679665826e-02
5.039999999999999858e+01,2.035956544978742913e-02
5.043999999999999773e+01,1.357104934434824953e-02
5.047999999999999687e+01,1.738001188358590660e-02
5.052000000000000313e+01,1.240057167740814606e-02
5.056000000000000227e+01,1.297828205063873176e-02
5.060000000000000142e+01,1.743303385817959392e-02
5.064000000000000057e+01,1.465025537183365680e-02
5.067999999999999972e+01,1.677843328748369195e-02
5.071999999999999886e+01,1.347843115773531691e-02
5.075999999999999801e+01,1.237536320712242198e-02
5.079999999999999716e+01,1.514933984069188888e-02
5.084000000000000341e+01,1.559687944199680126e-02
5.088000000000000256e+01,9.453088596596897000e-03
5.092000000000000171e+01,8.607975573440822953e-03
5.096000000000000085e+01,1.293230178903586290e-02
5.100000000000000000e+01,9.889864167046642091e-03
5.103999999999999915e+01,1.951274142484979435e-02
5.107999999999999829e+01,1.517765621819490603e-02
5.111999999999999744e+01,1.898451467993230238e-02
5.115999999999999659e+01,1.348602362197644754e-02
5.120000000000000284e+01,2.129904603104615032e-02
5.124000000000000199e+01,1.334475950701589399e-02
5.128000000000000114e+01,1.598796422715071872e-02
5.132000000000000028e+01,9.196582734022780078e-03
5.135999999999999943e+01,1.339041138541009583e-02
5.139999999999999858e+01,1.512857261070747923e-02
5.143999999999999773e+01,1.311867490521826003e-02
5.147999999999999687e+01,2.118931473989776534e-02
5.152000000000000313e+01,1.904993623038388900e-02
5.156000000000000227e+01,1.820283000522397027e-02
5.160000000000000142e+01,1.373690658264223492e-02
5.164000000000000057e+01,1.547434681611348575e-02
5.167999999999999972e+01,1.540232010065125355e-02
5.171999999999999886e+01,1.533017605476953010e-02
5.175999999999999801e+01,2.327074654340358095e-02
5.179999999999999716e+01,1.492706006471096990e-02
5.184000000000000341e+01,1.472532859395012279e-02
5.188000000000000256e+01,1.529891759347001140e-02
5.192000000000000171e+01,1.600163162590959379e-02
5.196000000000000085e+01,1.605803604044055838e-02
5.200000000000000000e+01,1.288334719769516565e-02
5.203999999999999915e+01,1.358572246833886395e-02
5.207999999999999829e+01,2.100842517862251332e-02
5.211999999999999744e+01,2.080590326367125903e-02
5.215999999999999659e+01,7.550110387840805980e-03
5.220000000000000284e+01,1.432628582868595603e-02
5.224000000000000199e+01,1.644974044396299920e-02
5.228000000000000114e+01,1.766841205419250604e-02
5.232000000000000028e+01,1.798230128934887734e-02
5.235999999999999943e+01,1.803760484674210920e-02
5.239999999999999858e+01,1.835128021021509293e-02
5.243999999999999773e+01,1.776017508853814861e-02
5.247999999999999687e+01,1.225787449420534352e-02
5.252000000000000313e+01,1.399286512309946308e-02
5.256000000000000227e+01,2.102655940318825384e-02
5.260000000000000142e+01,1.306840145010972412e-02
5.264000000000000057e+01,1.570775616032626595e-02
5.267999999999999972e+01,1.511602832283137458e-02
5.271999999999999886e+01,1.659202631975104439e-02
5.275999999999999801e+01,1.186444111916459647e-02
5.279999999999999716e+01,2.044839458458020884e-02
5.284000000000000341e+01,2.089017791043180916e-02
5.288000000000000256e+01,2.107338374818761365e-02
5.292000000000000171e+01,1.453605205446651706e-02
5.296000000000000085e+01,1.084188525580908648e-02
5.300000000000000000e+01,1.399729959967019842e-02
5.303999999999999915e+01,1.443859391945807001e-02
5.307999999999999829e+01,2.134175300131193123e-02
5.311999999999999744e+01,1.855187579181739876e-02
5.315999999999999659e+01,1.989755876192973727e-02
5.320000000000000284e+01,1.310107726224779556e-02
5.324000000000000199e+01,2.090853349295749078e-02
5.328000000000000114e+01,2.070306572728888156e-02
5.332000000000000028e+01,1.429402358375593020e-02
5.335999999999999943e+01,1.835326622959027390e-02
5.339999999999999858e+01,1.220252014002864635e-02
5.343999999999999773e+01,1.290136212270411725e-02
5.347999999999999687e+01,2.006207516718969130e-02
5.352000000000000313e+01,1.817595428740654065e-02
5.356000000000000227e+01,2.456105471792190131e-02
5.360000000000000142e+01,1.453268731649200521e-02
5.364000000000000057e+01,1.652347967585566027e-02
5.367999999999999972e+01,1.334461703486154900e-02
5.371999999999999886e+01,1.882469586446497076e-02
5.375999999999999801e+01,2.081523072873183236e-02
5.379999999999999716e+01,1.660219877482727729e-02
5.384000000000000341e+01,1.807560827169992293e-02
5.388000000000000256e+01,1.838578153556725756e-02
5.392000000000000171e+01,1.779119762333793847e-02
5.396000000000000085e+01,1.319011604177576513e-02
5.400000000000000000e+01,9.105909892203927630e-03
5.403999999999999915e+01,1.988413249944622277e-02
5.407999999999999829e+01,1.476585168830464589e-02
5.411999999999999744e+01,2.192521662458380566e-02
5.415999999999999659e+01,2.223482434512565400e-02
5.420000000000000284e+01,2.034728716472066629e-02
5.424000000000000199e+01,2.078597818469209504e-02
5.428000000000000114e+01,1.928600399059966081e-02
5.432000000000000028e+01,1.636432206628623404e-02
5.435999999999999943e+01,1.538115259187116529e-02
5.439999999999999858e+01,1.569030012999324264e-02
5.443999999999999773e+01,2.310752991664686770e-02
5.447999999999999687e+01,1.462826258466079499e-02
5.452000000000000313e+01,2.747339224253729506e-02
5.456000000000000227e+01,1.679691244716333132e-02
5.460000000000000142e+01,2.098287022824521855e-02
5.464000000000000057e+01,1.909451363408546515e-02
5.467999999999999972e+01,1.901543531615218149e-02
5.471999999999999886e+01,2.087487511788693392e-02
5.475999999999999801e+01,2.092489647871790398e-02
5.479999999999999716e+01,2.058713137675770299e-02
5.484000000000000341e+01,1.753527459957274562e-02
5.488000000000000256e+01,2.417629126998017269e-02
5.492000000000000171e+01,1.492081775146632261e-02
5.496000000000000085e+01,2.039854826571094529e-02
5.500000000000000000e+01,2.523001704010222404e-02
5.503999999999999915e+01,1.830065234644312130e-02
5.507999999999999829e+01,1.912557604824169713e-02
5.511999999999999744e+01,2.072587124824840435e-02
5.515999999999999659e+01,1.741501318388479630e-02
5.520000000000000284e+01,1.746431214702036730e-02
5.524000000000000199e+01,2.035681191376107965e-02
5.528000000000000114e+01,1.937207401379159935e-02
5.532000000000000028e+01,2.316912637938272138e-02
5.535999999999999943e+01,2.115035413620579285e-02
5.539999999999999858e+01,2.107011072226187831e-02
5.543999999999999773e+01,2.460850654259787509e-02
5.547999999999999687e+01,2.103868750941788671e-02
5.552000000000000313e+01,2.509392458794705918e-02
5.556000000000000227e+01,1.932692459009981156e-02
5.560000000000000142e+01,1.782476241376560605e-02
5.564000000000000057e+01,2.019972104851756184e-02
5.567999999999999972e+01,2.166995022604701476e-02
5.571999999999999886e+01,2.197697214939407090e-02
5.575999999999999801e+01,2.396405014480960938e-02
5.579999999999999716e+01,2.517563978639296082e-02
5.584000000000000341e+01,2.070065159236833888e-02
5.588000000000000256e+01,2.902029371850694400e-02
5.592000000000000171e+01,1.627389286640018237e-02
5.596000000000000085e+01,2.239636662735977266e-02
5.600000000000000000e+01,2.399541799381296053e-02
5.603999999999999915e+01,2.016637310146442152e-02
5.607999999999999829e+01,2.098989123072325311e-02
5.611999999999999744e+01,2.245955739408336815e-02
5.615999999999999659e+01,2.237830559257833474e-02
5.620000000000000284e+01,2.371863836592615765e-02
5.624000000000000199e+01,2.195718387275224365e-02
5.628000000000000114e+01,2.536525240492618072e-02
5.632000000000000028e+01,1.895109583023748753e-02
5.635999999999999943e+01,2.662396927007617403e-02
5.639999999999999858e+01,2.214831302059302315e-02
5.643999999999999773e+01,2.310066074328958122e-02
5.647999999999999687e+01,2.702546801226519968e-02
5.652000000000000313e+01,2.306664152625687372e-02
5.656000000000000227e+01,2.246799348687772077e-02
5.660000000000000142e+01,1.669973643527286611e-02
5.664000000000000057e+01,1.325774538250910212e-02
5.667999999999999972e+01,2.235191882246260336e-02
5.671999999999999886e+01,2.252854794956737905e-02
5.675999999999999801e+01,2.619459788664051797e-02
5.679999999999999716e+01,2.624191252296527790e-02
5.684000000000000341e+01,2.887397473493741665e-02
5.688000000000000256e+01,1.871131874994519384e-02
5.692000000000000171e+01,2.715907407047089134e-02
5.696000000000000085e+01,2.371678694825079398e-02
5.700000000000000000e+01,2.117914014650331203e-02
5.703999999999999915e+01,2.032156957600546321e-02
5.707999999999999829e+01,2.372886013607391001e-02
5.711999999999999744e+01,2.661916155839997092e-02
5.715999999999999659e+01,2.511529806894474692e-02
5.720000000000000284e+01,2.684238389224213178e-02
5.724000000000000199e+01,2.688932954651635648e-02
5.728000000000000114e+01,2.292982981933387385e-02
5.732000000000000028e+01,2.284747736216277691e-02
5.735999999999999943e+01,2.677151201844463202e-02
5.739999999999999858e+01,2.643062475625878108e-02
5.743999999999999773e+01,2.221253384598092379e-02
5.747999999999999687e+01,2.006224373707259090e-02
5.752000000000000313e+01,2.321073539618598996e-02
5.756000000000000227e+01,2.467909192607150443e-02
5.760000000000000142e+01,2.033165912575599782e-02
5.764000000000000057e+01,2.826192751060943587e-02
5.767999999999999972e+01,2.404368636532227752e-02
5.771999999999999886e+01,1.892074789150754652e-02
5.775999999999999801e+01,2.000126945983075194e-02
5.779999999999999716e+01,2.302035765585167676e-02
5.784000000000000341e+01,2.616866412100516542e-02
5.788000000000000256e+01,2.970466791219983360e-02
5.792000000000000171e+01,2.988043246886394610e-02
5.796000000000000085e+01,2.514508785936647381e-02
5.800000000000000000e+01,3.087810111626809739e-02
5.803999999999999915e+01,3.092457118615436068e-02
5.807999999999999829e+01,2.748156532794056306e-02
5.811999999999999744e+01,3.050050360856865900e-02
5.815999999999999659e+01,2.615279081703214548e-02
5.820000000000000284e+01,2.413136859333881237e-02
5.824000000000000199e+01,3.038124138695011411e-02
5.828000000000000114e+01,3.197848848112942732e-02
5.832000000000000028e+01,3.163713398866047077e-02
5.835999999999999943e+01,2.961565696645186360e-02
5.839999999999999858e+01,2.772340703301758372e-02
5.843999999999999773e+01,3.035451807621379269e-02
5.847999999999999687e+01,2.432659095236963318e-02
5.852000000000000313e+01,2.527757112097990880e-02
5.856000000000000227e+01,2.894256516760436090e-02
5.860000000000000142e+01,3.144439731820413558e-02
5.864000000000000057e+01,2.929360943914154428e-02
5.867999999999999972e+01,2.869368440681240029e-02
5.871999999999999886e+01,2.615516408757909833e-02
5.875999999999999801e+01,2.568446472889648544e-02
5.879999999999999716e+01,3.206343785902208976e-02
5.884000000000000341e+01,2.978337849187697242e-02
5.888000000000000256e+01,2.763255377319915815e-02
5.892000000000000171e+01,2.703259568110120623e-02
5.896000000000000085e+01,2.966361462063001400e-02
5.900000000000000000e+01,2.751277998679914349e-02
5.903999999999999915e+01,2.872216285801091132e-02
5.907999999999999829e+01,2.773447768515399647e-02
5.911999999999999744e+01,2.726374858101220447e-02
5.915999999999999659e+01,3.454737212971806942e-02
5.920000000000000284e+01,3.019946694117937175e-02
5.924000000000000199e+01,2.934102162102256509e-02
5.928000000000000114e+01,3.197203679922198949e-02
5.932000000000000028e+01,2.930424658998854320e-02
5.935999999999999943e+01,2.986743971212595453e-02
5.939999999999999858e+01,2.784585218958870317e-02
5.943999999999999773e+01,3.047688060650929898e-02
5.947999999999999687e+01,2.612899638082226764e-02
5.952000000000000313e+01,2.669220778147618142e-02
5.956000000000000227e+01,2.738466454016233800e-02
5.960000000000000142e+01,2.936952020805915983e-02
5.964000000000000057e+01,2.773568530339090218e-02
5.967999999999999972e+01,3.023751326415851162e-02
5.971999999999999886e+01,2.899141269884272440e-02
5.975999999999999801e+01,3.071782333770765872e-02
5.979999999999999716e+01,3.011793805857626918e-02
5.984000000000000341e+01,3.029349861463354054e-02
5.988000000000000256e+01,3.059830956851841352e-02
5.992000000000000171e+01,3.284172053874477581e-02
5.996000000000000085e+01,2.603839901058262185e-02
