2.003999999999999915e+01,1.766350079085025199e-02
2.007999999999999829e+01,2.589992723322672580e-02
2.012000000000000099e+01,2.553393705813522541e-02
2.016000000000000014e+01,2.215679865862986778e-02
2.019999999999999929e+01,1.834909766630227548e-02
2.023999999999999844e+01,1.851933424648711385e-02
2.028000000000000114e+01,8.366765689746527221e-03
2.032000000000000028e+01,2.283681731334312459e-02
2.035999999999999943e+01,1.784449194627544741e-02
2.039999999999999858e+01,2.586215406603737874e-02
2.044000000000000128e+01,1.646040331252487249e-02
2.048000000000000043e+01,1.157421449812979369e-02
2.051999999999999957e+01,2.496670922557334832e-02
2.055999999999999872e+01,2.179998737690265823e-02
2.060000000000000142e+01,1.390173163675886489e-02
2.064000000000000057e+01,1.116418577170324652e-02
2.067999999999999972e+01,2.294197162660836439e-02
2.071999999999999886e+01,2.203142037150304308e-02
2.076000000000000156e+01,2.026021469102862183e-02
2.080000000000000071e+01,1.805845253002227521e-02
2.083999999999999986e+01,2.940430425988054333e-02
2.087999999999999901e+01,1.204068724334421588e-02
2.092000000000000171e+01,1.413852607122221411e-02
2.096000000000000085e+01,1.913906596298338078e-02
2.100000000000000000e+01,2.714983171045127347e-02
2.103999999999999915e+01,1.817128823428609125e-02
2.107999999999999829e+01,1.962215394810625652e-02
2.112000000000000099e+01,1.505119845571837971e-02
2.116000000000000014e+01,1.467323867669687899e-02
2.119999999999999929e+01,1.655283610044801235e-02
2.123999999999999844e+01,2.402324704892863649e-02
2.128000000000000114e+01,1.181624161024792674e-02
2.132000000000000028e+01,1.208161110888638159e-02
2.135999999999999943e+01,2.395916087762779006e-02
2.139999999999999858e+01,2.529886815037667158e-02
2.144000000000000128e+01,1.825122102137464661e-02
2.148000000000000043e+01,1.776210932105815737e-02
2.151999999999999957e+01,2.694974060270892077e-02
2.155999999999999872e+01,1.936311672672024961e-02
2.160000000000000142e+01,1.639959058379538911e-02
2.164000000000000057e+01,1.687639435370474200e-02
2.167999999999999972e+01,1.122385823787252525e-02
2.171999999999999886e+01,1.374272576070865656e-02
2.176000000000000156e+01,1.464827835496173430e-02
2.180000000000000071e+01,1.630605288354870439e-02
2.183999999999999986e+01,1.871604975395583376e-02
2.187999999999999901e+01,2.682439105320646999e-02
2.192000000000000171e+01,1.665313948146313061e-02
2.196000000000000085e+01,1.529844029933094193e-02
2.200000000000000000e+01,2.082485499621593295e-02
2.203999999999999915e+01,2.409281131089336184e-02
2.207999999999999829e+01,2.187657812071595875e-02
2.212000000000000099e+01,1.998247258740964288e-02
2.216000000000000014e+01,2.604472640644229370e-02
2.219999999999999929e+01,1.189195128880322049e-02
2.223999999999999844e+01,2.107152329877678629e-02
2.228000000000000114e+01,2.379918838228576444e-02
2.232000000000000028e+01,2.330067847694929431e-02
2.235999999999999943e+01,1.731798191916020593e-02
2.239999999999999858e+01,2.283995184177276677e-02
2.244000000000000128e+01,7.501748966602873187e-03
2.248000000000000043e+01,1.345293236154426926e-02
2.251999999999999957e+01,8.221138364074995208e-03
2.255999999999999872e+01,2.331101199264906665e-02
2.260000000000000142e+01,1.603537307265593889e-02
2.264000000000000057e+01,1.585590332013185610e-02
2.267999999999999972e+01,2.126726176183398737e-02
2.271999999999999886e+01,1.044199878468023840e-02
2.276000000000000156e+01,1.090635718662674378e-02
2.280000000000000071e+01,1.255304524740881444e-02
2.283999999999999986e+01,1.409177076245913922e-02
2.287999999999999901e+01,2.089875335615244689e-02
2.292000000000000171e+01,2.125383554315741358e-02
2.296000000000000085e+01,2.365144409364416597e-02
2.300000000000000000e+01,1.884448236205011132e-02
2.303999999999999915e+01,2.027349879808316643e-02
2.307999999999999829e+01,1.396032384531856706e-02
2.312000000000000099e+01,2.334527369687719109e-02
2.316000000000000014e+01,1.240768000709067606e-02
2.319999999999999929e+01,1.813593139563935558e-02
2.323999999999999844e+01,2.268098046993878222e-02
2.328000000000000114e+01,2.324719364469282276e-02
2.332000000000000028e+01,2.908166838043598629e-02
2.335999999999999943e+01,2.115258905686834626e-02
2.339999999999999858e+01,1.666385757551978875e-02
2.344000000000000128e+01,2.281960809450719538e-02
2.348000000000000043e+01,2.929750012489025154e-02
2.351999999999999957e+01,1.663562050901783163e-02
2.355999999999999872e+01,2.676847954610791364e-02
2.360000000000000142e+01,1.518098252780804118e-02
2.364000000000000057e+01,1.843142053644735920e-02
2.367999999999999972e+01,3.135862353129881264e-02
2.371999999999999886e+01,2.482348376431156578e-02
2.376000000000000156e+01,2.301898811897082342e-02
2.380000000000000071e+01,1.841843009911848031e-02
2.383999999999999986e+01,1.908613893757356988e-02
2.387999999999999901e+01,2.480706627314654272e-02
2.392000000000000171e+01,2.590401792292375965e-02
2.396000000000000085e+01,1.248475093531595942e-02
2.400000000000000000e+01,1.390342264202161851e-02
2.403999999999999915e+01,1.747215609866936692e-02
2.407999999999999829e+01,1.953512264526088144e-02
2.412000000000000099e+01,2.579111505918421990e-02
2.416000000000000014e+01,2.150929309365028769e-02
2.419999999999999929e+01,1.991515642969132749e-02
2.423999999999999844e+01,2.369681508323786753e-02
2.428000000000000114e+01,1.597294112074522029e-02
2.432000000000000028e+01,2.545254556788519723e-02
2.435999999999999943e+01,1.901811845610930710e-02
2.439999999999999858e+01,2.408837819903597924e-02
2.444000000000000128e+01,1.518004611609880851e-02
2.448000000000000043e+01,1.842154800886292715e-02
2.451999999999999957e+01,1.521116579437935788e-02
2.455999999999999872e+01,1.253798486208950250e-02
2.460000000000000142e+01,1.416535907130146016e-02
2.464000000000000057e+01,4.163264956885794413e-04
2.467999999999999972e+01,1.741884842364200756e-02
2.471999999999999886e+01,1.270102570581395710e-02
2.476000000000000156e+01,1.722988143896939453e-02
2.480000000000000071e+01,1.724229483535926963e-02
2.483999999999999986e+01,1.230816876511842302e-02
2.487999999999999901e+01,2.758820957077217154e-02
2.492000000000000171e+01,1.663188362588799429e-02
2.496000000000000085e+01,1.965331108027943904e-02
2.500000000000000000e+01,1.460999355218888136e-02
2.503999999999999915e+01,1.795316225278178329e-02
2.507999999999999829e+01,1.753256215937558371e-02
2.512000000000000099e+01,1.775669343730518906e-02
2.516000000000000014e+01,9.378459441007919867e-03
2.519999999999999929e+01,1.831123720337337474e-02
2.523999999999999844e+01,2.391034533903503914e-02
2.528000000000000114e+01,2.284252834100778534e-02
2.532000000000000028e+01,2.241944475174644652e-02
2.535999999999999943e+01,1.812507083655036030e-02
2.539999999999999858e+01,1.705601636919873779e-02
2.544000000000000128e+01,1.222319677522224098e-02
2.548000000000000043e+01,2.061546518747523274e-02
2.551999999999999957e+01,1.997527445552442493e-02
2.555999999999999872e+01,1.879705134954013854e-02
2.560000000000000142e+01,1.245724775048389840e-02
2.564000000000000057e+01,1.686947294783239931e-02
2.567999999999999972e+01,2.085119137794317484e-02
2.571999999999999886e+01,1.967133053744014176e-02
2.576000000000000156e+01,2.548014626397777233e-02
2.580000000000000071e+01,1.978344485894494714e-02
2.583999999999999986e+01,1.655939669373844916e-02
2.587999999999999901e+01,2.107669700839508858e-02
2.592000000000000171e+01,1.054017673079273021e-02
2.596000000000000085e+01,1.021806658779439957e-02
2.600000000000000000e+01,2.247590344231718829e-02
2.603999999999999915e+01,2.118526230776793251e-02
2.607999999999999829e+01,7.636436203685930020e-03
2.612000000000000099e+01,1.333407014852503424e-02
2.616000000000000014e+01,1.053687339062547683e-02
2.619999999999999929e+01,1.247034561101962452e-02
2.623999999999999844e+01,1.332817046295366355e-02
2.628000000000000114e+01,2.149725033226000670e-02
2.632000000000000028e+01,1.601033068055851896e-02
2.635999999999999943e+01,1.686694740216143976e-02
2.639999999999999858e+01,9.443784634617403972e-03
2.644000000000000128e+01,1.158989058548295058e-02
2.648000000000000043e+01,1.663875383330219032e-02
2.651999999999999957e+01,1.749376541926785447e-02
2.655999999999999872e+01,1.200443806411064830e-02
2.660000000000000142e+01,1.963268574045359469e-02
2.664000000000000057e+01,1.801343691352581128e-02
2.667999999999999972e+01,1.682388658121288655e-02
2.671999999999999886e+01,1.509631569196088867e-02
2.676000000000000156e+01,1.605645618338910965e-02
2.680000000000000071e+01,1.895163777261913915e-02
2.683999999999999986e+01,1.023378844057739288e-02
2.687999999999999901e+01,1.506361452978910963e-02
2.692000000000000171e+01,1.236633711753655843e-02
2.696000000000000085e+01,1.676527288124297216e-02
2.700000000000000000e+01,2.277667862716797192e-02
2.703999999999999915e+01,1.717505548925136669e-02
2.707999999999999829e+01,1.909974428710281905e-02
2.712000000000000099e+01,1.468009984863571232e-02
2.716000000000000014e+01,1.208797579100676436e-02
2.719999999999999929e+01,2.003284765306169793e-02
2.723999999999999844e+01,2.571931410609145166e-02
2.728000000000000114e+01,1.409396175029362965e-02
2.732000000000000028e+01,2.085488659329525624e-02
2.735999999999999943e+01,1.180933482317018945e-02
2.739999999999999858e+01,6.634269181217168805e-03
2.744000000000000128e+01,1.608212850869956967e-02
2.748000000000000043e+01,1.574487796842868881e-02
2.751999999999999957e+01,1.874049285709898996e-02
2.755999999999999872e+01,2.442382727616982871e-02
2.760000000000000142e+01,1.085990722822131015e-02
2.764000000000000057e+01,1.578979202329819365e-02
2.767999999999999972e+01,1.373020298083401508e-02
2.771999999999999886e+01,1.747654224450994470e-02
2.776000000000000156e+01,8.427091731376982683e-03
2.780000000000000071e+01,2.023698414664460918e-02
2.783999999999999986e+01,7.638454091595717373e-03
2.787999999999999901e+01,1.106067048471959073e-02
2.792000000000000171e+01,1.459002485151162341e-02
2.796000000000000085e+01,1.854909075247111044e-02
2.800000000000000000e+01,1.197038139263113636e-02
2.803999999999999915e+01,1.463838389762817799e-02
2.807999999999999829e+01,1.149968486765982553e-02
2.812000000000000099e+01,1.610235713677170971e-02
2.816000000000000014e+01,1.876920652205013584e-02
2.819999999999999929e+01,1.573687997915899917e-02
2.823999999999999844e+01,2.098354787949499936e-02
2.828000000000000114e+01,1.225166307262485522e-02
2.832000000000000028e+01,1.674489520349153535e-02
2.835999999999999943e+01,1.586152618914608500e-02
2.839999999999999858e+01,2.443992147568730539e-02
2.844000000000000128e+01,1.946986322231760227e-02
2.848000000000000043e+01,2.363899693179331851e-02
2.851999999999999957e+01,1.899075082719222513e-02
2.855999999999999872e+01,1.660013690279102394e-02
2.860000000000000142e+01,1.216618019256480304e-02
2.864000000000000057e+01,1.482845377271035242e-02
2.867999999999999972e+01,1.394204400127409607e-02
2.871999999999999886e+01,9.076853748390919727e-03
2.876000000000000156e+01,1.259818762039087436e-02
2.880000000000000071e+01,8.377388374093856088e-03
2.883999999999999986e+01,1.953219904960735651e-02
2.887999999999999901e+01,1.520312174947618250e-02
2.892000000000000171e+01,1.904552143549666926e-02
2.896000000000000085e+01,1.181253371869325774e-02
2.900000000000000000e+01,1.640685287049787472e-02
2.903999999999999915e+01,1.766754110677034098e-02
2.907999999999999829e+01,1.623974514102338382e-02
2.912000000000000099e+01,1.298366045544518260e-02
2.916000000000000014e+01,1.510342120815259120e-02
2.919999999999999929e+01,1.292183321623201729e-02
2.923999999999999844e+01,7.836713883560475144e-03
2.928000000000000114e+01,9.847831361037073100e-03
2.932000000000000028e+01,2.153577128025433232e-02
2.935999999999999943e+01,1.526676727389034670e-02
2.939999999999999858e+01,1.254569661698592964e-02
2.944000000000000128e+01,1.294246217967603974e-02
2.948000000000000043e+01,2.258595427669983849e-02
2.951999999999999957e+01,7.283419096131064224e-03
2.955999999999999872e+01,1.187252531430769455e-02
2.960000000000000142e+01,1.871927430732070810e-02
2.964000000000000057e+01,9.652045529572269439e-03
2.967999999999999972e+01,1.262717931636973476e-02
2.971999999999999886e+01,1.355898172695065018e-02
2.976000000000000156e+01,1.739357484833874146e-02
2.980000000000000071e+01,1.875473987113124297e-02
2.983999999999999986e+01,1.516941636304534359e-02
2.987999999999999901e+01,1.029343379905142339e-02
2.992000000000000171e+01,1.606199924812844182e-02
2.996000000000000085e+01,8.389651026101003009e-03
3.000000000000000000e+01,1.437253439357419685e-02
3.003999999999999915e+01,2.304316255558111134e-02
3.007999999999999829e+01,1.106874451831069660e-02
3.012000000000000099e+01,9.201254609852412350e-03
3.016000000000000014e+01,1.797831515938122515e-02
3.019999999999999929e+01,1.514237901646382257e-02
3.023999999999999844e+01,7.359958417528203629e-03
3.028000000000000114e+01,1.903908901473520127e-02
3.032000000000000028e+01,1.824502906725183546e-02
3.035999999999999943e+01,1.422487603561273586e-02
3.039999999999999858e+01,1.708592245505472645e-02
3.044000000000000128e+01,2.414005912461941739e-02
3.048000000000000043e+01,1.700061673003340490e-02
3.051999999999999957e+01,1.502198485958213502e-02
3.055999999999999872e+01,1.261289593518739351e-02
3.060000000000000142e+01,9.773350364335095172e-03
3.064000000000000057e+01,1.510529930153329051e-02
3.067999999999999972e+01,1.688858526145051858e-02
3.071999999999999886e+01,1.544578180458621407e-02
3.076000000000000156e+01,1.271232825650627819e-02
3.080000000000000071e+01,1.503216370062544251e-02
3.083999999999999986e+01,1.079265503595002937e-02
3.087999999999999901e+01,8.918326570001404441e-03
3.092000000000000171e+01,1.155966639702106502e-02
3.096000000000000085e+01,2.635090621247693915e-02
3.100000000000000000e+01,1.469079244659412913e-02
3.103999999999999915e+01,1.238494549133748249e-02
3.107999999999999829e+01,1.190665885054884542e-02
3.112000000000000099e+01,1.164306716664755166e-02
3.116000000000000014e+01,1.223931715314632157e-02
3.119999999999999929e+01,6.598799851238030395e-03
3.123999999999999844e+01,1.654896568897692641e-02
3.128000000000000114e+01,1.080021923155666946e-02
3.132000000000000028e+01,1.386812051547583850e-02
3.135999999999999943e+01,1.123687806262092630e-02
3.139999999999999858e+01,1.839000362511743203e-02
3.144000000000000128e+01,1.414519389590981717e-02
3.148000000000000043e+01,1.226557047771925819e-02
3.151999999999999957e+01,1.264360939369397509e-02
3.155999999999999872e+01,1.205357952118674483e-02
3.160000000000000142e+01,6.302030278510430995e-03
3.164000000000000057e+01,1.044237588043938486e-02
3.167999999999999972e+01,1.103406869223792081e-02
3.171999999999999886e+01,1.603391356238730373e-02
3.176000000000000156e+01,1.339917985254280436e-02
3.180000000000000071e+01,9.793802834350397255e-04
3.183999999999999986e+01,1.156945248557107904e-02
3.187999999999999901e+01,1.237445964341588912e-02
3.192000000000000171e+01,1.543713321028616393e-02
3.196000000000000085e+01,1.280066915267257660e-02
3.200000000000000000e+01,1.059395778531436148e-02
3.203999999999999915e+01,0.000000000000000000e+00
3.207999999999999829e+01,1.144819697180564540e-02
3.211999999999999744e+01,9.885599814102868574e-03
3.215999999999999659e+01,1.015057397299056786e-02
3.220000000000000284e+01,1.364093685234585816e-02
3.224000000000000199e+01,1.379770141505046524e-02
3.228000000000000114e+01,1.234125821799486253e-02
3.232000000000000028e+01,1.099199781806937254e-02
3.235999999999999943e+01,8.674676779382332198e-03
3.239999999999999858e+01,6.249490584121965980e-03
3.243999999999999773e+01,1.339363423017393001e-02
3.247999999999999687e+01,2.042991353462455736e-02
3.252000000000000313e+01,1.101462248561821573e-02
3.256000000000000227e+01,4.287101902764710835e-03
3.260000000000000142e+01,1.691363176590509471e-02
3.264000000000000057e+01,5.239312441389032404e-03
3.267999999999999972e+01,1.205884930313667718e-02
3.271999999999999886e+01,1.522221958505260223e-02
3.275999999999999801e+01,7.202716790978532305e-03
3.279999999999999716e+01,1.412876672247974190e-02
3.284000000000000341e+01,1.159233454236740721e-02
3.288000000000000256e+01,1.561455392445596294e-02
3.292000000000000171e+01,8.668950629174169281e-03
3.296000000000000085e+01,1.785166991712721155e-02
3.300000000000000000e+01,1.370103088725095793e-02
3.303999999999999915e+01,1.600152066518190086e-02
3.307999999999999829e+01,1.636623768005957685e-02
3.311999999999999744e+01,1.892256218837178559e-03
3.315999999999999659e+01,9.783013669870589679e-03
3.320000000000000284e+01,1.477028012126891353e-02
3.324000000000000199e+01,1.620890967449148748e-02
3.328000000000000114e+01,1.409890273702429052e-02
3.332000000000000028e+01,1.532182031397096716e-02
3.335999999999999943e+01,3.641480777813597709e-03
3.339999999999999858e+01,6.584126926508416036e-03
3.343999999999999773e+01,6.085662598795327054e-03
3.347999999999999687e+01,1.150070963954677103e-02
3.352000000000000313e+01,7.883379033298075489e-03
3.356000000000000227e+01,1.157737760687700505e-02
3.360000000000000142e+01,9.679779647236637016e-03
3.364000000000000057e+01,1.057748754020938244e-02
3.367999999999999972e+01,1.168991646917471108e-02
3.371999999999999886e+01,1.398478630065856133e-02
3.375999999999999801e+01,1.832229251684916113e-02
3.379999999999999716e+01,1.728325300592611913e-02
3.384000000000000341e+01,9.362326794646620015e-03
3.388000000000000256e+01,1.047312317248721460e-02
3.392000000000000171e+01,1.459427702401866304e-02
3.396000000000000085e+01,1.333888677838049493e-02
3.400000000000000000e+01,1.208317205994748587e-02
3.403999999999999915e+01,6.848731055708023527e-03
3.407999999999999829e+01,1.731252650696077366e-02
3.411999999999999744e+01,1.874395042350372395e-02
3.415999999999999659e+01,9.207564294742894700e-03
3.420000000000000284e+01,8.487855246314806104e-03
3.424000000000000199e+01,1.927293329414983894e-02
3.428000000000000114e+01,5.434605708241842248e-03
3.432000000000000028e+01,1.331588254565753936e-02
3.435999999999999943e+01,1.678833881980383580e-02
3.439999999999999858e+01,1.348643848273565170e-02
3.443999999999999773e+01,1.545291298776977837e-02
3.447999999999999687e+01,1.946203121225903790e-02
3.452000000000000313e+01,1.540650143593856776e-02
3.456000000000000227e+01,1.726449403020507631e-02
3.460000000000000142e+01,9.875071210918457201e-03
3.464000000000000057e+01,9.259366651893072286e-03
3.467999999999999972e+01,1.703024652568155620e-02
3.471999999999999886e+01,1.867191935417035833e-02
3.475999999999999801e+01,1.085112963037453311e-02
3.479999999999999716e+01,1.227712063655284069e-02
3.484000000000000341e+01,1.735862479462699226e-02
3.488000000000000256e+01,2.093447206386987378e-02
3.492000000000000171e+01,1.644567540716325785e-02
3.496000000000000085e+01,1.453714928143281203e-02
3.500000000000000000e+01,1.660671109055561825e-02
3.503999999999999915e+01,9.966483890160330802e-03
3.507999999999999829e+01,1.536867426492345180e-02
3.511999999999999744e+01,1.593195428130039087e-02
3.515999999999999659e+01,1.939808001909689231e-02
3.520000000000000284e+01,1.318669891827944050e-02
3.524000000000000199e+01,6.329859670707039566e-03
3.528000000000000114e+01,2.162273216347387547e-02
3.532000000000000028e+01,1.788347760269846584e-02
3.535999999999999943e+01,1.812231464415046261e-02
3.539999999999999858e+01,1.836084147481826037e-02
3.543999999999999773e+01,1.397550997566357305e-02
3.547999999999999687e+01,1.453599076023430123e-02
3.552000000000000313e+01,1.498863817214115580e-02
3.556000000000000227e+01,1.253781862608796364e-02
3.560000000000000142e+01,2.255951948986245972e-02
3.564000000000000057e+01,2.096827907928923082e-02
3.567999999999999972e+01,1.346289017175636427e-02
3.571999999999999886e+01,1.036569407117618469e-02
3.575999999999999801e+01,1.640776409589677146e-02
3.579999999999999716e+01,1.363252846899584356e-02
3.584000000000000341e+01,1.042688957630583460e-02
3.588000000000000256e+01,1.442507911329472120e-02
3.592000000000000171e+01,1.498218343800883368e-02
3.596000000000000085e+01,1.500136133505414540e-02
3.600000000000000000e+01,2.684791741076070909e-02
3.603999999999999915e+01,3.095241412313961410e-02
3.607999999999999829e+01,1.935804743868155958e-02
3.611999999999999744e+01,1.948353577100503733e-02
3.615999999999999659e+01,1.606041695163211436e-02
3.620000000000000284e+01,1.822826405675960840e-02
3.624000000000000199e+01,1.523463906009610985e-02
3.628000000000000114e+01,2.568126085956260948e-02
3.632000000000000028e+01,2.494504584929481059e-02
3.635999999999999943e+01,2.517624986694719236e-02
3.639999999999999858e+01,2.433191001758810978e-02
3.643999999999999773e+01,2.854091661595669488e-02
3.647999999999999687e+01,1.887897842609065693e-02
3.652000000000000313e+01,2.717331361945723653e-02
3.656000000000000227e+01,2.062898538052131830e-02
3.660000000000000142e+01,2.569699266386137396e-02
3.664000000000000057e+01,2.270037354315070088e-02
3.667999999999999972e+01,2.260661562832829916e-02
3.671999999999999886e+01,3.218975554016002133e-02
3.675999999999999801e+01,2.779442913182150060e-02
3.679999999999999716e+01,3.565658658921565249e-02
3.684000000000000341e+01,3.233591253419376699e-02
3.688000000000000256e+01,3.729432093937899706e-02
3.692000000000000171e+01,3.805898362907546989e-02
3.696000000000000085e+01,2.807091356616504482e-02
3.700000000000000000e+01,2.335124442446209411e-02
3.703999999999999915e+01,2.992134213436797516e-02
3.707999999999999829e+01,3.681371990091577423e-02
3.711999999999999744e+01,3.413613477251623007e-02
3.715999999999999659e+01,3.489903766152605696e-02
3.720000000000000284e+01,3.770461197904024370e-02
3.724000000000000199e+01,3.448852930721169052e-02
3.728000000000000114e+01,4.815348391747235196e-02
3.732000000000000028e+01,4.740988037501595725e-02
3.735999999999999943e+01,5.075191319342566704e-02
3.739999999999999858e+01,4.463151035362795949e-02
3.743999999999999773e+01,4.722029321619268527e-02
3.747999999999999687e+01,4.593790922108630104e-02
3.752000000000000313e+01,5.637539450477206671e-02
3.756000000000000227e+01,5.702787260718115286e-02
3.760000000000000142e+01,6.724973311659895869e-02
3.764000000000000057e+01,6.575114834163221789e-02
3.767999999999999972e+01,7.339184925129510484e-02
3.771999999999999886e+01,8.027959289399845544e-02
3.775999999999999801e+01,8.275855060974392219e-02
3.779999999999999716e+01,9.631223415065705284e-02
3.784000000000000341e+01,1.015862547434244340e-01
3.788000000000000256e+01,1.113760145317273104e-01
3.792000000000000171e+01,1.203052947061628991e-01
3.796000000000000085e+01,1.335352661224304682e-01
3.800000000000000000e+01,1.602055018567268285e-01
3.803999999999999915e+01,1.808540887514008544e-01
3.807999999999999829e+01,2.036528804236093504e-01
3.811999999999999744e+01,2.406446083266690628e-01
3.815999999999999659e+01,2.716146886125644921e-01
3.820000000000000284e+01,3.089284258876257017e-01
3.824000000000000199e+01,3.715101122027869573e-01
3.828000000000000114e+01,4.116189213195625696e-01
3.832000000000000028e+01,4.801138874372056775e-01
3.835999999999999943e+01,5.547374634052830711e-01
3.839999999999999858e+01,6.241995892758144260e-01
3.843999999999999773e+01,7.135534470069873070e-01
3.847999999999999687e+01,7.861332219471065530e-01
3.852000000000000313e+01,8.743037541893283748e-01
3.856000000000000227e+01,9.461303019928196667e-01
3.860000000000000142e+01,1.000000000000000000e+00
3.864000000000000057e+01,9.932256680362586687e-01
3.867999999999999972e+01,9.431187323874639095e-01
3.871999999999999886e+01,8.768828626985581964e-01
3.875999999999999801e+01,7.743034751215259748e-01
3.879999999999999716e+01,6.741968728097899044e-01
3.884000000000000341e+01,5.506496795454325355e-01
3.888000000000000256e+01,4.876384399037415607e-01
3.892000000000000171e+01,4.127992436328806747e-01
3.896000000000000085e+01,3.497874556946463653e-01
3.900000000000000000e+01,3.011836617206313793e-01
3.903999999999999915e+01,2.836541416906765978e-01
3.907999999999999829e+01,2.562321055795760416e-01
3.911999999999999744e+01,2.264442606984599926e-01
3.915999999999999659e+01,2.078386798813739444e-01
3.920000000000000284e+01,1.938563760911997391e-01
3.924000000000000199e+01,1.777233135221436000e-01
3.928000000000000114e+01,1.693317359407668365e-01
3.932000000000000028e+01,1.521228885665381059e-01
3.935999999999999943e+01,1.486768925178761636e-01
3.939999999999999858e+01,1.353383836479565838e-01
3.943999999999999773e+01,1.216770325703273314e-01
3.947999999999999687e+01,1.178001318202251679e-01
3.952000000000000313e+01,1.131702921400342954e-01
3.956000000000000227e+01,1.114433430047250678e-01
3.960000000000000142e+01,1.084258338326102300e-01
3.964000000000000057e+01,1.043328137998513760e-01
3.967999999999999972e+01,1.112070143597653077e-01
3.971999999999999886e+01,9.356538908837244706e-02
3.975999999999999801e+01,9.269730197886416612e-02
3.979999999999999716e+01,8.914083987358936700e-02
3.984000000000000341e+01,9.085280762102930507e-02
3.988000000000000256e+01,8.224216989969279634e-02
3.992000000000000171e+01,8.449123083160732517e-02
3.996000000000000085e+01,8.222400386395724292e-02
4.000000000000000000e+01,7.339752610181081438e-02
4.003999999999999915e+01,7.059215092017370741e-02
4.007999999999999829e+01,6.896928143133200517e-02
4.011999999999999744e+01,6.358279636323418971e-02
4.015999999999999659e+01,6.281959810171264258e-02
4.020000000000000284e+01,6.291633360243127637e-02
4.024000000000000199e+01,5.849678405598743303e-02
4.028000000000000114e+01,5.160391317228479185e-02
4.032000000000000028e+01,4.954937949377804379e-02
4.035999999999999943e+01,5.093536643156214294e-02
4.039999999999999858e+01,5.425653301239429654e-02
4.043999999999999773e+01,5.252379466180514406e-02
4.047999999999999687e+01,4.896288331741392025e-02
4.052000000000000313e+01,4.776725037587991468e-02
4.056000000000000227e+01,5.087233516276903900e-02
4.060000000000000142e+01,4.967618733854535507e-02
4.064000000000000057e+01,3.536180779499742410e-02
4.067999999999999972e+01,4.674549968554776030e-02
4.071999999999999886e+01,4.167770475727483603e-02
4.075999999999999801e+01,3.252372761650876298e-02
4.079999999999999716e+01,3.573479947441501187e-02
4.084000000000000341e+01,3.787037269625780772e-02
4.088000000000000256e+01,3.194136270756782470e-02
4.092000000000000171e+01,3.816235417133266583e-02
4.096000000000000085e+01,3.524351939615905094e-02
4.100000000000000000e+01,2.630306593532842283e-02
4.103999999999999915e+01,3.316844421689502109e-02
4.107999999999999829e+01,3.680783862055878042e-02
4.111999999999999744e+01,3.636105447910352451e-02
4.115999999999999659e+01,3.150551904700193973e-02
4.120000000000000284e+01,2.707983002693994251e-02
4.124000000000000199e+01,2.544952428183450480e-02
4.128000000000000114e+01,2.919518744327831775e-02
4.132000000000000028e+01,2.928477163438428579e-02
4.135999999999999943e+01,2.733114302770509735e-02
4.139999999999999858e+01,2.645250917652217440e-02
4.143999999999999773e+01,3.105737024617033840e-02
4.147999999999999687e+01,2.609231283684715352e-02
4.152000000000000313e+01,1.876147110666949794e-02
4.156000000000000227e+01,2.626874695716735833e-02
4.160000000000000142e+01,2.538887377886746982e-02
4.164000000000000057e+01,2.289588819253561211e-02
4.167999999999999972e+01,2.459610735989761418e-02
4.171999999999999886e+01,2.952181222939951818e-02
4.175999999999999801e+01,2.304968693859008738e-02
4.179999999999999716e+01,2.851252329625234352e-02
4.184000000000000341e+01,2.182485961821081441e-02
4.188000000000000256e+01,2.556681702288421398e-02
4.192000000000000171e+01,2.296459196106566750e-02
4.196000000000000085e+01,2.702863534511194127e-02
4.200000000000000000e+01,2.560869215234054877e-02
4.203999999999999915e+01,2.816690861196164547e-02
4.207999999999999829e+01,2.481104177238601521e-02
4.211999999999999744e+01,2.382046963510827883e-02
4.215999999999999659e+01,1.971144900638798977e-02
4.220000000000000284e+01,2.269879680579973275e-02
4.224000000000000199e+01,2.192255062271430965e-02
4.228000000000000114e+01,2.383417392488419370e-02
4.232000000000000028e+01,2.864871588847091657e-02
4.235999999999999943e+01,2.281810449440100502e-02
4.239999999999999858e+01,2.752464386470198851e-02
4.243999999999999773e+01,2.588700606582928013e-02
4.247999999999999687e+01,2.618456909927754928e-02
4.252000000000000313e+01,3.443869889544819152e-02
4.256000000000000227e+01,2.785422638221904737e-02
4.260000000000000142e+01,2.804355321896881068e-02
4.264000000000000057e+01,2.113603423361054903e-02
4.267999999999999972e+01,2.594843709274083712e-02
4.271999999999999886e+01,2.968536046765052686e-02
4.275999999999999801e+01,2.449752470916811281e-02
4.279999999999999716e+01,3.264247778269891570e-02
4.284000000000000341e+01,2.852941662333865688e-02
4.288000000000000256e+01,3.473846234950594275e-02
4.292000000000000171e+01,2.600138504930984973e-02
4.296000000000000085e+01,2.823156175563999032e-02
4.300000000000000000e+01,3.003140813617832805e-02
4.303999999999999915e+01,3.226111967311304229e-02
4.307999999999999829e+01,3.104981893777029878e-02
4.311999999999999744e+01,3.198877432320036684e-02
4.315999999999999659e+01,3.357264485616043986e-02
4.320000000000000284e+01,3.386599202605662662e-02
4.324000000000000199e+01,2.684745071745951034e-02
4.328000000000000114e+01,3.294665436203228492e-02
4.332000000000000028e+01,3.248664103344822696e-02
4.335999999999999943e+01,3.847786164406410969e-02
4.339999999999999858e+01,4.038292693626402419e-02
4.343999999999999773e+01,3.411591071269853837e-02
4.347999999999999687e+01,3.688071487489762851e-02
4.352000000000000313e+01,4.007538908332530792e-02
4.356000000000000227e+01,4.391498251414319848e-02
4.360000000000000142e+01,4.818444680616174730e-02
4.364000000000000057e+01,4.643231930660046691e-02
4.367999999999999972e+01,4.435739279284747760e-02
4.371999999999999886e+01,4.561549673987309178e-02
4.375999999999999801e+01,4.816366825274563668e-02
4.379999999999999716e+01,5.253952966063997476e-02
4.384000000000000341e+01,5.153894762041128647e-02
4.388000000000000256e+01,5.559178782030967103e-02
4.392000000000000171e+01,6.157984352202569567e-02
4.396000000000000085e+01,6.047106684867230991e-02
4.400000000000000000e+01,6.301789664151299930e-02
4.403999999999999915e+01,6.685479685260274640e-02
4.407999999999999829e+01,6.703564620988991529e-02
4.411999999999999744e+01,7.506555424500245544e-02
4.415999999999999659e+01,8.029960731598664858e-02
4.420000000000000284e+01,8.488829351708400417e-02
4.424000000000000199e+01,9.582069823773592399e-02
4.428000000000000114e+01,9.793588369380218372e-02
4.432000000000000028e+01,1.090828980928393865e-01
4.435999999999999943e+01,1.161437669531250744e-01
4.439999999999999858e+01,1.258925268954250165e-01
4.443999999999999773e+01,1.292971300428522596e-01
4.447999999999999687e+01,1.440991002186254866e-01
4.452000000000000313e+01,1.465355488915827120e-01
4.456000000000000227e+01,1.595091703331557309e-01
4.460000000000000142e+01,1.797942334206974468e-01
4.464000000000000057e+01,1.864234836158278619e-01
4.467999999999999972e+01,2.024071395743167190e-01
4.471999999999999886e+01,2.054876541457306693e-01
4.475999999999999801e+01,2.122237829255731179e-01
4.479999999999999716e+01,2.243359164707342812e-01
4.484000000000000341e+01,2.408563357296604202e-01
4.488000000000000256e+01,2.447961883844690101e-01
4.492000000000000171e+01,2.484132546571524713e-01
4.496000000000000085e+01,2.475140839660236181e-01
4.500000000000000000e+01,2.324214821281687660e-01
4.503999999999999915e+01,2.298014968668418700e-01
4.507999999999999829e+01,2.086871059002500806e-01
4.511999999999999744e+01,2.017657224745627587e-01
4.515999999999999659e+01,1.796831900730534726e-01
4.520000000000000284e+01,1.616863738996699718e-01
4.524000000000000199e+01,1.522912985040846545e-01
4.528000000000000114e+01,1.364445504864952863e-01
4.532000000000000028e+01,1.208126420833297299e-01
4.535999999999999943e+01,1.073310126201540426e-01
4.539999999999999858e+01,9.739747950084529093e-02
4.543999999999999773e+01,9.413025027868494876e-02
4.547999999999999687e+01,9.140043545390588720e-02
4.552000000000000313e+01,8.436943813879431431e-02
4.556000000000000227e+01,7.572536834928052241e-02
4.560000000000000142e+01,6.546822649285063966e-02
4.564000000000000057e+01,7.069439008669674285e-02
4.567999999999999972e+01,6.290989768879463873e-02
4.571999999999999886e+01,6.114656573441643733e-02
4.575999999999999801e+01,5.852283403343057355e-02
4.579999999999999716e+01,5.138287392583876234e-02
4.584000000000000341e+01,5.133931932760662370e-02
4.588000000000000256e+01,4.430647629797178355e-02
4.592000000000000171e+01,4.447756397700643183e-02
4.596000000000000085e+01,4.335815640951240502e-02
4.600000000000000000e+01,4.481913183913563414e-02
4.603999999999999915e+01,4.197893007574454716e-02
4.607999999999999829e+01,4.376207542686048196e-02
4.611999999999999744e+01,3.855593479148976266e-02
4.615999999999999659e+01,4.496222706755340082e-02
4.620000000000000284e+01,3.889549057087597628e-02
4.624000000000000199e+01,3.035549345235650023e-02
4.628000000000000114e+01,3.149249154964947617e-02
4.632000000000000028e+01,3.219919314249020809e-02
4.635999999999999943e+01,2.570156242508482916e-02
4.639999999999999858e+01,2.909597691462555147e-02
4.643999999999999773e+01,3.388801065591416639e-02
4.647999999999999687e+01,2.674464039855272909e-02
4.652000000000000313e+01,2.486976804407114647e-02
4.656000000000000227e+01,2.450004054813327906e-02
4.660000000000000142e+01,2.757089723630515993e-02
4.664000000000000057e+01,2.773839984014404153e-02
4.667999999999999972e+01,2.446492684544713039e-02
4.671999999999999886e+01,2.473956364165575197e-02
4.675999999999999801e+01,2.221837196032723505e-02
4.679999999999999716e+01,2.786883941140060744e-02
4.684000000000000341e+01,2.642250382639790493e-02
4.688000000000000256e+01,2.261043852366722770e-02
4.692000000000000171e+01,2.041104613119224323e-02
4.696000000000000085e+01,1.530830291427245568e-02
4.700000000000000000e+01,1.719445263946909122e-02
4.703999999999999915e+01,2.219861787810832252e-02
4.707999999999999829e+01,1.827806799184543071e-02
4.711999999999999744e+01,1.726048566532162321e-02
4.715999999999999659e+01,2.355437106387164858e-02
4.720000000000000284e+01,2.027839625395097198e-02
4.724000000000000199e+01,2.270102421900954681e-02
4.728000000000000114e+01,2.490841422795581420e-02
4.732000000000000028e+01,1.829861594125386376e-02
4.735999999999999943e+01,1.469931204354485085e-02
4.739999999999999858e+01,1.464812486400370387e-02
4.743999999999999773e+01,1.201616490286328519e-02
4.747999999999999687e+01,1.540538331463154643e-02
4.752000000000000313e+01,1.503106153205706862e-02
4.756000000000000227e+01,9.925480503585886946e-03
4.760000000000000142e+01,1.804521282111234970e-02
4.764000000000000057e+01,1.143391896430112631e-02
4.767999999999999972e+01,1.600497596604184836e-02
4.771999999999999886e+01,1.154379997831897486e-02
4.775999999999999801e+01,1.611448797736460617e-02
4.779999999999999716e+01,1.315828518264752431e-02
4.784000000000000341e+01,1.407277674145781220e-02
4.788000000000000256e+01,1.670747537452598949e-02
4.792000000000000171e+01,1.428834527605831774e-02
4.796000000000000085e+01,1.380447183549613280e-02
4.800000000000000000e+01,1.396556284827218421e-02
4.803999999999999915e+01,1.584686256525021097e-02
4.807999999999999829e+01,1.288938394931198744e-02
4.811999999999999744e+01,1.218973677423665011e-02
4.815999999999999659e+01,1.299525075714579557e-02
4.820000000000000284e+01,1.068237777900116377e-02
4.824000000000000199e+01,1.428316653166180131e-02
4.828000000000000114e+01,1.487309352257843928e-02
4.832000000000000028e+01,7.613561864037294430e-03
4.835999999999999943e+01,1.659003405518578306e-02
4.839999999999999858e+01,8.254902590124391787e-03
4.843999999999999773e+01,1.056450780416040049e-02
4.847999999999999687e+01,1.018582644689585044e-02
4.852000000000000313e+01,1.098973676197663799e-02
4.856000000000000227e+01,1.157842216049770334e-02
4.860000000000000142e+01,1.109168797524285634e-02
4.864000000000000057e+01,1.350793683419579394e-02
4.867999999999999972e+01,1.065531593517165566e-02
4.871999999999999886e+01,1.006053258930070422e-02
4.875999999999999801e+01,6.884989908869086107e-03
4.879999999999999716e+01,1.112845604477581685e-02
4.884000000000000341e+01,1.332878558278280216e-02
4.888000000000000256e+01,1.262578385567384234e-02
4.892000000000000171e+01,1.030974388298829501e-02
4.896000000000000085e+01,1.207945844211415383e-02
4.900000000000000000e+01,6.322294432057856510e-03
4.903999999999999915e+01,8.091666067593795975e-03
4.907999999999999829e+01,1.222640330799482783e-02
4.911999999999999744e+01,8.081592511307340507e-03
4.915999999999999659e+01,1.103322104531907072e-02
4.920000000000000284e+01,9.898753346387473978e-03
4.924000000000000199e+01,1.080707972925174648e-02
4.928000000000000114e+01,8.166932615833623690e-03
4.932000000000000028e+01,1.047273877630329302e-02
4.935999999999999943e+01,1.191818186390696671e-02
4.939999999999999858e+01,1.185811598010397955e-02
4.943999999999999773e+01,1.599133390228244314e-02
4.947999999999999687e+01,1.152243430173322154e-02
4.952000000000000313e+01,9.741477941408619584e-03
4.956000000000000227e+01,9.465697001079164882e-03
4.960000000000000142e+01,9.942421197866395041e-03
4.964000000000000057e+01,1.289204108866080084e-02
4.967999999999999972e+01,6.809447956806467979e-03
4.971999999999999886e+01,1.158665331227773029e-02
4.975999999999999801e+01,2.066467011795633177e-02
4.979999999999999716e+01,1.823741428367545853e-02
4.984000000000000341e+01,1.054130050851207791e-02
4.988000000000000256e+01,1.241469423856504835e-02
4.992000000000000171e+01,1.041704783909857754e-02
4.996000000000000085e+01,1.573089768872724253e-02
5.000000000000000000e+01,8.034135555097703454e-03
5.003999999999999915e+01,1.141222393735743211e-02
5.007999999999999829e+01,1.317728589113504288e-02
5.011999999999999744e+01,1.182398044318777250e-02
5.015999999999999659e+01,8.750124997392661266e-03
5.020000000000000284e+01,1.019213425282664010e-02
5.024000000000000199e+01,1.195655762780256474e-02
5.028000000000000114e+01,6.731737394837743020e-03
5.032000000000000028e+01,1.419463629523096126e-02
5.035999999999999943e+01,6.603963577322391303e-03
5.039999999999999858e+01,1.191605957641943443e-02
5.043999999999999773e+01,1.475493773970636829e-02
5.047999999999999687e+01,1.533564724334472544e-02
5.052000000000000313e+01,8.497018046607398775e-03
5.056000000000000227e+01,8.539793673904368457e-03
5.060000000000000142e+01,1.567902330139717831e-02
5.064000000000000057e+01,6.581915935274885998e-03
5.067999999999999972e+01,1.157034836627580596e-02
5.071999999999999886e+01,1.053726113072220479e-02
5.075999999999999801e+01,1.122441030841982157e-02
5.079999999999999716e+01,9.330820933343687146e-03
5.084000000000000341e+01,1.098538332023300812e-02
5.088000000000000256e+01,8.661390972929547405e-03
5.092000000000000171e+01,8.272685437496929417e-03
5.096000000000000085e+01,1.261490111420334251e-02
5.100000000000000000e+01,1.340866081652612729e-02
5.103999999999999915e+01,1.312702579172013787e-02
5.107999999999999829e+01,1.015713068220477563e-02
5.111999999999999744e+01,8.907475653314801331e-03
5.115999999999999659e+01,1.292636579568281173e-02
5.120000000000000284e+01,1.307422884808393838e-02
5.124000000000000199e+01,5.910284919195504458e-03
5.128000000000000114e+01,1.326198443707166282e-02
5.132000000000000028e+01,8.033182956079316234e-03
5.135999999999999943e+01,1.022341637053052199e-02
5.139999999999999858e+01,1.348874641198258804e-02
5.143999999999999773e+01,1.481849072646387010e-02
5.147999999999999687e+01,7.653662276856147695e-03
5.152000000000000313e+01,9.413211733364871756e-03
5.156000000000000227e+01,5.151250080525442664e-03
5.160000000000000142e+01,1.389959375360994877e-02
5.164000000000000057e+01,1.178782983711845235e-02
5.167999999999999972e+01,9.245824019301114235e-03
5.171999999999999886e+01,1.358523484261266179e-02
5.175999999999999801e+01,8.784929448210630418e-03
5.179999999999999716e+01,1.473691934606937738e-02
5.184000000000000341e+01,1.434482783396877695e-02
5.188000000000000256e+01,8.898947931448103477e-03
5.192000000000000171e+01,6.571133255664269104e-03
5.196000000000000085e+01,9.296823132183183735e-03
5.200000000000000000e+01,1.449543274438436398e-02
5.203999999999999915e+01,1.162957283465186273e-02
5.207999999999999829e+01,1.499998692739570871e-02
5.211999999999999744e+01,1.396176138066228777e-02
5.215999999999999659e+01,1.066538428869306249e-02
5.220000000000000284e+01,1.199241665659163576e-02
5.224000000000000199e+01,9.448432529159882243e-03
5.228000000000000114e+01,1.582883405007890626e-02
5.232000000000000028e+01,9.306171606266556290e-03
5.235999999999999943e+01,1.450352961855916507e-02
5.239999999999999858e+01,1.314176315702115204e-02
5.243999999999999773e+01,1.554321352556482967e-02
5.247999999999999687e+01,1.310593038465430148e-02
5.252000000000000313e+01,1.421681612012196290e-02
5.256000000000000227e+01,1.263945684786293294e-02
5.260000000000000142e+01,1.009424312476760524e-02
5.264000000000000057e+01,1.303263841858847555e-02
5.267999999999999972e+01,1.145487539339854442e-02
5.271999999999999886e+01,1.374785643503018649e-02
5.275999999999999801e+01,1.141715558828531284e-02
5.279999999999999716e+01,1.166690701128082590e-02
5.284000000000000341e+01,1.632502564524484015e-02
5.288000000000000256e+01,1.463907346388596854e-02
5.292000000000000171e+01,1.209279447591676999e-02
5.296000000000000085e+01,9.653908547863165532e-03
5.300000000000000000e+01,1.194596461373548246e-02
5.303999999999999915e+01,1.542065839787320689e-02
5.307999999999999829e+01,1.384157601617143352e-02
5.311999999999999744e+01,1.301503463035600695e-02
5.315999999999999659e+01,1.466142479731732604e-02
5.320000000000000284e+01,1.673778362212369891e-02
5.324000000000000199e+01,1.634095313514121600e-02
5.328000000000000114e+01,1.465370197157145685e-02
5.332000000000000028e+01,1.103088423287377877e-02
5.335999999999999943e+01,1.117129269643620838e-02
5.339999999999999858e+01,1.464483023239367999e-02
5.343999999999999773e+01,1.338716842289917712e-02
5.347999999999999687e+01,9.656319746531923098e-03
5.352000000000000313e+01,1.506491811925758477e-02
5.356000000000000227e+01,1.703261098104261184e-02
5.360000000000000142e+01,1.706474012010182270e-02
5.364000000000000057e+01,1.129042810776137613e-02
5.367999999999999972e+01,1.282765024071575409e-02
5.371999999999999886e+01,1.371960248545570603e-02
5.375999999999999801e+01,9.127687954267363693e-03
5.379999999999999716e+01,1.625580854868064265e-02
5.384000000000000341e+01,1.811511195081325076e-02
5.388000000000000256e+01,1.115729388500461168e-02
5.392000000000000171e+01,1.559693901424231630e-02
5.396000000000000085e+01,1.444519502064410543e-02
5.400000000000000000e+01,1.178798891653134485e-02
5.403999999999999915e+01,1.160372332988772633e-02
5.407999999999999829e+01,1.486011812723925241e-02
5.411999999999999744e+01,1.187997912567227005e-02
5.415999999999999659e+01,1.072763555800581615e-02
5.420000000000000284e+01,1.484386813053472851e-02
5.424000000000000199e+01,1.487405581335867442e-02
5.428000000000000114e+01,1.307621108505686337e-02
5.432000000000000028e+01,1.267606588324858390e-02
5.435999999999999943e+01,1.259837677204215731e-02
5.439999999999999858e+01,1.456353430832790785e-02
5.443999999999999773e+01,1.642105121283642805e-02
5.447999999999999687e+01,1.257965990748941866e-02
5.452000000000000313e+01,1.830782337573693547e-02
5.456000000000000227e+01,1.855212821777648541e-02
5.460000000000000142e+01,1.438781868447192545e-02
5.464000000000000057e+01,1.635228484841113120e-02
5.467999999999999972e+01,2.025207612790685952e-02
5.471999999999999886e+01,1.479713257497891100e-02
5.475999999999999801e+01,1.751392924417047650e-02
5.479999999999999716e+01,1.528449165375909101e-02
5.484000000000000341e+01,1.628067342090164585e-02
5.488000000000000256e+01,1.727674342295094576e-02
5.492000000000000171e+01,1.827270206739296798e-02
5.496000000000000085e+01,1.281708670144728578e-02
5.500000000000000000e+01,1.768370168929272665e-02
5.503999999999999915e+01,2.212010900463788274e-02
5.507999999999999829e+01,1.472872431516465686e-02
5.511999999999999744e+01,1.314354705975408558e-02
5.515999999999999659e+01,1.671943133986556612e-02
5.520000000000000284e+01,1.588670735692314373e-02
5.524000000000000199e+01,1.494635089192382880e-02
5.528000000000000114e+01,1.938210595358018026e-02
5.532000000000000028e+01,1.403303475775194084e-02
5.535999999999999943e+01,1.180206383245811959e-02
5.539999999999999858e+01,1.946322979846449794e-02
5.543999999999999773e+01,1.508155865835115322e-02
5.547999999999999687e+01,1.736629369437680051e-02
5.552000000000000313e+01,1.104897273806350853e-02
5.556000000000000227e+01,1.720437552710111020e-02
5.560000000000000142e+01,1.766088151589170763e-02
5.564000000000000057e+01,1.682699086977006153e-02
5.567999999999999972e+01,1.330488699983119194e-02
5.571999999999999886e+01,1.376108214250306577e-02
5.575999999999999801e+01,1.088391857030304374e-02
5.579999999999999716e+01,1.585593266184570638e-02
5.584000000000000341e+01,1.781716200650188334e-02
5.588000000000000256e+01,1.483216809367759147e-02
5.592000000000000171e+01,1.711576784294744150e-02
5.596000000000000085e+01,1.972183998225986515e-02
5.600000000000000000e+01,1.738169008654986622e-02
5.603999999999999915e+01,1.256837940307232136e-02
5.607999999999999829e+01,1.958265145623725584e-02
5.611999999999999744e+01,1.584438594259801603e-02
5.615999999999999659e+01,1.178344855040478617e-02
5.620000000000000284e+01,1.922752196429877020e-02
5.624000000000000199e+01,1.441371765311778158e-02
5.628000000000000114e+01,2.088987619432048151e-02
5.632000000000000028e+01,1.349529206035365511e-02
5.635999999999999943e+01,1.448751321662267166e-02
5.639999999999999858e+01,1.752260139468478709e-02
5.643999999999999773e+01,1.593404517308404100e-02
5.647999999999999687e+01,1.853884447500398977e-02
5.652000000000000313e+01,1.544475634885534958e-02
5.656000000000000227e+01,1.536125633348388829e-02
5.660000000000000142e+01,1.570775961226904965e-02
5.664000000000000057e+01,1.659179097703460462e-02
5.667999999999999972e+01,1.575533876417333293e-02
5.671999999999999886e+01,1.459622037756228181e-02
5.675999999999999801e+01,1.816808228856291868e-02
5.679999999999999716e+01,1.690125469859928009e-02
5.684000000000000341e+01,1.907511560916605800e-02
5.688000000000000256e+01,1.598019029638954661e-02
5.692000000000000171e+01,1.998178336659978474e-02
5.696000000000000085e+01,1.882211541277653555e-02
5.700000000000000000e+01,2.303857650750773187e-02
5.703999999999999915e+01,1.725518009797757588e-02
5.707999999999999829e+01,1.803068177968941005e-02
5.711999999999999744e+01,1.891361889986276426e-02
5.715999999999999659e+01,1.839865048525486310e-02
5.720000000000000284e+01,1.788359393974271738e-02
5.724000000000000199e+01,1.898131543587898776e-02
5.728000000000000114e+01,1.631559616426099882e-02
5.732000000000000028e+01,1.730561905168116407e-02
5.735999999999999943e+01,2.044604312489668729e-02
5.739999999999999858e+01,1.444680843592728234e-02
5.743999999999999773e+01,1.758706072968057449e-02
5.747999999999999687e+01,1.707139867744743647e-02
5.752000000000000313e+01,1.343744460840284177e-02
5.756000000000000227e+01,1.786773490116121826e-02
5.760000000000000142e+01,2.057755098847118685e-02
5.764000000000000057e+01,1.683582036695669901e-02
5.767999999999999972e+01,1.997556710198778937e-02
5.771999999999999886e+01,1.902930439859745401e-02
5.775999999999999801e+01,1.948077626549824318e-02
5.779999999999999716e+01,2.186760503186504362e-02
5.784000000000000341e+01,1.737279158948633676e-02
5.788000000000000256e+01,2.008203069409661423e-02
5.792000000000000171e+01,2.461910353629322146e-02
5.796000000000000085e+01,2.076919401147351435e-02
5.800000000000000000e+01,2.025246041994098120e-02
5.803999999999999915e+01,2.156356178845278415e-02
5.807999999999999829e+01,1.803598669555294548e-02
5.811999999999999744e+01,2.009960082949159565e-02
5.815999999999999659e+01,2.012017330977272644e-02
5.820000000000000284e+01,2.121591168967787433e-02
5.824000000000000199e+01,2.241909691765305024e-02
5.828000000000000114e+01,2.394477816985982402e-02
5.832000000000000028e+01,1.987911471520666801e-02
5.835999999999999943e+01,1.871653332386369328e-02
5.839999999999999858e+01,2.163980263103250021e-02
5.843999999999999773e+01,1.929430160681271100e-02
5.847999999999999687e+01,1.888416440932126281e-02
5.852000000000000313e+01,1.557079415084428910e-02
5.856000000000000227e+01,1.989158090396966547e-02
5.860000000000000142e+01,1.765330634359732476e-02
5.864000000000000057e+01,1.939336054231501419e-02
5.867999999999999972e+01,1.672484192926243854e-02
5.871999999999999886e+01,2.201305511076964705e-02
5.875999999999999801e+01,1.740895269425211944e-02
5.879999999999999716e+01,1.818099766315984037e-02
5.884000000000000341e+01,2.067336135749445192e-02
5.888000000000000256e+01,2.348822718835100881e-02
5.892000000000000171e+01,2.146442511500223915e-02
5.896000000000000085e+01,1.879540653410743944e-02
5.900000000000000000e+01,1.978214722666360448e-02
5.903999999999999915e+01,2.055376976399682018e-02
5.907999999999999829e+01,1.745444548610882926e-02
5.911999999999999744e+01,1.811840608846763262e-02
5.915999999999999659e+01,2.319079828458580836e-02
5.920000000000000284e+01,2.277937912287422706e-02
5.924000000000000199e+01,2.204531945903207002e-02
5.928000000000000114e+01,2.399930246200297421e-02
5.932000000000000028e+01,2.014690217658884203e-02
5.935999999999999943e+01,2.027283798501314238e-02
5.939999999999999858e+01,1.932346423088649248e-02
5.943999999999999773e+01,2.848131729282342775e-02
5.947999999999999687e+01,2.624152071075511877e-02
5.952000000000000313e+01,2.174364756087843187e-02
5.956000000000000227e+01,2.262192953866130202e-02
5.960000000000000142e+01,2.220985522264779313e-02
5.964000000000000057e+01,2.362563216611936884e-02
5.967999999999999972e+01,2.493382185848204424e-02
5.971999999999999886e+01,2.624194909155968050e-02
5.975999999999999801e+01,2.088350244389627561e-02
5.979999999999999716e+01,1.950339637241751967e-02
5.984000000000000341e+01,2.263925320629825086e-02
5.988000000000000256e+01,2.351703713974478971e-02
5.992000000000000171e+01,2.321199242362080931e-02
5.996000000000000085e+01,2.387460715216782950e-02
