2.003999999999999915e+01,8.541751494643336912e-03
2.007999999999999829e+01,1.136361197942286835e-02
2.012000000000000099e+01,1.856766341705471876e-02
2.016000000000000014e+01,3.361430982216625628e-03
2.019999999999999929e+01,1.275624580070691856e-02
2.023999999999999844e+01,1.946163165751788743e-02
2.028000000000000114e+01,9.433949303227920705e-03
2.032000000000000028e+01,4.386059267704219347e-03
2.035999999999999943e+01,6.708368161086987642e-03
2.039999999999999858e+01,1.600247481128776877e-02
2.044000000000000128e+01,1.145192106918668275e-02
2.048000000000000043e+01,1.018795467956116856e-02
2.051999999999999957e+01,1.141377335857568683e-02
2.055999999999999872e+01,1.841618621780116358e-02
2.060000000000000142e+01,8.884730939066545416e-03
2.064000000000000057e+01,1.359589334448242474e-02
2.067999999999999972e+01,1.372522084366376884e-02
2.071999999999999886e+01,1.076671754531997524e-02
2.076000000000000156e+01,1.209080395642818211e-02
2.080000000000000071e+01,1.709987834902642820e-02
2.083999999999999986e+01,1.224830286337670431e-02
2.087999999999999901e+01,1.466732524425644855e-02
2.092000000000000171e+01,2.186693848290558601e-02
2.096000000000000085e+01,2.174254135099880532e-03
2.100000000000000000e+01,1.515023834666717056e-02
2.103999999999999915e+01,6.313539025870130647e-03
2.107999999999999829e+01,1.470746506356857518e-02
2.112000000000000099e+01,5.073518009815525948e-03
2.116000000000000014e+01,5.399375904492994920e-03
2.119999999999999929e+01,1.299583118296745131e-02
2.123999999999999844e+01,1.767610965471815964e-03
2.128000000000000114e+01,1.424403387065179515e-02
2.132000000000000028e+01,1.297539533395236817e-02
2.135999999999999943e+01,4.435713360919863422e-03
2.139999999999999858e+01,4.859833194901000755e-03
2.144000000000000128e+01,1.823176589302380121e-02
2.148000000000000043e+01,1.785863690790095298e-02
2.151999999999999957e+01,1.718648370065038386e-02
2.155999999999999872e+01,1.591650537712040528e-02
2.160000000000000142e+01,1.106069353886739333e-02
2.164000000000000057e+01,9.391867025247765607e-03
2.167999999999999972e+01,5.133209655589319499e-03
2.171999999999999886e+01,1.003755416608557646e-02
2.176000000000000156e+01,1.434407325859459077e-02
2.180000000000000071e+01,1.576196048022973639e-02
2.183999999999999986e+01,1.538681882795381491e-02
2.187999999999999901e+01,1.560905491190672616e-02
2.192000000000000171e+01,1.682706978349405094e-02
2.196000000000000085e+01,2.023606671761500261e-02
2.200000000000000000e+01,2.175243425852170162e-02
2.203999999999999915e+01,1.998176845475837377e-02
2.207999999999999829e+01,1.482446896804660678e-02
2.212000000000000099e+01,9.168943798210423685e-03
2.216000000000000014e+01,1.755683346367174422e-02
2.219999999999999929e+01,1.986888176086804014e-02
2.223999999999999844e+01,1.839589502200279433e-02
2.228000000000000114e+01,9.851064014822070308e-03
2.232000000000000028e+01,1.425404454426860805e-02
2.235999999999999943e+01,1.815879902854125941e-02
2.239999999999999858e+01,1.190410044743480007e-02
2.244000000000000128e+01,2.258122433940048038e-02
2.248000000000000043e+01,1.642567642354244781e-02
2.251999999999999957e+01,1.714232278846292493e-02
2.255999999999999872e+01,1.596633891538736319e-02
2.260000000000000142e+01,6.025305566339171637e-03
2.264000000000000057e+01,1.670130467231471447e-02
2.267999999999999972e+01,1.243703694955678590e-02
2.271999999999999886e+01,2.032377793651650444e-02
2.276000000000000156e+01,1.675626170184558658e-02
2.280000000000000071e+01,1.697333070952326481e-02
2.283999999999999986e+01,1.470016738919356636e-02
2.287999999999999901e+01,2.328320892403777653e-02
2.292000000000000171e+01,2.270279938842991937e-02
2.296000000000000085e+01,2.590697485380454718e-02
2.300000000000000000e+01,2.452931191313388951e-02
2.303999999999999915e+01,1.299219494161929327e-02
2.307999999999999829e+01,1.460208891611571372e-02
2.312000000000000099e+01,1.700855931212612304e-02
2.316000000000000014e+01,1.622759495183949754e-02
2.319999999999999929e+01,1.534680439095304459e-02
2.323999999999999844e+01,2.143780730263367476e-02
2.328000000000000114e+01,1.049693664378597083e-02
2.332000000000000028e+01,2.306150547432065864e-02
2.335999999999999943e+01,2.626342201477278177e-02
2.339999999999999858e+01,2.279189370909255261e-02
2.344000000000000128e+01,2.519655551696748166e-02
2.348000000000000043e+01,2.889579459296605021e-02
2.351999999999999957e+01,2.442758447275658260e-02
2.355999999999999872e+01,1.278792787536483892e-02
2.360000000000000142e+01,1.070967143382135604e-02
2.364000000000000057e+01,1.141999618808630691e-02
2.367999999999999972e+01,2.338492570244086674e-02
2.371999999999999886e+01,1.911478320600382835e-02
2.376000000000000156e+01,1.534241533180554125e-02
2.380000000000000071e+01,1.963744314269655344e-02
2.383999999999999986e+01,3.050586240928432336e-02
2.387999999999999901e+01,1.627478468734448735e-02
2.392000000000000171e+01,1.688392136916739769e-02
2.396000000000000085e+01,2.247284487867461100e-02
2.400000000000000000e+01,2.268312625010363362e-02
2.403999999999999915e+01,2.090117487296208609e-02
2.407999999999999829e+01,2.887982348344348207e-02
2.412000000000000099e+01,2.500581170893412600e-02
2.416000000000000014e+01,2.392038034579284031e-02
2.419999999999999929e+01,2.632073127923534317e-02
2.423999999999999844e+01,2.344203999048713460e-02
2.428000000000000114e+01,2.285392754239858396e-02
2.432000000000000028e+01,1.130955690904216285e-02
2.435999999999999943e+01,1.639820501855266885e-02
2.439999999999999858e+01,1.680541233212654376e-02
2.444000000000000128e+01,2.438361186389411545e-02
2.448000000000000043e+01,2.767877159078895380e-02
2.451999999999999957e+01,2.061527449832844736e-02
2.455999999999999872e+01,1.594195610207356853e-02
2.460000000000000142e+01,2.132803774281145578e-02
2.464000000000000057e+01,2.113627572413282266e-02
2.467999999999999972e+01,1.437066720632863143e-02
2.471999999999999886e+01,1.806285965623950773e-02
2.476000000000000156e+01,1.996201882730519808e-02
2.480000000000000071e+01,1.618373381965127270e-02
2.483999999999999986e+01,1.569202958724262228e-02
2.487999999999999901e+01,1.460249523020490901e-02
2.492000000000000171e+01,1.719794263947637195e-02
2.496000000000000085e+01,1.819955702406822473e-02
2.500000000000000000e+01,1.033651803425700288e-02
2.503999999999999915e+01,1.392728230879590121e-02
2.507999999999999829e+01,2.000782477303670454e-02
2.512000000000000099e+01,1.184529867326599394e-02
2.516000000000000014e+01,1.732778177142888648e-02
2.519999999999999929e+01,1.026040090982157163e-02
2.523999999999999844e+01,1.006521022576648168e-02
2.528000000000000114e+01,1.156299520621172951e-02
2.532000000000000028e+01,1.724376273923416275e-02
2.535999999999999943e+01,1.356187496509581383e-02
2.539999999999999858e+01,1.356496823316782896e-02
2.544000000000000128e+01,2.302985860343948615e-02
2.548000000000000043e+01,1.416806847121926567e-02
2.551999999999999957e+01,9.090859478121443224e-03
2.555999999999999872e+01,1.447145018556597433e-02
2.560000000000000142e+01,1.148538800316769616e-02
2.564000000000000057e+01,4.913486211548574560e-03
2.567999999999999972e+01,1.397859839215745067e-02
2.571999999999999886e+01,1.786426639587448614e-02
2.576000000000000156e+01,1.398088293600296267e-02
2.580000000000000071e+01,1.527648408397726081e-02
2.583999999999999986e+01,1.527705171356786608e-02
2.587999999999999901e+01,1.338498409681277909e-02
2.592000000000000171e+01,1.209028812178880238e-02
2.596000000000000085e+01,1.129336345021774747e-02
2.600000000000000000e+01,1.238861391287233299e-02
2.603999999999999915e+01,1.467883750385387369e-02
2.607999999999999829e+01,7.606404701526478171e-03
2.612000000000000099e+01,1.129057158876979432e-02
2.616000000000000014e+01,1.079129641473145287e-02
2.619999999999999929e+01,5.311776895576046306e-03
2.623999999999999844e+01,8.596851326231896503e-03
2.628000000000000114e+01,9.690489073316117113e-03
2.632000000000000028e+01,9.389492299981146844e-03
2.635999999999999943e+01,2.116245381428195557e-03
2.639999999999999858e+01,7.691203566726334019e-03
2.644000000000000128e+01,4.700307039135495982e-03
2.648000000000000043e+01,1.147000687867389020e-02
2.651999999999999957e+01,4.395037153992969493e-03
2.655999999999999872e+01,6.682262564011231393e-03
2.660000000000000142e+01,1.873008416013403205e-02
2.664000000000000057e+01,1.085761905687177183e-02
2.667999999999999972e+01,9.857341958865605339e-03
2.671999999999999886e+01,1.323924585735540907e-02
2.676000000000000156e+01,1.363291012468099452e-02
2.680000000000000071e+01,1.024153247700695414e-02
2.683999999999999986e+01,1.153113647861437122e-02
2.687999999999999901e+01,9.035698444539065274e-03
2.692000000000000171e+01,9.229236380327356451e-03
2.696000000000000085e+01,1.719136440041135055e-02
2.700000000000000000e+01,1.887844325536948767e-02
2.703999999999999915e+01,1.442037031020840373e-03
2.707999999999999829e+01,5.618659343149892856e-03
2.712000000000000099e+01,7.205442592787603996e-03
2.716000000000000014e+01,1.720374212439266257e-03
2.719999999999999929e+01,3.904295276400519127e-03
2.723999999999999844e+01,7.382787936378578005e-03
2.728000000000000114e+01,1.135904990853798917e-02
2.732000000000000028e+01,1.543468002079016049e-02
2.735999999999999943e+01,1.273725903515867362e-02
2.739999999999999858e+01,1.651362385688817311e-02
2.744000000000000128e+01,2.088735802736951114e-02
2.748000000000000043e+01,7.830811179711426318e-03
2.751999999999999957e+01,8.917271359518499224e-03
2.755999999999999872e+01,8.708695426254683264e-03
2.760000000000000142e+01,5.711079150527347513e-03
2.764000000000000057e+01,4.207234423274600066e-03
2.767999999999999972e+01,3.300758682724349267e-03
2.771999999999999886e+01,1.086007382553736376e-02
2.776000000000000156e+01,1.363834282578581247e-02
2.780000000000000071e+01,1.681478007583852088e-02
2.783999999999999986e+01,1.929378245804981226e-02
2.787999999999999901e+01,9.322517115543157290e-03
2.792000000000000171e+01,8.713444856122475740e-03
2.796000000000000085e+01,1.427935672547064536e-02
2.800000000000000000e+01,1.466582097845795310e-02
2.803999999999999915e+01,1.335884728252869497e-02
2.807999999999999829e+01,1.364524474925366514e-02
2.812000000000000099e+01,1.024619858764416573e-02
2.816000000000000014e+01,6.249317353397492586e-03
2.819999999999999929e+01,1.151502850190922085e-02
2.823999999999999844e+01,5.456608210327898272e-04
2.828000000000000114e+01,6.308906247486916787e-03
2.832000000000000028e+01,1.336672164073568481e-02
2.835999999999999943e+01,7.974268585167714266e-03
2.839999999999999858e+01,1.025080316366241279e-02
2.844000000000000128e+01,1.192950224712900457e-02
2.848000000000000043e+01,1.201436299585866875e-02
2.851999999999999957e+01,1.568459980222005820e-02
2.855999999999999872e+01,8.000170915361051738e-03
2.860000000000000142e+01,8.881131862287507464e-03
2.864000000000000057e+01,7.072651175806643660e-03
2.867999999999999972e+01,1.213635547750365438e-02
2.871999999999999886e+01,9.929005240020228815e-03
2.876000000000000156e+01,7.621820414459892258e-03
2.880000000000000071e+01,4.517598994923917831e-03
2.883999999999999986e+01,6.990758709022036090e-03
2.887999999999999901e+01,4.384069757181648097e-03
2.892000000000000171e+01,8.251164319722887122e-03
2.896000000000000085e+01,4.648003425160783693e-03
2.900000000000000000e+01,5.925021477309288381e-03
2.903999999999999915e+01,9.891012301218703867e-03
2.907999999999999829e+01,1.485277111162280894e-02
2.912000000000000099e+01,9.854267275138935828e-03
2.916000000000000014e+01,1.162834742479744096e-02
2.919999999999999929e+01,1.370099343436881160e-02
2.923999999999999844e+01,1.696860774494221916e-02
2.928000000000000114e+01,1.326396750536348174e-02
2.932000000000000028e+01,1.135189711372399865e-02
2.935999999999999943e+01,1.103319595380874811e-02
2.939999999999999858e+01,9.519056183047488323e-03
2.944000000000000128e+01,7.407079408719122356e-03
2.948000000000000043e+01,1.326288947304153122e-02
2.951999999999999957e+01,2.584817943235600841e-03
2.955999999999999872e+01,6.149350641411810425e-03
2.960000000000000142e+01,1.031124942989548529e-02
2.964000000000000057e+01,8.496895904520362225e-03
2.967999999999999972e+01,1.624393336307603311e-02
2.971999999999999886e+01,7.357488647858800163e-03
2.976000000000000156e+01,7.733633962079014719e-03
2.980000000000000071e+01,1.129675229125409221e-02
2.983999999999999986e+01,1.316642995614230802e-02
2.987999999999999901e+01,5.872646051146724472e-03
2.992000000000000171e+01,9.933057770893810937e-03
2.996000000000000085e+01,4.232406132453616840e-03
3.000000000000000000e+01,1.317275916998529410e-02
3.003999999999999915e+01,9.862041780228061189e-03
3.007999999999999829e+01,4.857883364134605621e-03
3.012000000000000099e+01,7.821510821226933946e-03
3.016000000000000014e+01,1.566531547512458461e-02
3.019999999999999929e+01,1.135764973830383565e-02
3.023999999999999844e+01,1.202976135554203498e-02
3.028000000000000114e+01,1.300043720347093812e-02
3.032000000000000028e+01,7.795659155861029734e-03
3.035999999999999943e+01,1.025986578557731843e-02
3.039999999999999858e+01,5.851416453514520985e-03
3.044000000000000128e+01,1.070555612508254303e-02
3.048000000000000043e+01,1.137624721848027459e-02
3.051999999999999957e+01,1.184750079083566471e-02
3.055999999999999872e+01,1.182051594799694155e-02
3.060000000000000142e+01,1.179329401930621218e-02
3.064000000000000057e+01,1.614824717363837897e-02
3.067999999999999972e+01,1.173813866300244674e-02
3.071999999999999886e+01,9.718199555971571146e-03
3.076000000000000156e+01,4.610414505683581125e-03
3.080000000000000071e+01,7.968415692458517136e-03
3.083999999999999986e+01,1.441378804737090784e-02
3.087999999999999901e+01,9.305290653378810173e-03
3.092000000000000171e+01,1.495338570796988717e-02
3.096000000000000085e+01,1.004361367234069165e-02
3.100000000000000000e+01,1.160762201333182669e-02
3.103999999999999915e+01,1.765340511186700226e-02
3.107999999999999829e+01,1.782253400218386866e-02
3.112000000000000099e+01,1.629822029728389757e-02
3.116000000000000014e+01,8.399250873798856654e-03
3.119999999999999929e+01,1.354767986905102556e-02
3.123999999999999844e+01,1.411425802789626968e-02
3.128000000000000114e+01,1.597540168826052862e-02
3.132000000000000028e+01,1.195989077835716251e-02
3.135999999999999943e+01,1.103175025215095452e-02
3.139999999999999858e+01,2.195580450773335079e-02
3.144000000000000128e+01,1.276036426706987116e-02
3.148000000000000043e+01,1.601472035513228087e-02
3.151999999999999957e+01,1.727683241075200077e-02
3.155999999999999872e+01,1.973390926756307673e-02
3.160000000000000142e+01,1.133431723487866340e-02
3.164000000000000057e+01,1.130090989414760452e-02
3.167999999999999972e+01,1.435487245438128896e-02
3.171999999999999886e+01,2.059580513317482708e-02
3.176000000000000156e+01,1.538246701348622986e-02
3.180000000000000071e+01,1.992971723549905386e-02
3.183999999999999986e+01,1.929751404836108769e-02
3.187999999999999901e+01,8.605443772830628432e-03
3.192000000000000171e+01,1.484518166942206015e-02
3.196000000000000085e+01,1.769827097869929380e-02
3.200000000000000000e+01,1.626830913889010244e-02
3.203999999999999915e+01,1.872251888046548227e-02
3.207999999999999829e+01,1.380606873623242692e-02
3.211999999999999744e+01,1.108058532777628571e-02
3.215999999999999659e+01,1.552608249159234330e-02
3.220000000000000284e+01,1.967253932208373399e-02
3.224000000000000199e+01,2.232475242366795468e-02
3.228000000000000114e+01,1.441909644376040099e-02
3.232000000000000028e+01,2.155284275176107961e-02
3.235999999999999943e+01,8.567093175659961854e-03
3.239999999999999858e+01,1.350915382694939208e-02
3.243999999999999773e+01,1.506456516682589883e-02
3.247999999999999687e+01,7.655711570490557512e-03
3.252000000000000313e+01,1.429025718098827710e-02
3.256000000000000227e+01,1.006813245379303660e-02
3.260000000000000142e+01,1.441139152622713387e-02
3.264000000000000057e+01,2.283802183079588349e-02
3.267999999999999972e+01,1.323676160520179286e-02
3.271999999999999886e+01,1.020887943947763193e-02
3.275999999999999801e+01,1.206117054835726711e-02
3.279999999999999716e+01,1.441122264228269709e-02
3.284000000000000341e+01,1.098421815089784329e-02
3.288000000000000256e+01,1.582379620294118577e-02
3.292000000000000171e+01,1.229671032263597932e-02
3.296000000000000085e+01,1.076138935506136367e-02
3.300000000000000000e+01,2.147666186735977881e-02
3.303999999999999915e+01,1.944285803706845284e-02
3.307999999999999829e+01,3.224925479232226833e-02
3.311999999999999744e+01,1.676893172617206079e-02
3.315999999999999659e+01,7.164784110577428720e-03
3.320000000000000284e+01,9.114027727590902697e-03
3.324000000000000199e+01,1.016662777477859644e-02
3.328000000000000114e+01,1.111938641529290964e-02
3.332000000000000028e+01,4.801083577347131301e-03
3.335999999999999943e+01,1.033497256445341933e-02
3.339999999999999858e+01,6.804994949555187925e-03
3.343999999999999773e+01,7.856388749644012404e-03
3.347999999999999687e+01,4.823929723882098598e-03
3.352000000000000313e+01,7.767245883538454083e-03
3.356000000000000227e+01,5.531106039356820797e-03
3.360000000000000142e+01,6.681134033555144805e-03
3.364000000000000057e+01,9.324924524993843597e-03
3.367999999999999972e+01,1.326327689745782426e-02
3.371999999999999886e+01,1.112577052328696768e-02
3.375999999999999801e+01,7.195217293419423586e-03
3.379999999999999716e+01,9.838040494199642300e-03
3.384000000000000341e+01,9.293412827485702382e-03
3.388000000000000256e+01,7.453739513734083943e-03
3.392000000000000171e+01,1.816345912580982075e-02
3.396000000000000085e+01,7.658077382817148754e-03
3.400000000000000000e+01,4.224073158448082843e-03
3.403999999999999915e+01,1.035145334077956086e-02
3.407999999999999829e+01,1.378938368325119228e-02
3.411999999999999744e+01,8.362646893443716201e-03
3.415999999999999659e+01,1.120249071613446147e-02
3.420000000000000284e+01,1.304608924286522996e-02
3.424000000000000199e+01,9.511030184078016897e-03
3.428000000000000114e+01,6.174929043888561196e-03
3.432000000000000028e+01,5.129391598626847383e-03
3.435999999999999943e+01,0.000000000000000000e+00
3.439999999999999858e+01,3.834390597379212090e-03
3.443999999999999773e+01,9.461343318977749259e-03
3.447999999999999687e+01,1.937086505287250252e-02
3.452000000000000313e+01,6.969681529612871927e-03
3.456000000000000227e+01,5.225484685917550047e-03
3.460000000000000142e+01,3.082643610467074823e-03
3.464000000000000057e+01,8.708381033732417315e-03
3.467999999999999972e+01,1.483187660599011651e-02
3.471999999999999886e+01,1.448111081132695890e-02
3.475999999999999801e+01,6.958881643844217618e-03
3.479999999999999716e+01,1.377884907753574271e-02
3.484000000000000341e+01,4.164527169607912249e-03
3.488000000000000256e+01,9.589603687728383286e-03
3.492000000000000171e+01,4.855208253560886443e-03
3.496000000000000085e+01,1.336740612189728575e-02
3.500000000000000000e+01,5.644514963121563186e-03
3.503999999999999915e+01,5.690201699646032715e-03
3.507999999999999829e+01,5.636044314126826757e-03
3.511999999999999744e+01,1.135845914448988664e-02
3.515999999999999659e+01,4.032993600350223001e-03
3.520000000000000284e+01,9.555719884918141213e-03
3.524000000000000199e+01,1.059618957685964404e-02
3.528000000000000114e+01,1.024201123187205333e-02
3.532000000000000028e+01,1.088359146009551005e-02
3.535999999999999943e+01,8.138517971972012918e-03
3.539999999999999858e+01,3.998796265894750436e-03
3.543999999999999773e+01,9.818857966310268193e-03
3.547999999999999687e+01,3.188640477110987834e-03
3.552000000000000313e+01,3.828998769429450832e-03
3.556000000000000227e+01,4.269911937668742496e-03
3.560000000000000142e+01,1.523371583385170827e-03
3.564000000000000057e+01,1.391582878659692463e-02
3.567999999999999972e+01,7.782389544345054942e-03
3.571999999999999886e+01,6.031117721737767542e-03
3.575999999999999801e+01,3.781599639533248045e-03
3.579999999999999716e+01,8.005854692961634003e-03
3.584000000000000341e+01,1.332546781309752043e-02
3.588000000000000256e+01,8.386007254811218142e-03
3.592000000000000171e+01,6.334709645410558330e-03
3.596000000000000085e+01,2.988363251211015922e-03
3.600000000000000000e+01,8.306995805544781231e-03
3.603999999999999915e+01,1.631459057186604097e-02
3.607999999999999829e+01,8.784296627410195443e-03
3.611999999999999744e+01,1.071578367395691414e-02
3.615999999999999659e+01,1.463903080590923597e-02
3.620000000000000284e+01,9.398806834011017367e-03
3.624000000000000199e+01,1.471596672939475513e-02
3.628000000000000114e+01,1.495326679565103616e-02
3.632000000000000028e+01,8.218301691640341258e-03
3.635999999999999943e+01,1.204072027388689188e-02
3.639999999999999858e+01,1.466768968551413095e-02
3.643999999999999773e+01,1.639801069999067065e-02
3.647999999999999687e+01,7.271655463301132834e-03
3.652000000000000313e+01,1.677030618437843484e-02
3.656000000000000227e+01,6.448255519300155787e-03
3.660000000000000142e+01,1.524921208098923078e-02
3.664000000000000057e+01,1.219748937077865143e-02
3.667999999999999972e+01,1.073912484978647129e-02
3.671999999999999886e+01,1.366292623989971873e-02
3.675999999999999801e+01,1.220406902234400653e-02
3.679999999999999716e+01,1.741818398775556512e-02
3.684000000000000341e+01,1.625763466608026037e-02
3.688000000000000256e+01,1.200923016888884483e-02
3.692000000000000171e+01,9.951785166486848064e-03
3.696000000000000085e+01,2.004532739220653281e-02
3.700000000000000000e+01,1.539778174278706897e-02
3.703999999999999915e+01,1.573000318936104355e-02
3.707999999999999829e+01,1.536477582919278453e-02
3.711999999999999744e+01,2.346532517212064281e-02
3.715999999999999659e+01,1.752198834410029216e-02
3.720000000000000284e+01,2.133923171167052130e-02
3.724000000000000199e+01,2.137141741509342510e-02
3.728000000000000114e+01,2.120415539974998542e-02
3.732000000000000028e+01,1.924384115831084124e-02
3.735999999999999943e+01,2.047048852727134313e-02
3.739999999999999858e+01,2.498369772422667431e-02
3.743999999999999773e+01,2.411824450833901720e-02
3.747999999999999687e+01,2.305334327197726754e-02
3.752000000000000313e+01,2.348219867972432123e-02
3.756000000000000227e+01,1.843279121566698819e-02
3.760000000000000142e+01,2.364196473346831182e-02
3.764000000000000057e+01,2.566368165132713874e-02
3.767999999999999972e+01,2.240633607223035950e-02
3.771999999999999886e+01,2.482595850887761926e-02
3.775999999999999801e+01,3.302214917886407003e-02
3.779999999999999716e+01,2.906685799323532882e-02
3.784000000000000341e+01,3.088813492026267968e-02
3.788000000000000256e+01,2.992035599704508109e-02
3.792000000000000171e+01,3.642234979072496437e-02
3.796000000000000085e+01,3.953768594585634760e-02
3.800000000000000000e+01,3.966476551384463117e-02
3.803999999999999915e+01,5.074762734549155552e-02
3.807999999999999829e+01,4.748780078452408820e-02
3.811999999999999744e+01,4.791293607715029629e-02
3.815999999999999659e+01,6.118625873320848729e-02
3.820000000000000284e+01,5.075446668957426383e-02
3.824000000000000199e+01,6.781210274538936045e-02
3.828000000000000114e+01,7.192145399799663996e-02
3.832000000000000028e+01,7.473575290565283302e-02
3.835999999999999943e+01,9.338624721313533439e-02
3.839999999999999858e+01,1.006820609833731506e-01
3.843999999999999773e+01,1.074796244511290744e-01
3.847999999999999687e+01,1.261293720202171231e-01
3.852000000000000313e+01,1.403964583266074373e-01
3.856000000000000227e+01,1.750813525162062123e-01
3.860000000000000142e+01,1.921367483568379442e-01
3.864000000000000057e+01,2.172595174958394937e-01
3.867999999999999972e+01,2.588160832195551819e-01
3.871999999999999886e+01,2.922051768172693742e-01
3.875999999999999801e+01,3.295780321369223831e-01
3.879999999999999716e+01,3.533053999233701781e-01
3.884000000000000341e+01,3.916737590503046040e-01
3.888000000000000256e+01,4.388066930591166259e-01
3.892000000000000171e+01,4.578520990528716639e-01
3.896000000000000085e+01,4.857616800857578743e-01
3.900000000000000000e+01,5.217386338739399276e-01
3.903999999999999915e+01,5.418788936522590527e-01
3.907999999999999829e+01,5.915005858215893753e-01
3.911999999999999744e+01,6.381340197142130188e-01
3.915999999999999659e+01,7.041892578055543028e-01
3.920000000000000284e+01,7.617782222129846348e-01
3.924000000000000199e+01,8.502430226611747965e-01
3.928000000000000114e+01,9.021542709266109350e-01
3.932000000000000028e+01,9.683081086966881523e-01
3.935999999999999943e+01,1.000000000000000000e+00
3.939999999999999858e+01,9.919511300455576830e-01
3.943999999999999773e+01,9.846988118932721301e-01
3.947999999999999687e+01,9.269489023453815202e-01
3.952000000000000313e+01,8.701947450348381796e-01
3.956000000000000227e+01,7.599549878699045635e-01
3.960000000000000142e+01,6.697346359075517785e-01
3.964000000000000057e+01,5.835976446175601406e-01
3.967999999999999972e+01,5.214640695269359139e-01
3.971999999999999886e+01,4.354261768877664696e-01
3.975999999999999801e+01,3.616388675307460887e-01
3.979999999999999716e+01,3.045841539026863387e-01
3.984000000000000341e+01,2.547004092613189274e-01
3.988000000000000256e+01,2.212504593944189246e-01
3.992000000000000171e+01,1.858082528233482023e-01
3.996000000000000085e+01,1.588318186711226709e-01
4.000000000000000000e+01,1.420143616023253896e-01
4.003999999999999915e+01,1.303758676597778221e-01
4.007999999999999829e+01,1.203307267774158806e-01
4.011999999999999744e+01,1.014209097115404828e-01
4.015999999999999659e+01,9.237126865391684372e-02
4.020000000000000284e+01,9.666781327198918639e-02
4.024000000000000199e+01,8.363365790090068752e-02
4.028000000000000114e+01,7.707326890719018442e-02
4.032000000000000028e+01,7.519384122765476741e-02
4.035999999999999943e+01,6.425053644668307640e-02
4.039999999999999858e+01,5.908379591650748247e-02
4.043999999999999773e+01,5.351840234470869179e-02
4.047999999999999687e+01,6.518360486574775736e-02
4.052000000000000313e+01,5.164968501823274938e-02
4.056000000000000227e+01,4.917114391079469710e-02
4.060000000000000142e+01,4.589554840862025697e-02
4.064000000000000057e+01,4.550810873502713488e-02
4.067999999999999972e+01,3.944320092711434828e-02
4.071999999999999886e+01,3.905525660932840371e-02
4.075999999999999801e+01,3.637625348638874601e-02
4.079999999999999716e+01,3.997181540051327614e-02
4.084000000000000341e+01,3.330829615386193127e-02
4.088000000000000256e+01,3.361654376914881281e-02
4.092000000000000171e+01,2.725132010869922572e-02
4.096000000000000085e+01,2.676226013220063191e-02
4.100000000000000000e+01,3.115336099994408386e-02
4.103999999999999915e+01,3.096259624759788512e-02
4.107999999999999829e+01,2.539316359132661946e-02
4.111999999999999744e+01,1.793107269857452044e-02
4.115999999999999659e+01,2.062795713934533273e-02
4.120000000000000284e+01,2.432059128311755622e-02
4.124000000000000199e+01,2.552296534176384801e-02
4.128000000000000114e+01,1.646625757587708364e-02
4.132000000000000028e+01,1.985933129469195577e-02
4.135999999999999943e+01,1.807293724306426042e-02
4.139999999999999858e+01,2.355711010274470080e-02
4.143999999999999773e+01,2.236781090224839244e-02
4.147999999999999687e+01,1.819024986489306550e-02
4.152000000000000313e+01,1.441083638018628502e-02
4.156000000000000227e+01,2.029239623590311029e-02
4.160000000000000142e+01,2.358409518548314904e-02
4.164000000000000057e+01,1.422630509697439365e-02
4.167999999999999972e+01,1.363308566643389556e-02
4.171999999999999886e+01,1.672482265874645352e-02
4.175999999999999801e+01,1.593189489037842924e-02
4.179999999999999716e+01,1.782792064481297789e-02
4.184000000000000341e+01,1.564008096201032622e-02
4.188000000000000256e+01,1.235638411973110501e-02
4.192000000000000171e+01,1.664205423812990109e-02
4.196000000000000085e+01,9.473438170948228487e-03
4.200000000000000000e+01,1.286219728186361634e-02
4.203999999999999915e+01,1.714710455067089065e-02
4.207999999999999829e+01,1.097372823224038348e-02
4.211999999999999744e+01,1.266851940659034954e-02
4.215999999999999659e+01,1.247065077557884226e-02
4.220000000000000284e+01,1.695374062268905149e-02
4.224000000000000199e+01,1.197454942056259269e-02
4.228000000000000114e+01,1.854873575350966461e-02
4.232000000000000028e+01,1.745344591939823956e-02
4.235999999999999943e+01,1.207508930773583400e-02
4.239999999999999858e+01,1.356889698709554462e-02
4.243999999999999773e+01,1.336924499457636979e-02
4.247999999999999687e+01,6.296918817126380755e-03
4.252000000000000313e+01,1.257077481556177767e-02
4.256000000000000227e+01,1.396396206711797774e-02
4.260000000000000142e+01,1.276728690399839793e-02
4.264000000000000057e+01,1.236715871571055815e-02
4.267999999999999972e+01,1.495478355652112706e-02
4.271999999999999886e+01,1.216373801940255628e-02
4.275999999999999801e+01,1.475085206118098742e-02
4.279999999999999716e+01,1.703890977912080745e-02
4.284000000000000341e+01,8.968283041269875175e-03
4.288000000000000256e+01,1.195303154368535133e-02
4.292000000000000171e+01,1.563472632060488796e-02
4.296000000000000085e+01,1.244374618849483811e-02
4.300000000000000000e+01,1.433212443942220339e-02
4.303999999999999915e+01,1.333183877810636443e-02
4.307999999999999829e+01,1.163409525881405233e-02
4.311999999999999744e+01,1.232650243724252304e-02
4.315999999999999659e+01,1.411425663987264309e-02
4.320000000000000284e+01,1.231614474333616108e-02
4.324000000000000199e+01,8.525771134279339081e-03
4.328000000000000114e+01,8.818752706501615038e-03
4.332000000000000028e+01,1.688029968332071390e-02
4.335999999999999943e+01,1.308915725085772232e-02
4.339999999999999858e+01,1.706658010230847899e-02
4.343999999999999773e+01,1.785653760429017911e-02
4.347999999999999687e+01,1.665423303170217653e-02
4.352000000000000313e+01,1.575047271674786392e-02
4.356000000000000227e+01,1.584245854464282413e-02
4.360000000000000142e+01,1.802579351234966099e-02
4.364000000000000057e+01,1.652366143919594896e-02
4.367999999999999972e+01,1.273046615595449689e-02
4.371999999999999886e+01,1.232342344467781022e-02
4.375999999999999801e+01,1.550173380089777363e-02
4.379999999999999716e+01,7.424955751698878066e-03
4.384000000000000341e+01,1.040355149456889845e-02
4.388000000000000256e+01,2.085191096344365252e-02
4.392000000000000171e+01,1.396956489173386239e-02
4.396000000000000085e+01,1.724618992963766750e-02
4.400000000000000000e+01,1.823175127472118073e-02
4.403999999999999915e+01,1.901785470331440742e-02
4.407999999999999829e+01,2.030170210063290959e-02
4.411999999999999744e+01,1.859728367854933742e-02
4.415999999999999659e+01,2.137462022197746808e-02
4.420000000000000284e+01,2.474930083104293077e-02
4.424000000000000199e+01,2.045450237665488377e-02
4.428000000000000114e+01,2.163746148612124415e-02
4.432000000000000028e+01,2.481216837131462391e-02
4.435999999999999943e+01,3.256823019824861554e-02
4.439999999999999858e+01,2.289398548256255453e-02
4.443999999999999773e+01,2.825912477129146477e-02
4.447999999999999687e+01,2.963999491817684642e-02
4.452000000000000313e+01,3.271381170527121185e-02
4.456000000000000227e+01,3.429336617825735900e-02
4.460000000000000142e+01,3.915947161775715918e-02
4.464000000000000057e+01,4.631612518406166834e-02
4.467999999999999972e+01,4.829330597157398264e-02
4.471999999999999886e+01,4.668461836694032946e-02
4.475999999999999801e+01,4.925888398888471353e-02
4.479999999999999716e+01,5.870531028135752422e-02
4.484000000000000341e+01,7.074108523273743565e-02
4.488000000000000256e+01,6.235854457929644601e-02
4.492000000000000171e+01,7.937381611159242956e-02
4.496000000000000085e+01,8.025358386966408020e-02
4.500000000000000000e+01,8.700950921718897391e-02
4.503999999999999915e+01,9.794838736890097708e-02
4.507999999999999829e+01,1.019149871355439080e-01
4.511999999999999744e+01,1.123553459782357516e-01
4.515999999999999659e+01,1.120386157535793598e-01
4.520000000000000284e+01,1.285540733897094778e-01
4.524000000000000199e+01,1.300296298865285805e-01
4.528000000000000114e+01,1.436561610604243922e-01
4.532000000000000028e+01,1.423423912522626678e-01
4.535999999999999943e+01,1.552712018371661673e-01
4.539999999999999858e+01,1.577417238264821886e-01
4.543999999999999773e+01,1.670844055208616508e-01
4.547999999999999687e+01,1.788172343528097175e-01
4.552000000000000313e+01,1.905498035915031974e-01
4.556000000000000227e+01,1.989953040046881227e-01
4.560000000000000142e+01,2.002693246924901471e-01
4.564000000000000057e+01,2.148895228495357745e-01
4.567999999999999972e+01,2.338918734011769529e-01
4.571999999999999886e+01,2.373563206997245933e-01
4.575999999999999801e+01,2.398245052636008567e-01
4.579999999999999716e+01,2.563360690009116039e-01
4.584000000000000341e+01,2.600985370863328483e-01
4.588000000000000256e+01,2.500163064022186687e-01
4.592000000000000171e+01,2.434198252492201509e-01
4.596000000000000085e+01,2.439943038506550421e-01
4.600000000000000000e+01,2.273376740516807604e-01
4.603999999999999915e+01,2.109795847088218324e-01
4.607999999999999829e+01,1.975096429880917881e-01
4.611999999999999744e+01,1.750754157546772771e-01
4.615999999999999659e+01,1.477605143436429569e-01
4.620000000000000284e+01,1.401662073450216095e-01
4.624000000000000199e+01,1.221136104836400282e-01
4.628000000000000114e+01,1.214908015214432868e-01
4.632000000000000028e+01,9.786006755577419947e-02
4.635999999999999943e+01,8.807351136288421589e-02
4.639999999999999858e+01,8.525871370479697064e-02
4.643999999999999773e+01,7.178642532636816953e-02
4.647999999999999687e+01,6.229788702395675642e-02
4.652000000000000313e+01,6.027910846500707243e-02
4.656000000000000227e+01,4.909684317374219537e-02
4.660000000000000142e+01,4.906954778891520208e-02
4.664000000000000057e+01,4.485877944792683591e-02
4.667999999999999972e+01,4.493056171505829116e-02
4.671999999999999886e+01,3.902606590248396123e-02
4.675999999999999801e+01,3.591011640829525758e-02
4.679999999999999716e+01,3.279390538992194015e-02
4.684000000000000341e+01,3.047423501051634009e-02
4.688000000000000256e+01,2.377189075702655294e-02
4.692000000000000171e+01,2.334410230834195465e-02
4.696000000000000085e+01,2.341405348379018911e-02
4.700000000000000000e+01,2.268694060985208816e-02
4.703999999999999915e+01,2.325436946285759643e-02
4.707999999999999829e+01,2.431953775897127343e-02
4.711999999999999744e+01,2.209763487625546891e-02
4.715999999999999659e+01,1.599105908674819040e-02
4.720000000000000284e+01,1.097982422694482839e-02
4.724000000000000199e+01,2.070916831383689052e-02
4.728000000000000114e+01,1.380500373701034136e-02
4.732000000000000028e+01,1.566540130999183322e-02
4.735999999999999943e+01,1.822273845956399324e-02
4.739999999999999858e+01,8.827779827419588582e-03
4.743999999999999773e+01,1.098619094628714744e-02
4.747999999999999687e+01,1.254673784754312821e-02
4.752000000000000313e+01,1.500342463989700996e-02
4.756000000000000227e+01,1.736024848363988682e-02
4.760000000000000142e+01,1.234638902904829257e-02
4.764000000000000057e+01,1.759109541058327328e-02
4.767999999999999972e+01,9.787902530706641194e-03
4.771999999999999886e+01,1.513168342643885639e-02
4.775999999999999801e+01,9.319970220874326111e-03
4.779999999999999716e+01,1.406562344388036581e-02
4.784000000000000341e+01,1.592260551365577703e-02
4.788000000000000256e+01,1.588691914922638060e-02
4.792000000000000171e+01,8.480549003730041002e-03
4.796000000000000085e+01,8.543936429399096380e-03
4.800000000000000000e+01,9.105061910320408694e-03
4.803999999999999915e+01,6.777515936303289690e-03
4.807999999999999829e+01,1.002732207162888162e-02
4.811999999999999744e+01,1.457166830467590893e-02
4.815999999999999659e+01,9.753324835871839474e-03
4.820000000000000284e+01,1.071153385125932049e-02
4.824000000000000199e+01,8.581870554127060333e-03
4.828000000000000114e+01,6.053542388425434476e-03
4.832000000000000028e+01,6.413358465725251846e-03
4.835999999999999943e+01,1.045812094917884620e-02
4.839999999999999858e+01,5.040593090795241447e-03
4.843999999999999773e+01,1.217243625425197019e-02
4.847999999999999687e+01,8.248384508200548582e-03
4.852000000000000313e+01,7.610877815189730222e-03
4.856000000000000227e+01,1.055871694868812556e-02
4.860000000000000142e+01,1.101628489421316477e-02
4.864000000000000057e+01,9.182782147296772446e-03
4.867999999999999972e+01,1.282703032666293770e-02
4.871999999999999886e+01,6.510986291775730170e-03
4.875999999999999801e+01,6.768296119792065191e-03
4.879999999999999716e+01,1.547326120025109986e-03
4.884000000000000341e+01,9.672528762176776235e-03
4.888000000000000256e+01,7.439037836961822671e-03
4.892000000000000171e+01,7.396488304067738544e-03
4.896000000000000085e+01,9.445279825216193123e-03
4.900000000000000000e+01,1.079660455783693941e-02
4.903999999999999915e+01,5.773246599194390392e-03
4.907999999999999829e+01,7.821243410406568397e-03
4.911999999999999744e+01,7.677769083015317797e-03
4.915999999999999659e+01,1.450604912685896954e-02
4.920000000000000284e+01,9.979632341236137003e-03
4.924000000000000199e+01,1.103056591505075304e-02
4.928000000000000114e+01,5.009614489995500679e-03
4.932000000000000028e+01,7.753222197670182024e-03
4.935999999999999943e+01,1.228936952216157404e-02
4.939999999999999858e+01,1.015203277850536788e-02
4.943999999999999773e+01,1.120163942209708406e-02
4.947999999999999687e+01,1.284858216623994964e-02
4.952000000000000313e+01,6.626837325969689614e-03
4.956000000000000227e+01,4.588038471290052135e-03
4.960000000000000142e+01,1.290740277393719049e-02
4.964000000000000057e+01,9.672869027487226642e-03
4.967999999999999972e+01,7.234871635754075610e-03
4.971999999999999886e+01,3.601404979661459050e-03
4.975999999999999801e+01,7.238492623490486687e-03
4.979999999999999716e+01,9.381310048466680665e-03
4.984000000000000341e+01,1.112546025155261228e-02
4.988000000000000256e+01,8.387331777000425412e-03
4.992000000000000171e+01,7.342141796546363536e-03
4.996000000000000085e+01,9.683094974773393676e-03
5.000000000000000000e+01,1.082857846624995721e-02
5.003999999999999915e+01,9.384188319520229624e-03
5.007999999999999829e+01,7.043129199167151924e-03
5.011999999999999744e+01,1.107622133423103242e-02
5.015999999999999659e+01,9.033429922278096713e-03
5.020000000000000284e+01,1.047638158489360392e-02
5.024000000000000199e+01,6.839452359176543747e-03
5.028000000000000114e+01,3.899458305116119180e-03
5.032000000000000028e+01,4.644407700472944975e-03
5.035999999999999943e+01,7.779496871727854292e-03
5.039999999999999858e+01,1.001791658662690848e-02
5.043999999999999773e+01,1.036366400546121121e-02
5.047999999999999687e+01,1.140634629424435754e-02
5.052000000000000313e+01,7.867148661987682576e-03
5.056000000000000227e+01,1.309250829187250283e-02
5.060000000000000142e+01,5.269964255411644337e-03
5.064000000000000057e+01,1.069398986756237360e-02
5.067999999999999972e+01,7.352923643964040003e-03
5.071999999999999886e+01,1.227841305145727091e-02
5.075999999999999801e+01,1.072961689506328302e-02
5.079999999999999716e+01,3.602937615871145815e-03
5.084000000000000341e+01,7.232820735164366063e-03
5.088000000000000256e+01,1.205763951067447166e-02
5.092000000000000171e+01,8.216966366322880910e-03
5.096000000000000085e+01,4.973627089884670449e-03
5.100000000000000000e+01,1.099284580151447047e-02
5.103999999999999915e+01,6.852568243206787896e-03
5.107999999999999829e+01,1.018204354942274341e-02
5.111999999999999744e+01,1.042364219852649591e-02
5.115999999999999659e+01,8.672967187480628420e-03
5.120000000000000284e+01,1.259923985707236439e-02
5.124000000000000199e+01,9.354024293120991734e-03
5.128000000000000114e+01,1.208455712293436159e-02
5.132000000000000028e+01,9.436406601382729686e-03
5.135999999999999943e+01,1.286360463084945671e-02
5.139999999999999858e+01,7.525709738418991102e-03
5.143999999999999773e+01,1.304397661728713687e-02
5.147999999999999687e+01,6.709541837536142292e-03
5.152000000000000313e+01,8.442460926171971303e-03
5.156000000000000227e+01,1.156951520109164751e-02
5.160000000000000142e+01,8.023082089077827536e-03
5.164000000000000057e+01,8.659591824893389175e-03
5.167999999999999972e+01,1.019223517628440288e-02
5.171999999999999886e+01,9.234602633060258470e-03
5.175999999999999801e+01,9.671104974412116778e-03
5.179999999999999716e+01,1.130254158412499245e-02
5.184000000000000341e+01,1.562291657090835589e-02
5.188000000000000256e+01,1.107859763375904950e-02
5.192000000000000171e+01,1.280882695871969103e-02
5.196000000000000085e+01,9.060771688913624514e-03
5.200000000000000000e+01,1.019286066942007470e-02
5.203999999999999915e+01,8.635472716705330440e-03
5.207999999999999829e+01,1.444823584203842014e-02
5.211999999999999744e+01,1.149590495932621866e-02
5.215999999999999659e+01,1.372251891937045949e-02
5.220000000000000284e+01,1.385725737244770418e-02
5.224000000000000199e+01,1.369292526107772183e-02
5.228000000000000114e+01,1.083911585443720488e-02
5.232000000000000028e+01,1.894106716951767314e-02
5.235999999999999943e+01,7.720294653209255724e-03
5.239999999999999858e+01,1.114049302159805452e-02
5.243999999999999773e+01,1.157241301953982129e-02
5.247999999999999687e+01,3.936440411919394679e-03
5.252000000000000313e+01,9.248233783046958673e-03
5.256000000000000227e+01,1.047614554539871151e-02
5.260000000000000142e+01,1.429339426039454193e-02
5.264000000000000057e+01,1.103875290782932971e-02
5.267999999999999972e+01,9.377445607857673796e-03
5.271999999999999886e+01,1.339308369554430451e-02
5.275999999999999801e+01,1.043643181258192831e-02
5.279999999999999716e+01,8.973513523251742952e-03
5.284000000000000341e+01,7.809125431971252265e-03
5.288000000000000256e+01,1.013047637237455938e-02
5.292000000000000171e+01,7.969544049181081363e-03
5.296000000000000085e+01,8.796349247304557223e-03
5.300000000000000000e+01,4.642869671464436125e-03
5.303999999999999915e+01,1.104674861945026225e-02
5.307999999999999829e+01,1.097633850373824424e-02
5.311999999999999744e+01,1.120445816368503301e-02
5.315999999999999659e+01,7.547895865606090056e-03
5.320000000000000284e+01,9.767478786960142462e-03
5.324000000000000199e+01,1.278359269263201065e-02
5.328000000000000114e+01,1.400663029592495376e-02
5.332000000000000028e+01,1.174338681157284341e-02
5.335999999999999943e+01,1.067507524226078697e-02
5.339999999999999858e+01,1.339130275400243590e-02
5.343999999999999773e+01,1.062924343833961116e-02
5.347999999999999687e+01,9.460516968439120974e-03
5.352000000000000313e+01,6.897114945857262501e-03
5.356000000000000227e+01,1.349666677154672326e-02
5.360000000000000142e+01,1.143072263448980698e-02
5.364000000000000057e+01,1.175491332532288893e-02
5.367999999999999972e+01,1.337363572640028891e-02
5.371999999999999886e+01,8.916469210061865255e-03
5.375999999999999801e+01,1.302465457266648551e-02
5.379999999999999716e+01,9.662547006057791918e-03
5.384000000000000341e+01,1.008497785674563989e-02
5.388000000000000256e+01,1.259874233946386632e-02
5.392000000000000171e+01,1.162622482941363077e-02
5.396000000000000085e+01,7.665426655937056764e-03
5.400000000000000000e+01,1.107477666411329532e-02
5.403999999999999915e+01,7.113433658963598701e-03
5.407999999999999829e+01,8.032231766365175232e-03
5.411999999999999744e+01,1.134116397755799248e-02
5.415999999999999659e+01,8.175805495830835989e-03
5.420000000000000284e+01,1.267939572785890291e-02
5.424000000000000199e+01,1.250150014914517237e-02
5.428000000000000114e+01,8.936922312525632031e-03
5.432000000000000028e+01,1.085008689402838788e-02
5.435999999999999943e+01,1.097017354393006738e-02
5.439999999999999858e+01,8.799180812205353516e-03
5.443999999999999773e+01,8.819121145665929917e-03
5.447999999999999687e+01,1.212559754127431368e-02
5.452000000000000313e+01,1.075058770374998605e-02
5.456000000000000227e+01,7.781700188790189113e-03
5.460000000000000142e+01,1.088815633718218275e-02
5.464000000000000057e+01,7.719521624428964286e-03
5.467999999999999972e+01,8.036623227989226140e-03
5.471999999999999886e+01,1.213826192133164381e-02
5.475999999999999801e+01,7.474802624085683314e-03
5.479999999999999716e+01,1.406590114119406904e-02
5.484000000000000341e+01,1.717071627767807057e-02
5.488000000000000256e+01,8.223624070636670683e-03
5.492000000000000171e+01,1.461470089233117206e-02
5.496000000000000085e+01,1.214107914379274414e-02
5.500000000000000000e+01,8.272779609935160608e-03
5.503999999999999915e+01,1.117702502122941248e-02
5.507999999999999829e+01,1.049538641191311537e-02
5.511999999999999744e+01,7.423067056885588461e-03
5.515999999999999659e+01,5.844477735338088863e-03
5.520000000000000284e+01,1.372764062186805807e-02
5.524000000000000199e+01,1.433970896276196005e-02
5.528000000000000114e+01,1.036989020197017636e-02
5.532000000000000028e+01,1.347141679774943243e-02
5.535999999999999943e+01,9.401448944804690830e-03
5.539999999999999858e+01,1.310002827330506749e-02
5.543999999999999773e+01,4.945899969371636909e-03
5.547999999999999687e+01,8.345129287796227563e-03
5.552000000000000313e+01,6.465269196928570723e-03
5.556000000000000227e+01,1.135795326677243276e-02
5.560000000000000142e+01,1.246555197569199427e-02
5.564000000000000057e+01,9.588864707472199642e-03
5.567999999999999972e+01,1.268791919544534803e-02
5.571999999999999886e+01,1.150388675178578256e-02
5.575999999999999801e+01,1.500079233045841128e-02
5.579999999999999716e+01,1.062900085109267853e-02
5.584000000000000341e+01,9.444143104324960458e-03
5.588000000000000256e+01,1.194422041949734156e-02
5.592000000000000171e+01,1.484242356435589577e-02
5.596000000000000085e+01,1.305913830378552069e-02
5.600000000000000000e+01,1.605639098143463867e-02
5.603999999999999915e+01,1.068694484931236380e-02
5.607999999999999829e+01,1.069563820234694512e-02
5.611999999999999744e+01,1.170005875098033797e-02
5.615999999999999659e+01,9.815795595338204504e-03
5.620000000000000284e+01,9.923262293979174739e-03
5.624000000000000199e+01,8.536449058775799972e-03
5.628000000000000114e+01,1.232857445114800450e-02
5.632000000000000028e+01,1.163841145089062126e-02
5.635999999999999943e+01,1.074877194894186330e-02
5.639999999999999858e+01,2.061568645800127692e-02
5.643999999999999773e+01,1.464588070861831855e-02
5.647999999999999687e+01,1.415381411891332951e-02
5.652000000000000313e+01,1.127106467154245090e-02
5.656000000000000227e+01,1.057924509125405220e-02
5.660000000000000142e+01,1.078355170452902252e-02
5.664000000000000057e+01,6.903970554188853387e-03
5.667999999999999972e+01,9.498131041186243587e-03
5.671999999999999886e+01,1.288881726278551590e-02
5.675999999999999801e+01,1.229521581768176254e-02
5.679999999999999716e+01,1.349414276586414184e-02
5.684000000000000341e+01,1.479239332206659999e-02
5.688000000000000256e+01,1.260435742022500763e-02
5.692000000000000171e+01,1.200964917477139078e-02
5.696000000000000085e+01,1.490067380616226685e-02
5.700000000000000000e+01,1.141700373831898430e-02
5.703999999999999915e+01,9.925062257585982178e-03
5.707999999999999829e+01,1.630126570188922264e-02
5.711999999999999744e+01,1.112355981322324383e-02
5.715999999999999659e+01,1.182199317017568023e-02
5.720000000000000284e+01,1.341655181556797999e-02
5.724000000000000199e+01,1.142522318190542646e-02
5.728000000000000114e+01,1.272042638648139545e-02
5.732000000000000028e+01,7.939735242900891957e-03
5.735999999999999943e+01,1.272039332689026830e-02
5.739999999999999858e+01,1.341716250077485718e-02
5.743999999999999773e+01,1.351605243199890949e-02
5.747999999999999687e+01,1.401306583958823390e-02
5.752000000000000313e+01,1.421100071764413823e-02
5.756000000000000227e+01,1.301425394852089718e-02
5.760000000000000142e+01,1.261403158648521233e-02
5.764000000000000057e+01,1.012192551103012657e-02
5.767999999999999972e+01,1.181275317182857096e-02
5.771999999999999886e+01,1.888171784377980569e-02
5.775999999999999801e+01,1.718557999952550000e-02
5.779999999999999716e+01,1.658476709446117178e-02
5.784000000000000341e+01,1.150166350378788345e-02
5.788000000000000256e+01,1.259349890639506128e-02
5.792000000000000171e+01,1.637426351415534678e-02
5.796000000000000085e+01,1.358113141861047937e-02
5.800000000000000000e+01,1.965214563961332692e-02
5.803999999999999915e+01,1.138044135756237536e-02
5.807999999999999829e+01,1.386528855217405119e-02
5.811999999999999744e+01,1.734585992530644077e-02
5.815999999999999659e+01,1.216092845675438745e-02
5.820000000000000284e+01,1.036212771652167408e-02
5.824000000000000199e+01,1.583386848379945630e-02
5.828000000000000114e+01,1.622571623409069588e-02
5.832000000000000028e+01,1.522288119071316982e-02
5.835999999999999943e+01,1.541497051968043416e-02
5.839999999999999858e+01,1.660278360477750181e-02
5.843999999999999773e+01,1.659511427105454795e-02
5.847999999999999687e+01,1.798156968452522403e-02
5.852000000000000313e+01,1.608093672182124220e-02
5.856000000000000227e+01,1.427962477245017618e-02
5.860000000000000142e+01,1.954965323164213967e-02
5.864000000000000057e+01,1.177176589583441013e-02
5.867999999999999972e+01,1.504922996537609234e-02
5.871999999999999886e+01,1.573680730259250857e-02
5.875999999999999801e+01,1.562730285000334118e-02
5.879999999999999716e+01,1.601552016044465940e-02
5.884000000000000341e+01,1.849506362056271142e-02
5.888000000000000256e+01,1.509791093507689003e-02
5.892000000000000171e+01,1.468848678001530121e-02
5.896000000000000085e+01,1.437838303487099130e-02
5.900000000000000000e+01,6.896779349920532237e-03
5.903999999999999915e+01,1.485293875646185972e-02
5.907999999999999829e+01,2.231081672427534870e-02
5.911999999999999744e+01,1.472877261425574111e-02
5.915999999999999659e+01,1.372006667833353295e-02
5.920000000000000284e+01,1.520108746076093142e-02
5.924000000000000199e+01,1.588502572928406423e-02
5.928000000000000114e+01,1.268427280752241863e-02
5.932000000000000028e+01,1.526005559499808879e-02
5.935999999999999943e+01,1.703875568754475642e-02
5.939999999999999858e+01,1.533116552052897139e-02
5.943999999999999773e+01,1.770690615680121580e-02
5.947999999999999687e+01,1.908636336124631613e-02
5.952000000000000313e+01,1.707913040304102903e-02
5.956000000000000227e+01,1.776082417598474905e-02
5.960000000000000142e+01,1.854183739338077092e-02
5.964000000000000057e+01,1.513935804360778438e-02
5.967999999999999972e+01,1.582020913507346110e-02
5.971999999999999886e+01,1.759638226933410085e-02
5.975999999999999801e+01,1.598586487889498350e-02
5.979999999999999716e+01,1.337906357389621360e-02
5.984000000000000341e+01,1.326198802178206286e-02
5.988000000000000256e+01,1.922024816793356516e-02
5.992000000000000171e+01,1.422219642482693697e-02
5.996000000000000085e+01,1.141506941977001033e-02
