2.003999999999999915e+01,4.996625682612383657e-02
2.007999999999999829e+01,3.000243285101228050e-02
2.012000000000000099e+01,2.877725929605893032e-02
2.016000000000000014e+01,3.120428354401092591e-02
2.019999999999999929e+01,2.918446248927630479e-02
2.023999999999999844e+01,3.812185774731605831e-02
2.028000000000000114e+01,3.260770719500702408e-02
2.032000000000000028e+01,2.232910102917591219e-02
2.035999999999999943e+01,3.364762941766606674e-02
2.039999999999999858e+01,3.575516834197767918e-02
2.044000000000000128e+01,2.198191755117792287e-02
2.048000000000000043e+01,4.838595763768308716e-02
2.051999999999999957e+01,2.031965040824303820e-02
2.055999999999999872e+01,3.576553352525935897e-02
2.060000000000000142e+01,1.738568781301360819e-02
2.064000000000000057e+01,4.077117954425611701e-02
2.067999999999999972e+01,5.367524188060811968e-02
2.071999999999999886e+01,2.703660318148574937e-02
2.076000000000000156e+01,3.057055353937605455e-02
2.080000000000000071e+01,3.791550226138380719e-02
2.083999999999999986e+01,3.271455863722347313e-02
2.087999999999999901e+01,2.004947477648848578e-02
2.092000000000000171e+01,4.470319319595529584e-02
2.096000000000000085e+01,4.601229469092229379e-02
2.100000000000000000e+01,4.319215515594003463e-02
2.103999999999999915e+01,2.099751721212420041e-02
2.107999999999999829e+01,2.452893289950873815e-02
2.112000000000000099e+01,2.139023058330621202e-02
2.116000000000000014e+01,3.174961472783960348e-02
2.119999999999999929e+01,3.940899938445231038e-02
2.123999999999999844e+01,3.436368430800828405e-02
2.128000000000000114e+01,1.629605971272391277e-02
2.132000000000000028e+01,4.158181571427303769e-02
2.135999999999999943e+01,2.843649981133273760e-02
2.139999999999999858e+01,4.387572114870184892e-02
2.144000000000000128e+01,3.501749384148682143e-02
2.148000000000000043e+01,1.726587950514843484e-02
2.151999999999999957e+01,2.730477781339779239e-02
2.155999999999999872e+01,3.845498855008201711e-02
2.160000000000000142e+01,3.499484005143057436e-02
2.164000000000000057e+01,4.010982725271237948e-02
2.167999999999999972e+01,2.982043088546276408e-02
2.171999999999999886e+01,3.795206491407582955e-02
2.176000000000000156e+01,3.941357673868578493e-02
2.180000000000000071e+01,2.531189944555764515e-02
2.183999999999999986e+01,2.661396128976816627e-02
2.187999999999999901e+01,3.490310964246859382e-02
2.192000000000000171e+01,4.335073949109723851e-02
2.196000000000000085e+01,3.115342679976457196e-02
2.200000000000000000e+01,3.102495220146305951e-02
2.203999999999999915e+01,2.025623452075824699e-02
2.207999999999999829e+01,3.092583534412775281e-02
2.212000000000000099e+01,4.890013062408860023e-02
2.216000000000000014e+01,4.765872490611657020e-02
2.219999999999999929e+01,2.831325125908660048e-02
2.223999999999999844e+01,3.501143315326034344e-02
2.228000000000000114e+01,2.995773705847352975e-02
2.232000000000000028e+01,2.696817697389985655e-02
2.235999999999999943e+01,3.144211453239004889e-02
2.239999999999999858e+01,3.655094472138291362e-02
2.244000000000000128e+01,3.006670063293991058e-02
2.248000000000000043e+01,1.992962008597155138e-02
2.251999999999999957e+01,3.297770753320772991e-02
2.255999999999999872e+01,2.411041040956239320e-02
2.260000000000000142e+01,2.270660935382514539e-02
2.264000000000000057e+01,2.908391362672736388e-02
2.267999999999999972e+01,2.863228489589951520e-02
2.271999999999999886e+01,3.103881335816845166e-02
2.276000000000000156e+01,2.518716543699685284e-02
2.280000000000000071e+01,2.282889323038499174e-02
2.283999999999999986e+01,1.904104886531590365e-02
2.287999999999999901e+01,3.145096062005320325e-02
2.292000000000000171e+01,3.973161874359288498e-02
2.296000000000000085e+01,4.229497535712180289e-02
2.300000000000000000e+01,2.310174927361193301e-02
2.303999999999999915e+01,2.614085920169608238e-02
2.307999999999999829e+01,3.108529539037050912e-02
2.312000000000000099e+01,3.539418139104958533e-02
2.316000000000000014e+01,2.922162172022577109e-02
2.319999999999999929e+01,3.337103988873705435e-02
2.323999999999999844e+01,2.402172138974761895e-02
2.328000000000000114e+01,2.070665164106546066e-02
2.332000000000000028e+01,3.231889703137363901e-02
2.335999999999999943e+01,2.963838115845936899e-02
2.339999999999999858e+01,3.346852753316062468e-02
2.344000000000000128e+01,2.284710735795874442e-02
2.348000000000000043e+01,3.382280126004989784e-02
2.351999999999999957e+01,2.431234714529402138e-02
2.355999999999999872e+01,2.655311136179779388e-02
2.360000000000000142e+01,1.910645082715647924e-02
2.364000000000000057e+01,2.515786047663869790e-02
2.367999999999999972e+01,2.326869722783978314e-02
2.371999999999999886e+01,2.614334174853229914e-02
2.376000000000000156e+01,2.711199378778341926e-02
2.380000000000000071e+01,2.665106736795336620e-02
2.383999999999999986e+01,2.237849080208530531e-02
2.387999999999999901e+01,2.604581618817915570e-02
2.392000000000000171e+01,1.224428140311197878e-02
2.396000000000000085e+01,2.734487657994728177e-02
2.400000000000000000e+01,3.180521581060507391e-02
2.403999999999999915e+01,3.388314643725321568e-02
2.407999999999999829e+01,2.039787298218108738e-02
2.412000000000000099e+01,1.882261894463324592e-02
2.416000000000000014e+01,1.502376027712650636e-02
2.419999999999999929e+01,2.075284907766101333e-02
2.423999999999999844e+01,3.505705651393856148e-02
2.428000000000000114e+01,2.411096809651300590e-02
2.432000000000000028e+01,2.158119302814959922e-02
2.435999999999999943e+01,3.906047864521990098e-02
2.439999999999999858e+01,2.557249620237472820e-02
2.444000000000000128e+01,2.574138345476187709e-02
2.448000000000000043e+01,1.542881637228811671e-02
2.451999999999999957e+01,2.369606607048527214e-02
2.455999999999999872e+01,3.005731803672096261e-02
2.460000000000000142e+01,2.212580060142822075e-02
2.464000000000000057e+01,2.515147060104923685e-02
2.467999999999999972e+01,2.674755636601704525e-02
2.471999999999999886e+01,2.469079097100330272e-02
2.476000000000000156e+01,1.405822654299132383e-02
2.480000000000000071e+01,8.189462796268667105e-03
2.483999999999999986e+01,1.851844230557797566e-02
2.487999999999999901e+01,2.646500769783157944e-02
2.492000000000000171e+01,3.012350157095871131e-02
2.496000000000000085e+01,3.314643317989416499e-02
2.500000000000000000e+01,3.585141178536958850e-02
2.503999999999999915e+01,2.569286095618895580e-02
2.507999999999999829e+01,1.886886611595696775e-02
2.512000000000000099e+01,3.014826983361968207e-02
2.516000000000000014e+01,3.015219094533566971e-02
2.519999999999999929e+01,1.999226251998007658e-02
2.523999999999999844e+01,1.904266521373224400e-02
2.528000000000000114e+01,2.444491305474891241e-02
2.532000000000000028e+01,3.270530102467202743e-02
2.535999999999999943e+01,2.524367175041398667e-02
2.539999999999999858e+01,3.048607730099162083e-02
2.544000000000000128e+01,2.461180316956933581e-02
2.548000000000000043e+01,2.461295858789533733e-02
2.551999999999999957e+01,1.842038140966008319e-02
2.555999999999999872e+01,2.715510466895884600e-02
2.560000000000000142e+01,2.651999957406960332e-02
2.564000000000000057e+01,1.826191824038236530e-02
2.567999999999999972e+01,1.778492228335841127e-02
2.571999999999999886e+01,2.969434952770453467e-02
2.576000000000000156e+01,1.794151882117294566e-02
2.580000000000000071e+01,3.937853456432343496e-02
2.583999999999999986e+01,2.031998709889855023e-02
2.587999999999999901e+01,1.634754273242836758e-02
2.592000000000000171e+01,2.476152025469833401e-02
2.596000000000000085e+01,4.222701940897939654e-02
2.600000000000000000e+01,2.967806857207720347e-02
2.603999999999999915e+01,2.491020074910399798e-02
2.607999999999999829e+01,1.347218236931938158e-02
2.612000000000000099e+01,3.442998453086502930e-02
2.616000000000000014e+01,1.965636423248927345e-02
2.619999999999999929e+01,2.425657349683590230e-02
2.623999999999999844e+01,1.869292639843490172e-02
2.628000000000000114e+01,2.837418453535724486e-02
2.632000000000000028e+01,2.408027150539035488e-02
2.635999999999999943e+01,3.630170127872462543e-02
2.639999999999999858e+01,2.597250223216619747e-02
2.644000000000000128e+01,3.279386451037188954e-02
2.648000000000000043e+01,2.389320219366833364e-02
2.651999999999999957e+01,2.070915783940815297e-02
2.655999999999999872e+01,2.514738832461014748e-02
2.660000000000000142e+01,2.370948864830628097e-02
2.664000000000000057e+01,3.672246803644810959e-02
2.667999999999999972e+01,2.035621201697956906e-02
2.671999999999999886e+01,3.273326308349058106e-02
2.676000000000000156e+01,2.271848772900353711e-02
2.680000000000000071e+01,2.921905229003166418e-02
2.683999999999999986e+01,2.206205179458988960e-02
2.687999999999999901e+01,1.839840023605541011e-02
2.692000000000000171e+01,2.934443066591322508e-02
2.696000000000000085e+01,2.409201906566339757e-02
2.700000000000000000e+01,2.423861275428769099e-02
2.703999999999999915e+01,3.105464956228969411e-02
2.707999999999999829e+01,1.881375784328881764e-02
2.712000000000000099e+01,2.054732775353551935e-02
2.716000000000000014e+01,3.784340664679088778e-02
2.719999999999999929e+01,2.560144195796922387e-02
2.723999999999999844e+01,2.352262383172740515e-02
2.728000000000000114e+01,2.700161391830624077e-02
2.732000000000000028e+01,2.460446911791104238e-02
2.735999999999999943e+01,1.887206535407540478e-02
2.739999999999999858e+01,2.822575471320637117e-02
2.744000000000000128e+01,1.947534175237287599e-02
2.748000000000000043e+01,2.993994519180094224e-02
2.751999999999999957e+01,2.134761721644021573e-02
2.755999999999999872e+01,2.418887179648123234e-02
2.760000000000000142e+01,1.781908965766261510e-02
2.764000000000000057e+01,1.319579908984114605e-02
2.767999999999999972e+01,3.715700454574636519e-02
2.771999999999999886e+01,3.237418681488016953e-02
2.776000000000000156e+01,1.726869798364929001e-02
2.780000000000000071e+01,1.677288536523866697e-02
2.783999999999999986e+01,1.595910110402165571e-02
2.787999999999999901e+01,1.943268302470520237e-02
2.792000000000000171e+01,2.004741659147064523e-02
2.796000000000000085e+01,1.160991583827133099e-02
2.800000000000000000e+01,1.905252807829205947e-02
2.803999999999999915e+01,2.728880069427743957e-02
2.807999999999999829e+01,2.520240010969014566e-02
2.812000000000000099e+01,1.946312605041093310e-02
2.816000000000000014e+01,1.721719252720676704e-02
2.819999999999999929e+01,2.227591355664122752e-02
2.823999999999999844e+01,2.368176032380570756e-02
2.828000000000000114e+01,1.984668494988696755e-02
2.832000000000000028e+01,1.680526811425080147e-02
2.835999999999999943e+01,7.252490519449559213e-03
2.839999999999999858e+01,2.660181374616434058e-02
2.844000000000000128e+01,2.879985665953698273e-02
2.848000000000000043e+01,2.115163803196313044e-02
2.851999999999999957e+01,2.366655756613705169e-02
2.855999999999999872e+01,1.839967693548597016e-02
2.860000000000000142e+01,1.456167205195027861e-02
2.864000000000000057e+01,1.548744264720744966e-02
2.867999999999999972e+01,1.403077418543854406e-02
2.871999999999999886e+01,1.765549020066788793e-02
2.876000000000000156e+01,0.000000000000000000e+00
2.880000000000000071e+01,3.236764129220949526e-02
2.883999999999999986e+01,1.772870445961522573e-02
2.887999999999999901e+01,3.278588910636862086e-02
2.892000000000000171e+01,1.624055698125320690e-02
2.896000000000000085e+01,2.002186487433835899e-02
2.900000000000000000e+01,2.427921731950647560e-02
2.903999999999999915e+01,1.869030454836408811e-02
2.907999999999999829e+01,1.627711675194111821e-02
2.912000000000000099e+01,2.196260127820225116e-02
2.916000000000000014e+01,2.034269598663455969e-02
2.919999999999999929e+01,2.856831487061500113e-02
2.923999999999999844e+01,2.520081484773887062e-02
2.928000000000000114e+01,2.278577182414991131e-02
2.932000000000000028e+01,3.577441884553676094e-02
2.935999999999999943e+01,1.620771763749629182e-02
2.939999999999999858e+01,1.665004403661286478e-02
2.944000000000000128e+01,2.677908827449280299e-02
2.948000000000000043e+01,2.086847870475565248e-02
2.951999999999999957e+01,2.130968645452653923e-02
2.955999999999999872e+01,9.046139865831612920e-03
2.960000000000000142e+01,3.616580049036891703e-02
2.964000000000000057e+01,2.056660630355813119e-02
2.967999999999999972e+01,2.878775216531183692e-02
2.971999999999999886e+01,3.002111405713010425e-02
2.976000000000000156e+01,3.284214884443843047e-02
2.980000000000000071e+01,3.264551817747759349e-02
2.983999999999999986e+01,3.308373131118238358e-02
2.987999999999999901e+01,2.605774513996153563e-02
2.992000000000000171e+01,3.983480697120324321e-02
2.996000000000000085e+01,4.185994040849153053e-02
3.000000000000000000e+01,2.990987852649809944e-02
3.003999999999999915e+01,4.289178766173625673e-02
3.007999999999999829e+01,3.427587239446162892e-02
3.012000000000000099e+01,3.328220860183479096e-02
3.016000000000000014e+01,4.928027695742495662e-02
3.019999999999999929e+01,5.273239153576200072e-02
3.023999999999999844e+01,4.522659969060723040e-02
3.028000000000000114e+01,5.820624396192350392e-02
3.032000000000000028e+01,5.959276223818110035e-02
3.035999999999999943e+01,7.336567326279241907e-02
3.039999999999999858e+01,7.221055777308954537e-02
3.044000000000000128e+01,9.344653448929857165e-02
3.048000000000000043e+01,9.244946513121973797e-02
3.051999999999999957e+01,9.732779224461265977e-02
3.055999999999999872e+01,1.058582489041491048e-01
3.060000000000000142e+01,1.091477681960940360e-01
3.064000000000000057e+01,1.265705307766266385e-01
3.067999999999999972e+01,1.350998459470549584e-01
3.071999999999999886e+01,1.275894991715599558e-01
3.076000000000000156e+01,1.358004425133620408e-01
3.080000000000000071e+01,1.381352281284276562e-01
3.083999999999999986e+01,1.044209510447718092e-01
3.087999999999999901e+01,1.031024632618518372e-01
3.092000000000000171e+01,9.638423124950357135e-02
3.096000000000000085e+01,1.045932642336786372e-01
3.100000000000000000e+01,8.437586202720739892e-02
3.103999999999999915e+01,8.480269571084179947e-02
3.107999999999999829e+01,8.157663649286001073e-02
3.112000000000000099e+01,6.818668888395799932e-02
3.116000000000000014e+01,7.035922400546421041e-02
3.119999999999999929e+01,4.791663690278355481e-02
3.123999999999999844e+01,5.469374150553012875e-02
3.128000000000000114e+01,4.495476620210316077e-02
3.132000000000000028e+01,4.283803449754388509e-02
3.135999999999999943e+01,3.262187472808180527e-02
3.139999999999999858e+01,3.066317707895033218e-02
3.144000000000000128e+01,3.045094606084542202e-02
3.148000000000000043e+01,3.055593855658255559e-02
3.151999999999999957e+01,3.351903048969542137e-02
3.155999999999999872e+01,2.933552161504783887e-02
3.160000000000000142e+01,3.976166401325006983e-02
3.164000000000000057e+01,3.033682414834136531e-02
3.167999999999999972e+01,3.695087788588914679e-02
3.171999999999999886e+01,3.308342977136907032e-02
3.176000000000000156e+01,1.889328430388398372e-02
3.180000000000000071e+01,1.883637451173246491e-02
3.183999999999999986e+01,2.735453347538296248e-02
3.187999999999999901e+01,1.888019431008371163e-02
3.192000000000000171e+01,2.803279478837210348e-02
3.196000000000000085e+01,1.654038709519789138e-02
3.200000000000000000e+01,2.061045661938585086e-02
3.203999999999999915e+01,1.864555551690245949e-02
3.207999999999999829e+01,2.668496444972367349e-02
3.211999999999999744e+01,1.804948320169647707e-02
3.215999999999999659e+01,1.830667813252073381e-02
3.220000000000000284e+01,2.698013469478421564e-02
3.224000000000000199e+01,2.215479552119593160e-02
3.228000000000000114e+01,2.479288888422247206e-02
3.232000000000000028e+01,2.441330025384161329e-02
3.235999999999999943e+01,1.911037222798244936e-02
3.239999999999999858e+01,1.428346643949591523e-02
3.243999999999999773e+01,2.343098736429825163e-02
3.247999999999999687e+01,2.241461097229608193e-02
3.252000000000000313e+01,2.092142746031619427e-02
3.256000000000000227e+01,1.974546037397617235e-02
3.260000000000000142e+01,2.015714754377984780e-02
3.264000000000000057e+01,2.596780298629083883e-02
3.267999999999999972e+01,1.812085504353526041e-02
3.271999999999999886e+01,2.059582245892569580e-02
3.275999999999999801e+01,2.195876213266735599e-02
3.279999999999999716e+01,3.157915473832945824e-02
3.284000000000000341e+01,2.468345719930383625e-02
3.288000000000000256e+01,1.905780255548241223e-02
3.292000000000000171e+01,2.311884291066200123e-02
3.296000000000000085e+01,1.781000660686879802e-02
3.300000000000000000e+01,2.218786477702460250e-02
3.303999999999999915e+01,1.862508861781417280e-02
3.307999999999999829e+01,1.379147785511819317e-02
3.311999999999999744e+01,3.341340361026528399e-02
3.315999999999999659e+01,1.936832286461354080e-02
3.320000000000000284e+01,1.389830194887974046e-02
3.324000000000000199e+01,1.319202632144815188e-02
3.328000000000000114e+01,1.709069095816411268e-02
3.332000000000000028e+01,2.527668607324413952e-02
3.335999999999999943e+01,1.853463524708573451e-02
3.339999999999999858e+01,1.814437627541292189e-02
3.343999999999999773e+01,2.108861842475378764e-02
3.347999999999999687e+01,2.165039001394792814e-02
3.352000000000000313e+01,9.824990797859338085e-03
3.356000000000000227e+01,2.737807282231835906e-02
3.360000000000000142e+01,2.873266923735307704e-02
3.364000000000000057e+01,1.833531310604196579e-02
3.367999999999999972e+01,2.080074221831232015e-02
3.371999999999999886e+01,2.310696585808228246e-02
3.375999999999999801e+01,1.461406473370070562e-02
3.379999999999999716e+01,1.977797187346635316e-02
3.384000000000000341e+01,1.731884895660312784e-02
3.388000000000000256e+01,1.660617665668024517e-02
3.392000000000000171e+01,2.494497374609331436e-02
3.396000000000000085e+01,2.963085903201776242e-02
3.400000000000000000e+01,3.050502749029889230e-02
3.403999999999999915e+01,2.296214077117750968e-02
3.407999999999999829e+01,1.907136049591118265e-02
3.411999999999999744e+01,1.867388164034517253e-02
3.415999999999999659e+01,3.256842773270723218e-02
3.420000000000000284e+01,2.200663667306086008e-02
3.424000000000000199e+01,3.113623193166739980e-02
3.428000000000000114e+01,2.549657997256613018e-02
3.432000000000000028e+01,2.874959001591202712e-02
3.435999999999999943e+01,1.246920946763612099e-02
3.439999999999999858e+01,3.049025225735244385e-02
3.443999999999999773e+01,3.469487534902933323e-02
3.447999999999999687e+01,2.905319752085902194e-02
3.452000000000000313e+01,3.008091371970363082e-02
3.456000000000000227e+01,2.888495703182815746e-02
3.460000000000000142e+01,2.959425099705364354e-02
3.464000000000000057e+01,3.459086677728510223e-02
3.467999999999999972e+01,3.831663745299080520e-02
3.471999999999999886e+01,5.585801511637435157e-02
3.475999999999999801e+01,3.973237577791893099e-02
3.479999999999999716e+01,6.489556666385991324e-02
3.484000000000000341e+01,8.704105901725513184e-02
3.488000000000000256e+01,1.077569001918659286e-01
3.492000000000000171e+01,1.518166327392483916e-01
3.496000000000000085e+01,1.950819326293093126e-01
3.500000000000000000e+01,2.392996519774387987e-01
3.503999999999999915e+01,2.738298714919857879e-01
3.507999999999999829e+01,2.993078099569391193e-01
3.511999999999999744e+01,3.044583290341328907e-01
3.515999999999999659e+01,3.185015046007277917e-01
3.520000000000000284e+01,3.195222792894328867e-01
3.524000000000000199e+01,3.746950670066754308e-01
3.528000000000000114e+01,4.381252913792261228e-01
3.532000000000000028e+01,5.526902377843165848e-01
3.535999999999999943e+01,6.602673632033050355e-01
3.539999999999999858e+01,7.481522864433667319e-01
3.543999999999999773e+01,8.103104263000839858e-01
3.547999999999999687e+01,7.900484826094735791e-01
3.552000000000000313e+01,7.186509931498694659e-01
3.556000000000000227e+01,6.316902242635816789e-01
3.560000000000000142e+01,5.455230661358437816e-01
3.564000000000000057e+01,4.390284852075081456e-01
3.567999999999999972e+01,3.565130097104651785e-01
3.571999999999999886e+01,2.857486727367762880e-01
3.575999999999999801e+01,2.422983406635313974e-01
3.579999999999999716e+01,2.082170751641576334e-01
3.584000000000000341e+01,1.693712521911719671e-01
3.588000000000000256e+01,1.360831809879159138e-01
3.592000000000000171e+01,1.320147707745445431e-01
3.596000000000000085e+01,1.119066642243432830e-01
3.600000000000000000e+01,9.989718484235338147e-02
3.603999999999999915e+01,1.013856942614256296e-01
3.607999999999999829e+01,8.365841132351535536e-02
3.611999999999999744e+01,6.831278334760404469e-02
3.615999999999999659e+01,6.710036243169187342e-02
3.620000000000000284e+01,6.572871976666692928e-02
3.624000000000000199e+01,4.847618368875881295e-02
3.628000000000000114e+01,6.314298718568976676e-02
3.632000000000000028e+01,5.637073008767986421e-02
3.635999999999999943e+01,4.324586448693269053e-02
3.639999999999999858e+01,5.219444245246520481e-02
3.643999999999999773e+01,4.939104949483151541e-02
3.647999999999999687e+01,4.515799485737318625e-02
3.652000000000000313e+01,5.394651158577882383e-02
3.656000000000000227e+01,4.066074709757266231e-02
3.660000000000000142e+01,3.769687250249003502e-02
3.664000000000000057e+01,3.854389231122685999e-02
3.667999999999999972e+01,3.684961579610798038e-02
3.671999999999999886e+01,4.007786649115768068e-02
3.675999999999999801e+01,3.393621558726413884e-02
3.679999999999999716e+01,5.193246752556372053e-02
3.684000000000000341e+01,4.070822213627652009e-02
3.688000000000000256e+01,3.393008862216781441e-02
3.692000000000000171e+01,3.572699052305847861e-02
3.696000000000000085e+01,3.069486569843557500e-02
3.700000000000000000e+01,3.344375195561642700e-02
3.703999999999999915e+01,3.539819190412348687e-02
3.707999999999999829e+01,3.274687100234126985e-02
3.711999999999999744e+01,2.914229850520447251e-02
3.715999999999999659e+01,4.221180269097643545e-02
3.720000000000000284e+01,3.812996907021119070e-02
3.724000000000000199e+01,3.801783067700414964e-02
3.728000000000000114e+01,3.377634440576390840e-02
3.732000000000000028e+01,4.827339566850187558e-02
3.735999999999999943e+01,3.767886999316209795e-02
3.739999999999999858e+01,3.550057182088096203e-02
3.743999999999999773e+01,5.269602944151493412e-02
3.747999999999999687e+01,5.194612360978602406e-02
3.752000000000000313e+01,5.024296355744259368e-02
3.756000000000000227e+01,3.742304427771975944e-02
3.760000000000000142e+01,4.635895116523894299e-02
3.764000000000000057e+01,6.577554588183431861e-02
3.767999999999999972e+01,7.741028057767558590e-02
3.771999999999999886e+01,9.634960734496639256e-02
3.775999999999999801e+01,1.103655592757682852e-01
3.779999999999999716e+01,1.178700884912679547e-01
3.784000000000000341e+01,1.229921185312864845e-01
3.788000000000000256e+01,1.128684634413705118e-01
3.792000000000000171e+01,1.165603943370520507e-01
3.796000000000000085e+01,1.280333300139132324e-01
3.800000000000000000e+01,1.282306988139801096e-01
3.803999999999999915e+01,1.630470765854304116e-01
3.807999999999999829e+01,1.715014346003049805e-01
3.811999999999999744e+01,2.047289058405294127e-01
3.815999999999999659e+01,2.085770663281803217e-01
3.820000000000000284e+01,1.711355586785766880e-01
3.824000000000000199e+01,1.745064443912467678e-01
3.828000000000000114e+01,1.351584185869518506e-01
3.832000000000000028e+01,1.021621523464439629e-01
3.835999999999999943e+01,9.250975490147129998e-02
3.839999999999999858e+01,7.475788318701914736e-02
3.843999999999999773e+01,6.875713214415278551e-02
3.847999999999999687e+01,5.942104915561681466e-02
3.852000000000000313e+01,5.278421490077700451e-02
3.856000000000000227e+01,4.678216721593381200e-02
3.860000000000000142e+01,3.776239632110043459e-02
3.864000000000000057e+01,4.176418287825271747e-02
3.867999999999999972e+01,3.591964095032738891e-02
3.871999999999999886e+01,5.357777021683205604e-02
3.875999999999999801e+01,4.471507050219016705e-02
3.879999999999999716e+01,3.743998435216130266e-02
3.884000000000000341e+01,4.715657338220644729e-02
3.888000000000000256e+01,4.639161356802891378e-02
3.892000000000000171e+01,4.753187605414387756e-02
3.896000000000000085e+01,6.344054626995250523e-02
3.900000000000000000e+01,5.282838592945862666e-02
3.903999999999999915e+01,6.333682325875572561e-02
3.907999999999999829e+01,4.970650093112927159e-02
3.911999999999999744e+01,6.100809002733131176e-02
3.915999999999999659e+01,3.244924754031331543e-02
3.920000000000000284e+01,3.882701593468197709e-02
3.924000000000000199e+01,5.584426641871530206e-02
3.928000000000000114e+01,4.284697975293191158e-02
3.932000000000000028e+01,4.414168416922203964e-02
3.935999999999999943e+01,4.400670800381521058e-02
3.939999999999999858e+01,5.117631288376561782e-02
3.943999999999999773e+01,5.040524143018907527e-02
3.947999999999999687e+01,5.026895050851105939e-02
3.952000000000000313e+01,4.965580652480443280e-02
3.956000000000000227e+01,5.221831873400403085e-02
3.960000000000000142e+01,6.557911543176300762e-02
3.964000000000000057e+01,6.909357734382021166e-02
3.967999999999999972e+01,6.006202325996116975e-02
3.971999999999999886e+01,8.580827188302193875e-02
3.975999999999999801e+01,9.408555637462383270e-02
3.979999999999999716e+01,9.648662407113814399e-02
3.984000000000000341e+01,1.309658127393058813e-01
3.988000000000000256e+01,1.511521317210113569e-01
3.992000000000000171e+01,2.065926663818927755e-01
3.996000000000000085e+01,2.585390546220137087e-01
4.000000000000000000e+01,3.154079485451707909e-01
4.003999999999999915e+01,3.764053240806944367e-01
4.007999999999999829e+01,4.178692714833777688e-01
4.011999999999999744e+01,4.380529381127783450e-01
4.015999999999999659e+01,4.680820569856020130e-01
4.020000000000000284e+01,5.335241944615481957e-01
4.024000000000000199e+01,6.375554455106657858e-01
4.028000000000000114e+01,7.893864860448952525e-01
4.032000000000000028e+01,8.670552588708445585e-01
4.035999999999999943e+01,9.636213540404242606e-01
4.039999999999999858e+01,1.000000000000000000e+00
4.043999999999999773e+01,9.644396441265200570e-01
4.047999999999999687e+01,8.628160623377210126e-01
4.052000000000000313e+01,7.486464590399596331e-01
4.056000000000000227e+01,6.325707529998350065e-01
4.060000000000000142e+01,5.206235248967128193e-01
4.064000000000000057e+01,3.851727459446678825e-01
4.067999999999999972e+01,3.149902776316351183e-01
4.071999999999999886e+01,2.478246531366257999e-01
4.075999999999999801e+01,2.001915674065018469e-01
4.079999999999999716e+01,1.539872773530619465e-01
4.084000000000000341e+01,1.357321779057783506e-01
4.088000000000000256e+01,1.131889021914923438e-01
4.092000000000000171e+01,1.092253356222154664e-01
4.096000000000000085e+01,8.620474942941215579e-02
4.100000000000000000e+01,7.795255757747635017e-02
4.103999999999999915e+01,7.081155030381108828e-02
4.107999999999999829e+01,6.462292258426165226e-02
4.111999999999999744e+01,6.621527890633749358e-02
4.115999999999999659e+01,5.780248570509455286e-02
4.120000000000000284e+01,5.653545697391004071e-02
4.124000000000000199e+01,4.558088771761226871e-02
4.128000000000000114e+01,5.511168238313428336e-02
4.132000000000000028e+01,5.257286457406008112e-02
4.135999999999999943e+01,5.384491019073683188e-02
4.139999999999999858e+01,5.225801898223176450e-02
4.143999999999999773e+01,3.923673355806741453e-02
4.147999999999999687e+01,4.908288216752378086e-02
4.152000000000000313e+01,4.225407890252071835e-02
4.156000000000000227e+01,3.002546157617211678e-02
4.160000000000000142e+01,3.923503464120767226e-02
4.164000000000000057e+01,3.446933599189419550e-02
4.167999999999999972e+01,4.034310341815905421e-02
4.171999999999999886e+01,3.176518432013666904e-02
4.175999999999999801e+01,3.271509744123958507e-02
4.179999999999999716e+01,3.684065205379243035e-02
4.184000000000000341e+01,3.508997648243155493e-02
4.188000000000000256e+01,3.381526092978018316e-02
4.192000000000000171e+01,3.889228131357538171e-02
4.196000000000000085e+01,3.555219453981912914e-02
4.200000000000000000e+01,3.252926223556566743e-02
4.203999999999999915e+01,3.474643174877964369e-02
4.207999999999999829e+01,2.489398379940332626e-02
4.211999999999999744e+01,3.108036093319617790e-02
4.215999999999999659e+01,3.694867243987288302e-02
4.220000000000000284e+01,2.598322284751930153e-02
4.224000000000000199e+01,2.867452612632597278e-02
4.228000000000000114e+01,2.818927728112122222e-02
4.232000000000000028e+01,3.310293317733069979e-02
4.235999999999999943e+01,2.165924120929201349e-02
4.239999999999999858e+01,3.006568676583009844e-02
4.243999999999999773e+01,2.290880774121173066e-02
4.247999999999999687e+01,3.560206571611808368e-02
4.252000000000000313e+01,2.812666049758270545e-02
4.256000000000000227e+01,2.827342510810777754e-02
4.260000000000000142e+01,1.714459265134809021e-02
4.264000000000000057e+01,3.063003899287107187e-02
4.267999999999999972e+01,2.744052584668044137e-02
4.271999999999999886e+01,2.774425767709911075e-02
4.275999999999999801e+01,3.027079612857131244e-02
4.279999999999999716e+01,1.961607906058397688e-02
4.284000000000000341e+01,2.309452521075296832e-02
4.288000000000000256e+01,2.037912482807465245e-02
4.292000000000000171e+01,2.465067286520770604e-02
4.296000000000000085e+01,2.336359289095637365e-02
4.300000000000000000e+01,2.731660843354840815e-02
4.303999999999999915e+01,2.253490020712933806e-02
4.307999999999999829e+01,2.077002030969934618e-02
4.311999999999999744e+01,1.932228753104405297e-02
4.315999999999999659e+01,2.041496827143958123e-02
4.320000000000000284e+01,1.769587180321077063e-02
4.324000000000000199e+01,2.355176927087261965e-02
4.328000000000000114e+01,2.654871757463048501e-02
4.332000000000000028e+01,2.303420693449748785e-02
4.335999999999999943e+01,1.920162279146817724e-02
4.339999999999999858e+01,1.600379345278895096e-02
4.343999999999999773e+01,2.265139483040020524e-02
4.347999999999999687e+01,1.341805527792145659e-02
4.352000000000000313e+01,1.847667924228571165e-02
4.356000000000000227e+01,2.448766648415347247e-02
4.360000000000000142e+01,2.462241199096325620e-02
4.364000000000000057e+01,2.316864406416489774e-02
4.367999999999999972e+01,1.710907197028638249e-02
4.371999999999999886e+01,2.025970970850144576e-02
4.375999999999999801e+01,1.912215227784184665e-02
4.379999999999999716e+01,2.560675653793650225e-02
4.384000000000000341e+01,2.272141273198502801e-02
4.388000000000000256e+01,2.936388723128062136e-02
4.392000000000000171e+01,1.949019886618516204e-02
4.396000000000000085e+01,1.517420924056639767e-02
4.400000000000000000e+01,1.403384666746732706e-02
4.403999999999999915e+01,1.575150136110453625e-02
4.407999999999999829e+01,2.350326829152660918e-02
4.411999999999999744e+01,1.759735675424478271e-02
4.415999999999999659e+01,1.963121406824066759e-02
4.420000000000000284e+01,2.102938284303664668e-02
4.424000000000000199e+01,2.004501043819070100e-02
4.428000000000000114e+01,2.112462991678133728e-02
4.432000000000000028e+01,1.998051245230672221e-02
4.435999999999999943e+01,1.661265778224097628e-02
4.439999999999999858e+01,2.404305609761395179e-02
4.443999999999999773e+01,1.956262622299108703e-02
4.447999999999999687e+01,2.810371547155725638e-02
4.452000000000000313e+01,2.028744267947108978e-02
4.456000000000000227e+01,2.326942182271969986e-02
4.460000000000000142e+01,1.497579077238333708e-02
4.464000000000000057e+01,1.462192542301255296e-02
4.467999999999999972e+01,1.982575408765043651e-02
4.471999999999999886e+01,2.391747651536416108e-02
4.475999999999999801e+01,1.546314960635907301e-02
4.479999999999999716e+01,1.939512067382002936e-02
4.484000000000000341e+01,1.633920853651578409e-02
4.488000000000000256e+01,2.408154623433825942e-02
4.492000000000000171e+01,2.721807162677450376e-02
4.496000000000000085e+01,2.177866541058020439e-02
4.500000000000000000e+01,2.046770825352788731e-02
4.503999999999999915e+01,1.185125705582285548e-02
4.507999999999999829e+01,2.435536388648209746e-02
4.511999999999999744e+01,2.447222377931723009e-02
4.515999999999999659e+01,2.585904597187312776e-02
4.520000000000000284e+01,2.105200640507347287e-02
4.524000000000000199e+01,2.545516669437916657e-02
4.528000000000000114e+01,2.223522184461867654e-02
4.532000000000000028e+01,3.330722869803095371e-02
4.535999999999999943e+01,2.278131086399667188e-02
4.539999999999999858e+01,2.861180610925664197e-02
4.543999999999999773e+01,2.269027136299938893e-02
4.547999999999999687e+01,2.756698251397878344e-02
4.552000000000000313e+01,1.545110601464081378e-02
4.556000000000000227e+01,1.842120345146321114e-02
4.560000000000000142e+01,3.076030314328569507e-02
4.564000000000000057e+01,3.039454296118851429e-02
4.567999999999999972e+01,2.304089406128006015e-02
4.571999999999999886e+01,1.743361807061451912e-02
4.575999999999999801e+01,2.945319088953905762e-02
4.579999999999999716e+01,2.765626945303882589e-02
4.584000000000000341e+01,3.252866774869416638e-02
4.588000000000000256e+01,3.311285696159662478e-02
4.592000000000000171e+01,3.322015110830975337e-02
4.596000000000000085e+01,2.348106899021234345e-02
4.600000000000000000e+01,2.692230078094451362e-02
4.603999999999999915e+01,3.083946528768171519e-02
4.607999999999999829e+01,3.285049082346701288e-02
4.611999999999999744e+01,2.183904381176312789e-02
4.615999999999999659e+01,2.813683346113180286e-02
4.620000000000000284e+01,2.315900241587537031e-02
4.624000000000000199e+01,2.564451228565811647e-02
4.628000000000000114e+01,2.590627234860146469e-02
4.632000000000000028e+01,2.807320614452642193e-02
4.635999999999999943e+01,2.261702771318300359e-02
4.639999999999999858e+01,1.382546535602105324e-02
4.643999999999999773e+01,1.805540925827390022e-02
4.647999999999999687e+01,2.069682108757220709e-02
4.652000000000000313e+01,2.794308628491053159e-02
4.656000000000000227e+01,2.311970461674600283e-02
4.660000000000000142e+01,2.131312817528220258e-02
4.664000000000000057e+01,1.728279956424488492e-02
4.667999999999999972e+01,2.706799944560998872e-02
4.671999999999999886e+01,2.446594188811081552e-02
4.675999999999999801e+01,2.297503136766350026e-02
4.679999999999999716e+01,2.291287714499954525e-02
4.684000000000000341e+01,2.142099324827571524e-02
4.688000000000000256e+01,1.818176989170861360e-02
4.692000000000000171e+01,2.510556393492707761e-02
4.696000000000000085e+01,1.265468945246097342e-02
4.700000000000000000e+01,1.259009850753069031e-02
4.703999999999999915e+01,1.919481941897589750e-02
4.707999999999999829e+01,3.151602335449812942e-02
4.711999999999999744e+01,2.239809581305831146e-02
4.715999999999999659e+01,2.169633171833197302e-02
4.720000000000000284e+01,2.401136891241625881e-02
4.724000000000000199e+01,2.283221190600714240e-02
4.728000000000000114e+01,1.402993663423156984e-02
4.732000000000000028e+01,2.047242850910098444e-02
4.735999999999999943e+01,1.913299683192320674e-02
4.739999999999999858e+01,1.858709846812377220e-02
4.743999999999999773e+01,2.074039029472148077e-02
4.747999999999999687e+01,2.940418632827981882e-02
4.752000000000000313e+01,9.482633986323141945e-03
4.756000000000000227e+01,1.639859481475279199e-02
4.760000000000000142e+01,1.585024003923670918e-02
4.764000000000000057e+01,2.149477889731981825e-02
4.767999999999999972e+01,1.951619686477645832e-02
4.771999999999999886e+01,2.452453174892395629e-02
4.775999999999999801e+01,1.285787380455520774e-02
4.779999999999999716e+01,2.056490365886641872e-02
4.784000000000000341e+01,1.763152110150122132e-02
4.788000000000000256e+01,1.739732584674709426e-02
4.792000000000000171e+01,2.065634144022169064e-02
4.796000000000000085e+01,1.343374859607058235e-02
4.800000000000000000e+01,2.971376604031641250e-02
4.803999999999999915e+01,2.407823168461587296e-02
4.807999999999999829e+01,1.129598809791500583e-02
4.811999999999999744e+01,1.661699211665614365e-02
4.815999999999999659e+01,2.479598636195504482e-02
4.820000000000000284e+01,2.424022297238832488e-02
4.824000000000000199e+01,2.558962071455492954e-02
4.828000000000000114e+01,2.423884123869570612e-02
4.832000000000000028e+01,1.780581285785361179e-02
4.835999999999999943e+01,1.153109244325083854e-02
4.839999999999999858e+01,1.446655114519908129e-02
4.843999999999999773e+01,2.010119347439432574e-02
4.847999999999999687e+01,1.684227156941310935e-02
4.852000000000000313e+01,1.898221371431538240e-02
4.856000000000000227e+01,2.239209584422804586e-02
4.860000000000000142e+01,1.881407009193103788e-02
4.864000000000000057e+01,2.063490760193945756e-02
4.867999999999999972e+01,1.530903194305748699e-02
4.871999999999999886e+01,1.633484759120130969e-02
4.875999999999999801e+01,2.164789238267141383e-02
4.879999999999999716e+01,2.060824702581675466e-02
4.884000000000000341e+01,2.115614933954794094e-02
4.888000000000000256e+01,1.820984668921951655e-02
4.892000000000000171e+01,2.892025306820857761e-02
4.896000000000000085e+01,1.850912541729679214e-02
4.900000000000000000e+01,1.540251580550119209e-02
4.903999999999999915e+01,2.277651920287033713e-02
4.907999999999999829e+01,1.903368776537074300e-02
4.911999999999999744e+01,2.593027357361270616e-02
4.915999999999999659e+01,1.122890975443759619e-02
4.920000000000000284e+01,1.764807692344829218e-02
4.924000000000000199e+01,1.930259867263551046e-02
4.928000000000000114e+01,2.365629853602360666e-02
4.932000000000000028e+01,2.626264292548214155e-02
4.935999999999999943e+01,2.759804586337127191e-02
4.939999999999999858e+01,2.845653089530863697e-02
4.943999999999999773e+01,3.217299775297165210e-02
4.947999999999999687e+01,2.747230809819429728e-02
4.952000000000000313e+01,2.324752831965957653e-02
4.956000000000000227e+01,2.569204385836205973e-02
4.960000000000000142e+01,2.781844494011145863e-02
4.964000000000000057e+01,2.359215036049006411e-02
4.967999999999999972e+01,2.111220270003710472e-02
4.971999999999999886e+01,1.815533503342434823e-02
4.975999999999999801e+01,2.234417565630496608e-02
4.979999999999999716e+01,2.605609574797374678e-02
4.984000000000000341e+01,2.500336648192897845e-02
4.988000000000000256e+01,2.585578758405139913e-02
4.992000000000000171e+01,2.940738259995866535e-02
4.996000000000000085e+01,2.628867033102959272e-02
5.000000000000000000e+01,3.396817429389863141e-02
5.003999999999999915e+01,2.703713236544273008e-02
5.007999999999999829e+01,3.249235376002027054e-02
5.011999999999999744e+01,2.730714777893915660e-02
5.015999999999999659e+01,2.926764746209132434e-02
5.020000000000000284e+01,2.519305733176606388e-02
5.024000000000000199e+01,3.207548661971164339e-02
5.028000000000000114e+01,2.625302558072100875e-02
5.032000000000000028e+01,2.424136916165632594e-02
5.035999999999999943e+01,2.746975995465007411e-02
5.039999999999999858e+01,2.466305962153637205e-02
5.043999999999999773e+01,3.408381548709334824e-02
5.047999999999999687e+01,3.540501780031732326e-02
5.052000000000000313e+01,3.196156629288567086e-02
5.056000000000000227e+01,2.454748451041607535e-02
5.060000000000000142e+01,3.063129596954293141e-02
5.064000000000000057e+01,3.734981471581305668e-02
5.067999999999999972e+01,3.183985479477308839e-02
5.071999999999999886e+01,3.236396353120129382e-02
5.075999999999999801e+01,3.463441209859580844e-02
5.079999999999999716e+01,4.182729546700528905e-02
5.084000000000000341e+01,4.552596100758097425e-02
5.088000000000000256e+01,5.287662273108972855e-02
5.092000000000000171e+01,4.371107564815668312e-02
5.096000000000000085e+01,5.153712419991819671e-02
5.100000000000000000e+01,5.031078721673627047e-02
5.103999999999999915e+01,5.575373583732932264e-02
5.107999999999999829e+01,5.802007457819004232e-02
5.111999999999999744e+01,5.901546031633710110e-02
5.115999999999999659e+01,6.556849753928006841e-02
5.120000000000000284e+01,6.926253361817007181e-02
5.124000000000000199e+01,6.025167306949975182e-02
5.128000000000000114e+01,5.711607274130478529e-02
5.132000000000000028e+01,5.318593238265235251e-02
5.135999999999999943e+01,5.973638980665645776e-02
5.139999999999999858e+01,5.358194955299621504e-02
5.143999999999999773e+01,4.965025895224645103e-02
5.147999999999999687e+01,4.222434632324681414e-02
5.152000000000000313e+01,4.527903042679962825e-02
5.156000000000000227e+01,4.801558720962521148e-02
5.160000000000000142e+01,4.122334023473109288e-02
5.164000000000000057e+01,3.760667016988975681e-02
5.167999999999999972e+01,3.049577676416854663e-02
5.171999999999999886e+01,2.227273117947239228e-02
5.175999999999999801e+01,3.024725217080703743e-02
5.179999999999999716e+01,3.726842521974346040e-02
5.184000000000000341e+01,2.999665008694224130e-02
5.188000000000000256e+01,3.288785980070196152e-02
5.192000000000000171e+01,3.006157793562349786e-02
5.196000000000000085e+01,3.438098992110811408e-02
5.200000000000000000e+01,2.821876695384063424e-02
5.203999999999999915e+01,3.428398968420356269e-02
5.207999999999999829e+01,2.303897218672691649e-02
5.211999999999999744e+01,2.132171891414031545e-02
5.215999999999999659e+01,3.151430102834871377e-02
5.220000000000000284e+01,3.853026591209656598e-02
5.224000000000000199e+01,2.871240380278706344e-02
5.228000000000000114e+01,2.651664772871873896e-02
5.232000000000000028e+01,3.051375457270705249e-02
5.235999999999999943e+01,3.784523836290884513e-02
5.239999999999999858e+01,3.628313219138579876e-02
5.243999999999999773e+01,3.360886911541969418e-02
5.247999999999999687e+01,3.506300600623270258e-02
5.252000000000000313e+01,4.175717593269998029e-02
5.256000000000000227e+01,3.685807389964986663e-02
5.260000000000000142e+01,4.942697102261435493e-02
5.264000000000000057e+01,5.214944803892557212e-02
5.267999999999999972e+01,5.423618086052389015e-02
5.271999999999999886e+01,6.140414064351768647e-02
5.275999999999999801e+01,6.682472237534549386e-02
5.279999999999999716e+01,7.383282578768475546e-02
5.284000000000000341e+01,7.559984586797384443e-02
5.288000000000000256e+01,7.530187758626147310e-02
5.292000000000000171e+01,7.802067305214108184e-02
5.296000000000000085e+01,7.613360344490745224e-02
5.300000000000000000e+01,7.297556849623802744e-02
5.303999999999999915e+01,6.441764414125973615e-02
5.307999999999999829e+01,5.585919201282348034e-02
5.311999999999999744e+01,5.936937373218683506e-02
5.315999999999999659e+01,4.874540336808313307e-02
5.320000000000000284e+01,4.367907109994898646e-02
5.324000000000000199e+01,4.623483856643197110e-02
5.328000000000000114e+01,4.323191028982138751e-02
5.332000000000000028e+01,4.149889075762665247e-02
5.335999999999999943e+01,3.563641781194484826e-02
5.339999999999999858e+01,3.024982927748320893e-02
5.343999999999999773e+01,3.407338678129605974e-02
5.347999999999999687e+01,3.614956150847476596e-02
5.352000000000000313e+01,3.266703891740385668e-02
5.356000000000000227e+01,3.124844730373644783e-02
5.360000000000000142e+01,2.204789118396511746e-02
5.364000000000000057e+01,3.571468928990913227e-02
5.367999999999999972e+01,2.746589857974007093e-02
5.371999999999999886e+01,3.335019968065416202e-02
5.375999999999999801e+01,3.049970665558792565e-02
5.379999999999999716e+01,2.987194779439783857e-02
5.384000000000000341e+01,2.463831808452250985e-02
5.388000000000000256e+01,2.496232200767469281e-02
5.392000000000000171e+01,3.100276406295713466e-02
5.396000000000000085e+01,2.036817259819270406e-02
5.400000000000000000e+01,2.878961871731995290e-02
5.403999999999999915e+01,2.609419744835389868e-02
5.407999999999999829e+01,2.069856089509130442e-02
5.411999999999999744e+01,3.229449923696892794e-02
5.415999999999999659e+01,2.276886942056513888e-02
5.420000000000000284e+01,2.610589017190246414e-02
5.424000000000000199e+01,2.817193744349790266e-02
5.428000000000000114e+01,2.277362526930477166e-02
5.432000000000000028e+01,2.595023431129902039e-02
5.435999999999999943e+01,2.801467384760207222e-02
5.439999999999999858e+01,1.769180554004787242e-02
5.443999999999999773e+01,2.451931478905459635e-02
5.447999999999999687e+01,2.451768232615767970e-02
5.452000000000000313e+01,3.166172691215955737e-02
5.456000000000000227e+01,2.959455783677485824e-02
5.460000000000000142e+01,2.959131291311750678e-02
5.464000000000000057e+01,2.339414427396748278e-02
5.467999999999999972e+01,2.132536116266629464e-02
5.471999999999999886e+01,2.433779188646037137e-02
5.475999999999999801e+01,2.306195524672852507e-02
5.479999999999999716e+01,2.639091763215366954e-02
5.484000000000000341e+01,2.908412164646172193e-02
5.488000000000000256e+01,2.463057180034871826e-02
5.492000000000000171e+01,2.700508685461692343e-02
5.496000000000000085e+01,2.842623322693254434e-02
5.500000000000000000e+01,2.158899161984792134e-02
5.503999999999999915e+01,3.349017124772146747e-02
5.507999999999999829e+01,2.331694810944306973e-02
5.511999999999999744e+01,2.791202664035249276e-02
5.515999999999999659e+01,2.536034947315880805e-02
5.520000000000000284e+01,2.074366871745537619e-02
5.524000000000000199e+01,2.359026980844008622e-02
5.528000000000000114e+01,1.865489536722873126e-02
5.532000000000000028e+01,2.435889748022813592e-02
5.535999999999999943e+01,1.783439021037493827e-02
5.539999999999999858e+01,2.179045420805181266e-02
5.543999999999999773e+01,2.669880351300886120e-02
5.547999999999999687e+01,2.509561406616959284e-02
5.552000000000000313e+01,2.587395225621704278e-02
5.556000000000000227e+01,2.808098925085287037e-02
5.560000000000000142e+01,2.774660574683266920e-02
5.564000000000000057e+01,2.248873005719950746e-02
5.567999999999999972e+01,3.009349522184537676e-02
5.571999999999999886e+01,2.546974864090461102e-02
5.575999999999999801e+01,2.370394240658069140e-02
5.579999999999999716e+01,2.797217148892229555e-02
5.584000000000000341e+01,3.287507373002652999e-02
5.588000000000000256e+01,3.285448221036176009e-02
5.592000000000000171e+01,3.156290618486284894e-02
5.596000000000000085e+01,2.630066444331535455e-02
5.600000000000000000e+01,3.231301383955144380e-02
5.603999999999999915e+01,2.546163034347796034e-02
5.607999999999999829e+01,2.543830413453164116e-02
5.611999999999999744e+01,3.144901114204275844e-02
5.615999999999999659e+01,3.269502731273159907e-02
5.620000000000000284e+01,3.092320476198823914e-02
5.624000000000000199e+01,3.502660987849556817e-02
5.628000000000000114e+01,2.928357099848317990e-02
5.632000000000000028e+01,2.989217354555568848e-02
5.635999999999999943e+01,2.653010775131960444e-02
5.639999999999999858e+01,2.634358762654171945e-02
5.643999999999999773e+01,2.710934624589388803e-02
5.647999999999999687e+01,3.057423572476614115e-02
5.652000000000000313e+01,2.165180344590289518e-02
5.656000000000000227e+01,2.892690623994991980e-02
5.660000000000000142e+01,3.159612007101738479e-02
5.664000000000000057e+01,3.013585896146538101e-02
5.667999999999999972e+01,3.105711787554599895e-02
5.671999999999999886e+01,2.340236799835062817e-02
5.675999999999999801e+01,1.749391857322098176e-02
5.679999999999999716e+01,2.413049312838468075e-02
5.684000000000000341e+01,2.520834857564037759e-02
5.688000000000000256e+01,2.279194655363554756e-02
5.692000000000000171e+01,2.752120582896921963e-02
5.696000000000000085e+01,2.669174520881684512e-02
5.700000000000000000e+01,2.602053584928680149e-02
5.703999999999999915e+01,3.138335366811609295e-02
5.707999999999999829e+01,1.975350796661263023e-02
5.711999999999999744e+01,2.416238890102664211e-02
5.715999999999999659e+01,2.174211053429478749e-02
5.720000000000000284e+01,1.757442497601035755e-02
5.724000000000000199e+01,2.229925099277247497e-02
5.728000000000000114e+01,2.511786453130134683e-02
5.732000000000000028e+01,2.364819390463996501e-02
5.735999999999999943e+01,1.868426265840601036e-02
5.739999999999999858e+01,2.880622764063513544e-02
5.743999999999999773e+01,2.892293625146164296e-02
5.747999999999999687e+01,3.015072154237076127e-02
5.752000000000000313e+01,2.581978326242983721e-02
5.756000000000000227e+01,2.085306875960341380e-02
5.760000000000000142e+01,2.207918252140106743e-02
5.764000000000000057e+01,2.965692904692548634e-02
5.767999999999999972e+01,2.897627000380735562e-02
5.771999999999999886e+01,2.146644798417920302e-02
5.775999999999999801e+01,1.554411509183787135e-02
5.779999999999999716e+01,2.550169961084317385e-02
5.784000000000000341e+01,2.354836799364105546e-02
5.788000000000000256e+01,2.635861994872233660e-02
5.792000000000000171e+01,2.503938856235212243e-02
5.796000000000000085e+01,2.626047356041100178e-02
5.800000000000000000e+01,2.700458420942716126e-02
5.803999999999999915e+01,1.742582502589317545e-02
5.807999999999999829e+01,2.801470997999962881e-02
5.811999999999999744e+01,2.256375315786956007e-02
5.815999999999999659e+01,2.648171615757410544e-02
5.820000000000000284e+01,2.595258445488762139e-02
5.824000000000000199e+01,2.907540063034933994e-02
5.828000000000000114e+01,2.028729778181759258e-02
5.832000000000000028e+01,2.356779465270490009e-02
5.835999999999999943e+01,2.748294814321653595e-02
5.839999999999999858e+01,2.377491038613243485e-02
5.843999999999999773e+01,2.467164776433894771e-02
5.847999999999999687e+01,3.080837906182503499e-02
5.852000000000000313e+01,2.154048500432951055e-02
5.856000000000000227e+01,2.958174622484512767e-02
5.860000000000000142e+01,1.967750537926749033e-02
5.864000000000000057e+01,2.136544786801457957e-02
5.867999999999999972e+01,2.654653058549516151e-02
5.871999999999999886e+01,3.029780565869254205e-02
5.875999999999999801e+01,1.832684427849480893e-02
5.879999999999999716e+01,1.874208899066150819e-02
5.884000000000000341e+01,2.217405859657146927e-02
5.888000000000000256e+01,2.639948617089645996e-02
5.892000000000000171e+01,2.586020479410482825e-02
5.896000000000000085e+01,2.325589515135898996e-02
5.900000000000000000e+01,2.906767124762932655e-02
5.903999999999999915e+01,2.312732809354078531e-02
5.907999999999999829e+01,2.814394633947608568e-02
5.911999999999999744e+01,3.173075431586816486e-02
5.915999999999999659e+01,2.864719462644276654e-02
5.920000000000000284e+01,3.286808603200234297e-02
5.924000000000000199e+01,3.025980448506378900e-02
5.928000000000000114e+01,2.558649257196298626e-02
5.932000000000000028e+01,2.138902621623368222e-02
5.935999999999999943e+01,2.798971466121742344e-02
5.939999999999999858e+01,3.141373862105985293e-02
5.943999999999999773e+01,3.309034068789348804e-02
5.947999999999999687e+01,3.571920154688079663e-02
5.952000000000000313e+01,2.627833048193976839e-02
5.956000000000000227e+01,3.017648909114147709e-02
5.960000000000000142e+01,2.946873904791324009e-02
5.964000000000000057e+01,3.384217054908167377e-02
5.967999999999999972e+01,2.487543098318784757e-02
5.971999999999999886e+01,3.258262003553615699e-02
5.975999999999999801e+01,3.234899939114707634e-02
5.979999999999999716e+01,2.433337354912342571e-02
5.984000000000000341e+01,2.679828983424328501e-02
5.988000000000000256e+01,3.164470514091539260e-02
5.992000000000000171e+01,3.315564778797934486e-02
5.996000000000000085e+01,2.180283181518520574e-02
