2.003999999999999915e+01,3.045270347372107042e-02
2.007999999999999829e+01,3.726651656506793642e-02
2.012000000000000099e+01,2.779077893754049525e-02
2.016000000000000014e+01,2.580369020478529701e-02
2.019999999999999929e+01,3.036910091725546559e-02
2.023999999999999844e+01,2.014280065656181770e-02
2.028000000000000114e+01,2.583049597072385392e-02
2.032000000000000028e+01,4.106636981298119465e-02
2.035999999999999943e+01,1.642172419314057163e-02
2.039999999999999858e+01,1.873763966827611191e-02
2.044000000000000128e+01,3.228680333435871019e-02
2.048000000000000043e+01,2.954641750720233759e-02
2.051999999999999957e+01,2.867778428608806426e-02
2.055999999999999872e+01,3.230212264723214544e-02
2.060000000000000142e+01,3.779821388678084038e-02
2.064000000000000057e+01,3.692794178651973708e-02
2.067999999999999972e+01,3.081468598550248655e-02
2.071999999999999886e+01,2.881994247717794416e-02
2.076000000000000156e+01,2.869695239198337064e-02
2.080000000000000071e+01,3.718599288333283848e-02
2.083999999999999986e+01,1.028803355824873048e-02
2.087999999999999901e+01,3.469052619121273245e-02
2.092000000000000171e+01,3.250582538593755483e-02
2.096000000000000085e+01,4.829465155919957647e-02
2.100000000000000000e+01,3.244107680366053320e-02
2.103999999999999915e+01,3.362487971329435055e-02
2.107999999999999829e+01,2.245096343246156742e-02
2.112000000000000099e+01,3.992267995217642362e-02
2.116000000000000014e+01,2.387969691636186720e-02
2.119999999999999929e+01,2.131672366468365803e-02
2.123999999999999844e+01,3.316990991905009734e-02
2.128000000000000114e+01,2.817185965236777834e-02
2.132000000000000028e+01,2.953908272684233408e-02
2.135999999999999943e+01,3.202914159858490789e-02
2.139999999999999858e+01,3.096128847514306379e-02
2.144000000000000128e+01,4.487128529008845707e-02
2.148000000000000043e+01,4.604910444208937942e-02
2.151999999999999957e+01,3.992441366454272528e-02
2.155999999999999872e+01,6.057305801408454510e-02
2.160000000000000142e+01,3.591151952593406305e-02
2.164000000000000057e+01,3.689993693436254690e-02
2.167999999999999972e+01,2.721570644935208949e-02
2.171999999999999886e+01,2.164999166156746091e-02
2.176000000000000156e+01,3.181104757020180446e-02
2.180000000000000071e+01,3.878865267975554337e-02
2.183999999999999986e+01,3.902543870064817400e-02
2.187999999999999901e+01,2.802788775757243320e-02
2.192000000000000171e+01,3.631447648140281870e-02
2.196000000000000085e+01,3.486456785079028453e-02
2.200000000000000000e+01,2.180586283046268350e-02
2.203999999999999915e+01,1.249121476252053678e-02
2.207999999999999829e+01,3.687741052640201161e-02
2.212000000000000099e+01,1.838741414583801304e-02
2.216000000000000014e+01,3.359826186946023030e-02
2.219999999999999929e+01,4.824687899585003437e-02
2.223999999999999844e+01,2.114268388921002745e-02
2.228000000000000114e+01,3.504130006396948688e-02
2.232000000000000028e+01,1.636137021818420342e-02
2.235999999999999943e+01,3.493965358325384907e-02
2.239999999999999858e+01,3.666670424035132353e-02
2.244000000000000128e+01,1.929576331991398469e-02
2.248000000000000043e+01,2.120896397292094948e-02
2.251999999999999957e+01,2.443223428959958102e-02
2.255999999999999872e+01,2.297421705747950543e-02
2.260000000000000142e+01,1.533707307557949720e-02
2.264000000000000057e+01,1.799703518887202022e-02
2.267999999999999972e+01,1.166942206756666281e-02
2.271999999999999886e+01,1.863459398814222567e-02
2.276000000000000156e+01,2.597368680375040234e-02
2.280000000000000071e+01,1.795938761036266346e-02
2.283999999999999986e+01,2.997815088463250816e-02
2.287999999999999901e+01,3.094981051661218480e-02
2.292000000000000171e+01,2.255943589679109892e-02
2.296000000000000085e+01,2.558954796448544705e-02
2.300000000000000000e+01,1.420241828981688888e-02
2.303999999999999915e+01,1.685699441506123206e-02
2.307999999999999829e+01,1.782596343618986917e-02
2.312000000000000099e+01,1.467533656649431736e-02
2.316000000000000014e+01,2.331965689951127907e-02
2.319999999999999929e+01,4.413338440571271809e-02
2.323999999999999844e+01,2.450491250343481836e-02
2.328000000000000114e+01,1.255233003521543170e-02
2.332000000000000028e+01,2.961984769180659241e-02
2.335999999999999943e+01,1.897680071434657695e-02
2.339999999999999858e+01,1.825640258523341872e-02
2.344000000000000128e+01,3.270109112071832580e-02
2.348000000000000043e+01,1.344385808204445233e-02
2.351999999999999957e+01,3.013423278346604936e-02
2.355999999999999872e+01,3.746257541198790703e-02
2.360000000000000142e+01,3.599057585522750374e-02
2.364000000000000057e+01,2.103748632073205310e-02
2.367999999999999972e+01,2.499408261082985278e-02
2.371999999999999886e+01,3.138413215291052660e-02
2.376000000000000156e+01,5.944560245555371818e-03
2.380000000000000071e+01,2.469071338596039861e-02
2.383999999999999986e+01,2.433887971517637722e-02
2.387999999999999901e+01,2.679495967539126736e-02
2.392000000000000171e+01,1.427211127397760154e-02
2.396000000000000085e+01,2.328016849046122411e-02
2.400000000000000000e+01,4.408317576946495231e-02
2.403999999999999915e+01,1.845262901496396227e-02
2.407999999999999829e+01,2.334002430988145818e-02
2.412000000000000099e+01,8.006054244006891377e-03
2.416000000000000014e+01,1.457745031122686073e-02
2.419999999999999929e+01,2.171000209315200949e-02
2.423999999999999844e+01,2.397404212874838791e-02
2.428000000000000114e+01,2.773538773713939143e-02
2.432000000000000028e+01,2.793883129158157216e-02
2.435999999999999943e+01,2.851620118830887340e-02
2.439999999999999858e+01,2.216553079483373281e-02
2.444000000000000128e+01,2.517582303898336163e-02
2.448000000000000043e+01,2.668774286250855804e-02
2.451999999999999957e+01,2.295669205868331939e-02
2.455999999999999872e+01,1.211037159223549153e-02
2.460000000000000142e+01,2.466725809403941955e-02
2.464000000000000057e+01,1.962399984544345097e-02
2.467999999999999972e+01,2.356724521726945298e-02
2.471999999999999886e+01,2.713549848843099452e-02
2.476000000000000156e+01,1.403975700346321576e-02
2.480000000000000071e+01,7.496530624571597079e-03
2.483999999999999986e+01,2.547989153389203926e-02
2.487999999999999901e+01,1.593992290119639055e-02
2.492000000000000171e+01,2.025443655178990610e-02
2.496000000000000085e+01,7.904956127160675527e-03
2.500000000000000000e+01,1.633746519256139285e-02
2.503999999999999915e+01,1.016550954370107340e-02
2.507999999999999829e+01,9.048230617023310038e-03
2.512000000000000099e+01,7.555960951494072354e-03
2.516000000000000014e+01,3.254711760405286890e-03
2.519999999999999929e+01,1.898653307167142909e-02
2.523999999999999844e+01,7.382255983698750822e-03
2.528000000000000114e+01,1.506213000186233490e-02
2.532000000000000028e+01,3.097959015076756292e-02
2.535999999999999943e+01,1.413128471176245196e-02
2.539999999999999858e+01,2.480524714183337046e-02
2.544000000000000128e+01,3.435530025392193737e-02
2.548000000000000043e+01,1.731817545244073581e-02
2.551999999999999957e+01,7.769717794026491896e-03
2.555999999999999872e+01,1.900325153218045127e-02
2.560000000000000142e+01,1.394725320830344367e-02
2.564000000000000057e+01,1.712884210461846496e-02
2.567999999999999972e+01,2.686294910299862060e-02
2.571999999999999886e+01,2.536273221081652984e-02
2.576000000000000156e+01,1.281542148139840423e-02
2.580000000000000071e+01,1.767996445702022315e-02
2.583999999999999986e+01,2.029721997360065672e-02
2.587999999999999901e+01,1.382506701349212139e-03
2.592000000000000171e+01,1.186236223998436874e-02
2.596000000000000085e+01,1.335465371088926517e-02
2.600000000000000000e+01,3.001204056199622758e-02
2.603999999999999915e+01,1.034629571451345202e-02
2.607999999999999829e+01,1.745390138260734941e-02
2.612000000000000099e+01,1.108042551620777583e-02
2.616000000000000014e+01,1.331899847464803124e-02
2.619999999999999929e+01,1.948887246547542640e-02
2.623999999999999844e+01,3.146234679632495257e-02
2.628000000000000114e+01,2.564845204306297546e-02
2.632000000000000028e+01,3.668472301376173028e-02
2.635999999999999943e+01,3.030808500700215777e-02
2.639999999999999858e+01,2.018632211057685283e-02
2.644000000000000128e+01,9.689572969283410941e-03
2.648000000000000043e+01,1.023886266516988754e-02
2.651999999999999957e+01,1.827682290865594375e-02
2.655999999999999872e+01,2.968439565872481312e-02
2.660000000000000142e+01,1.881108240264407760e-02
2.664000000000000057e+01,1.074569217407283020e-02
2.667999999999999972e+01,1.353911154644273779e-02
2.671999999999999886e+01,1.857876446724880323e-02
2.676000000000000156e+01,2.923478958128862548e-02
2.680000000000000071e+01,1.236749169001541936e-02
2.683999999999999986e+01,2.751598458183379670e-02
2.687999999999999901e+01,1.083486664635859714e-02
2.692000000000000171e+01,1.399959515188956005e-02
2.696000000000000085e+01,3.131064741180996053e-04
2.700000000000000000e+01,2.915096083953511944e-03
2.703999999999999915e+01,8.325010083111641576e-03
2.707999999999999829e+01,2.384481537644264973e-02
2.712000000000000099e+01,7.909470493858455908e-03
2.716000000000000014e+01,1.743687038372913195e-02
2.719999999999999929e+01,1.947454976465298054e-02
2.723999999999999844e+01,3.255827057020166393e-02
2.728000000000000114e+01,2.972692486762532060e-02
2.732000000000000028e+01,3.195026351338490361e-02
2.735999999999999943e+01,1.264163840902122332e-02
2.739999999999999858e+01,2.684664533145057416e-02
2.744000000000000128e+01,2.120475803042744939e-02
2.748000000000000043e+01,2.061755562246552625e-02
2.751999999999999957e+01,1.085556454069929941e-02
2.755999999999999872e+01,1.494806473018866870e-02
2.760000000000000142e+01,9.865776518236333767e-03
2.764000000000000057e+01,3.530144247583894002e-02
2.767999999999999972e+01,1.917154463821561794e-02
2.771999999999999886e+01,6.972953007869435622e-03
2.776000000000000156e+01,1.593082009835436463e-02
2.780000000000000071e+01,2.039464739693798087e-02
2.783999999999999986e+01,4.075432248155512124e-03
2.787999999999999901e+01,1.247004465450989377e-02
2.792000000000000171e+01,5.136822648785440391e-03
2.796000000000000085e+01,2.532587722774089570e-02
2.800000000000000000e+01,1.686823338395041644e-02
2.803999999999999915e+01,1.383973617405044425e-02
2.807999999999999829e+01,1.436808656276857867e-02
2.812000000000000099e+01,2.013835394059439524e-02
2.816000000000000014e+01,1.579768523778995667e-02
2.819999999999999929e+01,1.351602520498475235e-02
2.823999999999999844e+01,5.617396124757986038e-04
2.828000000000000114e+01,2.823582589427216585e-02
2.832000000000000028e+01,5.919004288202544574e-03
2.835999999999999943e+01,1.711581797727739981e-02
2.839999999999999858e+01,1.801446648566441475e-02
2.844000000000000128e+01,8.427720032399636449e-03
2.848000000000000043e+01,2.243142367411929058e-02
2.851999999999999957e+01,2.314128386936949167e-02
2.855999999999999872e+01,6.063782742842854269e-03
2.860000000000000142e+01,1.856808946849604694e-02
2.864000000000000057e+01,1.927639249338645999e-02
2.867999999999999972e+01,2.541384433106827143e-02
2.871999999999999886e+01,1.001933704879137688e-02
2.876000000000000156e+01,1.278561321755279472e-02
2.880000000000000071e+01,1.835981976761455123e-02
2.883999999999999986e+01,2.149951915508799272e-02
2.887999999999999901e+01,3.212789712485823040e-02
2.892000000000000171e+01,1.167559088116323224e-02
2.896000000000000085e+01,1.912002446097160052e-02
2.900000000000000000e+01,3.236806777731255497e-02
2.903999999999999915e+01,1.509711704016825605e-02
2.907999999999999829e+01,2.478675694934445728e-02
2.912000000000000099e+01,1.949748620046257500e-02
2.916000000000000014e+01,2.244581465572817111e-02
2.919999999999999929e+01,1.565767040536835547e-02
2.923999999999999844e+01,2.366017273160613346e-02
2.928000000000000114e+01,1.761991453023782281e-02
2.932000000000000028e+01,2.150232533205050089e-02
2.935999999999999943e+01,1.396319471865477106e-02
2.939999999999999858e+01,2.046579155800047969e-02
2.944000000000000128e+01,1.386177800019214312e-02
2.948000000000000043e+01,2.261010158750535737e-02
2.951999999999999957e+01,2.255810314437035891e-02
2.955999999999999872e+01,3.692229253299274261e-02
2.960000000000000142e+01,1.739735126605183868e-02
2.964000000000000057e+01,2.202455379478943792e-02
2.967999999999999972e+01,2.534063152361833160e-02
2.971999999999999886e+01,3.689431036313316897e-02
2.976000000000000156e+01,1.680561809755411543e-02
2.980000000000000071e+01,3.547300370971672584e-02
2.983999999999999986e+01,3.092336476068915929e-02
2.987999999999999901e+01,3.311348812990983631e-02
2.992000000000000171e+01,4.803473130221151688e-02
2.996000000000000085e+01,5.190889493631509893e-02
3.000000000000000000e+01,4.698273817414633236e-02
3.003999999999999915e+01,4.055822792055528703e-02
3.007999999999999829e+01,4.686483801477044769e-02
3.012000000000000099e+01,4.249882894980362008e-02
3.016000000000000014e+01,5.517022859934877371e-02
3.019999999999999929e+01,5.829238886494669120e-02
3.023999999999999844e+01,6.272464507720923454e-02
3.028000000000000114e+01,7.576896414098674426e-02
3.032000000000000028e+01,9.611473677244303238e-02
3.035999999999999943e+01,9.848592429313612895e-02
3.039999999999999858e+01,1.090947152395975034e-01
3.044000000000000128e+01,1.361792261024039052e-01
3.048000000000000043e+01,1.364893461571594080e-01
3.051999999999999957e+01,1.345521946860869789e-01
3.055999999999999872e+01,1.700605142601837316e-01
3.060000000000000142e+01,1.664372689031797525e-01
3.064000000000000057e+01,1.761068355519565254e-01
3.067999999999999972e+01,1.732314857766360239e-01
3.071999999999999886e+01,1.741002225050455321e-01
3.076000000000000156e+01,1.706621594361162064e-01
3.080000000000000071e+01,1.518707315944531899e-01
3.083999999999999986e+01,1.647206483197222737e-01
3.087999999999999901e+01,1.416219096586310844e-01
3.092000000000000171e+01,1.336882831280433170e-01
3.096000000000000085e+01,1.268775250782384068e-01
3.100000000000000000e+01,1.071473918594961078e-01
3.103999999999999915e+01,9.471871465969614046e-02
3.107999999999999829e+01,7.779600883486235963e-02
3.112000000000000099e+01,6.723860971560673139e-02
3.116000000000000014e+01,6.735280553245390212e-02
3.119999999999999929e+01,5.716884570130510018e-02
3.123999999999999844e+01,5.484803232144119800e-02
3.128000000000000114e+01,5.589684751755517184e-02
3.132000000000000028e+01,4.065615012556560853e-02
3.135999999999999943e+01,4.938037246790569906e-02
3.139999999999999858e+01,4.331292183166782911e-02
3.144000000000000128e+01,5.465734410203470367e-02
3.148000000000000043e+01,4.390812689751735082e-02
3.151999999999999957e+01,1.761831745438459038e-02
3.155999999999999872e+01,2.933567221238968584e-02
3.160000000000000142e+01,3.262717185566561817e-02
3.164000000000000057e+01,3.030126527757385016e-02
3.167999999999999972e+01,1.674105509993517593e-02
3.171999999999999886e+01,3.201374372803716950e-02
3.176000000000000156e+01,2.463110408308806162e-02
3.180000000000000071e+01,2.099255461876441825e-02
3.183999999999999986e+01,2.765114257133513553e-02
3.187999999999999901e+01,2.476049685957359622e-02
3.192000000000000171e+01,2.186934339407435937e-02
3.196000000000000085e+01,3.208377651119371371e-02
3.200000000000000000e+01,2.132795142665803306e-02
3.203999999999999915e+01,1.843527551703350031e-02
3.207999999999999829e+01,1.479317272981516516e-02
3.211999999999999744e+01,2.200989806419637040e-02
3.215999999999999659e+01,1.237542391884562630e-02
3.220000000000000284e+01,2.146343468756201425e-02
3.224000000000000199e+01,2.044052326614198209e-02
3.228000000000000114e+01,5.374861530714270148e-03
3.232000000000000028e+01,2.344838873809009308e-02
3.235999999999999943e+01,6.134955349250219118e-03
3.239999999999999858e+01,1.840334274981479667e-02
3.243999999999999773e+01,8.952553778137316981e-03
3.247999999999999687e+01,1.316904291087151943e-02
3.252000000000000313e+01,2.749544185843702526e-02
3.256000000000000227e+01,8.119950145001480352e-03
3.260000000000000142e+01,2.001134915618527771e-02
3.264000000000000057e+01,2.366412651049916438e-02
3.267999999999999972e+01,1.795490284125246527e-02
3.271999999999999886e+01,2.329173925347036503e-02
3.275999999999999801e+01,1.608366632301914609e-02
3.279999999999999716e+01,2.010888366354054643e-02
3.284000000000000341e+01,2.282298696247692105e-02
3.288000000000000256e+01,8.498663315799544551e-03
3.292000000000000171e+01,1.364574670303442781e-02
3.296000000000000085e+01,3.320902949743816807e-02
3.300000000000000000e+01,2.899360873753932533e-02
3.303999999999999915e+01,9.799290665350996951e-03
3.307999999999999829e+01,1.868895636048645975e-02
3.311999999999999744e+01,2.739088847017820752e-02
3.315999999999999659e+01,2.935204003052011706e-02
3.320000000000000284e+01,1.614706490615239187e-02
3.324000000000000199e+01,2.540917657947306882e-02
3.328000000000000114e+01,1.051812581746961774e-02
3.332000000000000028e+01,5.362527759632929221e-03
3.335999999999999943e+01,2.978875375955209945e-02
3.339999999999999858e+01,2.575552963834788767e-02
3.343999999999999773e+01,1.760274476109796246e-02
3.347999999999999687e+01,2.330447130993792623e-02
3.352000000000000313e+01,7.661484997722013170e-03
3.356000000000000227e+01,1.916633450127886926e-02
3.360000000000000142e+01,2.486655453920705305e-02
3.364000000000000057e+01,1.352835021896648358e-02
3.367999999999999972e+01,2.372108460868191035e-02
3.371999999999999886e+01,1.668816499544588730e-02
3.375999999999999801e+01,1.789286024720821919e-02
3.379999999999999716e+01,8.424948868469124552e-03
3.384000000000000341e+01,1.711783823579492159e-02
3.388000000000000256e+01,8.397844227749124910e-03
3.392000000000000171e+01,2.439169833821829003e-02
3.396000000000000085e+01,4.436907548288133996e-03
3.400000000000000000e+01,1.144272415497986188e-02
3.403999999999999915e+01,1.900972997697949682e-02
3.407999999999999829e+01,9.257367501184066540e-04
3.411999999999999744e+01,7.742822239824186450e-03
3.415999999999999659e+01,7.631900667567491359e-03
3.420000000000000284e+01,1.482244587257683203e-02
3.424000000000000199e+01,1.901681254803881324e-02
3.428000000000000114e+01,2.583189834449552136e-02
3.432000000000000028e+01,5.123686737725721349e-03
3.435999999999999943e+01,1.268669317322713291e-02
3.439999999999999858e+01,2.006197038108683411e-02
3.443999999999999773e+01,6.466997694351520228e-03
3.447999999999999687e+01,2.095601354128593177e-02
3.452000000000000313e+01,2.495965512612795950e-02
3.456000000000000227e+01,1.566947382787848078e-02
3.460000000000000142e+01,2.416563602884813644e-02
3.464000000000000057e+01,2.704440222204854138e-02
3.467999999999999972e+01,3.029712989231249376e-02
3.471999999999999886e+01,2.512401306998950437e-02
3.475999999999999801e+01,1.789086907420303976e-02
3.479999999999999716e+01,3.275035735288538835e-02
3.484000000000000341e+01,2.158438933586121627e-02
3.488000000000000256e+01,2.389847767698211403e-02
3.492000000000000171e+01,2.752267789798120215e-02
3.496000000000000085e+01,2.796347212355116893e-02
3.500000000000000000e+01,4.787568046446152165e-02
3.503999999999999915e+01,1.854592346454770474e-02
3.507999999999999829e+01,3.433807950125080527e-02
3.511999999999999744e+01,4.713406000439542692e-02
3.515999999999999659e+01,3.390458530128395709e-02
3.520000000000000284e+01,4.239328440016382205e-02
3.524000000000000199e+01,5.612392472842477747e-02
3.528000000000000114e+01,6.442440114496288117e-02
3.532000000000000028e+01,8.395817641189616543e-02
3.535999999999999943e+01,6.173918411327003475e-02
3.539999999999999858e+01,7.172324165768172166e-02
3.543999999999999773e+01,9.069383945528820823e-02
3.547999999999999687e+01,1.267018640795212481e-01
3.552000000000000313e+01,1.252634097772632182e-01
3.556000000000000227e+01,1.268201387880926456e-01
3.560000000000000142e+01,1.549630208085056582e-01
3.564000000000000057e+01,1.999561002831250767e-01
3.567999999999999972e+01,2.410168565449976597e-01
3.571999999999999886e+01,3.073531568049802098e-01
3.575999999999999801e+01,3.594594886815840051e-01
3.579999999999999716e+01,4.503219188631261138e-01
3.584000000000000341e+01,4.870744085816909319e-01
3.588000000000000256e+01,5.292560716256834441e-01
3.592000000000000171e+01,5.002898720188336812e-01
3.596000000000000085e+01,4.512895772780055603e-01
3.600000000000000000e+01,4.187650213827248113e-01
3.603999999999999915e+01,3.587171739400141224e-01
3.607999999999999829e+01,2.943625448120789634e-01
3.611999999999999744e+01,2.483559541096888312e-01
3.615999999999999659e+01,2.240675404776413526e-01
3.620000000000000284e+01,1.885448386345351668e-01
3.624000000000000199e+01,1.771743030570240018e-01
3.628000000000000114e+01,1.616842163923401521e-01
3.632000000000000028e+01,1.357087615937230818e-01
3.635999999999999943e+01,1.089838944889123251e-01
3.639999999999999858e+01,1.054750446086951121e-01
3.643999999999999773e+01,9.859556385461194783e-02
3.647999999999999687e+01,9.152836095431535202e-02
3.652000000000000313e+01,7.977991803249787073e-02
3.656000000000000227e+01,8.712843470280132174e-02
3.660000000000000142e+01,8.174482518669623499e-02
3.664000000000000057e+01,7.935640266057397696e-02
3.667999999999999972e+01,7.135059107192942562e-02
3.671999999999999886e+01,6.652719666277562283e-02
3.675999999999999801e+01,6.900527774649174717e-02
3.679999999999999716e+01,6.998502835342736150e-02
3.684000000000000341e+01,6.890475886832767016e-02
3.688000000000000256e+01,7.849610379325830389e-02
3.692000000000000171e+01,6.580659784681767988e-02
3.696000000000000085e+01,7.034175368285752739e-02
3.700000000000000000e+01,7.955716698882014937e-02
3.703999999999999915e+01,6.817679908626374241e-02
3.707999999999999829e+01,7.345940362329560214e-02
3.711999999999999744e+01,6.544819399283995087e-02
3.715999999999999659e+01,8.701882135736482837e-02
3.720000000000000284e+01,8.967873731240408319e-02
3.724000000000000199e+01,8.222774809997085432e-02
3.728000000000000114e+01,8.601006441081709974e-02
3.732000000000000028e+01,1.072042736469208807e-01
3.735999999999999943e+01,1.053687138410665108e-01
3.739999999999999858e+01,1.340511414330072537e-01
3.743999999999999773e+01,1.380187310010442814e-01
3.747999999999999687e+01,1.844870229365419279e-01
3.752000000000000313e+01,2.444353802181511714e-01
3.756000000000000227e+01,3.320932766851005247e-01
3.760000000000000142e+01,4.570094382479843453e-01
3.764000000000000057e+01,6.077628400971174516e-01
3.767999999999999972e+01,7.718090779199419105e-01
3.771999999999999886e+01,9.238721130380163071e-01
3.775999999999999801e+01,9.954257959123208321e-01
3.779999999999999716e+01,9.737384923131526815e-01
3.784000000000000341e+01,8.762225846712118349e-01
3.788000000000000256e+01,6.995079346140623544e-01
3.792000000000000171e+01,5.716598056053102672e-01
3.796000000000000085e+01,4.406282808147276020e-01
3.800000000000000000e+01,3.303787897731011447e-01
3.803999999999999915e+01,2.759233271227940487e-01
3.807999999999999829e+01,2.177227793477640727e-01
3.811999999999999744e+01,1.593345150099543528e-01
3.815999999999999659e+01,1.569275093891533135e-01
3.820000000000000284e+01,1.567667764008247033e-01
3.824000000000000199e+01,1.197212634977703888e-01
3.828000000000000114e+01,1.107597520656105061e-01
3.832000000000000028e+01,1.145293890346069515e-01
3.835999999999999943e+01,9.751601937192240499e-02
3.839999999999999858e+01,8.668075128266938822e-02
3.843999999999999773e+01,8.970001150598889972e-02
3.847999999999999687e+01,7.736593310338657492e-02
3.852000000000000313e+01,8.712449964011506620e-02
3.856000000000000227e+01,8.602324583477292952e-02
3.860000000000000142e+01,8.024075908933818446e-02
3.864000000000000057e+01,7.970022514869613828e-02
3.867999999999999972e+01,7.372953887174274468e-02
3.871999999999999886e+01,6.832005774331072201e-02
3.875999999999999801e+01,7.564172651402949199e-02
3.879999999999999716e+01,7.734601343983552035e-02
3.884000000000000341e+01,8.335610426561400332e-02
3.888000000000000256e+01,8.936571103320303799e-02
3.892000000000000171e+01,8.002198067286464545e-02
3.896000000000000085e+01,6.805654768666444254e-02
3.900000000000000000e+01,6.339259781948759775e-02
3.903999999999999915e+01,6.471952178749798557e-02
3.907999999999999829e+01,6.735657179824294793e-02
3.911999999999999744e+01,7.654618566797381785e-02
3.915999999999999659e+01,8.311409759274938913e-02
3.920000000000000284e+01,6.665224673990718940e-02
3.924000000000000199e+01,9.362725383223004239e-02
3.928000000000000114e+01,8.502809397055875740e-02
3.932000000000000028e+01,9.047069533459427271e-02
3.935999999999999943e+01,9.067037659454602050e-02
3.939999999999999858e+01,9.985661158964247164e-02
3.943999999999999773e+01,9.818302923865721010e-02
3.947999999999999687e+01,1.204743942668077550e-01
3.952000000000000313e+01,1.279741139611867140e-01
3.956000000000000227e+01,1.571920223013198725e-01
3.960000000000000142e+01,1.549548229541072020e-01
3.964000000000000057e+01,1.510320728818417835e-01
3.967999999999999972e+01,1.823080658983403102e-01
3.971999999999999886e+01,1.892436884875605130e-01
3.975999999999999801e+01,1.841961153172772259e-01
3.979999999999999716e+01,1.989944324383825236e-01
3.984000000000000341e+01,2.244643740469351167e-01
3.988000000000000256e+01,2.325214527073128645e-01
3.992000000000000171e+01,2.405780508502153858e-01
3.996000000000000085e+01,2.447023403517713247e-01
4.000000000000000000e+01,2.703575900799304876e-01
4.003999999999999915e+01,2.877742433447625925e-01
4.007999999999999829e+01,3.098711645654783631e-01
4.011999999999999744e+01,3.194232015008865999e-01
4.015999999999999659e+01,3.407702435160648302e-01
4.020000000000000284e+01,3.639891051384904208e-01
4.024000000000000199e+01,4.117346064789328408e-01
4.028000000000000114e+01,4.422544761501588928e-01
4.032000000000000028e+01,4.643485203941817852e-01
4.035999999999999943e+01,5.268837477221206544e-01
4.039999999999999858e+01,5.815548396466551084e-01
4.043999999999999773e+01,6.081409652522676845e-01
4.047999999999999687e+01,7.062484405964695178e-01
4.052000000000000313e+01,8.294442463633936446e-01
4.056000000000000227e+01,8.816794351936529939e-01
4.060000000000000142e+01,9.584412649675608797e-01
4.064000000000000057e+01,9.672381567514928280e-01
4.067999999999999972e+01,1.000000000000000000e+00
4.071999999999999886e+01,9.859538861683184718e-01
4.075999999999999801e+01,9.222913666354500828e-01
4.079999999999999716e+01,8.590028294153855271e-01
4.084000000000000341e+01,7.657570280667588269e-01
4.088000000000000256e+01,6.803744059891131402e-01
4.092000000000000171e+01,6.032294231529208295e-01
4.096000000000000085e+01,5.603470381775673692e-01
4.100000000000000000e+01,4.820777220211615588e-01
4.103999999999999915e+01,4.350753253236318008e-01
4.107999999999999829e+01,3.993062470866061142e-01
4.111999999999999744e+01,3.751449472805565843e-01
4.115999999999999659e+01,3.395621462327855222e-01
4.120000000000000284e+01,3.067873177825214404e-01
4.124000000000000199e+01,2.908627058518475361e-01
4.128000000000000114e+01,2.524700279764198751e-01
4.132000000000000028e+01,2.638800323105277568e-01
4.135999999999999943e+01,2.335372895062729770e-01
4.139999999999999858e+01,2.258488911978395186e-01
4.143999999999999773e+01,2.181600175468204894e-01
4.147999999999999687e+01,1.968028847377862600e-01
4.152000000000000313e+01,2.102700414475655866e-01
4.156000000000000227e+01,1.621380804824809341e-01
4.160000000000000142e+01,1.819701046433004898e-01
4.164000000000000057e+01,1.763383854106725934e-01
4.167999999999999972e+01,1.452429229207785055e-01
4.171999999999999886e+01,1.371762658504470100e-01
4.175999999999999801e+01,1.270496054383815909e-01
4.179999999999999716e+01,1.333987036181538965e-01
4.184000000000000341e+01,1.191520369311644956e-01
4.188000000000000256e+01,1.168876110968868898e-01
4.192000000000000171e+01,9.739755917682665909e-02
4.196000000000000085e+01,9.045143813327689852e-02
4.200000000000000000e+01,8.762390183087784279e-02
4.203999999999999915e+01,8.797880082008401048e-02
4.207999999999999829e+01,7.803558120261107345e-02
4.211999999999999744e+01,6.827911847478022878e-02
4.215999999999999659e+01,7.406226597869217110e-02
4.220000000000000284e+01,6.823668586445133522e-02
4.224000000000000199e+01,6.222340321410590319e-02
4.228000000000000114e+01,5.077998048376717449e-02
4.232000000000000028e+01,5.749738736993142973e-02
4.235999999999999943e+01,5.335498685124961948e-02
4.239999999999999858e+01,4.846319458975234529e-02
4.243999999999999773e+01,4.207309105303948943e-02
4.247999999999999687e+01,5.459273734613635798e-02
4.252000000000000313e+01,3.996357398746631234e-02
4.256000000000000227e+01,4.349524106238707860e-02
4.260000000000000142e+01,3.186081345520658248e-02
4.264000000000000057e+01,3.202139937103735262e-02
4.267999999999999972e+01,3.592611250881037194e-02
4.271999999999999886e+01,2.784763996449706597e-02
4.275999999999999801e+01,4.092567720900689571e-02
4.279999999999999716e+01,2.760382542360049693e-02
4.284000000000000341e+01,3.637463328510655292e-02
4.288000000000000256e+01,3.091549700350724322e-02
4.292000000000000171e+01,2.451974083230418211e-02
4.296000000000000085e+01,2.692332059923719170e-02
4.300000000000000000e+01,2.670521149462089933e-02
4.303999999999999915e+01,2.686109232896227023e-02
4.307999999999999829e+01,1.259979978395942696e-02
4.311999999999999744e+01,2.979266369640610340e-02
4.315999999999999659e+01,3.181943483328981276e-02
4.320000000000000284e+01,1.811842357935572467e-02
4.324000000000000199e+01,3.006744175990908735e-02
4.328000000000000114e+01,1.748887171617549349e-02
4.332000000000000028e+01,2.793911253925694671e-02
4.335999999999999943e+01,1.685744408473987405e-02
4.339999999999999858e+01,2.899181668654578214e-02
4.343999999999999773e+01,3.045361547754638423e-02
4.347999999999999687e+01,2.798311761115590546e-02
4.352000000000000313e+01,2.438877198073602717e-02
4.356000000000000227e+01,1.330476153952586151e-02
4.360000000000000142e+01,9.335019961044596290e-03
4.364000000000000057e+01,2.390057232734028522e-02
4.367999999999999972e+01,2.086604476554034665e-02
4.371999999999999886e+01,9.031243517657966402e-03
4.375999999999999801e+01,6.931930517264674012e-03
4.379999999999999716e+01,9.512898137617194216e-03
4.384000000000000341e+01,2.913132104649038615e-02
4.388000000000000256e+01,2.197539876805209777e-02
4.392000000000000171e+01,2.492942511611884876e-02
4.396000000000000085e+01,2.376392652382489090e-02
4.400000000000000000e+01,1.304923553013618773e-02
4.403999999999999915e+01,1.525294232867687588e-02
4.407999999999999829e+01,2.307308028695935487e-02
4.411999999999999744e+01,1.572712873803027225e-02
4.415999999999999659e+01,2.204849505845594970e-02
4.420000000000000284e+01,1.751006023837589284e-02
4.424000000000000199e+01,2.776232306288537593e-02
4.428000000000000114e+01,3.751045376082162968e-03
4.432000000000000028e+01,1.718528558081929697e-02
4.435999999999999943e+01,2.406601328411916638e-02
4.439999999999999858e+01,1.727849177063954522e-02
4.443999999999999773e+01,1.872862148256852072e-02
4.447999999999999687e+01,8.570031338679508573e-03
4.452000000000000313e+01,1.376382954408529417e-02
4.456000000000000227e+01,1.577425443757681650e-02
4.460000000000000142e+01,1.048224797813751552e-02
4.464000000000000057e+01,1.361512334215872130e-02
4.467999999999999972e+01,1.131786679706535750e-02
4.471999999999999886e+01,7.896766573381867535e-03
4.475999999999999801e+01,1.327500841599349272e-02
4.479999999999999716e+01,9.478520415127384552e-03
4.484000000000000341e+01,1.167292599573865365e-02
4.488000000000000256e+01,1.386686794535721585e-02
4.492000000000000171e+01,1.418804722871084244e-02
4.496000000000000085e+01,3.023607619364434423e-02
4.500000000000000000e+01,1.782469453003485485e-02
4.503999999999999915e+01,1.121697721166398272e-02
4.507999999999999829e+01,6.293866197515211175e-03
4.511999999999999744e+01,1.747206524396226202e-02
4.515999999999999659e+01,1.984999550685402278e-02
4.520000000000000284e+01,2.503591198538396290e-02
4.524000000000000199e+01,1.168560426116268224e-02
4.528000000000000114e+01,9.568629296483201208e-03
4.532000000000000028e+01,9.323491370259029756e-03
4.535999999999999943e+01,2.012445655879399956e-02
4.539999999999999858e+01,1.575933659791933089e-02
4.543999999999999773e+01,1.270436433260789533e-02
4.547999999999999687e+01,1.489136815909343318e-02
4.552000000000000313e+01,1.614176094776043763e-02
4.556000000000000227e+01,2.057460101198814104e-02
4.560000000000000142e+01,2.575589956506822709e-02
4.564000000000000057e+01,2.625598914596653441e-02
4.567999999999999972e+01,1.533459287363163684e-02
4.571999999999999886e+01,2.781647547328122694e-02
4.575999999999999801e+01,3.542991959214764064e-02
4.579999999999999716e+01,1.814132423185912599e-02
4.584000000000000341e+01,1.470728237768578750e-02
4.588000000000000256e+01,2.381718474579146844e-02
4.592000000000000171e+01,2.393959100064137549e-02
4.596000000000000085e+01,1.807017995274261615e-02
4.600000000000000000e+01,7.706791075439332027e-03
4.603999999999999915e+01,2.524020017105953195e-02
4.607999999999999829e+01,2.105447933226503934e-02
4.611999999999999744e+01,1.930228800698811920e-02
4.615999999999999659e+01,2.204315542000901892e-02
4.620000000000000284e+01,1.729436701020631642e-02
4.624000000000000199e+01,1.572802819104651001e-02
4.628000000000000114e+01,4.612504732826748846e-03
4.632000000000000028e+01,5.853697077735095858e-03
4.635999999999999943e+01,9.528419753248848489e-03
4.639999999999999858e+01,1.020700529833407609e-02
4.643999999999999773e+01,1.444250094925954991e-02
4.647999999999999687e+01,1.306064090208407767e-02
4.652000000000000313e+01,2.066535883032681944e-02
4.656000000000000227e+01,1.591244431559840633e-02
4.660000000000000142e+01,5.354944594167663358e-03
4.664000000000000057e+01,1.670288753972864332e-02
4.667999999999999972e+01,1.475704886513567668e-02
4.671999999999999886e+01,3.074797132331762075e-03
4.675999999999999801e+01,2.621685275809315652e-02
4.679999999999999716e+01,1.996335429774384260e-02
4.684000000000000341e+01,2.269643490226319268e-02
4.688000000000000256e+01,7.829446473191918263e-03
4.692000000000000171e+01,1.524236149867227129e-02
4.696000000000000085e+01,0.000000000000000000e+00
4.700000000000000000e+01,2.051809626270771625e-02
4.703999999999999915e+01,1.856814619077072279e-02
4.707999999999999829e+01,2.672815550366242424e-02
4.711999999999999744e+01,8.488290494219662488e-03
4.715999999999999659e+01,6.536972407764934066e-03
4.720000000000000284e+01,2.049974154618895011e-02
4.724000000000000199e+01,1.836028221381694192e-02
4.728000000000000114e+01,9.854550238388838299e-03
4.732000000000000028e+01,4.531271530499139319e-03
4.735999999999999943e+01,1.362424125505050029e-02
4.739999999999999858e+01,6.427753136385799815e-03
4.743999999999999773e+01,1.252413421965267726e-02
4.747999999999999687e+01,1.506269209795032052e-02
4.752000000000000313e+01,7.864839641663314701e-03
4.756000000000000227e+01,7.594039612909683420e-03
4.760000000000000142e+01,1.144184339069041420e-02
4.764000000000000057e+01,5.366007325285029710e-03
4.767999999999999972e+01,1.408088061606199357e-02
4.771999999999999886e+01,8.191366407381535028e-03
4.775999999999999801e+01,1.784148149582740622e-02
4.779999999999999716e+01,6.521392174236441235e-03
4.784000000000000341e+01,1.017924267069837165e-02
4.788000000000000256e+01,1.701954834123705143e-02
4.792000000000000171e+01,9.629927027515595636e-03
4.796000000000000085e+01,1.085242875744887869e-02
4.800000000000000000e+01,3.461901289845333365e-03
4.803999999999999915e+01,1.142377415549203530e-02
4.807999999999999829e+01,1.021092834452843635e-02
4.811999999999999744e+01,5.065801673205912875e-03
4.815999999999999659e+01,8.907258560735393377e-03
4.820000000000000284e+01,8.254745108832495931e-03
4.824000000000000199e+01,6.103940128004228284e-03
4.828000000000000114e+01,1.069296010882759759e-02
4.832000000000000028e+01,3.860503224384317054e-03
4.835999999999999943e+01,6.014630579699593860e-03
4.839999999999999858e+01,6.296007116524043185e-03
4.843999999999999773e+01,5.453552639620391773e-03
4.847999999999999687e+01,2.551117699443152149e-03
4.852000000000000313e+01,7.137428206586911121e-03
4.856000000000000227e+01,1.303389703143612542e-02
4.860000000000000142e+01,1.368747721008461808e-02
4.864000000000000057e+01,1.228107747018482125e-02
4.867999999999999972e+01,1.948680322520333560e-02
4.871999999999999886e+01,2.257302024543724958e-02
4.875999999999999801e+01,8.995324218328945923e-03
4.879999999999999716e+01,1.189341061478790297e-02
4.884000000000000341e+01,1.160813827073294002e-02
4.888000000000000256e+01,9.824576576653608340e-03
4.892000000000000171e+01,1.141070351451048751e-02
4.896000000000000085e+01,1.655374913763025396e-02
4.900000000000000000e+01,2.263249474215922596e-02
4.903999999999999915e+01,1.747699584983048240e-02
4.907999999999999829e+01,7.265839862622142618e-03
4.911999999999999744e+01,1.090924854839657628e-02
4.915999999999999659e+01,1.661173726317761654e-02
4.920000000000000284e+01,4.339705008593301543e-03
4.924000000000000199e+01,2.239847054432715298e-02
4.928000000000000114e+01,1.424459902866258287e-02
4.932000000000000028e+01,1.601346460683488598e-02
4.935999999999999943e+01,1.684573222059457254e-02
4.939999999999999858e+01,1.636694217183231118e-02
4.943999999999999773e+01,2.861933838263115357e-02
4.947999999999999687e+01,2.364613424591532204e-02
4.952000000000000313e+01,2.616167896105323770e-02
4.956000000000000227e+01,2.699170672410372562e-02
4.960000000000000142e+01,1.827256115114306995e-02
4.964000000000000057e+01,3.145886845877260418e-02
4.967999999999999972e+01,2.667065643121259086e-02
4.971999999999999886e+01,1.008651247044110855e-02
4.975999999999999801e+01,1.428444229593156881e-02
4.979999999999999716e+01,1.267779780922459812e-02
4.984000000000000341e+01,2.492572044676400270e-02
4.988000000000000256e+01,1.058654824133400951e-02
4.992000000000000171e+01,1.515715119543764589e-02
4.996000000000000085e+01,3.114833275944195110e-02
5.000000000000000000e+01,1.793120104898577802e-02
5.003999999999999915e+01,1.781971747510110310e-02
5.007999999999999829e+01,2.070346664811995030e-02
5.011999999999999744e+01,1.740818276410120366e-02
5.015999999999999659e+01,2.384840891658146847e-02
5.020000000000000284e+01,2.186284327864239027e-02
5.024000000000000199e+01,2.362143060091355731e-02
5.028000000000000114e+01,1.994990507945375302e-02
5.032000000000000028e+01,2.320544138203788076e-02
5.035999999999999943e+01,2.589884295903293471e-02
5.039999999999999858e+01,2.671950052660271649e-02
5.043999999999999773e+01,2.791417322667287190e-02
5.047999999999999687e+01,2.985732102971539251e-02
5.052000000000000313e+01,3.666800224910944650e-02
5.056000000000000227e+01,3.467843306942533510e-02
5.060000000000000142e+01,3.306287956696677549e-02
5.064000000000000057e+01,4.885926433814259673e-02
5.067999999999999972e+01,3.769409715568453056e-02
5.071999999999999886e+01,3.008585465046713370e-02
5.075999999999999801e+01,3.764279182168371596e-02
5.079999999999999716e+01,4.295252651099742275e-02
5.084000000000000341e+01,5.369148545754930807e-02
5.088000000000000256e+01,5.843864385165377373e-02
5.092000000000000171e+01,5.569616249232935828e-02
5.096000000000000085e+01,5.070647919582740165e-02
5.100000000000000000e+01,6.574995423862659005e-02
5.103999999999999915e+01,6.225722482496474225e-02
5.107999999999999829e+01,6.981061799998959649e-02
5.111999999999999744e+01,7.193390119109101255e-02
5.115999999999999659e+01,6.600585569441538847e-02
5.120000000000000284e+01,6.625595534919101470e-02
5.124000000000000199e+01,6.107594542858719999e-02
5.128000000000000114e+01,6.675482886043131170e-02
5.132000000000000028e+01,5.108906003190315931e-02
5.135999999999999943e+01,5.770320977405231366e-02
5.139999999999999858e+01,6.001062998841938390e-02
5.143999999999999773e+01,5.520287205400527253e-02
5.147999999999999687e+01,5.320312171569534926e-02
5.152000000000000313e+01,4.202866441236793177e-02
5.156000000000000227e+01,4.321094075192041112e-02
5.160000000000000142e+01,4.907352426757453923e-02
5.164000000000000057e+01,3.490206603232443722e-02
5.167999999999999972e+01,3.233842217991677453e-02
5.171999999999999886e+01,3.220832690641037971e-02
5.175999999999999801e+01,3.320117092796901620e-02
5.179999999999999716e+01,3.625310396650083256e-02
5.184000000000000341e+01,3.406215938951821093e-02
5.188000000000000256e+01,4.553855896488345073e-02
5.192000000000000171e+01,4.016382633408475955e-02
5.196000000000000085e+01,3.553757384496698812e-02
5.200000000000000000e+01,4.719988475677607681e-02
5.203999999999999915e+01,3.283679793084266080e-02
5.207999999999999829e+01,2.352847974947725948e-02
5.211999999999999744e+01,3.462778355478053627e-02
5.215999999999999659e+01,3.617792273967660593e-02
5.220000000000000284e+01,3.697870354617861094e-02
5.224000000000000199e+01,3.646843635903183889e-02
5.228000000000000114e+01,3.314928197725463405e-02
5.232000000000000028e+01,4.331024332867442622e-02
5.235999999999999943e+01,3.886683297766894973e-02
5.239999999999999858e+01,4.209941120071706427e-02
5.243999999999999773e+01,4.832723020536606323e-02
5.247999999999999687e+01,4.201020700473272196e-02
5.252000000000000313e+01,5.198174897538326150e-02
5.256000000000000227e+01,4.865952934453263157e-02
5.260000000000000142e+01,4.552410228282780663e-02
5.264000000000000057e+01,6.391967848102080019e-02
5.267999999999999972e+01,5.310695052890122836e-02
5.271999999999999886e+01,5.708494909180925059e-02
5.275999999999999801e+01,5.956467151428011808e-02
5.279999999999999716e+01,6.859700436974558446e-02
5.284000000000000341e+01,7.051416384277575666e-02
5.288000000000000256e+01,7.673717501541878205e-02
5.292000000000000171e+01,6.386229838068642473e-02
5.296000000000000085e+01,7.607579452106413842e-02
5.300000000000000000e+01,6.862971337499289282e-02
5.303999999999999915e+01,6.773624347900412956e-02
5.307999999999999829e+01,6.515726861488335686e-02
5.311999999999999744e+01,6.426292742742827080e-02
5.315999999999999659e+01,6.449153030138422837e-02
5.320000000000000284e+01,6.116232944429848134e-02
5.324000000000000199e+01,5.446255490949777900e-02
5.328000000000000114e+01,6.030674979051878215e-02
5.332000000000000028e+01,5.791239342040818694e-02
5.335999999999999943e+01,5.083685436110903233e-02
5.339999999999999858e+01,4.769270893748907975e-02
5.343999999999999773e+01,5.278624538007285066e-02
5.347999999999999687e+01,4.364987376759879578e-02
5.352000000000000313e+01,3.638536711074896735e-02
5.356000000000000227e+01,4.222652057442608658e-02
5.360000000000000142e+01,3.365053647444397195e-02
5.364000000000000057e+01,3.799298285020603211e-02
5.367999999999999972e+01,3.540748862048578860e-02
5.371999999999999886e+01,3.675338911589528385e-02
5.375999999999999801e+01,3.510317753823755799e-02
5.379999999999999716e+01,3.026962410654859478e-02
5.384000000000000341e+01,4.153741042298143837e-02
5.388000000000000256e+01,2.528196592884927527e-02
5.392000000000000171e+01,3.018306921812615590e-02
5.396000000000000085e+01,2.984130210949819187e-02
5.400000000000000000e+01,2.818849299919902809e-02
5.403999999999999915e+01,3.215214895778829851e-02
5.407999999999999829e+01,3.180908451274336302e-02
5.411999999999999744e+01,1.686165435725089923e-02
5.415999999999999659e+01,2.831321048232538981e-02
5.420000000000000284e+01,2.871776959507675586e-02
5.424000000000000199e+01,2.444114901462849862e-02
5.428000000000000114e+01,3.083620208308110108e-02
5.432000000000000028e+01,2.131628070197523483e-02
5.435999999999999943e+01,2.977000001080185379e-02
5.439999999999999858e+01,2.062367588812438410e-02
5.443999999999999773e+01,1.784273786472986498e-02
5.447999999999999687e+01,2.592070408828815731e-02
5.452000000000000313e+01,2.332613422326459615e-02
5.456000000000000227e+01,2.559911152890501779e-02
5.460000000000000142e+01,1.382941450970969106e-02
5.464000000000000057e+01,2.340349764233250543e-02
5.467999999999999972e+01,2.530072390542430563e-02
5.471999999999999886e+01,1.914663360087575858e-02
5.475999999999999801e+01,1.617502189358964101e-02
5.479999999999999716e+01,2.050494709694498235e-02
5.484000000000000341e+01,1.828139547836678605e-02
5.488000000000000256e+01,2.878904864000812400e-02
5.492000000000000171e+01,2.656463798628170073e-02
5.496000000000000085e+01,2.359087835067170263e-02
5.500000000000000000e+01,2.286344854368518170e-02
5.503999999999999915e+01,2.251004953004989012e-02
5.507999999999999829e+01,1.672655401444099119e-02
5.511999999999999744e+01,1.918074608465094796e-02
5.515999999999999659e+01,1.732822142812210503e-02
5.520000000000000284e+01,1.697310761254188297e-02
5.524000000000000199e+01,2.841305021708613598e-02
5.528000000000000114e+01,2.824430973476665940e-02
5.532000000000000028e+01,1.534350679889257170e-02
5.535999999999999943e+01,2.153972746035581406e-02
5.539999999999999858e+01,2.136970312356924195e-02
5.543999999999999773e+01,2.494384945056346906e-02
5.547999999999999687e+01,1.597316378587363209e-02
5.552000000000000313e+01,2.628673218039178153e-02
5.556000000000000227e+01,2.555330819275148518e-02
5.560000000000000142e+01,2.070039889351208903e-02
5.564000000000000057e+01,2.595747812190218190e-02
5.567999999999999972e+01,2.541000305674772156e-02
5.571999999999999886e+01,2.654717052004420055e-02
5.575999999999999801e+01,2.094363437643193687e-02
5.579999999999999716e+01,2.788407622806397812e-02
5.584000000000000341e+01,2.321583689937067527e-02
5.588000000000000256e+01,2.528744840677820543e-02
5.592000000000000171e+01,2.735863386923508001e-02
5.596000000000000085e+01,1.782113855991052445e-02
5.600000000000000000e+01,2.775512886111499572e-02
5.603999999999999915e+01,2.608043866290063115e-02
5.607999999999999829e+01,2.365640329587944193e-02
5.611999999999999744e+01,1.561504505045345666e-02
5.615999999999999659e+01,2.629625329170036732e-02
5.620000000000000284e+01,2.480709182681762812e-02
5.624000000000000199e+01,3.005778242366755407e-02
5.628000000000000114e+01,2.838054126682040129e-02
5.632000000000000028e+01,2.033705824389360484e-02
5.635999999999999943e+01,2.034403711126096803e-02
5.639999999999999858e+01,3.102269684513868364e-02
5.643999999999999773e+01,3.046713727570139058e-02
5.647999999999999687e+01,2.111134746202010526e-02
5.652000000000000313e+01,2.055493975193954312e-02
5.656000000000000227e+01,2.430439627015248960e-02
5.660000000000000142e+01,2.449606063273538151e-02
5.664000000000000057e+01,2.318946206446835523e-02
5.667999999999999972e+01,1.607831260718954255e-02
5.671999999999999886e+01,2.581743237166837443e-02
5.675999999999999801e+01,2.020327574508491361e-02
5.679999999999999716e+01,1.271639689808599753e-02
5.684000000000000341e+01,2.002025859278983716e-02
5.688000000000000256e+01,1.702605206789989736e-02
5.692000000000000171e+01,1.721433149406311272e-02
5.696000000000000085e+01,1.365759007308262225e-02
5.700000000000000000e+01,2.826172824714656695e-02
5.703999999999999915e+01,2.152123363476588641e-02
5.707999999999999829e+01,1.290801775523900061e-02
5.711999999999999744e+01,1.515371511063152640e-02
5.715999999999999659e+01,1.870960006271159617e-02
5.720000000000000284e+01,1.402694697324723822e-02
5.724000000000000199e+01,1.739475877006585458e-02
5.728000000000000114e+01,1.870262006349952474e-02
5.732000000000000028e+01,1.851222074116555538e-02
5.735999999999999943e+01,2.094261911644314245e-02
5.739999999999999858e+01,2.487043582264152411e-02
5.743999999999999773e+01,2.018525547009261678e-02
5.747999999999999687e+01,2.336331090376921743e-02
5.752000000000000313e+01,1.980066872251482271e-02
5.756000000000000227e+01,2.335234293126706162e-02
5.760000000000000142e+01,2.109946938317766238e-02
5.764000000000000057e+01,1.678664655733514907e-02
5.767999999999999972e+01,1.509462251855468035e-02
5.771999999999999886e+01,2.295090433739576177e-02
5.775999999999999801e+01,2.144527051835868128e-02
5.779999999999999716e+01,2.424550514923585337e-02
5.784000000000000341e+01,1.712213466316134941e-02
5.788000000000000256e+01,1.074726447360189498e-02
5.792000000000000171e+01,2.927355402848991900e-02
5.796000000000000085e+01,2.233615575190557243e-02
5.800000000000000000e+01,2.869166262911912457e-02
5.803999999999999915e+01,2.549802490457835080e-02
5.807999999999999829e+01,1.799768039453458410e-02
5.811999999999999744e+01,2.004564310392549509e-02
5.815999999999999659e+01,1.666351979730382182e-02
5.820000000000000284e+01,1.927233555671774984e-02
5.824000000000000199e+01,2.300411267256918454e-02
5.828000000000000114e+01,2.111857426380664080e-02
5.832000000000000028e+01,1.941984789811755999e-02
5.835999999999999943e+01,1.978023288313673217e-02
5.839999999999999858e+01,2.351033877506299510e-02
5.843999999999999773e+01,2.461880836142622125e-02
5.847999999999999687e+01,2.422902128127993673e-02
5.852000000000000313e+01,1.953252891362502325e-02
5.856000000000000227e+01,2.326096576052709419e-02
5.860000000000000142e+01,2.380607709515539239e-02
5.864000000000000057e+01,2.285293230799929215e-02
5.867999999999999972e+01,1.628247335804236182e-02
5.871999999999999886e+01,2.319215193029230265e-02
5.875999999999999801e+01,1.942930884917937195e-02
5.879999999999999716e+01,2.109571712538556645e-02
5.884000000000000341e+01,2.613184780649329547e-02
5.888000000000000256e+01,1.656362898272965498e-02
5.892000000000000171e+01,2.702859546216683159e-02
5.896000000000000085e+01,2.625935121771170305e-02
5.900000000000000000e+01,2.099617340277835226e-02
5.903999999999999915e+01,2.078778792796125846e-02
5.907999999999999829e+01,1.983006749793572374e-02
5.911999999999999744e+01,2.860788760902309782e-02
5.915999999999999659e+01,2.540257800854314046e-02
5.920000000000000284e+01,2.144793386139867697e-02
5.924000000000000199e+01,2.947558966965533808e-02
5.928000000000000114e+01,2.776687518063286966e-02
5.932000000000000028e+01,1.781962986767559459e-02
5.935999999999999943e+01,2.416097301300650785e-02
5.939999999999999858e+01,2.207655568961987280e-02
5.943999999999999773e+01,3.646795701402933548e-02
5.947999999999999687e+01,2.689351501901926511e-02
5.952000000000000313e+01,1.900372848968483533e-02
5.956000000000000227e+01,2.646638151381832185e-02
5.960000000000000142e+01,2.119698665579760472e-02
5.964000000000000057e+01,2.116961609775822734e-02
5.967999999999999972e+01,2.563535030730004077e-02
5.971999999999999886e+01,2.242424480615614127e-02
5.975999999999999801e+01,3.044652136218896007e-02
5.979999999999999716e+01,2.873242939129984005e-02
5.984000000000000341e+01,2.009041778685036889e-02
5.988000000000000256e+01,1.725212105090622242e-02
5.992000000000000171e+01,2.808119583975363098e-02
5.996000000000000085e+01,3.123343173500317885e-02
