2.003999999999999915e+01,1.050205768890657004e-01
2.007999999999999829e+01,1.364181147104002179e-01
2.012000000000000099e+01,1.317452237574430751e-01
2.016000000000000014e+01,1.520832762745356892e-01
2.019999999999999929e+01,1.351210531546631621e-01
2.023999999999999844e+01,1.423498688061563822e-01
2.028000000000000114e+01,1.389246291071849770e-01
2.032000000000000028e+01,1.547711018413041595e-01
2.035999999999999943e+01,1.193792246223255582e-01
2.039999999999999858e+01,1.208865525158599463e-01
2.044000000000000128e+01,9.780175074279857939e-02
2.048000000000000043e+01,1.505606392874965227e-01
2.051999999999999957e+01,1.135465737254763297e-01
2.055999999999999872e+01,1.015433497796290052e-01
2.060000000000000142e+01,1.358679497903889366e-01
2.064000000000000057e+01,1.013266155001302932e-01
2.067999999999999972e+01,1.176224485992410224e-01
2.071999999999999886e+01,9.948746879903916374e-02
2.076000000000000156e+01,9.324513044140644857e-02
2.080000000000000071e+01,1.657159960661307996e-01
2.083999999999999986e+01,9.758099777021810028e-02
2.087999999999999901e+01,1.073392987579689511e-01
2.092000000000000171e+01,8.594627323112935535e-02
2.096000000000000085e+01,1.268687243867661907e-01
2.100000000000000000e+01,1.231117372464168025e-01
2.103999999999999915e+01,9.353264116676651696e-02
2.107999999999999829e+01,1.274988177053012484e-01
2.112000000000000099e+01,1.208849470312650110e-01
2.116000000000000014e+01,1.068963342398779326e-01
2.119999999999999929e+01,1.064400195076170286e-01
2.123999999999999844e+01,8.262119789286059834e-02
2.128000000000000114e+01,1.239873666251788964e-01
2.132000000000000028e+01,1.112453458073637130e-01
2.135999999999999943e+01,1.243338472258640470e-01
2.139999999999999858e+01,7.183575813262579879e-02
2.144000000000000128e+01,8.780215595657243910e-02
2.148000000000000043e+01,1.123814745744266819e-01
2.151999999999999957e+01,1.140081571760227785e-01
2.155999999999999872e+01,8.899271410034913232e-02
2.160000000000000142e+01,1.029258813953195656e-01
2.164000000000000057e+01,1.127637216599405579e-01
2.167999999999999972e+01,7.464241316530220716e-02
2.171999999999999886e+01,9.842644566679778495e-02
2.176000000000000156e+01,1.295935011726056241e-01
2.180000000000000071e+01,1.078820713954905391e-01
2.183999999999999986e+01,9.478347074378525028e-02
2.187999999999999901e+01,1.042357226066773224e-01
2.192000000000000171e+01,1.157417086008714208e-01
2.196000000000000085e+01,1.153633849664020966e-01
2.200000000000000000e+01,9.859137771434080266e-02
2.203999999999999915e+01,7.936371023387586709e-02
2.207999999999999829e+01,7.161840591419561808e-02
2.212000000000000099e+01,1.179894396215576263e-01
2.216000000000000014e+01,8.196606057251253075e-02
2.219999999999999929e+01,1.041584208193138683e-01
2.223999999999999844e+01,9.642894492557269048e-02
2.228000000000000114e+01,9.936189693775644705e-02
2.232000000000000028e+01,1.133672088344342965e-01
2.235999999999999943e+01,8.925181075524091234e-02
2.239999999999999858e+01,8.604736412475988416e-02
2.244000000000000128e+01,1.053936274134350121e-01
2.248000000000000043e+01,1.095759113517287553e-01
2.251999999999999957e+01,6.661871696551724398e-02
2.255999999999999872e+01,7.572803774728219250e-02
2.260000000000000142e+01,9.181022547623939045e-02
2.264000000000000057e+01,1.046167158680464393e-01
2.267999999999999972e+01,6.782403421004486177e-02
2.271999999999999886e+01,7.243933071555296033e-02
2.276000000000000156e+01,5.697127060546128968e-02
2.280000000000000071e+01,7.266261418914904402e-02
2.283999999999999986e+01,8.056884570520349287e-02
2.287999999999999901e+01,8.560926093573428819e-02
2.292000000000000171e+01,8.655402320347767298e-02
2.296000000000000085e+01,8.668265963471058488e-02
2.300000000000000000e+01,9.214429250341660271e-02
2.303999999999999915e+01,7.219324932734580424e-02
2.307999999999999829e+01,1.248056971071057897e-01
2.312000000000000099e+01,5.156961830156762960e-02
2.316000000000000014e+01,5.007712575316637660e-02
2.319999999999999929e+01,1.149989611450574767e-01
2.323999999999999844e+01,9.834599310296328334e-02
2.328000000000000114e+01,8.251658639708206455e-02
2.332000000000000028e+01,5.357269726744786492e-02
2.335999999999999943e+01,9.719222779592336103e-02
2.339999999999999858e+01,5.472755034531968238e-02
2.344000000000000128e+01,9.261517329725295344e-02
2.348000000000000043e+01,1.046800660011765194e-01
2.351999999999999957e+01,8.436314364837120550e-02
2.355999999999999872e+01,7.962762923655072878e-02
2.360000000000000142e+01,6.669686707075442311e-02
2.364000000000000057e+01,8.123581522995169946e-02
2.367999999999999972e+01,8.634966877252117645e-02
2.371999999999999886e+01,9.843610407139995189e-02
2.376000000000000156e+01,9.207869677579477719e-02
2.380000000000000071e+01,5.251951879782364857e-02
2.383999999999999986e+01,5.436803379247942547e-02
2.387999999999999901e+01,6.072943681814092082e-02
2.392000000000000171e+01,8.882128857566158608e-02
2.396000000000000085e+01,6.280427854739623061e-02
2.400000000000000000e+01,5.892763904417083753e-02
2.403999999999999915e+01,6.571297928976832514e-02
2.407999999999999829e+01,1.061170502804564125e-01
2.412000000000000099e+01,7.109522621798086695e-02
2.416000000000000014e+01,1.033073699743855267e-01
2.419999999999999929e+01,7.772111135704919127e-02
2.423999999999999844e+01,7.140556700471363538e-02
2.428000000000000114e+01,4.541622115596685022e-02
2.432000000000000028e+01,8.051166992517366783e-02
2.435999999999999943e+01,6.395780803845682594e-02
2.439999999999999858e+01,6.667461967518595323e-02
2.444000000000000128e+01,9.891064874892596670e-02
2.448000000000000043e+01,4.752184782184134398e-02
2.451999999999999957e+01,7.976460960346475060e-02
2.455999999999999872e+01,6.076795196617940098e-02
2.460000000000000142e+01,8.194896728726207280e-02
2.464000000000000057e+01,7.894672563989534042e-02
2.467999999999999972e+01,7.102849854472388647e-02
2.471999999999999886e+01,3.646734112657731147e-02
2.476000000000000156e+01,5.848150248356942527e-02
2.480000000000000071e+01,6.205155642597175170e-02
2.483999999999999986e+01,5.373656739172599783e-02
2.487999999999999901e+01,1.114255363474905142e-01
2.492000000000000171e+01,7.319129834441052973e-02
2.496000000000000085e+01,6.324631887641415928e-02
2.500000000000000000e+01,1.033175224478942444e-01
2.503999999999999915e+01,6.673277021039683565e-02
2.507999999999999829e+01,6.335655191931464925e-02
2.512000000000000099e+01,5.014493017365433125e-02
2.516000000000000014e+01,5.702367275697159399e-02
2.519999999999999929e+01,4.586814823577040762e-02
2.523999999999999844e+01,8.431880347775565221e-02
2.528000000000000114e+01,7.644916193133342863e-02
2.532000000000000028e+01,8.129088502108733350e-02
2.535999999999999943e+01,7.793691219976410511e-02
2.539999999999999858e+01,4.056087695261149234e-02
2.544000000000000128e+01,5.443073919753430717e-02
2.548000000000000043e+01,2.976915484231101167e-02
2.551999999999999957e+01,3.995576105006035800e-02
2.555999999999999872e+01,7.638176219227267583e-02
2.560000000000000142e+01,8.821431975274952875e-02
2.564000000000000057e+01,7.627330787401891132e-02
2.567999999999999972e+01,5.408680778131030875e-02
2.571999999999999886e+01,6.674844732463096342e-02
2.576000000000000156e+01,3.964874247821053438e-02
2.580000000000000071e+01,2.894975951892537688e-02
2.583999999999999986e+01,6.416732406637326580e-02
2.587999999999999901e+01,1.534975996043475878e-02
2.592000000000000171e+01,1.042757677170752517e-01
2.596000000000000085e+01,5.669402946290993950e-02
2.600000000000000000e+01,7.060660020433232043e-02
2.603999999999999915e+01,7.304376457140443479e-02
2.607999999999999829e+01,6.974470267415176783e-02
2.612000000000000099e+01,5.538015619572942555e-02
2.616000000000000014e+01,5.372676046032148073e-02
2.619999999999999929e+01,6.109502580691559409e-02
2.623999999999999844e+01,5.411823870450920004e-02
2.628000000000000114e+01,1.045362676603881213e-01
2.632000000000000028e+01,9.141616412151244708e-02
2.635999999999999943e+01,0.000000000000000000e+00
2.639999999999999858e+01,6.436474073056086542e-02
2.644000000000000128e+01,6.888079788582431029e-02
2.648000000000000043e+01,7.462954371016437827e-02
2.651999999999999957e+01,5.906414900049489908e-02
2.655999999999999872e+01,4.268171176933407279e-02
2.660000000000000142e+01,6.073724793169339026e-02
2.664000000000000057e+01,6.526751411908163214e-02
2.667999999999999972e+01,7.922926132776612895e-02
2.671999999999999886e+01,7.761600737091156610e-02
2.676000000000000156e+01,7.190612265395733560e-02
2.680000000000000071e+01,4.160248879360752688e-02
2.683999999999999986e+01,9.410994256150649606e-02
2.687999999999999901e+01,6.135218654942749261e-02
2.692000000000000171e+01,8.393937280962479597e-02
2.696000000000000085e+01,3.314965167385287848e-02
2.700000000000000000e+01,6.763063040852419772e-02
2.703999999999999915e+01,6.275988098497456424e-02
2.707999999999999829e+01,5.461230364613219035e-02
2.712000000000000099e+01,5.425632663347781243e-02
2.716000000000000014e+01,9.981656100973031187e-02
2.719999999999999929e+01,4.453370189248631594e-02
2.723999999999999844e+01,6.796240691002282397e-02
2.728000000000000114e+01,6.761712488741604410e-02
2.732000000000000028e+01,8.367217770717517988e-02
2.735999999999999943e+01,3.372918022832495366e-02
2.739999999999999858e+01,5.880822666707773150e-02
2.744000000000000128e+01,7.446122106266704621e-02
2.748000000000000043e+01,5.978110286783980265e-02
2.751999999999999957e+01,5.863167344072751225e-02
2.755999999999999872e+01,5.010587223407725332e-02
2.760000000000000142e+01,4.363235883353685368e-02
2.764000000000000057e+01,3.880118088976001328e-02
2.767999999999999972e+01,6.307845320255311972e-02
2.771999999999999886e+01,4.103480741822999184e-02
2.776000000000000156e+01,5.383878181511338873e-02
2.780000000000000071e+01,4.983765354908921419e-02
2.783999999999999986e+01,4.747880981288485347e-02
2.787999999999999901e+01,8.570674599713537511e-02
2.792000000000000171e+01,4.850781951629803967e-02
2.796000000000000085e+01,4.205704065014252008e-02
2.800000000000000000e+01,1.048889626253457913e-01
2.803999999999999915e+01,5.990856042660175351e-02
2.807999999999999829e+01,5.592482938532730707e-02
2.812000000000000099e+01,9.088804849634288252e-02
2.816000000000000014e+01,6.887174120805512889e-02
2.819999999999999929e+01,7.063450363482870475e-02
2.823999999999999844e+01,1.343009468393821237e-01
2.828000000000000114e+01,7.621697118307976804e-02
2.832000000000000028e+01,6.814833317899407494e-02
2.835999999999999943e+01,7.729964952508500131e-02
2.839999999999999858e+01,5.693750334473543506e-02
2.844000000000000128e+01,6.732338255440398211e-02
2.848000000000000043e+01,9.451924339412461074e-02
2.851999999999999957e+01,3.357988170522536314e-02
2.855999999999999872e+01,4.479267340995000263e-02
2.860000000000000142e+01,7.978443297584957017e-02
2.864000000000000057e+01,4.467839467112068308e-02
2.867999999999999972e+01,7.475546241656180757e-02
2.871999999999999886e+01,5.851135743016924046e-02
2.876000000000000156e+01,7.219531202276896487e-02
2.880000000000000071e+01,1.010493981064791297e-01
2.883999999999999986e+01,6.677465217990617707e-02
2.887999999999999901e+01,6.324781960407581394e-02
2.892000000000000171e+01,8.513964206214331976e-02
2.896000000000000085e+01,7.013890044708266658e-02
2.900000000000000000e+01,4.858130470640765336e-02
2.903999999999999915e+01,7.088973082158092631e-02
2.907999999999999829e+01,4.318741306079946357e-02
2.912000000000000099e+01,7.164936170383312541e-02
2.916000000000000014e+01,4.928066177221854249e-02
2.919999999999999929e+01,2.035505678804620452e-02
2.923999999999999844e+01,5.661241525860194468e-02
2.928000000000000114e+01,7.442452555103638845e-02
2.932000000000000028e+01,8.158027859516606140e-02
2.935999999999999943e+01,7.275041607414570177e-02
2.939999999999999858e+01,4.998463862237793875e-02
2.944000000000000128e+01,8.297310392735757212e-02
2.948000000000000043e+01,9.505661714352378611e-02
2.951999999999999957e+01,4.319124086988321287e-02
2.955999999999999872e+01,4.626019246890796660e-02
2.960000000000000142e+01,6.162947670356279384e-02
2.964000000000000057e+01,3.723642856577479010e-02
2.967999999999999972e+01,1.050824146646769375e-01
2.971999999999999886e+01,8.807240998496368434e-02
2.976000000000000156e+01,9.607090428202810783e-02
2.980000000000000071e+01,5.610818218593243561e-02
2.983999999999999986e+01,6.411069987749302979e-02
2.987999999999999901e+01,6.965556100446937404e-02
2.992000000000000171e+01,6.659362292210146972e-02
2.996000000000000085e+01,9.181967020123299461e-02
3.000000000000000000e+01,8.507219455462858293e-02
3.003999999999999915e+01,4.143187982940179509e-02
3.007999999999999829e+01,9.658957211030846923e-02
3.012000000000000099e+01,8.656839562870376203e-02
3.016000000000000014e+01,6.999006964521314877e-02
3.019999999999999929e+01,4.726452613840614880e-02
3.023999999999999844e+01,7.578365787703343626e-02
3.028000000000000114e+01,6.208064129325079061e-02
3.032000000000000028e+01,7.420586541872062347e-02
3.035999999999999943e+01,1.174885681995099657e-01
3.039999999999999858e+01,1.017414633794392204e-01
3.044000000000000128e+01,1.093629157287063086e-01
3.048000000000000043e+01,9.361950837069411835e-02
3.051999999999999957e+01,2.704510613481875964e-02
3.055999999999999872e+01,7.197679576311540040e-02
3.060000000000000142e+01,5.049966791236192021e-02
3.064000000000000057e+01,6.509925338670513595e-02
3.067999999999999972e+01,7.109184612931897240e-02
3.071999999999999886e+01,9.922309825167528741e-02
3.076000000000000156e+01,9.579057608986898953e-02
3.080000000000000071e+01,1.017884858543252752e-01
3.083999999999999986e+01,5.777520358572550002e-02
3.087999999999999901e+01,6.254678061259234811e-02
3.092000000000000171e+01,8.453766012476079950e-02
3.096000000000000085e+01,6.512610249082786962e-02
3.100000000000000000e+01,5.268527287246536905e-02
3.103999999999999915e+01,8.451989800447581858e-02
3.107999999999999829e+01,9.339945281233474894e-02
3.112000000000000099e+01,7.235491032336581474e-02
3.116000000000000014e+01,9.148637038902206198e-02
3.119999999999999929e+01,8.684284524644492187e-02
3.123999999999999844e+01,9.408929297460395802e-02
3.128000000000000114e+01,6.690223886084070704e-02
3.132000000000000028e+01,4.873554209932910025e-02
3.135999999999999943e+01,1.002606327704856498e-01
3.139999999999999858e+01,1.075135791085584658e-01
3.144000000000000128e+01,6.926454443628429769e-02
3.148000000000000043e+01,9.332830768926560217e-02
3.151999999999999957e+01,9.033746693923894178e-02
3.155999999999999872e+01,9.308738511746701694e-02
3.160000000000000142e+01,9.091955577564934943e-02
3.164000000000000057e+01,1.100702672217185735e-01
3.167999999999999972e+01,9.355754848010408575e-02
3.171999999999999886e+01,9.959317664747328880e-02
3.176000000000000156e+01,6.586593261680032119e-02
3.180000000000000071e+01,8.789233040494312532e-02
3.183999999999999986e+01,6.933595129634988197e-02
3.187999999999999901e+01,8.644602760184640078e-02
3.192000000000000171e+01,9.945815923210407639e-02
3.196000000000000085e+01,8.008632668862231130e-02
3.200000000000000000e+01,6.112589290266435410e-02
3.203999999999999915e+01,6.102424506695759004e-02
3.207999999999999829e+01,7.896148866819671652e-02
3.211999999999999744e+01,1.112481340453699424e-01
3.215999999999999659e+01,1.103308799939443224e-01
3.220000000000000284e+01,8.112902229602934889e-02
3.224000000000000199e+01,6.627653581788221782e-02
3.228000000000000114e+01,1.030781472943054500e-01
3.232000000000000028e+01,8.207928876308691335e-02
3.235999999999999943e+01,9.264734178171200873e-02
3.239999999999999858e+01,1.060863446877230859e-01
3.243999999999999773e+01,1.105079645409446365e-01
3.247999999999999687e+01,1.239496463701466600e-01
3.252000000000000313e+01,6.770248450997712331e-02
3.256000000000000227e+01,1.082029873420528726e-01
3.260000000000000142e+01,8.844329588501702311e-02
3.264000000000000057e+01,1.158282469105137574e-01
3.267999999999999972e+01,1.091892817694428003e-01
3.271999999999999886e+01,1.115703174920199964e-01
3.275999999999999801e+01,1.073935416624473421e-01
3.279999999999999716e+01,1.216654160967830106e-01
3.284000000000000341e+01,9.822385414737277998e-02
3.288000000000000256e+01,1.219268735681633409e-01
3.292000000000000171e+01,1.075064940704722333e-01
3.296000000000000085e+01,2.062313639694654532e-01
3.300000000000000000e+01,3.389826354358327354e-01
3.303999999999999915e+01,3.811378804409105703e-01
3.307999999999999829e+01,2.658765160741332623e-01
3.311999999999999744e+01,1.338086943877550283e-01
3.315999999999999659e+01,1.017679219244564948e-01
3.320000000000000284e+01,9.391488816659340766e-02
3.324000000000000199e+01,1.282870381429354056e-01
3.328000000000000114e+01,1.446228635662469564e-01
3.332000000000000028e+01,1.027480221832413748e-01
3.335999999999999943e+01,1.055579869620235645e-01
3.339999999999999858e+01,7.926315820473939233e-02
3.343999999999999773e+01,8.043554435222365073e-02
3.347999999999999687e+01,1.086651930551295192e-01
3.352000000000000313e+01,8.442331432018911064e-02
3.356000000000000227e+01,1.114252654434233769e-01
3.360000000000000142e+01,1.072726612838570265e-01
3.364000000000000057e+01,8.385381441088793353e-02
3.367999999999999972e+01,1.202875522830485211e-01
3.371999999999999886e+01,9.810057933104712746e-02
3.375999999999999801e+01,1.419153032127697389e-01
3.379999999999999716e+01,8.406536868394880180e-02
3.384000000000000341e+01,1.143539874718140781e-01
3.388000000000000256e+01,1.315254348933166395e-01
3.392000000000000171e+01,9.663519518704424827e-02
3.396000000000000085e+01,1.453741144377527772e-01
3.400000000000000000e+01,1.043366471057600026e-01
3.403999999999999915e+01,1.334002269493523019e-01
3.407999999999999829e+01,1.210605751865265894e-01
3.411999999999999744e+01,1.095417245195826617e-01
3.415999999999999659e+01,1.168811199772901432e-01
3.420000000000000284e+01,1.131529734053161040e-01
3.424000000000000199e+01,1.122953081928485253e-01
3.428000000000000114e+01,1.106186346788754216e-01
3.432000000000000028e+01,1.384586628109107653e-01
3.435999999999999943e+01,1.285848675144307396e-01
3.439999999999999858e+01,1.039539997857022308e-01
3.443999999999999773e+01,1.354860438040953463e-01
3.447999999999999687e+01,1.293042338378070089e-01
3.452000000000000313e+01,7.679977425832758275e-02
3.456000000000000227e+01,9.931553541187791712e-02
3.460000000000000142e+01,1.070741732062366613e-01
3.464000000000000057e+01,1.365605300482897744e-01
3.467999999999999972e+01,1.443207263730855450e-01
3.471999999999999886e+01,1.291249255033608268e-01
3.475999999999999801e+01,1.237684903703782785e-01
3.479999999999999716e+01,1.364502540679119469e-01
3.484000000000000341e+01,1.364245441137129367e-01
3.488000000000000256e+01,1.396790947167595720e-01
3.492000000000000171e+01,1.376051102485423838e-01
3.496000000000000085e+01,1.445505562622077800e-01
3.500000000000000000e+01,1.207510326684272800e-01
3.503999999999999915e+01,1.408160031221940833e-01
3.507999999999999829e+01,1.485833809758539126e-01
3.511999999999999744e+01,1.411835608963111222e-01
3.515999999999999659e+01,1.173867062063028571e-01
3.520000000000000284e+01,1.497525697410311829e-01
3.524000000000000199e+01,1.243172197347443969e-01
3.528000000000000114e+01,1.390568231880493222e-01
3.532000000000000028e+01,1.537970378476595235e-01
3.535999999999999943e+01,1.443512658546562688e-01
3.539999999999999858e+01,1.697511686336229952e-01
3.543999999999999773e+01,1.631761632739937851e-01
3.547999999999999687e+01,2.045649615622177897e-01
3.552000000000000313e+01,2.283268070796038440e-01
3.556000000000000227e+01,1.655914060957952849e-01
3.560000000000000142e+01,1.430308770884691771e-01
3.564000000000000057e+01,1.327691427230833221e-01
3.567999999999999972e+01,1.368559036340393775e-01
3.571999999999999886e+01,1.569309182917818790e-01
3.575999999999999801e+01,1.458508276557353156e-01
3.579999999999999716e+01,1.257524983942510388e-01
3.584000000000000341e+01,1.659161460308660185e-01
3.588000000000000256e+01,1.572971447673260359e-01
3.592000000000000171e+01,1.453990646175961632e-01
3.596000000000000085e+01,1.433400446429482500e-01
3.600000000000000000e+01,1.814557947908962132e-01
3.603999999999999915e+01,1.347139448688178531e-01
3.607999999999999829e+01,1.916878801120697751e-01
3.611999999999999744e+01,1.236298628466206417e-01
3.615999999999999659e+01,1.379706178499009450e-01
3.620000000000000284e+01,1.699392730311357902e-01
3.624000000000000199e+01,1.629637995787130700e-01
3.628000000000000114e+01,1.682869578020116386e-01
3.632000000000000028e+01,1.809894315481453964e-01
3.635999999999999943e+01,1.555676304323717618e-01
3.639999999999999858e+01,1.412146039442791767e-01
3.643999999999999773e+01,1.621169295720090164e-01
3.647999999999999687e+01,1.690815374551957462e-01
3.652000000000000313e+01,1.473504995059579381e-01
3.656000000000000227e+01,1.342285424590974052e-01
3.660000000000000142e+01,1.629209714098349415e-01
3.664000000000000057e+01,1.776756418744747101e-01
3.667999999999999972e+01,1.702937003884654743e-01
3.671999999999999886e+01,1.690611460795301280e-01
3.675999999999999801e+01,1.961148456160192732e-01
3.679999999999999716e+01,1.899634642188235967e-01
3.684000000000000341e+01,1.567561241619263301e-01
3.688000000000000256e+01,1.784812480515667876e-01
3.692000000000000171e+01,1.915977902888449103e-01
3.696000000000000085e+01,1.854472444254598451e-01
3.700000000000000000e+01,2.268501730012001949e-01
3.703999999999999915e+01,2.243894632680118184e-01
3.707999999999999829e+01,1.891335434673759308e-01
3.711999999999999744e+01,2.067603156811551879e-01
3.715999999999999659e+01,1.993807585719141462e-01
3.720000000000000284e+01,2.182376324490317709e-01
3.724000000000000199e+01,2.432437610931703353e-01
3.728000000000000114e+01,2.567716212687412014e-01
3.732000000000000028e+01,2.440632848878629413e-01
3.735999999999999943e+01,2.346345775701327296e-01
3.739999999999999858e+01,2.448831756884872479e-01
3.743999999999999773e+01,2.596412089910870580e-01
3.747999999999999687e+01,2.842379154239992323e-01
3.752000000000000313e+01,3.186732848018349329e-01
3.756000000000000227e+01,3.379408349377591159e-01
3.760000000000000142e+01,3.404007869905503747e-01
3.764000000000000057e+01,4.170602911735273866e-01
3.767999999999999972e+01,4.137810836530403380e-01
3.771999999999999886e+01,3.990234956247102893e-01
3.775999999999999801e+01,4.826520168439302205e-01
3.779999999999999716e+01,5.847279151534741093e-01
3.784000000000000341e+01,5.748895722292642896e-01
3.788000000000000256e+01,7.167297893109967344e-01
3.792000000000000171e+01,7.142703138355052106e-01
3.796000000000000085e+01,7.745319284162620610e-01
3.800000000000000000e+01,8.093770576168782815e-01
3.803999999999999915e+01,8.962847602400538793e-01
3.807999999999999829e+01,1.000000000000000000e+00
3.811999999999999744e+01,9.163715690601740294e-01
3.815999999999999659e+01,8.315131996721830676e-01
3.820000000000000284e+01,8.536496129355874984e-01
3.824000000000000199e+01,7.823190804894678552e-01
3.828000000000000114e+01,7.159077114983897205e-01
3.832000000000000028e+01,6.310487924313495922e-01
3.835999999999999943e+01,5.650470500231503657e-01
3.839999999999999858e+01,5.670955337633795112e-01
3.843999999999999773e+01,4.682980619158951252e-01
3.847999999999999687e+01,4.338613163704387321e-01
3.852000000000000313e+01,4.350893354645520850e-01
3.856000000000000227e+01,3.608877825801902750e-01
3.860000000000000142e+01,3.412083135066950601e-01
3.864000000000000057e+01,3.137397091370407454e-01
3.867999999999999972e+01,2.653638100391778054e-01
3.871999999999999886e+01,2.805286918030945875e-01
3.875999999999999801e+01,2.567488032538675080e-01
3.879999999999999716e+01,2.309189289623401753e-01
3.884000000000000341e+01,2.477227546145617243e-01
3.888000000000000256e+01,2.259917215614312969e-01
3.892000000000000171e+01,1.977013084062952675e-01
3.896000000000000085e+01,2.112246803108255300e-01
3.900000000000000000e+01,2.058903868238285695e-01
3.903999999999999915e+01,2.103943692369857343e-01
3.907999999999999829e+01,2.030096826751266459e-01
3.911999999999999744e+01,1.734877628539093497e-01
3.915999999999999659e+01,1.898789988049963406e-01
3.920000000000000284e+01,1.546171453209614632e-01
3.924000000000000199e+01,1.320631119578442314e-01
3.928000000000000114e+01,1.431239388921211886e-01
3.932000000000000028e+01,1.160597372457289195e-01
3.935999999999999943e+01,8.407581211388821807e-02
3.939999999999999858e+01,1.197319163318011220e-01
3.943999999999999773e+01,1.156231927570464252e-01
3.947999999999999687e+01,1.143836162558818925e-01
3.952000000000000313e+01,1.201125982825002741e-01
3.956000000000000227e+01,1.028843506825686399e-01
3.960000000000000142e+01,8.565562445235415379e-02
3.964000000000000057e+01,8.687380678458456185e-02
3.967999999999999972e+01,1.007996971984571333e-01
3.971999999999999886e+01,1.196443843933784890e-01
3.975999999999999801e+01,8.806566604961112155e-02
3.979999999999999716e+01,5.607647598465925753e-02
3.984000000000000341e+01,9.746639352559999248e-02
3.988000000000000256e+01,7.285507274127632493e-02
3.992000000000000171e+01,9.046723473124902715e-02
3.996000000000000085e+01,8.512206524078495817e-02
4.000000000000000000e+01,9.289446451281180295e-02
4.003999999999999915e+01,9.246742983611755395e-02
4.007999999999999829e+01,1.113070760105090568e-01
4.011999999999999744e+01,8.136299363354621006e-02
4.015999999999999659e+01,1.170090362641616200e-01
4.020000000000000284e+01,7.845491580724070491e-02
4.024000000000000199e+01,5.137853434464600272e-02
4.028000000000000114e+01,8.210334621825894630e-02
4.032000000000000028e+01,3.698819579233685040e-02
4.035999999999999943e+01,4.270520154455662715e-02
4.039999999999999858e+01,6.973851748454337751e-02
4.043999999999999773e+01,5.987634614485247420e-02
4.047999999999999687e+01,5.616260455570004639e-02
4.052000000000000313e+01,6.843589446669282039e-02
4.056000000000000227e+01,7.127979152703729782e-02
4.060000000000000142e+01,6.100480607572159042e-02
4.064000000000000057e+01,9.664259953732937114e-02
4.067999999999999972e+01,1.900814844812578619e-01
4.071999999999999886e+01,2.265376448138392007e-01
4.075999999999999801e+01,1.375507289686750678e-01
4.079999999999999716e+01,1.375204785104843508e-01
4.084000000000000341e+01,1.276508217399666689e-01
4.088000000000000256e+01,7.842591266674696360e-02
4.092000000000000171e+01,7.388388471685558567e-02
4.096000000000000085e+01,8.532877622783399674e-02
4.100000000000000000e+01,5.495873189619547572e-02
4.103999999999999915e+01,8.156980305046354629e-02
4.107999999999999829e+01,5.529747956446770529e-02
4.111999999999999744e+01,8.723607768547532448e-02
4.115999999999999659e+01,5.235322722086492575e-02
4.120000000000000284e+01,6.830231904123422459e-02
4.124000000000000199e+01,6.785282807205950117e-02
4.128000000000000114e+01,5.756381875128207398e-02
4.132000000000000028e+01,6.326163722287651836e-02
4.135999999999999943e+01,5.215090018480258299e-02
4.139999999999999858e+01,6.481587168352766215e-02
4.143999999999999773e+01,3.443596880848619202e-02
4.147999999999999687e+01,6.103706938007562310e-02
4.152000000000000313e+01,3.967396923962350497e-02
4.156000000000000227e+01,5.479474397711808775e-02
4.160000000000000142e+01,4.818759612511466089e-02
4.164000000000000057e+01,5.018823563112692621e-02
4.167999999999999972e+01,5.095804037477101589e-02
4.171999999999999886e+01,6.853445538481621468e-02
4.175999999999999801e+01,6.110336975214364363e-02
4.179999999999999716e+01,5.285136096489484459e-02
4.184000000000000341e+01,6.837494867516961949e-02
4.188000000000000256e+01,5.192198839927220089e-02
4.192000000000000171e+01,7.072298484094891036e-02
4.196000000000000085e+01,5.549770210588545610e-02
4.200000000000000000e+01,3.658185014159526238e-02
4.203999999999999915e+01,7.669656984828550350e-02
4.207999999999999829e+01,6.351769811603691362e-02
4.211999999999999744e+01,7.411435158359103159e-02
4.215999999999999659e+01,7.036189881745247288e-02
4.220000000000000284e+01,6.865801619055776628e-02
4.224000000000000199e+01,1.013881244702115464e-01
4.228000000000000114e+01,8.205441687585758592e-02
4.232000000000000028e+01,6.640901752041408757e-02
4.235999999999999943e+01,7.453908225244160191e-02
4.239999999999999858e+01,7.118957478615098311e-02
4.243999999999999773e+01,6.701898119906550544e-02
4.247999999999999687e+01,7.227584540474982222e-02
4.252000000000000313e+01,6.031391656053623762e-02
4.256000000000000227e+01,6.433849976164537909e-02
4.260000000000000142e+01,6.057293931311640706e-02
4.264000000000000057e+01,5.393653099705854326e-02
4.267999999999999972e+01,7.640475341681786381e-02
4.271999999999999886e+01,7.673482589223810935e-02
4.275999999999999801e+01,7.993321023937720315e-02
4.279999999999999716e+01,7.493145784597687875e-02
4.284000000000000341e+01,8.017695590476460465e-02
4.288000000000000256e+01,8.419131363952370162e-02
4.292000000000000171e+01,6.975694997862375013e-02
4.296000000000000085e+01,8.770668306748551080e-02
4.300000000000000000e+01,7.736906245491541323e-02
4.303999999999999915e+01,7.727864136758991198e-02
4.307999999999999829e+01,7.554708686533448403e-02
4.311999999999999744e+01,9.103172830483476086e-02
4.315999999999999659e+01,6.675059471052061100e-02
4.320000000000000284e+01,1.043693325586220327e-01
4.324000000000000199e+01,1.305082843152435834e-01
4.328000000000000114e+01,1.115521823504286719e-01
4.332000000000000028e+01,1.048929194329284859e-01
4.335999999999999943e+01,1.105304853773542845e-01
4.339999999999999858e+01,1.329742338018570225e-01
4.343999999999999773e+01,1.029439288121221929e-01
4.347999999999999687e+01,1.294841758356265471e-01
4.352000000000000313e+01,1.273269945836881245e-01
4.356000000000000227e+01,1.456654345458952005e-01
4.360000000000000142e+01,1.640023773389520101e-01
4.364000000000000057e+01,1.446231336933209710e-01
4.367999999999999972e+01,1.535283818208741102e-01
4.371999999999999886e+01,1.370156880577061420e-01
4.375999999999999801e+01,1.635453835994380434e-01
4.379999999999999716e+01,1.544085627807181005e-01
4.384000000000000341e+01,1.715064821738368772e-01
4.388000000000000256e+01,1.832735849686288887e-01
4.392000000000000171e+01,1.770016538970030362e-01
4.396000000000000085e+01,2.133621190393755473e-01
4.400000000000000000e+01,1.706021475147898314e-01
4.403999999999999915e+01,2.094190574094484392e-01
4.407999999999999829e+01,2.096997844982274872e-01
4.411999999999999744e+01,2.329356431894595014e-01
4.415999999999999659e+01,2.225546046715321802e-01
4.420000000000000284e+01,2.404579255167363094e-01
4.424000000000000199e+01,2.345829407169992276e-01
4.428000000000000114e+01,2.344454758919183868e-01
4.432000000000000028e+01,2.306168510850678255e-01
4.435999999999999943e+01,2.378549740135520452e-01
4.439999999999999858e+01,2.184451554078334357e-01
4.443999999999999773e+01,2.408477264635327242e-01
4.447999999999999687e+01,1.956081192184377371e-01
4.452000000000000313e+01,1.934107077558577248e-01
4.456000000000000227e+01,1.887519016910505221e-01
4.460000000000000142e+01,1.849112281502925115e-01
4.464000000000000057e+01,1.671307590457018211e-01
4.467999999999999972e+01,1.477087491106341410e-01
4.471999999999999886e+01,1.639499250798916452e-01
4.475999999999999801e+01,1.330459596485411289e-01
4.479999999999999716e+01,1.599420366044779773e-01
4.484000000000000341e+01,1.421526047727784126e-01
4.488000000000000256e+01,1.219016968557421338e-01
4.492000000000000171e+01,1.643701067373248559e-01
4.496000000000000085e+01,9.943182618950956175e-02
4.500000000000000000e+01,8.901399979037302734e-02
4.503999999999999915e+01,8.802297931913136142e-02
4.507999999999999829e+01,9.686869675435381966e-02
4.511999999999999744e+01,1.163710262385680982e-01
4.515999999999999659e+01,9.446730276370166046e-02
4.520000000000000284e+01,1.156056019197426593e-01
4.524000000000000199e+01,9.082846394238612564e-02
4.528000000000000114e+01,9.064593084704332393e-02
4.532000000000000028e+01,9.989013238187467725e-02
4.535999999999999943e+01,1.001136609833749580e-01
4.539999999999999858e+01,7.450887774387175699e-02
4.543999999999999773e+01,1.050642052696046519e-01
4.547999999999999687e+01,6.633733120399361305e-02
4.552000000000000313e+01,7.803135723742747609e-02
4.556000000000000227e+01,6.963622098371718971e-02
4.560000000000000142e+01,8.583560812891119496e-02
4.564000000000000057e+01,7.825633314056061607e-02
4.567999999999999972e+01,1.014206936397091668e-01
4.571999999999999886e+01,6.801099851788432182e-02
4.575999999999999801e+01,8.338237372693951821e-02
4.579999999999999716e+01,7.948440986443482126e-02
4.584000000000000341e+01,9.526160232100493175e-02
4.588000000000000256e+01,8.930978235148891164e-02
4.592000000000000171e+01,6.490847708216311573e-02
4.596000000000000085e+01,7.780981062594610753e-02
4.600000000000000000e+01,7.144175417122582139e-02
4.603999999999999915e+01,4.457447104073904848e-02
4.607999999999999829e+01,4.845072154386482338e-02
4.611999999999999744e+01,5.478448618210288168e-02
4.615999999999999659e+01,7.341436670505949169e-02
4.620000000000000284e+01,5.268764026862067518e-02
4.624000000000000199e+01,4.343712501820690824e-02
4.628000000000000114e+01,6.411020814654611044e-02
4.632000000000000028e+01,4.706642241515628794e-02
4.635999999999999943e+01,9.684100944797464916e-02
4.639999999999999858e+01,6.872437518238874721e-02
4.643999999999999773e+01,6.561199258650339539e-02
4.647999999999999687e+01,6.454709029327385106e-02
4.652000000000000313e+01,4.872202939502771196e-02
4.656000000000000227e+01,4.560292469157192774e-02
4.660000000000000142e+01,7.814652717917373870e-02
4.664000000000000057e+01,6.436439388081588442e-02
4.667999999999999972e+01,5.877882241754271014e-02
4.671999999999999886e+01,4.253246306189106818e-02
4.675999999999999801e+01,5.743940635220270291e-02
4.679999999999999716e+01,5.184692944436288670e-02
4.684000000000000341e+01,5.691062661380205667e-02
4.688000000000000256e+01,6.320181790409408473e-02
4.692000000000000171e+01,6.334153417860377555e-02
4.696000000000000085e+01,5.487011226819361182e-02
4.700000000000000000e+01,6.279401398892142661e-02
4.703999999999999915e+01,5.677750902249636966e-02
4.707999999999999829e+01,5.157850508602269263e-02
4.711999999999999744e+01,5.826543042098141639e-02
4.715999999999999659e+01,3.379434762637932577e-02
4.720000000000000284e+01,5.195483602929281547e-02
4.724000000000000199e+01,6.191405711352390012e-02
4.728000000000000114e+01,4.481466115160937652e-02
4.732000000000000028e+01,5.517894576459351358e-02
4.735999999999999943e+01,5.488227951898028839e-02
4.739999999999999858e+01,5.294337983646014989e-02
4.743999999999999773e+01,5.059206302351886703e-02
4.747999999999999687e+01,5.315756702622360941e-02
4.752000000000000313e+01,5.285098054398103956e-02
4.756000000000000227e+01,6.770974860556075448e-02
4.760000000000000142e+01,5.223028082622029750e-02
4.764000000000000057e+01,4.412724610472013032e-02
4.767999999999999972e+01,6.430768461753656740e-02
4.771999999999999886e+01,6.357852650430419195e-02
4.775999999999999801e+01,7.473513469628549621e-02
4.779999999999999716e+01,7.318096917060346041e-02
4.784000000000000341e+01,6.793474734894833222e-02
4.788000000000000256e+01,5.817657471801526009e-02
4.792000000000000171e+01,6.235383847053191375e-02
4.796000000000000085e+01,8.333612356881665850e-02
4.800000000000000000e+01,7.152041798854580357e-02
4.803999999999999915e+01,6.913075443201899262e-02
4.807999999999999829e+01,6.796827943468469746e-02
4.811999999999999744e+01,7.459205743448481252e-02
4.815999999999999659e+01,5.128739916188149867e-02
4.820000000000000284e+01,2.593036158063973667e-02
4.824000000000000199e+01,5.960231693513377838e-02
4.828000000000000114e+01,6.867505359251420416e-02
4.832000000000000028e+01,6.831642143384357435e-02
4.835999999999999943e+01,5.073750915852855842e-02
4.839999999999999858e+01,5.898223379678523004e-02
4.843999999999999773e+01,3.401891355325264293e-02
4.847999999999999687e+01,3.446926768855637646e-02
4.852000000000000313e+01,3.655664050773544532e-02
4.856000000000000227e+01,7.717581658163390201e-02
4.860000000000000142e+01,6.572956749011384103e-02
4.864000000000000057e+01,8.625602665920571732e-02
4.867999999999999972e+01,4.241877537335752429e-02
4.871999999999999886e+01,7.400808135690666034e-02
4.875999999999999801e+01,7.361908746743164866e-02
4.879999999999999716e+01,5.682958574995305989e-02
4.884000000000000341e+01,7.160279920218476368e-02
4.888000000000000256e+01,5.480762438918435064e-02
4.892000000000000171e+01,8.556288876948436872e-02
4.896000000000000085e+01,4.047599080629567248e-02
4.900000000000000000e+01,7.327523179853258350e-02
4.903999999999999915e+01,6.958673781648491707e-02
4.907999999999999829e+01,5.810645015183403539e-02
4.911999999999999744e+01,7.572915337542375502e-02
4.915999999999999659e+01,5.399449592085604072e-02
4.920000000000000284e+01,5.972304032791913436e-02
4.924000000000000199e+01,7.036795739352658119e-02
4.928000000000000114e+01,6.584207089834079318e-02
4.932000000000000028e+01,6.336294154321510386e-02
4.935999999999999943e+01,7.768847704525375097e-02
4.939999999999999858e+01,7.520340977450075404e-02
4.943999999999999773e+01,8.460368102263704504e-02
4.947999999999999687e+01,6.653483286429252852e-02
4.952000000000000313e+01,6.199107150989263681e-02
4.956000000000000227e+01,6.769284946238361689e-02
4.960000000000000142e+01,6.683252781409287913e-02
4.964000000000000057e+01,4.342235198526436801e-02
4.967999999999999972e+01,6.182323153193744480e-02
4.971999999999999886e+01,5.193504623188145014e-02
4.975999999999999801e+01,7.401928400155433074e-02
4.979999999999999716e+01,8.093258580038126260e-02
4.984000000000000341e+01,7.964395823026192145e-02
4.988000000000000256e+01,1.082780123539147377e-01
4.992000000000000171e+01,6.762873430808101494e-02
4.996000000000000085e+01,7.903899443898168564e-02
5.000000000000000000e+01,7.240867252438605572e-02
5.003999999999999915e+01,7.356411470826829113e-02
5.007999999999999829e+01,6.651756641087221145e-02
5.011999999999999744e+01,8.693398571116742191e-02
5.015999999999999659e+01,6.430331022296503773e-02
5.020000000000000284e+01,6.216656517438817753e-02
5.024000000000000199e+01,6.002663218214114582e-02
5.028000000000000114e+01,7.387124545520276642e-02
5.032000000000000028e+01,9.140212988944013128e-02
5.035999999999999943e+01,8.064378651072957871e-02
5.039999999999999858e+01,6.578279280721271993e-02
5.043999999999999773e+01,6.608642029953351593e-02
5.047999999999999687e+01,5.982772411252188643e-02
5.052000000000000313e+01,6.709386009473797263e-02
5.056000000000000227e+01,7.640643746996519936e-02
5.060000000000000142e+01,6.193908972345207181e-02
5.064000000000000057e+01,6.222637008187505148e-02
5.067999999999999972e+01,6.824954075276638832e-02
5.071999999999999886e+01,6.730038446803512930e-02
5.075999999999999801e+01,6.593796566562273864e-02
5.079999999999999716e+01,6.088273684847543554e-02
5.084000000000000341e+01,7.017214304536281699e-02
5.088000000000000256e+01,6.634004908570070858e-02
5.092000000000000171e+01,8.874089252408198791e-02
5.096000000000000085e+01,8.777166133618297117e-02
5.100000000000000000e+01,9.007858599389402532e-02
5.103999999999999915e+01,8.992246601641254444e-02
5.107999999999999829e+01,9.878167180917792056e-02
5.111999999999999744e+01,6.951284433161507292e-02
5.115999999999999659e+01,7.426579425496836195e-02
5.120000000000000284e+01,6.466733604678827352e-02
5.124000000000000199e+01,6.203445204750951403e-02
5.128000000000000114e+01,8.235487646611103218e-02
5.132000000000000028e+01,7.766536593410160172e-02
5.135999999999999943e+01,7.379226659545531919e-02
5.139999999999999858e+01,8.959290780685806588e-02
5.143999999999999773e+01,6.275607046128378608e-02
5.147999999999999687e+01,7.199063985330680926e-02
5.152000000000000313e+01,6.769360395860342383e-02
5.156000000000000227e+01,7.897084623281293292e-02
5.160000000000000142e+01,7.917611583326764069e-02
5.164000000000000057e+01,6.666963391874615452e-02
5.167999999999999972e+01,7.588653207634366016e-02
5.171999999999999886e+01,8.059050162735049982e-02
5.175999999999999801e+01,7.586222641888035190e-02
5.179999999999999716e+01,7.277013469241430665e-02
5.184000000000000341e+01,8.033294386964272282e-02
5.188000000000000256e+01,7.313422959977222693e-02
5.192000000000000171e+01,1.007769835363492156e-01
5.196000000000000085e+01,7.553357240694290320e-02
5.200000000000000000e+01,8.431172478529036507e-02
5.203999999999999915e+01,6.152068425270051238e-02
5.207999999999999829e+01,9.693777453061745708e-02
5.211999999999999744e+01,7.372946870558240440e-02
5.215999999999999659e+01,8.003332184320698095e-02
5.220000000000000284e+01,9.084285175665580969e-02
5.224000000000000199e+01,7.049307999618216469e-02
5.228000000000000114e+01,7.391624634678807537e-02
5.232000000000000028e+01,8.635442272059185020e-02
5.235999999999999943e+01,8.034147394700928702e-02
5.239999999999999858e+01,7.719438236647524487e-02
5.243999999999999773e+01,8.798157622047064752e-02
5.247999999999999687e+01,8.974628414195107151e-02
5.252000000000000313e+01,8.945751273281621341e-02
5.256000000000000227e+01,7.727663987268193480e-02
5.260000000000000142e+01,7.657035872177361813e-02
5.264000000000000057e+01,9.553750237386544886e-02
5.267999999999999972e+01,1.026125140187918727e-01
5.271999999999999886e+01,8.344740773262930567e-02
5.275999999999999801e+01,9.051477031663111850e-02
5.279999999999999716e+01,7.052211027085038275e-02
5.284000000000000341e+01,1.001286020700705715e-01
5.288000000000000256e+01,9.939551355706567615e-02
5.292000000000000171e+01,9.783867035143320456e-02
5.296000000000000085e+01,8.889898764445414159e-02
5.300000000000000000e+01,1.016823488917677765e-01
5.303999999999999915e+01,8.002666744572033142e-02
5.307999999999999829e+01,7.230510846798353375e-02
5.311999999999999744e+01,8.589662072441529850e-02
5.315999999999999659e+01,6.586894405923621187e-02
5.320000000000000284e+01,7.084379773307165895e-02
5.324000000000000199e+01,8.770302231387230862e-02
5.328000000000000114e+01,8.447111882751483225e-02
5.332000000000000028e+01,9.025397072963822764e-02
5.335999999999999943e+01,9.603284022777490436e-02
5.339999999999999858e+01,1.013977749725779448e-01
5.343999999999999773e+01,5.141651480826787968e-02
5.347999999999999687e+01,7.604071552418668889e-02
5.352000000000000313e+01,8.918251250373601668e-02
5.356000000000000227e+01,8.551264743007155888e-02
5.360000000000000142e+01,7.486972205279975034e-02
5.364000000000000057e+01,9.373857877880661937e-02
5.367999999999999972e+01,8.185770932085678631e-02
5.371999999999999886e+01,7.284236093812911095e-02
5.375999999999999801e+01,8.554986298730944683e-02
5.379999999999999716e+01,9.702344410135309294e-02
5.384000000000000341e+01,9.783442432383422649e-02
5.388000000000000256e+01,1.080699595033130650e-01
5.392000000000000171e+01,8.796564955046130840e-02
5.396000000000000085e+01,1.068017099888160099e-01
5.400000000000000000e+01,9.078854112052324454e-02
5.403999999999999915e+01,1.026472838457896802e-01
5.407999999999999829e+01,8.375619853321274177e-02
5.411999999999999744e+01,8.863758280383644828e-02
5.415999999999999659e+01,8.736564850332771692e-02
5.420000000000000284e+01,9.879772498837237349e-02
5.424000000000000199e+01,1.258033972212889429e-01
5.428000000000000114e+01,1.023819666194277778e-01
5.432000000000000028e+01,8.100601998404240167e-02
5.435999999999999943e+01,1.022598213616000562e-01
5.439999999999999858e+01,8.415492777508387645e-02
5.443999999999999773e+01,9.474172825615659321e-02
5.447999999999999687e+01,8.646692160028514318e-02
5.452000000000000313e+01,1.089334994610159785e-01
5.456000000000000227e+01,9.286122594403457831e-02
5.460000000000000142e+01,8.293378673538960577e-02
5.464000000000000057e+01,7.669151866594349498e-02
5.467999999999999972e+01,8.684261863301004358e-02
5.471999999999999886e+01,8.387124064621449826e-02
5.475999999999999801e+01,8.335517675057732556e-02
5.479999999999999716e+01,1.074312936144495439e-01
5.484000000000000341e+01,6.591230498165151497e-02
5.488000000000000256e+01,9.776859424860435965e-02
5.492000000000000171e+01,8.083738637039333819e-02
5.496000000000000085e+01,8.275912821472306002e-02
5.500000000000000000e+01,1.002542722845397166e-01
5.503999999999999915e+01,8.576951737531028630e-02
5.507999999999999829e+01,1.028458887151579432e-01
5.511999999999999744e+01,1.076195645751728824e-01
5.515999999999999659e+01,9.066186499892936457e-02
5.520000000000000284e+01,1.138740465587178563e-01
5.524000000000000199e+01,8.952847598210754432e-02
5.528000000000000114e+01,9.141473259617505231e-02
5.532000000000000028e+01,8.632749093492239623e-02
5.535999999999999943e+01,8.205564192816548752e-02
5.539999999999999858e+01,8.146877053822272619e-02
5.543999999999999773e+01,8.784640389137056415e-02
5.547999999999999687e+01,8.315107658806199231e-02
5.552000000000000313e+01,1.116565321503877051e-01
5.556000000000000227e+01,9.014450110945643191e-02
5.560000000000000142e+01,1.079823650227540871e-01
5.564000000000000057e+01,9.507000366805003211e-02
5.567999999999999972e+01,9.691098705930917268e-02
5.571999999999999886e+01,7.415085727116127456e-02
5.575999999999999801e+01,1.013990779585993013e-01
5.579999999999999716e+01,8.108940391419709737e-02
5.584000000000000341e+01,8.783129879294765407e-02
5.588000000000000256e+01,9.497851175218309516e-02
5.592000000000000171e+01,9.474213149131006928e-02
5.596000000000000085e+01,9.819058625180969446e-02
5.600000000000000000e+01,8.359693115851188350e-02
5.603999999999999915e+01,7.637757019143270876e-02
5.607999999999999829e+01,8.309156778851360670e-02
5.611999999999999744e+01,1.004593764527009631e-01
5.615999999999999659e+01,9.281601773424764945e-02
5.620000000000000284e+01,7.778899449796532195e-02
5.624000000000000199e+01,9.186314915073952314e-02
5.628000000000000114e+01,1.014232140626142309e-01
5.632000000000000028e+01,9.786039360507975404e-02
5.635999999999999943e+01,1.008519014627382304e-01
5.639999999999999858e+01,8.006200731729846976e-02
5.643999999999999773e+01,9.739196774105118859e-02
5.647999999999999687e+01,9.831946474217490017e-02
5.652000000000000313e+01,7.915500865965759136e-02
5.656000000000000227e+01,9.852031875412488315e-02
5.660000000000000142e+01,9.328429159063431064e-02
5.664000000000000057e+01,9.132298413295084072e-02
5.667999999999999972e+01,7.418898881756941233e-02
5.671999999999999886e+01,9.107535513407834238e-02
5.675999999999999801e+01,9.852820351752583639e-02
5.679999999999999716e+01,7.851006856836514891e-02
5.684000000000000341e+01,1.064502982695056249e-01
5.688000000000000256e+01,9.093177987289299824e-02
5.692000000000000171e+01,9.508559644269232169e-02
5.696000000000000085e+01,8.037717438144968696e-02
5.700000000000000000e+01,7.386268632501376274e-02
5.703999999999999915e+01,6.529356798904234482e-02
5.707999999999999829e+01,8.131604984542589731e-02
5.711999999999999744e+01,8.872480642816631125e-02
5.715999999999999659e+01,7.809115778083779158e-02
5.720000000000000284e+01,9.327890526157256446e-02
5.724000000000000199e+01,9.165405363333541111e-02
5.728000000000000114e+01,9.453358523656101020e-02
5.732000000000000028e+01,8.551980332753493508e-02
5.735999999999999943e+01,9.166888054210588221e-02
5.739999999999999858e+01,7.854566492240129538e-02
5.743999999999999773e+01,9.493326379405139792e-02
5.747999999999999687e+01,8.384970618148582244e-02
5.752000000000000313e+01,7.563070203221826382e-02
5.756000000000000227e+01,1.038914986054277484e-01
5.760000000000000142e+01,8.951324807180434384e-02
5.764000000000000057e+01,8.373871074072701537e-02
5.767999999999999972e+01,8.287839695118373595e-02
5.771999999999999886e+01,6.725507264779512218e-02
5.775999999999999801e+01,9.016120895973075977e-02
5.779999999999999716e+01,7.944697484496929252e-02
5.784000000000000341e+01,6.380831159519181894e-02
5.788000000000000256e+01,7.030139184624698001e-02
5.792000000000000171e+01,7.924898154275540618e-02
5.796000000000000085e+01,8.737153318766324728e-02
5.800000000000000000e+01,9.097955711995847627e-02
5.803999999999999915e+01,8.720344800654551698e-02
5.807999999999999829e+01,8.588180759703109568e-02
5.811999999999999744e+01,9.070410518164985503e-02
5.815999999999999659e+01,7.912351155731520147e-02
5.820000000000000284e+01,9.377400159028528859e-02
5.824000000000000199e+01,8.710227407602694205e-02
5.828000000000000114e+01,9.108380761788657798e-02
5.832000000000000028e+01,8.112206219298706555e-02
5.835999999999999943e+01,8.755274774884208577e-02
5.839999999999999858e+01,7.143134852403958124e-02
5.843999999999999773e+01,6.719299610567487646e-02
5.847999999999999687e+01,7.073825866877783697e-02
5.852000000000000313e+01,8.944608497920610024e-02
5.856000000000000227e+01,8.970120740700369966e-02
5.860000000000000142e+01,7.396326875053069183e-02
5.864000000000000057e+01,7.953699574458918120e-02
5.867999999999999972e+01,6.296850882422759532e-02
5.871999999999999886e+01,1.009169824642297542e-01
5.875999999999999801e+01,6.835004647197372163e-02
5.879999999999999716e+01,8.333103388201562600e-02
5.884000000000000341e+01,6.961069201275260632e-02
5.888000000000000256e+01,8.048149199335412340e-02
5.892000000000000171e+01,7.617903373449196047e-02
5.896000000000000085e+01,7.966006823243337864e-02
5.900000000000000000e+01,6.222863382471963134e-02
5.903999999999999915e+01,5.954968859032045564e-02
5.907999999999999829e+01,7.039339585197285087e-02
5.911999999999999744e+01,7.180298424263212298e-02
5.915999999999999659e+01,6.828780738044916421e-02
5.920000000000000284e+01,6.804669835919804899e-02
5.924000000000000199e+01,7.189953132140652903e-02
5.928000000000000114e+01,6.836791549085782793e-02
5.932000000000000028e+01,6.483079963340994401e-02
5.935999999999999943e+01,7.932562877783241873e-02
5.939999999999999858e+01,8.520615208145719544e-02
5.943999999999999773e+01,6.074542466911443672e-02
5.947999999999999687e+01,5.472655386643395653e-02
5.952000000000000313e+01,6.427993434032028275e-02
5.956000000000000227e+01,6.480902606789620823e-02
5.960000000000000142e+01,8.214017519313610016e-02
5.964000000000000057e+01,5.929141074046940380e-02
5.967999999999999972e+01,4.791543518323343465e-02
5.971999999999999886e+01,5.785085027103469002e-02
5.975999999999999801e+01,5.999175217745666977e-02
5.979999999999999716e+01,7.975454488251543239e-02
5.984000000000000341e+01,6.999586934563598040e-02
5.988000000000000256e+01,7.170993177724364898e-02
5.992000000000000171e+01,5.784053917071287076e-02
5.996000000000000085e+01,4.929473170251981451e-02
